X [s],L BICEPS BRACHII: EMG 4 [V],L BICEPS BRACHII: EMG 4->filter (FilterSlidingRMS39) [V]
0.000000e+000,0.000000e+000,0.000000e+000
7.941176e-004,0.000000e+000,0.000000e+000
1.588235e-003,0.000000e+000,0.000000e+000
2.382353e-003,0.000000e+000,0.000000e+000
3.176471e-003,0.000000e+000,0.000000e+000
3.970588e-003,0.000000e+000,0.000000e+000
4.764706e-003,0.000000e+000,0.000000e+000
5.558824e-003,0.000000e+000,0.000000e+000
6.352941e-003,0.000000e+000,0.000000e+000
7.147059e-003,0.000000e+000,0.000000e+000
7.941176e-003,0.000000e+000,0.000000e+000
8.735294e-003,0.000000e+000,0.000000e+000
9.529412e-003,0.000000e+000,0.000000e+000
1.032353e-002,0.000000e+000,0.000000e+000
1.111765e-002,0.000000e+000,0.000000e+000
1.191176e-002,0.000000e+000,0.000000e+000
1.270588e-002,0.000000e+000,0.000000e+000
1.350000e-002,0.000000e+000,0.000000e+000
1.429412e-002,0.000000e+000,0.000000e+000
1.508824e-002,0.000000e+000,0.000000e+000
1.588235e-002,0.000000e+000,0.000000e+000
1.667647e-002,0.000000e+000,0.000000e+000
1.747059e-002,0.000000e+000,0.000000e+000
1.826471e-002,0.000000e+000,0.000000e+000
1.905882e-002,0.000000e+000,0.000000e+000
1.985294e-002,0.000000e+000,0.000000e+000
2.064706e-002,0.000000e+000,0.000000e+000
2.144118e-002,0.000000e+000,0.000000e+000
2.223529e-002,0.000000e+000,0.000000e+000
2.302941e-002,0.000000e+000,0.000000e+000
2.382353e-002,0.000000e+000,0.000000e+000
2.461765e-002,0.000000e+000,0.000000e+000
2.541176e-002,0.000000e+000,0.000000e+000
2.620588e-002,0.000000e+000,0.000000e+000
2.700000e-002,0.000000e+000,0.000000e+000
2.779412e-002,0.000000e+000,0.000000e+000
2.858824e-002,0.000000e+000,0.000000e+000
2.938235e-002,0.000000e+000,0.000000e+000
3.017647e-002,0.000000e+000,0.000000e+000
3.097059e-002,0.000000e+000,0.000000e+000
3.176471e-002,0.000000e+000,0.000000e+000
3.255882e-002,0.000000e+000,0.000000e+000
3.335294e-002,0.000000e+000,0.000000e+000
3.414706e-002,0.000000e+000,0.000000e+000
3.494118e-002,0.000000e+000,0.000000e+000
3.573529e-002,0.000000e+000,0.000000e+000
3.652941e-002,0.000000e+000,0.000000e+000
3.732353e-002,0.000000e+000,0.000000e+000
3.811765e-002,0.000000e+000,0.000000e+000
3.891176e-002,0.000000e+000,0.000000e+000
3.970588e-002,0.000000e+000,0.000000e+000
4.050000e-002,0.000000e+000,0.000000e+000
4.129412e-002,0.000000e+000,0.000000e+000
4.208824e-002,0.000000e+000,0.000000e+000
4.288235e-002,0.000000e+000,0.000000e+000
4.367647e-002,0.000000e+000,0.000000e+000
4.447059e-002,0.000000e+000,0.000000e+000
4.526471e-002,0.000000e+000,0.000000e+000
4.605882e-002,0.000000e+000,0.000000e+000
4.685294e-002,0.000000e+000,0.000000e+000
4.764706e-002,0.000000e+000,0.000000e+000
4.844118e-002,0.000000e+000,0.000000e+000
4.923529e-002,0.000000e+000,0.000000e+000
5.002941e-002,0.000000e+000,0.000000e+000
5.082353e-002,0.000000e+000,0.000000e+000
5.161765e-002,0.000000e+000,0.000000e+000
5.241176e-002,0.000000e+000,0.000000e+000
5.320588e-002,0.000000e+000,0.000000e+000
5.400000e-002,0.000000e+000,0.000000e+000
5.479412e-002,0.000000e+000,0.000000e+000
5.558824e-002,0.000000e+000,0.000000e+000
5.638235e-002,0.000000e+000,0.000000e+000
5.717647e-002,0.000000e+000,0.000000e+000
5.797059e-002,0.000000e+000,0.000000e+000
5.876471e-002,0.000000e+000,0.000000e+000
5.955882e-002,0.000000e+000,0.000000e+000
6.035294e-002,0.000000e+000,0.000000e+000
6.114706e-002,0.000000e+000,0.000000e+000
6.194118e-002,0.000000e+000,0.000000e+000
6.273529e-002,0.000000e+000,0.000000e+000
6.352941e-002,0.000000e+000,0.000000e+000
6.432353e-002,0.000000e+000,0.000000e+000
6.511765e-002,0.000000e+000,0.000000e+000
6.591176e-002,0.000000e+000,0.000000e+000
6.670588e-002,0.000000e+000,0.000000e+000
6.750000e-002,0.000000e+000,0.000000e+000
6.829412e-002,0.000000e+000,0.000000e+000
6.908824e-002,0.000000e+000,0.000000e+000
6.988235e-002,0.000000e+000,0.000000e+000
7.067647e-002,0.000000e+000,0.000000e+000
7.147059e-002,0.000000e+000,0.000000e+000
7.226471e-002,0.000000e+000,0.000000e+000
7.305882e-002,0.000000e+000,0.000000e+000
7.385294e-002,0.000000e+000,0.000000e+000
7.464706e-002,0.000000e+000,0.000000e+000
7.544118e-002,0.000000e+000,0.000000e+000
7.623529e-002,0.000000e+000,0.000000e+000
7.702941e-002,0.000000e+000,0.000000e+000
7.782353e-002,0.000000e+000,0.000000e+000
7.861765e-002,0.000000e+000,0.000000e+000
7.941176e-002,0.000000e+000,0.000000e+000
8.020588e-002,0.000000e+000,0.000000e+000
8.100000e-002,0.000000e+000,0.000000e+000
8.179412e-002,0.000000e+000,0.000000e+000
8.258824e-002,0.000000e+000,0.000000e+000
8.338235e-002,0.000000e+000,0.000000e+000
8.417647e-002,0.000000e+000,0.000000e+000
8.497059e-002,0.000000e+000,0.000000e+000
8.576471e-002,0.000000e+000,0.000000e+000
8.655882e-002,0.000000e+000,0.000000e+000
8.735294e-002,0.000000e+000,0.000000e+000
8.814706e-002,0.000000e+000,0.000000e+000
8.894118e-002,0.000000e+000,0.000000e+000
8.973529e-002,0.000000e+000,0.000000e+000
9.052941e-002,0.000000e+000,0.000000e+000
9.132353e-002,0.000000e+000,0.000000e+000
9.211765e-002,0.000000e+000,0.000000e+000
9.291176e-002,0.000000e+000,0.000000e+000
9.370588e-002,0.000000e+000,0.000000e+000
9.450000e-002,-2.333104e-005,0.000000e+000
9.529412e-002,-1.426719e-005,0.000000e+000
9.608824e-002,-1.795987e-005,0.000000e+000
9.688235e-002,-2.098116e-005,0.000000e+000
9.767647e-002,-2.030976e-005,0.000000e+000
9.847059e-002,-1.930266e-005,0.000000e+000
9.926471e-002,-1.963836e-005,0.000000e+000
1.000588e-001,-2.316319e-005,0.000000e+000
1.008529e-001,-1.863127e-005,0.000000e+000
1.016471e-001,-1.795987e-005,0.000000e+000
1.024412e-001,-1.661708e-005,0.000000e+000
1.032353e-001,-1.460288e-005,0.000000e+000
1.040294e-001,-1.426719e-005,0.000000e+000
1.048235e-001,-1.762417e-005,0.000000e+000
1.056176e-001,-1.712062e-005,0.000000e+000
1.064118e-001,-1.762417e-005,0.000000e+000
1.072059e-001,-1.628138e-005,0.000000e+000
1.080000e-001,-1.493858e-005,0.000000e+000
1.087941e-001,-1.091020e-005,0.000000e+000
1.095882e-001,-1.124590e-005,0.000000e+000
1.103824e-001,-1.107805e-005,0.000000e+000
1.111765e-001,-1.174945e-005,0.000000e+000
1.119706e-001,-1.292439e-005,0.000000e+000
1.127647e-001,-1.661708e-005,0.000000e+000
1.135588e-001,-1.728847e-005,0.000000e+000
1.143529e-001,-1.712062e-005,0.000000e+000
1.151471e-001,-2.030976e-005,0.000000e+000
1.159412e-001,-2.232395e-005,0.000000e+000
1.167353e-001,-2.568093e-005,0.000000e+000
1.175294e-001,-2.500954e-005,0.000000e+000
1.183235e-001,-1.829557e-005,0.000000e+000
1.191176e-001,-1.091020e-005,0.000000e+000
1.199118e-001,-5.203327e-006,0.000000e+000
1.207059e-001,1.174945e-006,0.000000e+000
1.215000e-001,9.231709e-006,0.000000e+000
1.222941e-001,1.258869e-005,0.000000e+000
1.230882e-001,1.158160e-005,0.000000e+000
1.238824e-001,1.158160e-005,0.000000e+000
1.246765e-001,1.191730e-005,0.000000e+000
1.254706e-001,9.903105e-006,0.000000e+000
1.262647e-001,5.706874e-006,0.000000e+000
1.270588e-001,-2.517739e-006,0.000000e+000
1.278529e-001,-1.158160e-005,0.000000e+000
1.286471e-001,-2.265965e-005,0.000000e+000
1.294412e-001,-2.719158e-005,0.000000e+000
1.302353e-001,-2.836652e-005,0.000000e+000
1.310294e-001,-2.870222e-005,0.000000e+000
1.318235e-001,-2.702373e-005,0.000000e+000
1.326176e-001,-2.568093e-005,0.000000e+000
1.334118e-001,-2.366674e-005,0.000000e+000
1.342059e-001,-2.232395e-005,0.000000e+000
1.350000e-001,-2.064546e-005,0.000000e+000
1.357941e-001,-1.728847e-005,0.000000e+000
1.365882e-001,-1.594568e-005,0.000000e+000
1.373824e-001,-1.527428e-005,0.000000e+000
1.381765e-001,-1.443504e-005,0.000000e+000
1.389706e-001,-1.225299e-005,0.000000e+000
1.397647e-001,-1.091020e-005,0.000000e+000
1.405588e-001,-8.560311e-006,0.000000e+000
1.413529e-001,-8.896010e-006,0.000000e+000
1.421471e-001,-8.224612e-006,0.000000e+000
1.429412e-001,-1.057450e-005,0.000000e+000
1.437353e-001,-7.553216e-006,0.000000e+000
1.445294e-001,-5.706874e-006,0.000000e+000
1.453235e-001,-8.224612e-006,0.000000e+000
1.461176e-001,-7.049668e-006,0.000000e+000
1.469118e-001,-6.881819e-006,0.000000e+000
1.477059e-001,-9.903105e-006,0.000000e+000
1.485000e-001,-1.091020e-005,0.000000e+000
1.492941e-001,-8.560311e-006,0.000000e+000
1.500882e-001,-5.874723e-006,0.000000e+000
1.508824e-001,-7.217518e-006,0.000000e+000
1.516765e-001,-6.378271e-006,0.000000e+000
1.524706e-001,-7.553216e-006,0.000000e+000
1.532647e-001,-1.040665e-005,0.000000e+000
1.540588e-001,-1.057450e-005,0.000000e+000
1.548529e-001,-1.258869e-005,0.000000e+000
1.556471e-001,-7.553216e-006,0.000000e+000
1.564412e-001,-8.896010e-006,0.000000e+000
1.572353e-001,-1.124590e-005,0.000000e+000
1.580294e-001,-1.426719e-005,0.000000e+000
1.588235e-001,-1.191730e-005,0.000000e+000
1.596176e-001,-1.225299e-005,0.000000e+000
1.604118e-001,-1.359579e-005,0.000000e+000
1.612059e-001,-1.628138e-005,0.000000e+000
1.620000e-001,-1.628138e-005,0.000000e+000
1.627941e-001,-1.493858e-005,0.000000e+000
1.635882e-001,-1.460288e-005,0.000000e+000
1.643824e-001,-1.695277e-005,0.000000e+000
1.651765e-001,-1.863127e-005,0.000000e+000
1.659706e-001,-1.896696e-005,0.000000e+000
1.667647e-001,-1.560998e-005,0.000000e+000
1.675588e-001,-1.426719e-005,0.000000e+000
1.683529e-001,-1.225299e-005,0.000000e+000
1.691471e-001,-1.158160e-005,0.000000e+000
1.699412e-001,-1.225299e-005,0.000000e+000
1.707353e-001,-1.460288e-005,0.000000e+000
1.715294e-001,-1.628138e-005,0.000000e+000
1.723235e-001,-1.560998e-005,0.000000e+000
1.731176e-001,-1.577783e-005,0.000000e+000
1.739118e-001,-1.560998e-005,0.000000e+000
1.747059e-001,-1.258869e-005,0.000000e+000
1.755000e-001,-1.124590e-005,0.000000e+000
1.762941e-001,-1.242084e-005,0.000000e+000
1.770882e-001,-7.553216e-006,0.000000e+000
1.778824e-001,-5.874723e-006,0.000000e+000
1.786765e-001,-8.896010e-006,0.000000e+000
1.794706e-001,-1.091020e-005,0.000000e+000
1.802647e-001,-9.567407e-006,0.000000e+000
1.810588e-001,-1.292439e-005,0.000000e+000
1.818529e-001,-1.493858e-005,0.000000e+000
1.826471e-001,-1.158160e-005,0.000000e+000
1.834412e-001,-1.493858e-005,0.000000e+000
1.842353e-001,-1.762417e-005,0.000000e+000
1.850294e-001,-1.628138e-005,0.000000e+000
1.858235e-001,-1.493858e-005,0.000000e+000
1.866176e-001,-1.628138e-005,0.000000e+000
1.874118e-001,-1.225299e-005,0.000000e+000
1.882059e-001,-9.567407e-006,0.000000e+000
1.890000e-001,-1.023880e-005,0.000000e+000
1.897941e-001,-6.210422e-006,0.000000e+000
1.905882e-001,2.182040e-006,0.000000e+000
1.913824e-001,2.517739e-006,0.000000e+000
1.921765e-001,3.860533e-006,0.000000e+000
1.929706e-001,1.326009e-005,0.000000e+000
1.937647e-001,1.443504e-005,0.000000e+000
1.945588e-001,1.242084e-005,0.000000e+000
1.953529e-001,9.231709e-006,0.000000e+000
1.961471e-001,1.846342e-006,0.000000e+000
1.969412e-001,-2.182040e-006,0.000000e+000
1.977353e-001,-8.896010e-006,0.000000e+000
1.985294e-001,-1.443504e-005,0.000000e+000
1.993235e-001,-1.829557e-005,0.000000e+000
2.001176e-001,-2.165255e-005,0.000000e+000
2.009118e-001,-2.098116e-005,0.000000e+000
2.017059e-001,-2.232395e-005,0.000000e+000
2.025000e-001,-2.198825e-005,0.000000e+000
2.032941e-001,-2.333104e-005,0.000000e+000
2.040882e-001,-2.366674e-005,0.000000e+000
2.048824e-001,-2.299535e-005,0.000000e+000
2.056765e-001,-2.299535e-005,0.000000e+000
2.064706e-001,-2.333104e-005,0.000000e+000
2.072647e-001,-2.299535e-005,0.000000e+000
2.080588e-001,-2.098116e-005,0.000000e+000
2.088529e-001,-1.829557e-005,0.000000e+000
2.096471e-001,-1.359579e-005,0.000000e+000
2.104412e-001,-1.292439e-005,0.000000e+000
2.112353e-001,-1.426719e-005,0.000000e+000
2.120294e-001,-1.091020e-005,0.000000e+000
2.128235e-001,-1.191730e-005,0.000000e+000
2.136176e-001,-1.158160e-005,0.000000e+000
2.144118e-001,-9.735256e-006,0.000000e+000
2.152059e-001,-9.567407e-006,0.000000e+000
2.160000e-001,-8.224612e-006,0.000000e+000
2.167941e-001,-1.023880e-005,0.000000e+000
2.175882e-001,-1.225299e-005,0.000000e+000
2.183824e-001,-1.225299e-005,0.000000e+000
2.191765e-001,-1.258869e-005,0.000000e+000
2.199706e-001,-1.158160e-005,0.000000e+000
2.207647e-001,-4.867628e-006,0.000000e+000
2.215588e-001,-4.196231e-006,0.000000e+000
2.223529e-001,-9.231709e-006,0.000000e+000
2.231471e-001,-8.560311e-006,0.000000e+000
2.239412e-001,-6.210422e-006,0.000000e+000
2.247353e-001,-1.057450e-005,0.000000e+000
2.255294e-001,-1.493858e-005,0.000000e+000
2.263235e-001,-1.393149e-005,0.000000e+000
2.271176e-001,-1.393149e-005,0.000000e+000
2.279118e-001,-1.628138e-005,0.000000e+000
2.287059e-001,-1.661708e-005,0.000000e+000
2.295000e-001,-1.493858e-005,0.000000e+000
2.302941e-001,-1.661708e-005,0.000000e+000
2.310882e-001,-1.695277e-005,0.000000e+000
2.318824e-001,-1.762417e-005,0.000000e+000
2.326765e-001,-1.460288e-005,0.000000e+000
2.334706e-001,-1.191730e-005,0.000000e+000
2.342647e-001,-1.292439e-005,0.000000e+000
2.350588e-001,-1.644922e-005,0.000000e+000
2.358529e-001,-1.292439e-005,0.000000e+000
2.366471e-001,-1.191730e-005,0.000000e+000
2.374412e-001,-1.091020e-005,0.000000e+000
2.382353e-001,-1.023880e-005,0.000000e+000
2.390294e-001,-1.091020e-005,0.000000e+000
2.398235e-001,-1.124590e-005,0.000000e+000
2.406176e-001,-1.091020e-005,0.000000e+000
2.414118e-001,-1.023880e-005,0.000000e+000
2.422059e-001,-8.560311e-006,0.000000e+000
2.430000e-001,-4.531929e-006,0.000000e+000
2.437941e-001,-1.510643e-006,0.000000e+000
2.445882e-001,-1.678492e-007,0.000000e+000
2.453824e-001,1.678492e-007,0.000000e+000
2.461765e-001,-5.035477e-007,0.000000e+000
2.469706e-001,-2.182040e-006,0.000000e+000
2.477647e-001,-1.510643e-006,0.000000e+000
2.485588e-001,2.182040e-006,0.000000e+000
2.493529e-001,7.888914e-006,1.145347e-005
2.501471e-001,1.326009e-005,1.146212e-005
2.509412e-001,8.224612e-006,1.148652e-005
2.517353e-001,-1.678492e-006,1.149590e-005
2.525294e-001,-9.231709e-006,1.149629e-005
2.533235e-001,-1.443504e-005,1.150808e-005
2.541176e-001,-1.661708e-005,1.153688e-005
2.549118e-001,-2.198825e-005,1.157493e-005
2.557059e-001,-2.500954e-005,1.164125e-005
2.565000e-001,-2.719158e-005,1.172650e-005
2.572941e-001,-2.769513e-005,1.182647e-005
2.580882e-001,-2.903792e-005,1.192930e-005
2.588824e-001,-2.584878e-005,1.204133e-005
2.596765e-001,-2.366674e-005,1.212936e-005
2.604706e-001,-2.098116e-005,1.220267e-005
2.612647e-001,-1.896696e-005,1.225998e-005
2.620588e-001,-1.762417e-005,1.230662e-005
2.628529e-001,-1.963836e-005,1.234674e-005
2.636471e-001,-1.695277e-005,1.239638e-005
2.644412e-001,-1.661708e-005,1.243324e-005
2.652353e-001,-1.661708e-005,1.246856e-005
2.660294e-001,-1.426719e-005,1.250377e-005
2.668235e-001,-1.225299e-005,1.252967e-005
2.676176e-001,-1.342794e-005,1.254873e-005
2.684118e-001,-1.242084e-005,1.257159e-005
2.692059e-001,-1.225299e-005,1.259112e-005
2.700000e-001,-1.174945e-005,1.261009e-005
2.707941e-001,-1.023880e-005,1.262751e-005
2.715882e-001,-1.091020e-005,1.264072e-005
2.723824e-001,-1.091020e-005,1.265571e-005
2.731765e-001,-9.567407e-006,1.267068e-005
2.739706e-001,-9.567407e-006,1.268218e-005
2.747647e-001,-9.231709e-006,1.269367e-005
2.755588e-001,-1.091020e-005,1.270435e-005
2.763529e-001,-1.326009e-005,1.271926e-005
2.771471e-001,-1.359579e-005,1.274126e-005
2.779412e-001,-1.326009e-005,1.276434e-005
2.787353e-001,-1.393149e-005,1.278625e-005
2.795294e-001,-1.292439e-005,1.281040e-005
2.803235e-001,-1.158160e-005,1.283115e-005
2.811176e-001,-1.309224e-005,1.284778e-005
2.819118e-001,-1.292439e-005,1.286901e-005
2.827059e-001,-1.040665e-005,1.288966e-005
2.835000e-001,-6.210422e-006,1.290303e-005
2.842941e-001,-7.553216e-006,1.290779e-005
2.850882e-001,-9.231709e-006,1.291483e-005
2.858824e-001,-9.903105e-006,1.292533e-005
2.866765e-001,-8.896010e-006,1.293741e-005
2.874706e-001,-7.385367e-006,1.294715e-005
2.882647e-001,-7.217518e-006,1.295385e-005
2.890588e-001,-5.874723e-006,1.296025e-005
2.898529e-001,-9.567407e-006,1.296449e-005
2.906471e-001,-1.359579e-005,1.297573e-005
2.914412e-001,-1.124590e-005,1.299840e-005
2.922353e-001,-1.258869e-005,1.301388e-005
2.930294e-001,-1.292439e-005,1.303326e-005
2.938235e-001,-1.091020e-005,1.305365e-005
2.946176e-001,-1.057450e-005,1.306816e-005
2.954118e-001,-1.292439e-005,1.308178e-005
2.962059e-001,-1.728847e-005,1.310210e-005
2.970000e-001,-1.762417e-005,1.313837e-005
2.977941e-001,-1.661708e-005,1.317596e-005
2.985882e-001,-1.628138e-005,1.320929e-005
2.993824e-001,-1.695277e-005,1.324121e-005
3.001765e-001,-1.560998e-005,1.327573e-005
3.009706e-001,-1.258869e-005,1.330492e-005
3.017647e-001,-1.124590e-005,1.332387e-005
3.025588e-001,-1.158160e-005,1.333898e-005
3.033529e-001,-1.191730e-005,1.335498e-005
3.041471e-001,-1.443504e-005,1.337191e-005
3.049412e-001,-1.091020e-005,1.339670e-005
3.057353e-001,-1.091020e-005,1.341084e-005
3.065294e-001,-8.224612e-006,1.342496e-005
3.073235e-001,-6.881819e-006,1.343298e-005
3.081176e-001,-7.385367e-006,1.343860e-005
3.089118e-001,-8.896010e-006,1.344506e-005
3.097059e-001,-1.091020e-005,1.345443e-005
3.105000e-001,-1.426719e-005,1.346851e-005
3.112941e-001,-1.527428e-005,1.349255e-005
3.120882e-001,-1.493858e-005,1.352006e-005
3.128824e-001,-7.888914e-006,1.354632e-005
3.136765e-001,-8.224612e-006,1.355363e-005
3.144706e-001,-9.567407e-006,1.356157e-005
3.152647e-001,-6.881819e-006,1.357232e-005
3.160588e-001,-7.553216e-006,1.357787e-005
3.168529e-001,-6.378271e-006,1.358456e-005
3.176471e-001,-6.881819e-006,1.358933e-005
3.184412e-001,-8.224612e-006,1.359488e-005
3.192353e-001,-9.903105e-006,1.360280e-005
3.200294e-001,-6.881819e-006,1.361427e-005
3.208235e-001,-9.063859e-006,1.361981e-005
3.216176e-001,-1.258869e-005,1.362941e-005
3.224118e-001,-1.560998e-005,1.364792e-005
3.232059e-001,-1.795987e-005,1.367632e-005
3.240000e-001,-2.064546e-005,1.371382e-005
3.247941e-001,-2.098116e-005,1.376322e-005
3.255882e-001,-1.695277e-005,1.381406e-005
3.263824e-001,-1.829557e-005,1.384715e-005
3.271765e-001,-1.560998e-005,1.388559e-005
3.279706e-001,-1.510643e-005,1.391350e-005
3.287647e-001,-1.560998e-005,1.393960e-005
3.295588e-001,-1.158160e-005,1.396740e-005
3.303529e-001,-3.356985e-007,1.398269e-005
3.311471e-001,1.158160e-005,1.398270e-005
3.319412e-001,2.232395e-005,1.399797e-005
3.327353e-001,3.004501e-005,1.405455e-005
3.335294e-001,2.534523e-005,1.415645e-005
3.343235e-001,1.292439e-005,1.422852e-005
3.351176e-001,1.510643e-006,1.424721e-005
3.359118e-001,-6.881819e-006,1.424746e-005
3.367059e-001,-1.628138e-005,1.425275e-005
3.375000e-001,-2.030976e-005,1.428234e-005
3.382941e-001,-2.433814e-005,1.432825e-005
3.390882e-001,-2.668803e-005,1.439393e-005
3.398824e-001,-2.719158e-005,1.447251e-005
3.406765e-001,-2.702373e-005,1.455363e-005
3.414706e-001,-2.702373e-005,1.463332e-005
3.422647e-001,-2.668803e-005,1.471257e-005
3.430588e-001,-2.366674e-005,1.478946e-005
3.438529e-001,-2.500954e-005,1.484964e-005
3.446471e-001,-2.735943e-005,1.485834e-005
3.454412e-001,-2.568093e-005,1.491663e-005
3.462353e-001,-2.299535e-005,1.495256e-005
3.470294e-001,-1.762417e-005,1.496199e-005
3.478235e-001,-1.628138e-005,1.495114e-005
3.486176e-001,-1.493858e-005,1.493969e-005
3.494118e-001,-1.158160e-005,1.492236e-005
3.502059e-001,-1.292439e-005,1.487935e-005
3.510000e-001,-1.560998e-005,1.486007e-005
3.517941e-001,-1.695277e-005,1.485161e-005
3.525882e-001,-1.426719e-005,1.485282e-005
3.533824e-001,-1.359579e-005,1.485178e-005
3.541765e-001,-1.023880e-005,1.484978e-005
3.549706e-001,-7.721065e-006,1.482769e-005
3.557647e-001,-6.881819e-006,1.480260e-005
3.565588e-001,-6.881819e-006,1.477425e-005
3.573529e-001,-9.567407e-006,1.475077e-005
3.581471e-001,-1.426719e-005,1.473655e-005
3.589412e-001,-1.594568e-005,1.474568e-005
3.597353e-001,-1.493858e-005,1.475947e-005
3.605294e-001,-1.023880e-005,1.477031e-005
3.613235e-001,-5.539025e-006,1.476672e-005
3.621176e-001,-5.035477e-006,1.475201e-005
3.629118e-001,-5.874723e-006,1.472492e-005
3.637059e-001,-5.874723e-006,1.469630e-005
3.645000e-001,-4.196231e-006,1.466826e-005
3.652941e-001,-4.531929e-006,1.462533e-005
3.660882e-001,-5.874723e-006,1.457321e-005
3.668824e-001,-8.896010e-006,1.450476e-005
3.676765e-001,-8.224612e-006,1.444465e-005
3.684706e-001,-6.881819e-006,1.441518e-005
3.692647e-001,-1.091020e-005,1.440726e-005
3.700588e-001,-1.258869e-005,1.441742e-005
3.708529e-001,-1.124590e-005,1.443476e-005
3.716471e-001,-1.359579e-005,1.443931e-005
3.724412e-001,-1.359579e-005,1.444222e-005
3.732353e-001,-1.493858e-005,1.444781e-005
3.740294e-001,-1.493858e-005,1.445762e-005
3.748235e-001,-1.292439e-005,1.446655e-005
3.756176e-001,-1.225299e-005,1.447414e-005
3.764118e-001,-1.091020e-005,1.448707e-005
3.772059e-001,-6.881819e-006,1.449945e-005
3.780000e-001,-5.874723e-006,1.448992e-005
3.787941e-001,-8.392462e-006,1.443719e-005
3.795882e-001,-8.896010e-006,1.436322e-005
3.803824e-001,-9.735256e-006,1.428256e-005
3.811765e-001,-1.225299e-005,1.420104e-005
3.819706e-001,-8.896010e-006,1.413584e-005
3.827647e-001,-7.888914e-006,1.407031e-005
3.835588e-001,-6.210422e-006,1.401385e-005
3.843529e-001,-8.560311e-006,1.396151e-005
3.851471e-001,-1.426719e-005,1.392120e-005
3.859412e-001,-1.560998e-005,1.391029e-005
3.867353e-001,-1.628138e-005,1.390908e-005
3.875294e-001,-1.628138e-005,1.391271e-005
3.883235e-001,-1.359579e-005,1.391920e-005
3.891176e-001,-1.225299e-005,1.392317e-005
3.899118e-001,-9.903105e-006,1.392673e-005
3.907059e-001,-9.567407e-006,1.392956e-005
3.915000e-001,-9.231709e-006,1.393098e-005
3.922941e-001,-1.158160e-005,1.393299e-005
3.930882e-001,-1.527428e-005,1.393554e-005
3.938824e-001,-2.131685e-005,1.395567e-005
3.946765e-001,-2.165255e-005,1.400372e-005
3.954706e-001,-1.896696e-005,1.404926e-005
3.962647e-001,-1.661708e-005,1.408436e-005
3.970588e-001,-1.527428e-005,1.411020e-005
3.978529e-001,-1.493858e-005,1.412545e-005
3.986471e-001,-1.443504e-005,1.413718e-005
3.994412e-001,-1.393149e-005,1.415239e-005
4.002353e-001,-1.393149e-005,1.417033e-005
4.010294e-001,-1.359579e-005,1.418628e-005
4.018235e-001,-1.023880e-005,1.420245e-005
4.026176e-001,-7.217518e-006,1.420781e-005
4.034118e-001,-5.539025e-006,1.420151e-005
4.042059e-001,-4.867628e-006,1.419241e-005
4.050000e-001,-5.874723e-006,1.417728e-005
4.057941e-001,-8.224612e-006,1.417475e-005
4.065882e-001,-4.531929e-006,1.417346e-005
4.073824e-001,-2.853437e-006,1.416155e-005
4.081765e-001,-5.539025e-006,1.413956e-005
4.089706e-001,-7.553216e-006,1.412702e-005
4.097647e-001,-9.063859e-006,1.411652e-005
4.105588e-001,-1.225299e-005,1.410493e-005
4.113529e-001,-1.560998e-005,1.409195e-005
4.121471e-001,-1.628138e-005,1.408953e-005
4.129412e-001,-1.560998e-005,1.409426e-005
4.137353e-001,-1.762417e-005,1.409770e-005
4.145294e-001,-1.376364e-005,1.410032e-005
4.153235e-001,-9.231709e-006,1.408251e-005
4.161176e-001,-1.091020e-005,1.405143e-005
4.169118e-001,-1.393149e-005,1.403730e-005
4.177059e-001,-1.393149e-005,1.403623e-005
4.185000e-001,-1.493858e-005,1.404121e-005
4.192941e-001,-1.829557e-005,1.405130e-005
4.200882e-001,-2.047761e-005,1.407221e-005
4.208824e-001,-1.795987e-005,1.409551e-005
4.216765e-001,-1.493858e-005,1.410200e-005
4.224706e-001,-1.762417e-005,1.409968e-005
4.232647e-001,-1.661708e-005,1.410664e-005
4.240588e-001,-1.225299e-005,1.411031e-005
4.248529e-001,-1.258869e-005,1.410937e-005
4.256471e-001,-1.225299e-005,1.411298e-005
4.264412e-001,-1.242084e-005,1.411251e-005
4.272353e-001,-1.023880e-005,1.412348e-005
4.280294e-001,-5.539025e-006,1.413140e-005
4.288235e-001,-1.678492e-007,1.412594e-005
4.296176e-001,-1.510643e-006,1.411252e-005
4.304118e-001,-4.867628e-006,1.410245e-005
4.312059e-001,-1.124590e-005,1.408625e-005
4.320000e-001,-1.225299e-005,1.407532e-005
4.327941e-001,-1.107805e-005,1.407713e-005
4.335882e-001,-1.426719e-005,1.406576e-005
4.343824e-001,-1.510643e-005,1.405364e-005
4.351765e-001,-1.107805e-005,1.404946e-005
4.359706e-001,-1.359579e-005,1.403807e-005
4.367647e-001,-1.527428e-005,1.402896e-005
4.375588e-001,-1.510643e-005,1.403840e-005
4.383529e-001,-1.493858e-005,1.405390e-005
4.391471e-001,-1.628138e-005,1.406730e-005
4.399412e-001,-1.359579e-005,1.409291e-005
4.407353e-001,-1.057450e-005,1.411325e-005
4.415294e-001,-7.217518e-006,1.412514e-005
4.423235e-001,-4.867628e-006,1.412933e-005
4.431176e-001,-5.874723e-006,1.411218e-005
4.439118e-001,-7.721065e-006,1.409255e-005
4.447059e-001,-4.867628e-006,1.408185e-005
4.455000e-001,-7.049668e-006,1.407489e-005
4.462941e-001,-6.881819e-006,1.408012e-005
4.470882e-001,-4.867628e-006,1.408494e-005
4.478824e-001,-7.553216e-006,1.407867e-005
4.486765e-001,-8.224612e-006,1.406155e-005
4.494706e-001,-1.091020e-005,1.403127e-005
4.502647e-001,-1.225299e-005,1.399151e-005
4.510588e-001,-1.292439e-005,1.395846e-005
4.518529e-001,-1.426719e-005,1.392061e-005
4.526471e-001,-1.493858e-005,1.388856e-005
4.534412e-001,-1.191730e-005,1.385168e-005
4.542353e-001,-8.224612e-006,1.380354e-005
4.550294e-001,-9.567407e-006,1.375024e-005
4.558235e-001,-1.091020e-005,1.369951e-005
4.566176e-001,-1.158160e-005,1.364998e-005
4.574118e-001,-1.191730e-005,1.360387e-005
4.582059e-001,-1.292439e-005,1.356892e-005
4.590000e-001,-1.326009e-005,1.354923e-005
4.597941e-001,-1.560998e-005,1.354817e-005
4.605882e-001,-1.560998e-005,1.355717e-005
4.613824e-001,-1.560998e-005,1.356188e-005
4.621765e-001,-1.359579e-005,1.357651e-005
4.629706e-001,-9.567407e-006,1.358153e-005
4.637647e-001,-6.881819e-006,1.357653e-005
4.645588e-001,-6.881819e-006,1.357097e-005
4.653529e-001,-8.896010e-006,1.356579e-005
4.661471e-001,-1.158160e-005,1.356714e-005
4.669412e-001,-1.124590e-005,1.357057e-005
4.677353e-001,-1.242084e-005,1.356780e-005
4.685294e-001,-1.292439e-005,1.356828e-005
4.693235e-001,-1.426719e-005,1.356929e-005
4.701176e-001,-1.628138e-005,1.357743e-005
4.709118e-001,-1.695277e-005,1.360571e-005
4.717059e-001,-1.661708e-005,1.363725e-005
4.725000e-001,-1.493858e-005,1.365952e-005
4.732941e-001,-1.829557e-005,1.367699e-005
4.740882e-001,-1.829557e-005,1.371142e-005
4.748824e-001,-1.695277e-005,1.373729e-005
4.756765e-001,-1.242084e-005,1.374473e-005
4.764706e-001,-8.896010e-006,1.374012e-005
4.772647e-001,-8.224612e-006,1.372679e-005
4.780588e-001,-7.553216e-006,1.370387e-005
4.788529e-001,-5.874723e-006,1.367839e-005
4.796471e-001,-5.203327e-006,1.365641e-005
4.804412e-001,-5.539025e-006,1.362734e-005
4.812353e-001,-5.203327e-006,1.359731e-005
4.820294e-001,-8.224612e-006,1.356406e-005
4.828235e-001,-8.896010e-006,1.354696e-005
4.836176e-001,-1.225299e-005,1.353956e-005
4.844118e-001,-1.258869e-005,1.353758e-005
4.852059e-001,-1.091020e-005,1.352438e-005
4.860000e-001,-8.224612e-006,1.351873e-005
4.867941e-001,-1.023880e-005,1.350997e-005
4.875882e-001,-1.091020e-005,1.350830e-005
4.883824e-001,-1.225299e-005,1.350997e-005
4.891765e-001,-1.426719e-005,1.351364e-005
4.899706e-001,-1.493858e-005,1.352272e-005
4.907647e-001,-1.762417e-005,1.353497e-005
4.915588e-001,-1.779202e-005,1.355916e-005
4.923529e-001,-2.198825e-005,1.358770e-005
4.931471e-001,-2.232395e-005,1.364184e-005
4.939412e-001,-2.517739e-005,1.369963e-005
4.947353e-001,-2.500954e-005,1.377311e-005
4.955294e-001,-2.249180e-005,1.384523e-005
4.963235e-001,-1.695277e-005,1.390326e-005
4.971176e-001,-1.191730e-005,1.393559e-005
4.979118e-001,-8.224612e-006,1.395155e-005
4.987059e-001,-4.196231e-006,1.395873e-005
4.995000e-001,-1.007095e-006,1.395363e-005
5.002941e-001,3.189136e-006,1.393367e-005
5.010882e-001,9.567407e-006,1.392710e-005
5.018824e-001,1.057450e-005,1.393724e-005
5.026765e-001,8.224612e-006,1.394028e-005
5.034706e-001,9.231709e-006,1.392419e-005
5.042647e-001,1.158160e-005,1.390235e-005
5.050588e-001,6.546120e-006,1.386227e-005
5.058529e-001,-4.196231e-006,1.379519e-005
5.066471e-001,-6.210422e-006,1.371162e-005
5.074412e-001,-1.124590e-005,1.362676e-005
5.082353e-001,-1.661708e-005,1.354275e-005
5.090294e-001,-1.963836e-005,1.349657e-005
5.098235e-001,-1.913481e-005,1.347598e-005
5.106176e-001,-2.030976e-005,1.346722e-005
5.114118e-001,-2.165255e-005,1.347346e-005
5.122059e-001,-2.182040e-005,1.349214e-005
5.130000e-001,-2.232395e-005,1.350281e-005
5.137941e-001,-2.333104e-005,1.352767e-005
5.145882e-001,-2.098116e-005,1.355921e-005
5.153824e-001,-1.930266e-005,1.357846e-005
5.161765e-001,-1.829557e-005,1.359827e-005
5.169706e-001,-1.762417e-005,1.361987e-005
5.177647e-001,-1.527428e-005,1.363509e-005
5.185588e-001,-1.493858e-005,1.364432e-005
5.193529e-001,-1.426719e-005,1.365284e-005
5.201471e-001,-1.762417e-005,1.366048e-005
5.209412e-001,-2.030976e-005,1.368444e-005
5.217353e-001,-2.165255e-005,1.371855e-005
5.225294e-001,-1.963836e-005,1.375909e-005
5.233235e-001,-2.114900e-005,1.379309e-005
5.241176e-001,-1.896696e-005,1.383410e-005
5.249118e-001,-1.795987e-005,1.386566e-005
5.257059e-001,-1.863127e-005,1.388901e-005
5.265000e-001,-1.393149e-005,1.390864e-005
5.272941e-001,-1.292439e-005,1.390970e-005
5.280882e-001,-1.594568e-005,1.390869e-005
5.288824e-001,-1.493858e-005,1.391558e-005
5.296765e-001,-1.443504e-005,1.392200e-005
5.304706e-001,-1.443504e-005,1.393049e-005
5.312647e-001,-9.567407e-006,1.393471e-005
5.320588e-001,-7.888914e-006,1.392608e-005
5.328529e-001,-7.217518e-006,1.392081e-005
5.336471e-001,-8.224612e-006,1.392236e-005
5.344412e-001,-7.888914e-006,1.392357e-005
5.352353e-001,-9.567407e-006,1.392094e-005
5.360294e-001,-9.063859e-006,1.392019e-005
5.368235e-001,-6.881819e-006,1.392054e-005
5.376176e-001,-4.531929e-006,1.391972e-005
5.384118e-001,-2.517739e-006,1.391611e-005
5.392059e-001,-3.524834e-006,1.391288e-005
5.400000e-001,-6.210422e-006,1.390382e-005
5.407941e-001,-9.231709e-006,1.388706e-005
5.415882e-001,-1.107805e-005,1.388233e-005
5.423824e-001,-1.091020e-005,1.387823e-005
5.431765e-001,-1.023880e-005,1.387272e-005
5.439706e-001,-6.378271e-006,1.387109e-005
5.447647e-001,-4.531929e-006,1.386292e-005
5.455588e-001,-6.210422e-006,1.384608e-005
5.463529e-001,-8.224612e-006,1.381611e-005
5.471471e-001,-6.210422e-006,1.378808e-005
5.479412e-001,-2.853437e-006,1.376062e-005
5.487353e-001,-2.853437e-006,1.373085e-005
5.495294e-001,-3.860533e-006,1.369843e-005
5.503235e-001,-5.539025e-006,1.367181e-005
5.511176e-001,-5.539025e-006,1.365692e-005
5.519118e-001,-7.553216e-006,1.364575e-005
5.527059e-001,-9.567407e-006,1.363675e-005
5.535000e-001,-8.896010e-006,1.363085e-005
5.542941e-001,-9.063859e-006,1.361575e-005
5.550882e-001,-1.359579e-005,1.361143e-005
5.558824e-001,-1.393149e-005,1.361913e-005
5.566765e-001,-1.426719e-005,1.363391e-005
5.574706e-001,-1.493858e-005,1.365214e-005
5.582647e-001,-1.493858e-005,1.367179e-005
5.590588e-001,-1.628138e-005,1.368855e-005
5.598529e-001,-1.359579e-005,1.370553e-005
5.606471e-001,-9.231709e-006,1.370336e-005
5.614412e-001,-8.224612e-006,1.368614e-005
5.622353e-001,-5.539025e-006,1.366804e-005
5.630294e-001,-6.881819e-006,1.366436e-005
5.638235e-001,-6.881819e-006,1.366199e-005
5.646176e-001,-9.567407e-006,1.365685e-005
5.654118e-001,-1.225299e-005,1.366200e-005
5.662059e-001,-1.225299e-005,1.367284e-005
5.670000e-001,-1.426719e-005,1.368558e-005
5.677941e-001,-1.762417e-005,1.370374e-005
5.685882e-001,-1.762417e-005,1.373195e-005
5.693824e-001,-1.762417e-005,1.375657e-005
5.701765e-001,-2.098116e-005,1.378701e-005
5.709706e-001,-2.232395e-005,1.382830e-005
5.717647e-001,-1.829557e-005,1.386738e-005
5.725588e-001,-1.762417e-005,1.387784e-005
5.733529e-001,-1.376364e-005,1.387646e-005
5.741471e-001,-8.896010e-006,1.384927e-005
5.749412e-001,-7.721065e-006,1.380769e-005
5.757353e-001,-1.023880e-005,1.378139e-005
5.765294e-001,-1.174945e-005,1.375481e-005
5.773235e-001,-1.560998e-005,1.374257e-005
5.781176e-001,-1.829557e-005,1.374436e-005
5.789118e-001,-1.460288e-005,1.375491e-005
5.797059e-001,-7.217518e-006,1.376407e-005
5.805000e-001,-1.678492e-006,1.377008e-005
5.812941e-001,-2.853437e-006,1.375488e-005
5.820882e-001,-1.846342e-006,1.369802e-005
5.828824e-001,-1.510643e-006,1.359307e-005
5.836765e-001,-2.853437e-006,1.351788e-005
5.844706e-001,-4.196231e-006,1.349915e-005
5.852647e-001,-9.231709e-006,1.350096e-005
5.860588e-001,-1.560998e-005,1.350542e-005
5.868529e-001,-1.963836e-005,1.350290e-005
5.876471e-001,-2.299535e-005,1.349974e-005
5.884412e-001,-2.299535e-005,1.349224e-005
5.892353e-001,-1.896696e-005,1.347057e-005
5.900294e-001,-1.628138e-005,1.342561e-005
5.908235e-001,-1.493858e-005,1.337033e-005
5.916176e-001,-1.628138e-005,1.330979e-005
5.924118e-001,-1.560998e-005,1.325619e-005
5.932059e-001,-1.594568e-005,1.321812e-005
5.940000e-001,-1.695277e-005,1.317332e-005
5.947941e-001,-1.762417e-005,1.311746e-005
5.955882e-001,-2.030976e-005,1.307504e-005
5.963824e-001,-1.728847e-005,1.306087e-005
5.971765e-001,-1.359579e-005,1.305944e-005
5.979706e-001,-1.091020e-005,1.304965e-005
5.987647e-001,-1.225299e-005,1.303694e-005
5.995588e-001,-1.359579e-005,1.303890e-005
6.003529e-001,-1.292439e-005,1.304107e-005
6.011471e-001,-1.527428e-005,1.303171e-005
6.019412e-001,-1.779202e-005,1.302510e-005
6.027353e-001,-1.795987e-005,1.303891e-005
6.035294e-001,-1.762417e-005,1.305571e-005
6.043235e-001,-1.846342e-005,1.308079e-005
6.051176e-001,-2.030976e-005,1.311498e-005
6.059118e-001,-2.064546e-005,1.315924e-005
6.067059e-001,-1.661708e-005,1.320501e-005
6.075000e-001,-1.057450e-005,1.322725e-005
6.082941e-001,-3.524834e-006,1.321620e-005
6.090882e-001,3.860533e-006,1.318703e-005
6.098824e-001,7.888914e-006,1.316186e-005
6.106765e-001,8.392462e-006,1.315670e-005
6.114706e-001,1.225299e-005,1.316152e-005
6.122647e-001,1.191730e-005,1.317660e-005
6.130588e-001,8.896010e-006,1.318959e-005
6.138529e-001,6.881819e-006,1.319498e-005
6.146471e-001,6.210422e-006,1.319856e-005
6.154412e-001,5.035477e-007,1.320074e-005
6.162353e-001,-2.182040e-006,1.319661e-005
6.170294e-001,-5.539025e-006,1.318763e-005
6.178235e-001,-1.040665e-005,1.318316e-005
6.186176e-001,-1.359579e-005,1.319052e-005
6.194118e-001,-1.628138e-005,1.319847e-005
6.202059e-001,-1.762417e-005,1.321132e-005
6.210000e-001,-1.795987e-005,1.323350e-005
6.217941e-001,-2.064546e-005,1.325006e-005
6.225882e-001,-2.098116e-005,1.327904e-005
6.233824e-001,-2.030976e-005,1.330504e-005
6.241765e-001,-1.846342e-005,1.332768e-005
6.249706e-001,-1.225299e-005,1.334843e-005
6.257647e-001,-1.359579e-005,1.334843e-005
6.265588e-001,-1.779202e-005,1.335628e-005
6.273529e-001,-2.165255e-005,1.338834e-005
6.281471e-001,-2.165255e-005,1.343989e-005
6.289412e-001,-2.098116e-005,1.348701e-005
6.297353e-001,-2.232395e-005,1.352958e-005
6.305294e-001,-2.383459e-005,1.357699e-005
6.313235e-001,-2.517739e-005,1.362592e-005
6.321176e-001,-2.517739e-005,1.369060e-005
6.329118e-001,-2.534523e-005,1.375693e-005
6.337059e-001,-2.735943e-005,1.382665e-005
6.345000e-001,-2.635233e-005,1.390419e-005
6.352941e-001,-2.433814e-005,1.396030e-005
6.360882e-001,-2.131685e-005,1.400001e-005
6.368824e-001,-2.098116e-005,1.402153e-005
6.376765e-001,-1.712062e-005,1.404140e-005
6.384706e-001,-1.359579e-005,1.405368e-005
6.392647e-001,-1.225299e-005,1.405761e-005
6.400588e-001,-8.896010e-006,1.406351e-005
6.408529e-001,-6.881819e-006,1.406210e-005
6.416471e-001,-1.091020e-005,1.405781e-005
6.424412e-001,-7.385367e-006,1.405610e-005
6.432353e-001,-9.231709e-006,1.403584e-005
6.440294e-001,-1.023880e-005,1.399389e-005
6.448235e-001,-8.896010e-006,1.395241e-005
6.456176e-001,-7.217518e-006,1.392035e-005
6.464118e-001,-5.539025e-006,1.389470e-005
6.472059e-001,-5.874723e-006,1.387146e-005
6.480000e-001,-8.224612e-006,1.384979e-005
6.487941e-001,-8.560311e-006,1.383360e-005
6.495882e-001,-3.524834e-006,1.381968e-005
6.503824e-001,-2.853437e-006,1.379874e-005
6.511765e-001,-1.846342e-006,1.377833e-005
6.519706e-001,-8.392462e-007,1.376660e-005
6.527647e-001,-3.021286e-006,1.376066e-005
6.535588e-001,-3.524834e-006,1.375816e-005
6.543529e-001,-5.539025e-006,1.375686e-005
6.551471e-001,-9.231709e-006,1.375642e-005
6.559412e-001,-1.023880e-005,1.375845e-005
6.567353e-001,-9.567407e-006,1.376820e-005
6.575294e-001,-6.210422e-006,1.377785e-005
6.583235e-001,-8.392462e-007,1.377876e-005
6.591176e-001,2.182040e-006,1.377224e-005
6.599118e-001,3.189136e-006,1.376329e-005
6.607059e-001,6.546120e-006,1.374709e-005
6.615000e-001,1.091020e-005,1.372381e-005
6.622941e-001,1.661708e-005,1.370685e-005
6.630882e-001,1.997406e-005,1.371062e-005
6.638824e-001,1.493858e-005,1.372088e-005
6.646765e-001,1.174945e-006,1.372479e-005
6.654706e-001,-7.217518e-006,1.371506e-005
6.662647e-001,-1.628138e-005,1.370729e-005
6.670588e-001,-1.896696e-005,1.371553e-005
6.678529e-001,-2.098116e-005,1.373475e-005
6.686471e-001,-2.903792e-005,1.375989e-005
6.694412e-001,-3.407340e-005,1.381861e-005
6.702353e-001,-3.189136e-005,1.390381e-005
6.710294e-001,-2.970932e-005,1.398312e-005
6.718235e-001,-2.702373e-005,1.405802e-005
6.726176e-001,-2.433814e-005,1.410548e-005
6.734118e-001,-2.702373e-005,1.414113e-005
6.742059e-001,-2.702373e-005,1.420631e-005
6.750000e-001,-2.635233e-005,1.427026e-005
6.757941e-001,-2.568093e-005,1.433087e-005
6.765882e-001,-2.316319e-005,1.438689e-005
6.773824e-001,-1.963836e-005,1.443460e-005
6.781765e-001,-1.728847e-005,1.447370e-005
6.789706e-001,-1.628138e-005,1.450655e-005
6.797647e-001,-1.225299e-005,1.453537e-005
6.805588e-001,-8.224612e-006,1.454921e-005
6.813529e-001,-1.091020e-005,1.454277e-005
6.821471e-001,-1.023880e-005,1.453936e-005
6.829412e-001,-9.903105e-006,1.453741e-005
6.837353e-001,-1.174945e-005,1.452585e-005
6.845294e-001,-1.560998e-005,1.451596e-005
6.853235e-001,-1.191730e-005,1.452922e-005
6.861176e-001,-9.567407e-006,1.452453e-005
6.869118e-001,-8.224612e-006,1.450898e-005
6.877059e-001,-8.224612e-006,1.449134e-005
6.885000e-001,-7.553216e-006,1.447425e-005
6.892941e-001,-5.539025e-006,1.445134e-005
6.900882e-001,-7.553216e-006,1.443434e-005
6.908824e-001,-5.539025e-006,1.442830e-005
6.916765e-001,-4.867628e-006,1.442594e-005
6.924706e-001,-5.203327e-006,1.442594e-005
6.932647e-001,-3.524834e-006,1.442512e-005
6.940588e-001,-5.539025e-006,1.441991e-005
6.948529e-001,-1.242084e-005,1.442068e-005
6.956471e-001,-1.644922e-005,1.443222e-005
6.964412e-001,-2.198825e-005,1.445683e-005
6.972353e-001,-2.433814e-005,1.450738e-005
6.980294e-001,-2.400244e-005,1.456602e-005
6.988235e-001,-2.366674e-005,1.462150e-005
6.996176e-001,-2.500954e-005,1.466946e-005
7.004118e-001,-2.333104e-005,1.472097e-005
7.012059e-001,-2.081331e-005,1.476172e-005
7.020000e-001,-2.165255e-005,1.478647e-005
7.027941e-001,-1.829557e-005,1.481291e-005
7.035882e-001,-1.023880e-005,1.483361e-005
7.043824e-001,-5.539025e-006,1.483760e-005
7.051765e-001,-2.853437e-006,1.483107e-005
7.059706e-001,-5.035477e-007,1.481915e-005
7.067647e-001,2.517739e-006,1.480476e-005
7.075588e-001,7.217518e-006,1.479016e-005
7.083529e-001,1.057450e-005,1.477778e-005
7.091471e-001,1.863127e-005,1.477088e-005
7.099412e-001,1.963836e-005,1.478203e-005
7.107353e-001,1.426719e-005,1.479732e-005
7.115294e-001,5.539025e-006,1.479300e-005
7.123235e-001,-3.524834e-006,1.477640e-005
7.131176e-001,-1.141375e-005,1.476787e-005
7.139118e-001,-1.560998e-005,1.477681e-005
7.147059e-001,-1.460288e-005,1.479795e-005
7.155000e-001,-1.695277e-005,1.481237e-005
7.162941e-001,-1.896696e-005,1.482884e-005
7.170882e-001,-2.265965e-005,1.485386e-005
7.178824e-001,-2.299535e-005,1.489232e-005
7.186765e-001,-2.366674e-005,1.493095e-005
7.194706e-001,-2.265965e-005,1.496893e-005
7.202647e-001,-2.114900e-005,1.499533e-005
7.210588e-001,-1.795987e-005,1.501229e-005
7.218529e-001,-1.628138e-005,1.501722e-005
7.226471e-001,-1.661708e-005,1.502166e-005
7.234412e-001,-1.527428e-005,1.501545e-005
7.242353e-001,-1.779202e-005,1.500469e-005
7.250294e-001,-1.963836e-005,1.500778e-005
7.258235e-001,-1.527428e-005,1.503232e-005
7.266176e-001,-1.762417e-005,1.504864e-005
7.274118e-001,-1.728847e-005,1.507432e-005
7.282059e-001,-1.493858e-005,1.509985e-005
7.290000e-001,-1.628138e-005,1.511973e-005
7.297941e-001,-1.493858e-005,1.514478e-005
7.305882e-001,-1.393149e-005,1.516500e-005
7.313824e-001,-9.735256e-006,1.518253e-005
7.321765e-001,-7.049668e-006,1.518537e-005
7.329706e-001,-9.903105e-006,1.518229e-005
7.337647e-001,-1.258869e-005,1.517682e-005
7.345588e-001,-1.493858e-005,1.517682e-005
7.353529e-001,-1.225299e-005,1.518774e-005
7.361471e-001,-1.023880e-005,1.519639e-005
7.369412e-001,-1.158160e-005,1.519639e-005
7.377353e-001,-9.567407e-006,1.519797e-005
7.385294e-001,-8.224612e-006,1.519183e-005
7.393235e-001,-9.903105e-006,1.517758e-005
7.401176e-001,-1.258869e-005,1.516445e-005
7.409118e-001,-1.124590e-005,1.514847e-005
7.417059e-001,-1.124590e-005,1.512847e-005
7.425000e-001,-1.091020e-005,1.509085e-005
7.432941e-001,-9.903105e-006,1.505077e-005
7.440882e-001,-7.217518e-006,1.499397e-005
7.448824e-001,-7.217518e-006,1.493296e-005
7.456765e-001,-8.224612e-006,1.488449e-005
7.464706e-001,-7.217518e-006,1.486096e-005
7.472647e-001,-5.874723e-006,1.485132e-005
7.480588e-001,-4.867628e-006,1.484777e-005
7.488529e-001,-6.881819e-006,1.484842e-005
7.496471e-001,-1.091020e-005,1.485339e-005
7.504412e-001,-1.309224e-005,1.486506e-005
7.512353e-001,-1.493858e-005,1.487361e-005
7.520294e-001,-1.695277e-005,1.488553e-005
7.528235e-001,-1.628138e-005,1.490901e-005
7.536176e-001,-1.695277e-005,1.492821e-005
7.544118e-001,-1.980621e-005,1.494455e-005
7.552059e-001,-2.299535e-005,1.498174e-005
7.560000e-001,-1.762417e-005,1.503597e-005
7.567941e-001,-1.426719e-005,1.506475e-005
7.575882e-001,-1.560998e-005,1.507290e-005
7.583824e-001,-1.258869e-005,1.506947e-005
7.591765e-001,-8.224612e-006,1.504544e-005
7.599706e-001,-4.867628e-006,1.501382e-005
7.607647e-001,-1.510643e-006,1.497253e-005
7.615588e-001,-4.196231e-006,1.492283e-005
7.623529e-001,-5.874723e-006,1.487382e-005
7.631471e-001,-6.210422e-006,1.482408e-005
7.639412e-001,-1.040665e-005,1.476965e-005
7.647353e-001,-1.510643e-005,1.473382e-005
7.655294e-001,-1.376364e-005,1.471821e-005
7.663235e-001,-1.057450e-005,1.470248e-005
7.671176e-001,-1.023880e-005,1.468093e-005
7.679118e-001,-1.359579e-005,1.466699e-005
7.687059e-001,-1.393149e-005,1.466283e-005
7.695000e-001,-1.829557e-005,1.466180e-005
7.702941e-001,-1.795987e-005,1.466442e-005
7.710882e-001,-1.829557e-005,1.465466e-005
7.718824e-001,-1.762417e-005,1.464008e-005
7.726765e-001,-1.560998e-005,1.463191e-005
7.734706e-001,-1.560998e-005,1.460974e-005
7.742647e-001,-1.359579e-005,1.459708e-005
7.750588e-001,-1.560998e-005,1.458205e-005
7.758529e-001,-1.225299e-005,1.457075e-005
7.766471e-001,-7.721065e-006,1.456594e-005
7.774412e-001,-8.896010e-006,1.455420e-005
7.782353e-001,-7.049668e-006,1.453502e-005
7.790294e-001,-7.217518e-006,1.451601e-005
7.798235e-001,-7.553216e-006,1.449885e-005
7.806176e-001,-5.539025e-006,1.448222e-005
7.814118e-001,-8.896010e-006,1.447553e-005
7.822059e-001,-1.091020e-005,1.447739e-005
7.830000e-001,-9.567407e-006,1.448475e-005
7.837941e-001,-1.292439e-005,1.448738e-005
7.845882e-001,-1.426719e-005,1.449889e-005
7.853824e-001,-1.292439e-005,1.451119e-005
7.861765e-001,-1.393149e-005,1.452050e-005
7.869706e-001,-1.292439e-005,1.453658e-005
7.877647e-001,-1.107805e-005,1.455262e-005
7.885588e-001,-1.225299e-005,1.456535e-005
7.893529e-001,-1.258869e-005,1.458040e-005
7.901471e-001,-1.292439e-005,1.459349e-005
7.909412e-001,-1.158160e-005,1.460241e-005
7.917353e-001,-1.292439e-005,1.460366e-005
7.925294e-001,-1.158160e-005,1.460889e-005
7.933235e-001,-1.158160e-005,1.461208e-005
7.941176e-001,-1.225299e-005,1.462227e-005
7.949118e-001,-9.567407e-006,1.463637e-005
7.957059e-001,-6.378271e-006,1.464213e-005
7.965000e-001,-6.881819e-006,1.463920e-005
7.972941e-001,-4.196231e-006,1.464016e-005
7.980882e-001,-1.678492e-007,1.464118e-005
7.988824e-001,3.524834e-006,1.464030e-005
7.996765e-001,5.203327e-006,1.464003e-005
8.004706e-001,3.860533e-006,1.463964e-005
8.012647e-001,-8.392462e-007,1.463792e-005
8.020588e-001,-3.524834e-006,1.463179e-005
8.028529e-001,-9.063859e-006,1.462318e-005
8.036471e-001,-1.057450e-005,1.462351e-005
8.044412e-001,-1.091020e-005,1.462674e-005
8.052353e-001,-1.225299e-005,1.461957e-005
8.060294e-001,-1.393149e-005,1.461478e-005
8.068235e-001,-1.443504e-005,1.461375e-005
8.076176e-001,-1.628138e-005,1.461214e-005
8.084118e-001,-1.292439e-005,1.461671e-005
8.092059e-001,-1.107805e-005,1.460602e-005
8.100000e-001,-1.225299e-005,1.459925e-005
8.107941e-001,-1.258869e-005,1.460633e-005
8.115882e-001,-1.393149e-005,1.461623e-005
8.123824e-001,-1.762417e-005,1.463402e-005
8.131765e-001,-2.030976e-005,1.466263e-005
8.139706e-001,-1.980621e-005,1.470223e-005
8.147647e-001,-1.963836e-005,1.473477e-005
8.155588e-001,-1.712062e-005,1.476020e-005
8.163529e-001,-1.829557e-005,1.477562e-005
8.171471e-001,-1.829557e-005,1.478975e-005
8.179412e-001,-1.393149e-005,1.479234e-005
8.187353e-001,-1.359579e-005,1.477980e-005
8.195294e-001,-1.829557e-005,1.476624e-005
8.203235e-001,-1.795987e-005,1.475486e-005
8.211176e-001,-1.493858e-005,1.473588e-005
8.219118e-001,-1.359579e-005,1.472381e-005
8.227059e-001,-1.493858e-005,1.471021e-005
8.235000e-001,-1.560998e-005,1.471386e-005
8.242941e-001,-1.326009e-005,1.473165e-005
8.250882e-001,-1.023880e-005,1.474421e-005
8.258824e-001,-1.023880e-005,1.474421e-005
8.266765e-001,-1.107805e-005,1.474062e-005
8.274706e-001,-8.224612e-006,1.472755e-005
8.282647e-001,-9.231709e-006,1.469864e-005
8.290588e-001,-8.224612e-006,1.468477e-005
8.298529e-001,-4.531929e-006,1.468645e-005
8.306471e-001,-1.678492e-007,1.468838e-005
8.314412e-001,-5.539025e-006,1.468750e-005
8.322353e-001,-1.191730e-005,1.469045e-005
8.330294e-001,-1.493858e-005,1.470559e-005
8.338235e-001,-1.309224e-005,1.472886e-005
8.346176e-001,-1.560998e-005,1.474547e-005
8.354118e-001,-1.594568e-005,1.476257e-005
8.362059e-001,-1.577783e-005,1.476372e-005
8.370000e-001,-1.963836e-005,1.474896e-005
8.377941e-001,-1.762417e-005,1.473350e-005
8.385882e-001,-1.762417e-005,1.470990e-005
8.393824e-001,-1.493858e-005,1.470459e-005
8.401765e-001,-1.091020e-005,1.470004e-005
8.409706e-001,-9.231709e-006,1.468876e-005
8.417647e-001,-9.903105e-006,1.466925e-005
8.425588e-001,-1.091020e-005,1.465344e-005
8.433529e-001,-1.158160e-005,1.463873e-005
8.441471e-001,-1.225299e-005,1.462205e-005
8.449412e-001,-1.493858e-005,1.460457e-005
8.457353e-001,-1.158160e-005,1.458391e-005
8.465294e-001,-1.225299e-005,1.456591e-005
8.473235e-001,-1.359579e-005,1.456211e-005
8.481176e-001,-1.661708e-005,1.456931e-005
8.489118e-001,-1.426719e-005,1.458307e-005
8.497059e-001,-1.158160e-005,1.458512e-005
8.505000e-001,-9.903105e-006,1.458152e-005
8.512941e-001,-9.735256e-006,1.456675e-005
8.520882e-001,-1.426719e-005,1.454248e-005
8.528824e-001,-1.376364e-005,1.452945e-005
8.536765e-001,-1.510643e-005,1.451616e-005
8.544706e-001,-1.359579e-005,1.450379e-005
8.552647e-001,-1.359579e-005,1.447878e-005
8.560588e-001,-1.225299e-005,1.445221e-005
8.568529e-001,-9.567407e-006,1.443832e-005
8.576471e-001,-8.224612e-006,1.443608e-005
8.584412e-001,-9.567407e-006,1.444217e-005
8.592353e-001,-6.881819e-006,1.445062e-005
8.600294e-001,-6.210422e-006,1.444898e-005
8.608235e-001,-9.231709e-006,1.444547e-005
8.616176e-001,-9.231709e-006,1.443831e-005
8.624118e-001,-8.896010e-006,1.443204e-005
8.632059e-001,-8.224612e-006,1.443204e-005
8.640000e-001,-6.210422e-006,1.443428e-005
8.647941e-001,-8.896010e-006,1.443428e-005
8.655882e-001,-8.224612e-006,1.444298e-005
8.663824e-001,-6.881819e-006,1.444991e-005
8.671765e-001,-1.091020e-005,1.445175e-005
8.679706e-001,-1.091020e-005,1.445293e-005
8.687647e-001,-1.225299e-005,1.444568e-005
8.695588e-001,-1.560998e-005,1.443300e-005
8.703529e-001,-1.426719e-005,1.442562e-005
8.711471e-001,-1.242084e-005,1.441247e-005
8.719412e-001,-1.426719e-005,1.438240e-005
8.727353e-001,-1.426719e-005,1.435617e-005
8.735294e-001,-1.292439e-005,1.433298e-005
8.743235e-001,-1.829557e-005,1.431365e-005
8.751176e-001,-1.846342e-005,1.433417e-005
8.759118e-001,-1.510643e-005,1.435150e-005
8.767059e-001,-1.393149e-005,1.434169e-005
8.775000e-001,-1.158160e-005,1.431115e-005
8.782941e-001,-9.567407e-006,1.427386e-005
8.790882e-001,-1.191730e-005,1.423491e-005
8.798824e-001,-1.359579e-005,1.419499e-005
8.806765e-001,-1.124590e-005,1.415194e-005
8.814706e-001,-9.735256e-006,1.409473e-005
8.822647e-001,-5.539025e-006,1.403369e-005
8.830588e-001,-5.874723e-006,1.396411e-005
8.838529e-001,-6.546120e-006,1.388245e-005
8.846471e-001,-5.539025e-006,1.380751e-005
8.854412e-001,-8.392462e-006,1.374258e-005
8.862353e-001,-1.124590e-005,1.369801e-005
8.870294e-001,-1.376364e-005,1.366150e-005
8.878235e-001,-1.644922e-005,1.364940e-005
8.886176e-001,-1.628138e-005,1.365940e-005
8.894118e-001,-1.695277e-005,1.367280e-005
8.902059e-001,-1.527428e-005,1.369703e-005
8.910000e-001,-1.577783e-005,1.371863e-005
8.917941e-001,-1.544213e-005,1.373370e-005
8.925882e-001,-1.695277e-005,1.375501e-005
8.933824e-001,-1.510643e-005,1.377839e-005
8.941765e-001,-1.292439e-005,1.379264e-005
8.949706e-001,-1.426719e-005,1.380279e-005
8.957647e-001,-1.124590e-005,1.382025e-005
8.965588e-001,-8.560311e-006,1.383128e-005
8.973529e-001,-8.896010e-006,1.383574e-005
8.981471e-001,-5.035477e-006,1.383707e-005
8.989412e-001,-6.210422e-006,1.383155e-005
8.997353e-001,-9.567407e-006,1.383456e-005
9.005294e-001,-9.567407e-006,1.384416e-005
9.013235e-001,-8.224612e-006,1.385429e-005
9.021176e-001,-5.874723e-006,1.386198e-005
9.029118e-001,-8.560311e-006,1.386490e-005
9.037059e-001,-1.091020e-005,1.387188e-005
9.045000e-001,-7.553216e-006,1.388202e-005
9.052941e-001,-6.881819e-006,1.387879e-005
9.060882e-001,-5.874723e-006,1.387219e-005
9.068824e-001,-6.881819e-006,1.386565e-005
9.076765e-001,-8.224612e-006,1.386666e-005
9.084706e-001,-6.881819e-006,1.387434e-005
9.092647e-001,-9.231709e-006,1.387923e-005
9.100588e-001,-8.896010e-006,1.388784e-005
9.108529e-001,-6.210422e-006,1.389200e-005
9.116471e-001,-4.196231e-006,1.388277e-005
9.124412e-001,-2.517739e-006,1.385309e-005
9.132353e-001,-4.867628e-006,1.380788e-005
9.140294e-001,-9.567407e-006,1.378486e-005
9.148235e-001,-1.242084e-005,1.379527e-005
9.156176e-001,-1.225299e-005,1.380706e-005
9.164118e-001,-1.426719e-005,1.379380e-005
9.172059e-001,-2.030976e-005,1.377576e-005
9.180000e-001,-2.232395e-005,1.377255e-005
9.187941e-001,-2.198825e-005,1.373262e-005
9.195882e-001,-2.182040e-005,1.365384e-005
9.203824e-001,-2.030976e-005,1.359060e-005
9.211765e-001,-1.661708e-005,1.353541e-005
9.219706e-001,-1.124590e-005,1.348187e-005
9.227647e-001,-9.903105e-006,1.342673e-005
9.235588e-001,-1.023880e-005,1.335155e-005
9.243529e-001,-8.392462e-006,1.327674e-005
9.251471e-001,-9.567407e-006,1.320169e-005
9.259412e-001,-9.903105e-006,1.313300e-005
9.267353e-001,-9.567407e-006,1.307973e-005
9.275294e-001,-1.091020e-005,1.304388e-005
9.283235e-001,-7.217518e-006,1.302190e-005
9.291176e-001,-6.546120e-006,1.299583e-005
9.299118e-001,-6.881819e-006,1.298268e-005
9.307059e-001,-7.888914e-006,1.298019e-005
9.315000e-001,-1.258869e-005,1.297322e-005
9.322941e-001,-1.712062e-005,1.297980e-005
9.330882e-001,-1.493858e-005,1.300371e-005
9.338824e-001,-1.577783e-005,1.301413e-005
9.346765e-001,-1.493858e-005,1.301477e-005
9.354706e-001,-1.158160e-005,1.302469e-005
9.362647e-001,-1.359579e-005,1.302990e-005
9.370588e-001,-1.527428e-005,1.304422e-005
9.378529e-001,-1.527428e-005,1.306442e-005
9.386471e-001,-1.661708e-005,1.308589e-005
9.394412e-001,-1.560998e-005,1.311572e-005
9.402353e-001,-1.225299e-005,1.313836e-005
9.410294e-001,-1.393149e-005,1.315283e-005
9.418235e-001,-1.242084e-005,1.317344e-005
9.426176e-001,-1.359579e-005,1.318881e-005
9.434118e-001,-1.493858e-005,1.320961e-005
9.442059e-001,-1.258869e-005,1.323279e-005
9.450000e-001,-1.376364e-005,1.323330e-005
9.457941e-001,-1.225299e-005,1.322353e-005
9.465882e-001,-1.242084e-005,1.318333e-005
9.473824e-001,-1.258869e-005,1.313031e-005
9.481765e-001,-1.712062e-005,1.307956e-005
9.489706e-001,-1.762417e-005,1.304701e-005
9.497647e-001,-1.527428e-005,1.300853e-005
9.505588e-001,-1.426719e-005,1.297040e-005
9.513529e-001,-1.225299e-005,1.294218e-005
9.521471e-001,-1.258869e-005,1.290291e-005
9.529412e-001,-1.560998e-005,1.288114e-005
9.537353e-001,-1.527428e-005,1.289829e-005
9.545294e-001,-9.567407e-006,1.292328e-005
9.553235e-001,-9.567407e-006,1.293355e-005
9.561176e-001,-7.553216e-006,1.294478e-005
9.569118e-001,-7.217518e-006,1.295102e-005
9.577059e-001,-9.231709e-006,1.295102e-005
9.585000e-001,-1.225299e-005,1.294775e-005
9.592941e-001,-1.426719e-005,1.292350e-005
9.600882e-001,-1.225299e-005,1.290104e-005
9.608824e-001,-1.242084e-005,1.289445e-005
9.616765e-001,-1.258869e-005,1.290970e-005
9.624706e-001,-1.091020e-005,1.292770e-005
9.632647e-001,-8.896010e-006,1.292632e-005
9.640588e-001,-1.292439e-005,1.290603e-005
9.648529e-001,-1.460288e-005,1.290033e-005
9.656471e-001,-1.359579e-005,1.289118e-005
9.664412e-001,-1.225299e-005,1.286955e-005
9.672353e-001,-9.567407e-006,1.282452e-005
9.680294e-001,-9.231709e-006,1.277011e-005
9.688235e-001,-1.258869e-005,1.271076e-005
9.696176e-001,-1.393149e-005,1.266621e-005
9.704118e-001,-1.326009e-005,1.263434e-005
9.712059e-001,-1.091020e-005,1.261583e-005
9.720000e-001,-6.881819e-006,1.259739e-005
9.727941e-001,-1.678492e-007,1.256843e-005
9.735882e-001,2.853437e-006,1.253885e-005
9.743824e-001,1.678492e-006,1.249962e-005
9.751765e-001,-1.678492e-007,1.245075e-005
9.759706e-001,-2.853437e-006,1.242088e-005
9.767647e-001,-4.364080e-006,1.238204e-005
9.775588e-001,-5.874723e-006,1.234600e-005
9.783529e-001,-8.392462e-006,1.232165e-005
9.791471e-001,-8.896010e-006,1.229646e-005
9.799412e-001,-8.224612e-006,1.227780e-005
9.807353e-001,-6.210422e-006,1.226139e-005
9.815294e-001,-8.896010e-006,1.225409e-005
9.823235e-001,-1.225299e-005,1.225791e-005
9.831176e-001,-1.846342e-005,1.226468e-005
9.839118e-001,-1.158160e-005,1.228834e-005
9.847059e-001,-7.553216e-006,1.227680e-005
9.855000e-001,-6.546120e-006,1.226472e-005
9.862941e-001,-4.196231e-006,1.225667e-005
9.870882e-001,-2.853437e-006,1.224152e-005
9.878824e-001,-4.531929e-006,1.223067e-005
9.886765e-001,-1.023880e-005,1.222453e-005
9.894706e-001,-1.527428e-005,1.222541e-005
9.902647e-001,-1.695277e-005,1.223515e-005
9.910588e-001,-1.762417e-005,1.225608e-005
9.918529e-001,-1.896696e-005,1.227998e-005
9.926471e-001,-1.896696e-005,1.231115e-005
9.934412e-001,-1.829557e-005,1.234495e-005
9.942353e-001,-1.695277e-005,1.238136e-005
9.950294e-001,-1.560998e-005,1.241158e-005
9.958235e-001,-1.493858e-005,1.243415e-005
9.966176e-001,-1.493858e-005,1.245603e-005
9.974118e-001,-1.712062e-005,1.248013e-005
9.982059e-001,-1.930266e-005,1.251446e-005
9.990000e-001,-1.661708e-005,1.255577e-005
9.997941e-001,-1.712062e-005,1.257568e-005
1.000588e+000,-2.030976e-005,1.259108e-005
1.001382e+000,-2.047761e-005,1.261500e-005
1.002176e+000,-1.896696e-005,1.263164e-005
1.002971e+000,-1.527428e-005,1.264357e-005
1.003765e+000,-1.426719e-005,1.263676e-005
1.004559e+000,-1.795987e-005,1.261295e-005
1.005353e+000,-1.846342e-005,1.258689e-005
1.006147e+000,-1.628138e-005,1.259072e-005
1.006941e+000,-1.695277e-005,1.259850e-005
1.007735e+000,-1.426719e-005,1.260402e-005
1.008529e+000,-1.527428e-005,1.260972e-005
1.009324e+000,-1.359579e-005,1.263062e-005
1.010118e+000,-1.560998e-005,1.265092e-005
1.010912e+000,-1.695277e-005,1.268127e-005
1.011706e+000,-1.191730e-005,1.271510e-005
1.012500e+000,-1.225299e-005,1.272856e-005
1.013294e+000,-1.728847e-005,1.274251e-005
1.014088e+000,-1.896696e-005,1.276630e-005
1.014882e+000,-1.762417e-005,1.278270e-005
1.015676e+000,-1.225299e-005,1.279778e-005
1.016471e+000,-8.896010e-006,1.280255e-005
1.017265e+000,-9.735256e-006,1.279935e-005
1.018059e+000,-1.023880e-005,1.278814e-005
1.018853e+000,-1.124590e-005,1.277703e-005
1.019647e+000,-1.091020e-005,1.275104e-005
1.020441e+000,-9.735256e-006,1.272560e-005
1.021235e+000,-7.888914e-006,1.269554e-005
1.022029e+000,-4.196231e-006,1.266435e-005
1.022824e+000,-4.531929e-006,1.263589e-005
1.023618e+000,-6.881819e-006,1.260774e-005
1.024412e+000,-5.203327e-006,1.259037e-005
1.025206e+000,-1.510643e-006,1.256294e-005
1.026000e+000,3.356985e-007,1.254419e-005
1.026794e+000,-2.182040e-006,1.253663e-005
1.027588e+000,-3.356985e-007,1.252718e-005
1.028382e+000,-5.035477e-007,1.252088e-005
1.029176e+000,-2.853437e-006,1.251428e-005
1.029971e+000,-7.049668e-006,1.250806e-005
1.030765e+000,-1.225299e-005,1.251048e-005
1.031559e+000,-9.063859e-006,1.251951e-005
1.032353e+000,-7.721065e-006,1.251482e-005
1.033147e+000,-9.735256e-006,1.251076e-005
1.033941e+000,-8.224612e-006,1.250156e-005
1.034735e+000,-7.888914e-006,1.248424e-005
1.035529e+000,-8.560311e-006,1.247086e-005
1.036324e+000,-8.224612e-006,1.245543e-005
1.037118e+000,-1.040665e-005,1.244271e-005
1.037912e+000,-1.258869e-005,1.244087e-005
1.038706e+000,-1.426719e-005,1.244193e-005
1.039500e+000,-1.493858e-005,1.244770e-005
1.040294e+000,-1.728847e-005,1.245488e-005
1.041088e+000,-1.829557e-005,1.247593e-005
1.041882e+000,-1.628138e-005,1.249731e-005
1.042676e+000,-1.695277e-005,1.251398e-005
1.043471e+000,-1.359579e-005,1.253347e-005
1.044265e+000,-1.258869e-005,1.253788e-005
1.045059e+000,-1.225299e-005,1.254638e-005
1.045853e+000,-1.225299e-005,1.256026e-005
1.046647e+000,-9.903105e-006,1.257328e-005
1.047441e+000,-9.567407e-006,1.258347e-005
1.048235e+000,-7.553216e-006,1.259505e-005
1.049029e+000,-7.721065e-006,1.260069e-005
1.049824e+000,-1.225299e-005,1.260480e-005
1.050618e+000,-1.225299e-005,1.262187e-005
1.051412e+000,-1.292439e-005,1.264071e-005
1.052206e+000,-1.644922e-005,1.266017e-005
1.053000e+000,-1.829557e-005,1.268385e-005
1.053794e+000,-1.812772e-005,1.271180e-005
1.054588e+000,-1.829557e-005,1.273803e-005
1.055382e+000,-1.594568e-005,1.276108e-005
1.056176e+000,-1.628138e-005,1.276859e-005
1.056971e+000,-1.695277e-005,1.277566e-005
1.057765e+000,-1.762417e-005,1.277844e-005
1.058559e+000,-1.695277e-005,1.279632e-005
1.059353e+000,-1.695277e-005,1.281679e-005
1.060147e+000,-1.628138e-005,1.283384e-005
1.060941e+000,-1.493858e-005,1.284706e-005
1.061735e+000,-1.091020e-005,1.285066e-005
1.062529e+000,-9.903105e-006,1.282690e-005
1.063324e+000,-6.210422e-006,1.278781e-005
1.064118e+000,-6.881819e-006,1.274368e-005
1.064912e+000,-7.553216e-006,1.270134e-005
1.065706e+000,-6.881819e-006,1.267171e-005
1.066500e+000,-4.867628e-006,1.263555e-005
1.067294e+000,-4.196231e-006,1.259629e-005
1.068088e+000,-3.524834e-006,1.257396e-005
1.068882e+000,-5.539025e-006,1.255211e-005
1.069676e+000,-6.546120e-006,1.251348e-005
1.070471e+000,-7.721065e-006,1.247783e-005
1.071265e+000,-7.553216e-006,1.245695e-005
1.072059e+000,-9.567407e-006,1.244060e-005
1.072853e+000,-1.023880e-005,1.242374e-005
1.073647e+000,-7.888914e-006,1.240593e-005
1.074441e+000,-8.224612e-006,1.239134e-005
1.075235e+000,-7.888914e-006,1.238656e-005
1.076029e+000,-4.196231e-006,1.238109e-005
1.076824e+000,3.189136e-006,1.236756e-005
1.077618e+000,8.560311e-006,1.236016e-005
1.078412e+000,4.196231e-006,1.235862e-005
1.079206e+000,-5.035477e-007,1.235217e-005
1.080000e+000,-4.196231e-006,1.234955e-005
1.080794e+000,-7.049668e-006,1.235182e-005
1.081588e+000,-1.426719e-005,1.235427e-005
1.082382e+000,-1.577783e-005,1.236220e-005
1.083176e+000,-1.846342e-005,1.236552e-005
1.083971e+000,-1.963836e-005,1.238733e-005
1.084765e+000,-2.098116e-005,1.240557e-005
1.085559e+000,-2.064546e-005,1.242941e-005
1.086353e+000,-2.198825e-005,1.245210e-005
1.087147e+000,-2.668803e-005,1.246461e-005
1.087941e+000,-2.970932e-005,1.251581e-005
1.088735e+000,-3.038071e-005,1.258838e-005
1.089529e+000,-2.786297e-005,1.267659e-005
1.090324e+000,-2.601663e-005,1.275889e-005
1.091118e+000,-2.635233e-005,1.283252e-005
1.091912e+000,-2.584878e-005,1.290631e-005
1.092706e+000,-1.913481e-005,1.297388e-005
1.093500e+000,-1.493858e-005,1.300233e-005
1.094294e+000,-8.728161e-006,1.301127e-005
1.095088e+000,-6.881819e-006,1.299327e-005
1.095882e+000,-7.553216e-006,1.298263e-005
1.096676e+000,-6.881819e-006,1.297121e-005
1.097471e+000,-2.182040e-006,1.295432e-005
1.098265e+000,-3.524834e-006,1.292092e-005
1.099059e+000,-7.888914e-006,1.289734e-005
1.099853e+000,-1.158160e-005,1.288846e-005
1.100647e+000,-1.393149e-005,1.289292e-005
1.101441e+000,-1.225299e-005,1.290518e-005
1.102235e+000,-1.359579e-005,1.289858e-005
1.103029e+000,-1.628138e-005,1.289802e-005
1.103824e+000,-1.493858e-005,1.290257e-005
1.104618e+000,-1.158160e-005,1.290730e-005
1.105412e+000,-1.359579e-005,1.290104e-005
1.106206e+000,-1.242084e-005,1.290532e-005
1.107000e+000,-9.903105e-006,1.291306e-005
1.107794e+000,-9.903105e-006,1.291681e-005
1.108588e+000,-1.258869e-005,1.291762e-005
1.109382e+000,-1.309224e-005,1.293131e-005
1.110176e+000,-1.091020e-005,1.294766e-005
1.110971e+000,-1.040665e-005,1.295181e-005
1.111765e+000,-1.242084e-005,1.295465e-005
1.112559e+000,-1.443504e-005,1.296388e-005
1.113353e+000,-1.527428e-005,1.298116e-005
1.114147e+000,-1.510643e-005,1.300502e-005
1.114941e+000,-1.661708e-005,1.302326e-005
1.115735e+000,-1.359579e-005,1.304873e-005
1.116529e+000,-1.695277e-005,1.306550e-005
1.117324e+000,-1.762417e-005,1.308600e-005
1.118118e+000,-1.829557e-005,1.310929e-005
1.118912e+000,-1.628138e-005,1.313169e-005
1.119706e+000,-1.393149e-005,1.313429e-005
1.120500e+000,-1.158160e-005,1.313314e-005
1.121294e+000,-9.567407e-006,1.313070e-005
1.122088e+000,-7.553216e-006,1.311711e-005
1.122882e+000,-4.531929e-006,1.309931e-005
1.123676e+000,-5.035477e-007,1.308149e-005
1.124471e+000,-2.182040e-006,1.304071e-005
1.125265e+000,-4.531929e-006,1.299960e-005
1.126059e+000,-5.539025e-006,1.297414e-005
1.126853e+000,-3.524834e-006,1.295407e-005
1.127647e+000,-3.524834e-006,1.293910e-005
1.128441e+000,-4.867628e-006,1.292936e-005
1.129235e+000,-6.881819e-006,1.291478e-005
1.130029e+000,-6.210422e-006,1.289782e-005
1.130824e+000,-7.553216e-006,1.288696e-005
1.131618e+000,-6.210422e-006,1.288230e-005
1.132412e+000,-4.196231e-006,1.288327e-005
1.133206e+000,-3.860533e-006,1.288118e-005
1.134000e+000,-3.860533e-006,1.287773e-005
1.134794e+000,-4.531929e-006,1.287578e-005
1.135588e+000,-6.210422e-006,1.286960e-005
1.136382e+000,-6.881819e-006,1.285872e-005
1.137176e+000,-5.203327e-006,1.284112e-005
1.137971e+000,-7.553216e-006,1.281089e-005
1.138765e+000,-8.896010e-006,1.278500e-005
1.139559e+000,-9.735256e-006,1.275904e-005
1.140353e+000,-1.225299e-005,1.274174e-005
1.141147e+000,-1.594568e-005,1.272938e-005
1.141941e+000,-1.846342e-005,1.273136e-005
1.142735e+000,-1.863127e-005,1.273805e-005
1.143529e+000,-1.863127e-005,1.275291e-005
1.144324e+000,-1.829557e-005,1.277537e-005
1.145118e+000,-1.762417e-005,1.279171e-005
1.145912e+000,-1.779202e-005,1.281462e-005
1.146706e+000,-1.560998e-005,1.284481e-005
1.147500e+000,-1.292439e-005,1.286519e-005
1.148294e+000,-1.258869e-005,1.288272e-005
1.149088e+000,-1.091020e-005,1.289753e-005
1.149882e+000,-8.560311e-006,1.290092e-005
1.150676e+000,-1.023880e-005,1.289867e-005
1.151471e+000,-9.903105e-006,1.290326e-005
1.152265e+000,-1.091020e-005,1.291110e-005
1.153059e+000,-1.225299e-005,1.291674e-005
1.153853e+000,-1.124590e-005,1.292057e-005
1.154647e+000,-1.091020e-005,1.292913e-005
1.155441e+000,-1.258869e-005,1.293795e-005
1.156235e+000,-1.292439e-005,1.295320e-005
1.157029e+000,-1.628138e-005,1.296790e-005
1.157824e+000,-1.896696e-005,1.299212e-005
1.158618e+000,-1.762417e-005,1.303036e-005
1.159412e+000,-1.695277e-005,1.305787e-005
1.160206e+000,-1.829557e-005,1.308324e-005
1.161000e+000,-1.628138e-005,1.311924e-005
1.161794e+000,-1.527428e-005,1.314924e-005
1.162588e+000,-1.594568e-005,1.317670e-005
1.163382e+000,-1.712062e-005,1.320453e-005
1.164176e+000,-2.131685e-005,1.322882e-005
1.164971e+000,-1.930266e-005,1.326490e-005
1.165765e+000,-1.829557e-005,1.329157e-005
1.166559e+000,-1.913481e-005,1.330728e-005
1.167353e+000,-1.762417e-005,1.330173e-005
1.168147e+000,-1.242084e-005,1.327924e-005
1.168941e+000,-8.392462e-006,1.323970e-005
1.169735e+000,-7.553216e-006,1.319082e-005
1.170529e+000,-5.539025e-006,1.314784e-005
1.171324e+000,-5.203327e-006,1.311808e-005
1.172118e+000,-3.524834e-006,1.310601e-005
1.172912e+000,-2.853437e-006,1.309560e-005
1.173706e+000,-3.524834e-006,1.308384e-005
1.174500e+000,-5.539025e-006,1.307678e-005
1.175294e+000,-8.896010e-006,1.306937e-005
1.176088e+000,-7.553216e-006,1.306706e-005
1.176882e+000,-2.853437e-006,1.306286e-005
1.177676e+000,-4.867628e-006,1.304933e-005
1.178471e+000,-6.881819e-006,1.304586e-005
1.179265e+000,-9.567407e-006,1.304642e-005
1.180059e+000,-1.258869e-005,1.305181e-005
1.180853e+000,-1.292439e-005,1.306354e-005
1.181647e+000,-1.695277e-005,1.306459e-005
1.182441e+000,-1.896696e-005,1.306389e-005
1.183235e+000,-1.628138e-005,1.308053e-005
1.184029e+000,-1.091020e-005,1.308249e-005
1.184824e+000,-7.217518e-006,1.306981e-005
1.185618e+000,-5.874723e-006,1.305981e-005
1.186412e+000,-4.867628e-006,1.304147e-005
1.187206e+000,-8.224612e-006,1.301585e-005
1.188000e+000,-1.091020e-005,1.299557e-005
1.188794e+000,-1.091020e-005,1.297630e-005
1.189588e+000,-6.881819e-006,1.296100e-005
1.190382e+000,-8.224612e-006,1.294837e-005
1.191176e+000,-1.091020e-005,1.293281e-005
1.191971e+000,-1.057450e-005,1.292847e-005
1.192765e+000,-9.231709e-006,1.291947e-005
1.193559e+000,-9.567407e-006,1.290246e-005
1.194353e+000,-1.225299e-005,1.289419e-005
1.195147e+000,-1.292439e-005,1.288934e-005
1.195941e+000,-1.292439e-005,1.289143e-005
1.196735e+000,-1.359579e-005,1.289301e-005
1.197529e+000,-1.225299e-005,1.289626e-005
1.198324e+000,-1.493858e-005,1.287860e-005
1.199118e+000,-1.628138e-005,1.286778e-005
1.199912e+000,-1.762417e-005,1.287171e-005
1.200706e+000,-1.829557e-005,1.288495e-005
1.201500e+000,-2.098116e-005,1.290774e-005
1.202294e+000,-1.930266e-005,1.294245e-005
1.203088e+000,-1.963836e-005,1.295830e-005
1.203882e+000,-1.695277e-005,1.297701e-005
1.204676e+000,-1.493858e-005,1.300102e-005
1.205471e+000,-1.292439e-005,1.301713e-005
1.206265e+000,-1.124590e-005,1.303058e-005
1.207059e+000,-1.023880e-005,1.303967e-005
1.207853e+000,-1.158160e-005,1.304206e-005
1.208647e+000,-9.567407e-006,1.304011e-005
1.209441e+000,-6.210422e-006,1.302642e-005
1.210235e+000,-4.364080e-006,1.301277e-005
1.211029e+000,-6.881819e-006,1.299622e-005
1.211824e+000,-1.158160e-005,1.298259e-005
1.212618e+000,-1.225299e-005,1.298445e-005
1.213412e+000,-1.292439e-005,1.299315e-005
1.214206e+000,-1.107805e-005,1.299315e-005
1.215000e+000,-1.023880e-005,1.298205e-005
1.215794e+000,-1.275654e-005,1.297223e-005
1.216588e+000,-1.242084e-005,1.297378e-005
1.217382e+000,-1.258869e-005,1.298148e-005
1.218176e+000,-1.225299e-005,1.299046e-005
1.218971e+000,-9.567407e-006,1.298944e-005
1.219765e+000,-1.057450e-005,1.297686e-005
1.220559e+000,-1.275654e-005,1.296900e-005
1.221353e+000,-1.292439e-005,1.297437e-005
1.222147e+000,-1.527428e-005,1.298905e-005
1.222941e+000,-1.544213e-005,1.301762e-005
1.223735e+000,-1.426719e-005,1.304576e-005
1.224529e+000,-1.225299e-005,1.307024e-005
1.225324e+000,-1.292439e-005,1.308851e-005
1.226118e+000,-1.023880e-005,1.310783e-005
1.226912e+000,-9.567407e-006,1.311825e-005
1.227706e+000,-1.091020e-005,1.312517e-005
1.228500e+000,-8.224612e-006,1.313106e-005
1.229294e+000,-9.903105e-006,1.312967e-005
1.230088e+000,-7.217518e-006,1.313336e-005
1.230882e+000,-1.023880e-005,1.313500e-005
1.231676e+000,-1.158160e-005,1.313811e-005
1.232471e+000,-8.560311e-006,1.313617e-005
1.233265e+000,-8.224612e-006,1.310369e-005
1.234059e+000,-6.881819e-006,1.309561e-005
1.234853e+000,-8.224612e-006,1.309443e-005
1.235647e+000,-5.539025e-006,1.309744e-005
1.236441e+000,-4.867628e-006,1.309903e-005
1.237235e+000,-7.217518e-006,1.310092e-005
1.238029e+000,-1.091020e-005,1.310476e-005
1.238824e+000,-1.393149e-005,1.310648e-005
1.239618e+000,-1.712062e-005,1.310172e-005
1.240412e+000,-1.762417e-005,1.310241e-005
1.241206e+000,-1.896696e-005,1.310241e-005
1.242000e+000,-1.695277e-005,1.310241e-005
1.242794e+000,-1.997406e-005,1.309362e-005
1.243588e+000,-2.098116e-005,1.310143e-005
1.244382e+000,-1.695277e-005,1.311999e-005
1.245176e+000,-1.292439e-005,1.312529e-005
1.245971e+000,-1.225299e-005,1.311848e-005
1.246765e+000,-7.553216e-006,1.310962e-005
1.247559e+000,-5.539025e-006,1.308091e-005
1.248353e+000,-3.524834e-006,1.303922e-005
1.249147e+000,-4.867628e-006,1.300698e-005
1.249941e+000,-7.217518e-006,1.297395e-005
1.250735e+000,-7.049668e-006,1.292965e-005
1.251529e+000,-9.567407e-006,1.288404e-005
1.252324e+000,-1.376364e-005,1.285085e-005
1.253118e+000,-1.393149e-005,1.284541e-005
1.253912e+000,-1.393149e-005,1.284424e-005
1.254706e+000,-1.560998e-005,1.282830e-005
1.255500e+000,-1.460288e-005,1.281623e-005
1.256294e+000,-1.292439e-005,1.280979e-005
1.257088e+000,-1.091020e-005,1.279482e-005
1.257882e+000,-1.124590e-005,1.278429e-005
1.258676e+000,-1.107805e-005,1.277098e-005
1.259471e+000,-1.158160e-005,1.276323e-005
1.260265e+000,-1.359579e-005,1.274956e-005
1.261059e+000,-1.292439e-005,1.273675e-005
1.261853e+000,-1.124590e-005,1.273987e-005
1.262647e+000,-1.309224e-005,1.273691e-005
1.263441e+000,-1.309224e-005,1.272097e-005
1.264235e+000,-1.359579e-005,1.269737e-005
1.265029e+000,-1.158160e-005,1.268159e-005
1.265824e+000,-1.191730e-005,1.267958e-005
1.266618e+000,-1.493858e-005,1.268747e-005
1.267412e+000,-1.359579e-005,1.270358e-005
1.268206e+000,-1.292439e-005,1.271360e-005
1.269000e+000,-1.191730e-005,1.271868e-005
1.269794e+000,-1.023880e-005,1.272156e-005
1.270588e+000,-8.896010e-006,1.272282e-005
1.271382e+000,-8.896010e-006,1.272493e-005
1.272176e+000,-8.224612e-006,1.273263e-005
1.272971e+000,-7.553216e-006,1.273852e-005
1.273765e+000,-1.292439e-005,1.273973e-005
1.274559e+000,-1.527428e-005,1.275721e-005
1.275353e+000,-1.628138e-005,1.278602e-005
1.276147e+000,-1.695277e-005,1.281897e-005
1.276941e+000,-1.963836e-005,1.285404e-005
1.277735e+000,-1.963836e-005,1.290171e-005
1.278529e+000,-1.829557e-005,1.294919e-005
1.279324e+000,-1.493858e-005,1.298929e-005
1.280118e+000,-1.225299e-005,1.301054e-005
1.280912e+000,-1.091020e-005,1.301054e-005
1.281706e+000,-1.091020e-005,1.301505e-005
1.282500e+000,-1.158160e-005,1.302232e-005
1.283294e+000,-7.553216e-006,1.302713e-005
1.284088e+000,-3.860533e-006,1.302583e-005
1.284882e+000,-6.378271e-006,1.302004e-005
1.285676e+000,-7.721065e-006,1.301606e-005
1.286471e+000,-6.881819e-006,1.301507e-005
1.287265e+000,-4.196231e-006,1.300762e-005
1.288059e+000,-4.196231e-006,1.299036e-005
1.288853e+000,-8.392462e-006,1.296755e-005
1.289647e+000,-1.124590e-005,1.294878e-005
1.290441e+000,-1.393149e-005,1.292756e-005
1.291235e+000,-1.426719e-005,1.291022e-005
1.292029e+000,-1.359579e-005,1.290263e-005
1.292824e+000,-1.292439e-005,1.288997e-005
1.293618e+000,-8.224612e-006,1.288777e-005
1.294412e+000,-9.231709e-006,1.287654e-005
1.295206e+000,-7.217518e-006,1.286851e-005
1.296000e+000,-4.196231e-006,1.285638e-005
1.296794e+000,-5.035477e-006,1.284641e-005
1.297588e+000,-2.853437e-006,1.283820e-005
1.298382e+000,-5.706874e-006,1.283213e-005
1.299176e+000,-8.224612e-006,1.282878e-005
1.299971e+000,-7.217518e-006,1.281853e-005
1.300765e+000,-8.896010e-006,1.280635e-005
1.301559e+000,-9.567407e-006,1.279541e-005
1.302353e+000,-9.063859e-006,1.277311e-005
1.303147e+000,-1.527428e-005,1.274159e-005
1.303941e+000,-1.493858e-005,1.272967e-005
1.304735e+000,-1.292439e-005,1.271571e-005
1.305529e+000,-1.460288e-005,1.270478e-005
1.306324e+000,-1.426719e-005,1.269828e-005
1.307118e+000,-1.124590e-005,1.268776e-005
1.307912e+000,-1.426719e-005,1.266463e-005
1.308706e+000,-1.560998e-005,1.265408e-005
1.309500e+000,-1.510643e-005,1.264858e-005
1.310294e+000,-1.493858e-005,1.264394e-005
1.311088e+000,-1.628138e-005,1.264394e-005
1.311882e+000,-1.728847e-005,1.266232e-005
1.312676e+000,-1.930266e-005,1.268755e-005
1.313471e+000,-1.762417e-005,1.272940e-005
1.314265e+000,-1.560998e-005,1.276229e-005
1.315059e+000,-1.359579e-005,1.278555e-005
1.315853e+000,-1.225299e-005,1.280266e-005
1.316647e+000,-1.023880e-005,1.281838e-005
1.317441e+000,-9.567407e-006,1.282921e-005
1.318235e+000,-4.867628e-006,1.283902e-005
1.319029e+000,-3.189136e-006,1.283816e-005
1.319824e+000,-7.553216e-006,1.283410e-005
1.320618e+000,-1.023880e-005,1.283379e-005
1.321412e+000,-1.393149e-005,1.283971e-005
1.322206e+000,-1.242084e-005,1.285242e-005
1.323000e+000,-9.231709e-006,1.285855e-005
1.323794e+000,-7.888914e-006,1.286140e-005
1.324588e+000,-7.721065e-006,1.286073e-005
1.325382e+000,-6.881819e-006,1.286040e-005
1.326176e+000,-8.224612e-006,1.286408e-005
1.326971e+000,-1.124590e-005,1.287120e-005
1.327765e+000,-1.225299e-005,1.287778e-005
1.328559e+000,-1.544213e-005,1.289415e-005
1.329353e+000,-1.493858e-005,1.292354e-005
1.330147e+000,-1.409934e-005,1.294884e-005
1.330941e+000,-1.376364e-005,1.296716e-005
1.331735e+000,-1.191730e-005,1.296543e-005
1.332529e+000,-1.158160e-005,1.295229e-005
1.333324e+000,-1.376364e-005,1.292684e-005
1.334118e+000,-1.695277e-005,1.290265e-005
1.334912e+000,-1.896696e-005,1.288378e-005
1.335706e+000,-1.527428e-005,1.287556e-005
1.336500e+000,-1.560998e-005,1.284458e-005
1.337294e+000,-1.577783e-005,1.278636e-005
1.338088e+000,-1.426719e-005,1.270719e-005
1.338882e+000,-1.493858e-005,1.261672e-005
1.339676e+000,-1.292439e-005,1.254671e-005
1.340471e+000,-1.023880e-005,1.248183e-005
1.341265e+000,-1.091020e-005,1.240639e-005
1.342059e+000,-6.881819e-006,1.233570e-005
1.342853e+000,-8.560311e-006,1.229449e-005
1.343647e+000,-1.225299e-005,1.227506e-005
1.344441e+000,-1.225299e-005,1.228465e-005
1.345235e+000,-9.903105e-006,1.229796e-005
1.346029e+000,-6.210422e-006,1.230327e-005
1.346824e+000,-2.182040e-006,1.230214e-005
1.347618e+000,-1.678492e-007,1.230214e-005
1.348412e+000,-5.035477e-007,1.230053e-005
1.349206e+000,-1.510643e-006,1.229250e-005
1.350000e+000,-6.210422e-006,1.227541e-005
1.350794e+000,-1.326009e-005,1.225522e-005
1.351588e+000,-1.695277e-005,1.225856e-005
1.352382e+000,-2.030976e-005,1.227187e-005
1.353176e+000,-2.165255e-005,1.229099e-005
1.353971e+000,-1.846342e-005,1.232277e-005
1.354765e+000,-1.560998e-005,1.234946e-005
1.355559e+000,-1.963836e-005,1.235705e-005
1.356353e+000,-2.232395e-005,1.238683e-005
1.357147e+000,-1.896696e-005,1.243818e-005
1.357941e+000,-1.359579e-005,1.247163e-005
1.358735e+000,-1.225299e-005,1.247500e-005
1.359529e+000,-1.174945e-005,1.247228e-005
1.360324e+000,-1.023880e-005,1.247471e-005
1.361118e+000,-8.224612e-006,1.247427e-005
1.361912e+000,-6.378271e-006,1.246321e-005
1.362706e+000,-4.196231e-006,1.244176e-005
1.363500e+000,-4.196231e-006,1.241413e-005
1.364294e+000,-7.721065e-006,1.238709e-005
1.365088e+000,-9.567407e-006,1.235922e-005
1.365882e+000,-9.567407e-006,1.234719e-005
1.366676e+000,-1.359579e-005,1.232191e-005
1.367471e+000,-1.527428e-005,1.230564e-005
1.368265e+000,-1.426719e-005,1.229251e-005
1.369059e+000,-1.560998e-005,1.228454e-005
1.369853e+000,-1.762417e-005,1.229097e-005
1.370647e+000,-1.762417e-005,1.231381e-005
1.371441e+000,-1.795987e-005,1.234211e-005
1.372235e+000,-1.896696e-005,1.237631e-005
1.373029e+000,-1.930266e-005,1.241988e-005
1.373824e+000,-1.829557e-005,1.246753e-005
1.374618e+000,-1.695277e-005,1.250960e-005
1.375412e+000,-1.695277e-005,1.254352e-005
1.376206e+000,-1.594568e-005,1.257607e-005
1.377000e+000,-1.359579e-005,1.260665e-005
1.377794e+000,-1.258869e-005,1.262841e-005
1.378588e+000,-1.091020e-005,1.264540e-005
1.379382e+000,-1.091020e-005,1.265442e-005
1.380176e+000,-1.158160e-005,1.266454e-005
1.380971e+000,-9.903105e-006,1.267423e-005
1.381765e+000,-8.560311e-006,1.268170e-005
1.382559e+000,-7.217518e-006,1.268869e-005
1.383353e+000,-7.217518e-006,1.269335e-005
1.384147e+000,-8.224612e-006,1.269802e-005
1.384941e+000,-8.560311e-006,1.270392e-005
1.385735e+000,-9.567407e-006,1.270827e-005
1.386529e+000,-1.023880e-005,1.271381e-005
1.387324e+000,-9.567407e-006,1.272354e-005
1.388118e+000,-8.896010e-006,1.272786e-005
1.388912e+000,-1.057450e-005,1.272786e-005
1.389706e+000,-1.225299e-005,1.272999e-005
1.390500e+000,-1.426719e-005,1.272999e-005
1.391294e+000,-1.359579e-005,1.272365e-005
1.392088e+000,-1.091020e-005,1.270410e-005
1.392882e+000,-8.224612e-006,1.267548e-005
1.393676e+000,-9.567407e-006,1.264032e-005
1.394471e+000,-7.888914e-006,1.260965e-005
1.395265e+000,-6.881819e-006,1.257824e-005
1.396059e+000,-8.224612e-006,1.254412e-005
1.396853e+000,-1.023880e-005,1.252175e-005
1.397647e+000,-1.091020e-005,1.251384e-005
1.398441e+000,-7.888914e-006,1.250882e-005
1.399235e+000,-7.217518e-006,1.250159e-005
1.400029e+000,-3.860533e-006,1.249889e-005
1.400824e+000,-8.392462e-007,1.248743e-005
1.401618e+000,1.510643e-006,1.247500e-005
1.402412e+000,-2.853437e-006,1.246009e-005
1.403206e+000,-4.196231e-006,1.244193e-005
1.404000e+000,-4.867628e-006,1.242799e-005
1.404794e+000,-5.706874e-006,1.241577e-005
1.405588e+000,-6.881819e-006,1.239961e-005
1.406382e+000,-7.049668e-006,1.238423e-005
1.407176e+000,-1.007095e-005,1.235651e-005
1.407971e+000,-1.326009e-005,1.232317e-005
1.408765e+000,-1.527428e-005,1.230575e-005
1.409559e+000,-1.493858e-005,1.229874e-005
1.410353e+000,-1.359579e-005,1.228429e-005
1.411147e+000,-1.359579e-005,1.227389e-005
1.411941e+000,-1.023880e-005,1.226760e-005
1.412735e+000,-8.896010e-006,1.224819e-005
1.413529e+000,-7.553216e-006,1.222033e-005
1.414324e+000,-1.124590e-005,1.216845e-005
1.415118e+000,-1.661708e-005,1.213620e-005
1.415912e+000,-2.232395e-005,1.212851e-005
1.416706e+000,-2.500954e-005,1.214585e-005
1.417500e+000,-2.500954e-005,1.218706e-005
1.418294e+000,-2.098116e-005,1.224847e-005
1.419088e+000,-2.064546e-005,1.229645e-005
1.419882e+000,-1.930266e-005,1.234417e-005
1.420676e+000,-1.829557e-005,1.238820e-005
1.421471e+000,-1.560998e-005,1.242768e-005
1.422265e+000,-1.225299e-005,1.245727e-005
1.423059e+000,-1.225299e-005,1.247541e-005
1.423853e+000,-1.326009e-005,1.249298e-005
1.424647e+000,-1.124590e-005,1.251146e-005
1.425441e+000,-1.258869e-005,1.251748e-005
1.426235e+000,-1.057450e-005,1.253038e-005
1.427029e+000,-8.896010e-006,1.254355e-005
1.427824e+000,-5.874723e-006,1.255059e-005
1.428618e+000,-5.539025e-006,1.254896e-005
1.429412e+000,-9.567407e-006,1.254123e-005
1.430206e+000,-7.553216e-006,1.253273e-005
1.431000e+000,-5.874723e-006,1.251875e-005
1.431794e+000,-8.224612e-006,1.248654e-005
1.432588e+000,-1.846342e-006,1.244923e-005
1.433382e+000,3.189136e-006,1.241572e-005
1.434176e+000,5.874723e-006,1.240175e-005
1.434971e+000,2.517739e-006,1.239949e-005
1.435765e+000,-4.196231e-006,1.239587e-005
1.436559e+000,-8.896010e-006,1.239509e-005
1.437353e+000,-1.309224e-005,1.239657e-005
1.438147e+000,-1.762417e-005,1.240329e-005
1.438941e+000,-2.131685e-005,1.242786e-005
1.439735e+000,-2.232395e-005,1.247991e-005
1.440529e+000,-1.762417e-005,1.253474e-005
1.441324e+000,-1.527428e-005,1.255906e-005
1.442118e+000,-1.863127e-005,1.257445e-005
1.442912e+000,-1.963836e-005,1.260757e-005
1.443706e+000,-1.930266e-005,1.264467e-005
1.444500e+000,-1.460288e-005,1.267265e-005
1.445294e+000,-1.007095e-005,1.267846e-005
1.446088e+000,-1.359579e-005,1.267021e-005
1.446882e+000,-1.695277e-005,1.267021e-005
1.447676e+000,-1.997406e-005,1.268745e-005
1.448471e+000,-2.232395e-005,1.270950e-005
1.449265e+000,-2.198825e-005,1.273869e-005
1.450059e+000,-2.098116e-005,1.276028e-005
1.450853e+000,-2.030976e-005,1.277344e-005
1.451647e+000,-2.249180e-005,1.276998e-005
1.452441e+000,-2.232395e-005,1.278659e-005
1.453235e+000,-1.712062e-005,1.280061e-005
1.454029e+000,-1.091020e-005,1.280133e-005
1.454824e+000,-9.567407e-006,1.278837e-005
1.455618e+000,-7.553216e-006,1.277896e-005
1.456412e+000,-5.539025e-006,1.277031e-005
1.457206e+000,-5.539025e-006,1.276106e-005
1.458000e+000,-8.896010e-006,1.274814e-005
1.458794e+000,-6.881819e-006,1.274660e-005
1.459588e+000,-5.203327e-006,1.274769e-005
1.460382e+000,-4.531929e-006,1.274870e-005
1.461176e+000,-4.867628e-006,1.274535e-005
1.461971e+000,-6.210422e-006,1.273154e-005
1.462765e+000,-6.881819e-006,1.271758e-005
1.463559e+000,-5.539025e-006,1.270259e-005
1.464353e+000,-4.531929e-006,1.269104e-005
1.465147e+000,-5.539025e-006,1.268046e-005
1.465941e+000,-7.217518e-006,1.266387e-005
1.466735e+000,-8.560311e-006,1.265101e-005
1.467529e+000,-1.023880e-005,1.264028e-005
1.468324e+000,-1.426719e-005,1.263458e-005
1.469118e+000,-1.527428e-005,1.264869e-005
1.469912e+000,-1.091020e-005,1.266397e-005
1.470706e+000,-1.225299e-005,1.265848e-005
1.471500e+000,-1.795987e-005,1.265635e-005
1.472294e+000,-1.678492e-005,1.266757e-005
1.473088e+000,-1.292439e-005,1.267301e-005
1.473882e+000,-1.493858e-005,1.266842e-005
1.474676e+000,-1.510643e-005,1.267760e-005
1.475471e+000,-1.594568e-005,1.268528e-005
1.476265e+000,-1.762417e-005,1.270402e-005
1.477059e+000,-1.695277e-005,1.273145e-005
1.477853e+000,-1.712062e-005,1.275249e-005
1.478647e+000,-1.359579e-005,1.278062e-005
1.479441e+000,-1.091020e-005,1.279142e-005
1.480235e+000,-1.258869e-005,1.279975e-005
1.481029e+000,-1.292439e-005,1.280642e-005
1.481824e+000,-1.158160e-005,1.281052e-005
1.482618e+000,-9.903105e-006,1.281808e-005
1.483412e+000,-4.364080e-006,1.282186e-005
1.484206e+000,2.349889e-006,1.281834e-005
1.485000e+000,6.210422e-006,1.281062e-005
1.485794e+000,5.874723e-006,1.281160e-005
1.486588e+000,4.867628e-006,1.281295e-005
1.487382e+000,1.846342e-006,1.280942e-005
1.488176e+000,-1.510643e-006,1.279503e-005
1.488971e+000,-6.210422e-006,1.277114e-005
1.489765e+000,-1.023880e-005,1.273936e-005
1.490559e+000,-9.567407e-006,1.271362e-005
1.491353e+000,-8.896010e-006,1.267998e-005
1.492147e+000,-9.735256e-006,1.265380e-005
1.492941e+000,-1.258869e-005,1.261546e-005
1.493735e+000,-1.359579e-005,1.257985e-005
1.494529e+000,-1.493858e-005,1.256686e-005
1.495324e+000,-1.762417e-005,1.257397e-005
1.496118e+000,-1.963836e-005,1.259428e-005
1.496912e+000,-2.249180e-005,1.263576e-005
1.497706e+000,-2.568093e-005,1.269550e-005
1.498500e+000,-2.500954e-005,1.277641e-005
1.499294e+000,-2.299535e-005,1.285119e-005
1.500088e+000,-2.114900e-005,1.291012e-005
1.500882e+000,-2.316319e-005,1.295907e-005
1.501676e+000,-2.366674e-005,1.301363e-005
1.502471e+000,-1.913481e-005,1.305891e-005
1.503265e+000,-1.896696e-005,1.307987e-005
1.504059e+000,-2.165255e-005,1.310002e-005
1.504853e+000,-1.980621e-005,1.312736e-005
1.505647e+000,-1.577783e-005,1.314906e-005
1.506441e+000,-1.510643e-005,1.315898e-005
1.507235e+000,-1.191730e-005,1.317218e-005
1.508029e+000,-9.903105e-006,1.317406e-005
1.508824e+000,-1.091020e-005,1.317108e-005
1.509618e+000,-1.393149e-005,1.316926e-005
1.510412e+000,-1.258869e-005,1.317037e-005
1.511206e+000,-1.359579e-005,1.316934e-005
1.512000e+000,-1.695277e-005,1.317639e-005
1.512794e+000,-1.493858e-005,1.319040e-005
1.513588e+000,-1.158160e-005,1.319665e-005
1.514382e+000,-1.242084e-005,1.319053e-005
1.515176e+000,-1.191730e-005,1.319296e-005
1.515971e+000,-1.527428e-005,1.319296e-005
1.516765e+000,-1.661708e-005,1.319419e-005
1.517559e+000,-1.560998e-005,1.320520e-005
1.518353e+000,-1.376364e-005,1.321444e-005
1.519147e+000,-1.023880e-005,1.322015e-005
1.519941e+000,-6.881819e-006,1.322015e-005
1.520735e+000,-1.678492e-007,1.321632e-005
1.521529e+000,3.860533e-006,1.320678e-005
1.522324e+000,3.524834e-006,1.320042e-005
1.523118e+000,5.203327e-006,1.319504e-005
1.523912e+000,7.888914e-006,1.317814e-005
1.524706e+000,9.231709e-006,1.315745e-005
1.525500e+000,9.903105e-006,1.313567e-005
1.526294e+000,8.560311e-006,1.311269e-005
1.527088e+000,5.874723e-006,1.307470e-005
1.527882e+000,2.182040e-006,1.303187e-005
1.528676e+000,-3.524834e-006,1.299149e-005
1.529471e+000,-5.874723e-006,1.296563e-005
1.530265e+000,-1.057450e-005,1.295142e-005
1.531059e+000,-1.359579e-005,1.295054e-005
1.531853e+000,-1.829557e-005,1.295863e-005
1.532647e+000,-1.896696e-005,1.298325e-005
1.533441e+000,-1.829557e-005,1.302032e-005
1.534235e+000,-1.913481e-005,1.305938e-005
1.535029e+000,-1.762417e-005,1.309900e-005
1.535824e+000,-1.594568e-005,1.312948e-005
1.536618e+000,-1.762417e-005,1.315455e-005
1.537412e+000,-1.762417e-005,1.318997e-005
1.538206e+000,-1.493858e-005,1.322529e-005
1.539000e+000,-1.359579e-005,1.324367e-005
1.539794e+000,-1.695277e-005,1.325069e-005
1.540588e+000,-1.779202e-005,1.326190e-005
1.541382e+000,-1.829557e-005,1.327546e-005
1.542176e+000,-1.829557e-005,1.329342e-005
1.542971e+000,-1.896696e-005,1.331349e-005
1.543765e+000,-2.030976e-005,1.334838e-005
1.544559e+000,-2.064546e-005,1.338737e-005
1.545353e+000,-2.098116e-005,1.343180e-005
1.546147e+000,-1.980621e-005,1.348180e-005
1.546941e+000,-1.661708e-005,1.352507e-005
1.547735e+000,-1.292439e-005,1.355659e-005
1.548529e+000,-8.224612e-006,1.357237e-005
1.549324e+000,-8.224612e-006,1.357237e-005
1.550118e+000,-8.896010e-006,1.357420e-005
1.550912e+000,-7.553216e-006,1.357420e-005
1.551706e+000,-7.553216e-006,1.357015e-005
1.552500e+000,-8.560311e-006,1.356720e-005
1.553294e+000,-6.881819e-006,1.354841e-005
1.554088e+000,-5.874723e-006,1.352773e-005
1.554882e+000,-6.210422e-006,1.351212e-005
1.555676e+000,-9.903105e-006,1.349152e-005
1.556471e+000,-5.874723e-006,1.347907e-005
1.557265e+000,-4.196231e-006,1.346820e-005
1.558059e+000,-4.531929e-006,1.344620e-005
1.558853e+000,-6.546120e-006,1.341975e-005
1.559647e+000,-1.225299e-005,1.339773e-005
1.560441e+000,-1.359579e-005,1.338905e-005
1.561235e+000,-1.326009e-005,1.337951e-005
1.562029e+000,-1.393149e-005,1.336485e-005
1.562824e+000,-9.735256e-006,1.334357e-005
1.563618e+000,-1.091020e-005,1.331779e-005
1.564412e+000,-1.258869e-005,1.330287e-005
1.565206e+000,-1.426719e-005,1.329972e-005
1.566000e+000,-1.376364e-005,1.330611e-005
1.566794e+000,-1.174945e-005,1.331623e-005
1.567588e+000,-1.124590e-005,1.332179e-005
1.568382e+000,-1.091020e-005,1.333407e-005
1.569176e+000,-1.292439e-005,1.334707e-005
1.569971e+000,-1.326009e-005,1.336018e-005
1.570765e+000,-1.359579e-005,1.336864e-005
1.571559e+000,-1.628138e-005,1.336754e-005
1.572353e+000,-1.762417e-005,1.338073e-005
1.573147e+000,-1.896696e-005,1.340753e-005
1.573941e+000,-2.165255e-005,1.344282e-005
1.574735e+000,-2.265965e-005,1.349120e-005
1.575529e+000,-1.896696e-005,1.354611e-005
1.576324e+000,-2.030976e-005,1.358040e-005
1.577118e+000,-1.963836e-005,1.361389e-005
1.577912e+000,-1.460288e-005,1.364141e-005
1.578706e+000,-1.124590e-005,1.363847e-005
1.579500e+000,-8.224612e-006,1.362718e-005
1.580294e+000,1.678492e-007,1.361184e-005
1.581088e+000,6.546120e-006,1.358967e-005
1.581882e+000,5.539025e-006,1.357804e-005
1.582676e+000,7.385367e-006,1.356590e-005
1.583471e+000,7.049668e-006,1.355006e-005
1.584265e+000,-1.174945e-006,1.352210e-005
1.585059e+000,-4.196231e-006,1.347983e-005
1.585853e+000,-6.881819e-006,1.345433e-005
1.586647e+000,-7.553216e-006,1.343107e-005
1.587441e+000,-1.292439e-005,1.340831e-005
1.588235e+000,-1.913481e-005,1.340397e-005
1.589029e+000,-1.812772e-005,1.342094e-005
1.589824e+000,-1.678492e-005,1.344010e-005
1.590618e+000,-1.628138e-005,1.346104e-005
1.591412e+000,-1.376364e-005,1.347831e-005
1.592206e+000,-1.695277e-005,1.349508e-005
1.593000e+000,-1.762417e-005,1.352033e-005
1.593794e+000,-1.963836e-005,1.353921e-005
1.594588e+000,-1.896696e-005,1.356689e-005
1.595382e+000,-1.544213e-005,1.359756e-005
1.596176e+000,-1.762417e-005,1.362095e-005
1.596971e+000,-1.762417e-005,1.365666e-005
1.597765e+000,-1.225299e-005,1.369283e-005
1.598559e+000,-1.225299e-005,1.371025e-005
1.599353e+000,-1.493858e-005,1.372741e-005
1.600147e+000,-1.158160e-005,1.374880e-005
1.600941e+000,-1.225299e-005,1.374397e-005
1.601735e+000,-1.124590e-005,1.372806e-005
1.602529e+000,-1.225299e-005,1.369484e-005
1.603324e+000,-1.326009e-005,1.365774e-005
1.604118e+000,-1.359579e-005,1.363848e-005
1.604912e+000,-1.124590e-005,1.363161e-005
1.605706e+000,-1.510643e-005,1.360130e-005
1.606500e+000,-1.560998e-005,1.356963e-005
1.607294e+000,-1.292439e-005,1.355600e-005
1.608088e+000,-1.107805e-005,1.355391e-005
1.608882e+000,-1.091020e-005,1.355069e-005
1.609676e+000,-6.881819e-006,1.354846e-005
1.610471e+000,-9.063859e-006,1.354170e-005
1.611265e+000,-9.231709e-006,1.354341e-005
1.612059e+000,-1.107805e-005,1.354864e-005
1.612853e+000,-1.225299e-005,1.356099e-005
1.613647e+000,-1.023880e-005,1.357654e-005
1.614441e+000,-7.553216e-006,1.358185e-005
1.615235e+000,-1.225299e-005,1.357780e-005
1.616029e+000,-1.426719e-005,1.358467e-005
1.616824e+000,-1.057450e-005,1.358687e-005
1.617618e+000,-1.426719e-005,1.357262e-005
1.618412e+000,-1.426719e-005,1.357262e-005
1.619206e+000,-1.359579e-005,1.356791e-005
1.620000e+000,-1.225299e-005,1.355315e-005
1.620794e+000,-1.258869e-005,1.353428e-005
1.621588e+000,-1.443504e-005,1.351496e-005
1.622382e+000,-1.661708e-005,1.349711e-005
1.623176e+000,-1.560998e-005,1.348573e-005
1.623971e+000,-1.225299e-005,1.347497e-005
1.624765e+000,-1.258869e-005,1.345874e-005
1.625559e+000,-1.359579e-005,1.344348e-005
1.626353e+000,-1.393149e-005,1.343525e-005
1.627147e+000,-1.376364e-005,1.343635e-005
1.627941e+000,-1.359579e-005,1.344002e-005
1.628735e+000,-1.258869e-005,1.344781e-005
1.629529e+000,-1.628138e-005,1.345248e-005
1.630324e+000,-1.124590e-005,1.346797e-005
1.631118e+000,-8.896010e-006,1.347133e-005
1.631912e+000,-8.224612e-006,1.347202e-005
1.632706e+000,-8.224612e-006,1.347386e-005
1.633500e+000,-1.091020e-005,1.347570e-005
1.634294e+000,-8.224612e-006,1.348177e-005
1.635088e+000,-4.867628e-006,1.348111e-005
1.635882e+000,-4.867628e-006,1.347309e-005
1.636676e+000,-2.517739e-006,1.346350e-005
1.637471e+000,-1.678492e-007,1.345342e-005
1.638265e+000,-3.189136e-006,1.344405e-005
1.639059e+000,-3.524834e-006,1.343200e-005
1.639853e+000,-4.196231e-006,1.341567e-005
1.640647e+000,-7.553216e-006,1.339358e-005
1.641441e+000,-7.049668e-006,1.337838e-005
1.642235e+000,-4.196231e-006,1.337012e-005
1.643029e+000,-6.210422e-006,1.336416e-005
1.643824e+000,-7.217518e-006,1.335785e-005
1.644618e+000,-7.888914e-006,1.335664e-005
1.645412e+000,-1.393149e-005,1.335841e-005
1.646206e+000,-1.762417e-005,1.337348e-005
1.647000e+000,-1.695277e-005,1.339796e-005
1.647794e+000,-1.930266e-005,1.341795e-005
1.648588e+000,-2.030976e-005,1.345473e-005
1.649382e+000,-1.997406e-005,1.349732e-005
1.650176e+000,-1.947051e-005,1.354255e-005
1.650971e+000,-1.493858e-005,1.358697e-005
1.651765e+000,-8.224612e-006,1.361283e-005
1.652559e+000,-2.853437e-006,1.361979e-005
1.653353e+000,-5.539025e-006,1.361868e-005
1.654147e+000,-1.091020e-005,1.361950e-005
1.654941e+000,-1.393149e-005,1.362961e-005
1.655735e+000,-1.191730e-005,1.364674e-005
1.656529e+000,-1.057450e-005,1.365751e-005
1.657324e+000,-1.527428e-005,1.365872e-005
1.658118e+000,-1.728847e-005,1.366542e-005
1.658912e+000,-1.594568e-005,1.367306e-005
1.659706e+000,-1.628138e-005,1.367668e-005
1.660500e+000,-1.628138e-005,1.368602e-005
1.661294e+000,-1.359579e-005,1.369535e-005
1.662088e+000,-1.493858e-005,1.370465e-005
1.662882e+000,-1.695277e-005,1.372137e-005
1.663676e+000,-1.661708e-005,1.374808e-005
1.664471e+000,-1.258869e-005,1.376540e-005
1.665265e+000,-1.292439e-005,1.375179e-005
1.666059e+000,-1.762417e-005,1.371337e-005
1.666853e+000,-1.896696e-005,1.367676e-005
1.667647e+000,-1.292439e-005,1.364578e-005
1.668441e+000,-1.359579e-005,1.361387e-005
1.669235e+000,-1.292439e-005,1.358561e-005
1.670029e+000,-1.426719e-005,1.356149e-005
1.670824e+000,-1.292439e-005,1.354608e-005
1.671618e+000,-1.023880e-005,1.353707e-005
1.672412e+000,-7.553216e-006,1.353174e-005
1.673206e+000,-6.378271e-006,1.352078e-005
1.674000e+000,-6.546120e-006,1.350485e-005
1.674794e+000,-6.881819e-006,1.349499e-005
1.675588e+000,-8.224612e-006,1.348187e-005
1.676382e+000,-8.896010e-006,1.347666e-005
1.677176e+000,-1.057450e-005,1.347666e-005
1.677971e+000,-9.567407e-006,1.348579e-005
1.678765e+000,-9.903105e-006,1.349297e-005
1.679559e+000,-1.292439e-005,1.349374e-005
1.680353e+000,-1.091020e-005,1.350672e-005
1.681147e+000,-8.224612e-006,1.351668e-005
1.681941e+000,-6.546120e-006,1.351668e-005
1.682735e+000,-4.531929e-006,1.352132e-005
1.683529e+000,-4.867628e-006,1.352254e-005
1.684324e+000,-7.217518e-006,1.352127e-005
1.685118e+000,-6.881819e-006,1.352666e-005
1.685912e+000,-5.539025e-006,1.353016e-005
1.686706e+000,-5.035477e-006,1.352445e-005
1.687500e+000,-1.510643e-006,1.350725e-005
1.688294e+000,-4.196231e-006,1.347085e-005
1.689088e+000,-1.023880e-005,1.341912e-005
1.689882e+000,-1.258869e-005,1.337234e-005
1.690676e+000,-1.191730e-005,1.335421e-005
1.691471e+000,-1.158160e-005,1.334332e-005
1.692265e+000,-1.359579e-005,1.331788e-005
1.693059e+000,-1.292439e-005,1.329384e-005
1.693853e+000,-1.292439e-005,1.326920e-005
1.694647e+000,-1.091020e-005,1.326365e-005
1.695441e+000,-1.292439e-005,1.326577e-005
1.696235e+000,-1.359579e-005,1.326363e-005
1.697029e+000,-1.493858e-005,1.325131e-005
1.697824e+000,-1.695277e-005,1.323017e-005
1.698618e+000,-1.963836e-005,1.320476e-005
1.699412e+000,-2.098116e-005,1.319295e-005
1.700206e+000,-1.963836e-005,1.319295e-005
1.701000e+000,-1.997406e-005,1.318972e-005
1.701794e+000,-2.165255e-005,1.317680e-005
1.702588e+000,-2.500954e-005,1.317323e-005
1.703382e+000,-2.400244e-005,1.321335e-005
1.704176e+000,-2.232395e-005,1.326832e-005
1.704971e+000,-2.030976e-005,1.331705e-005
1.705765e+000,-1.963836e-005,1.335948e-005
1.706559e+000,-1.762417e-005,1.340173e-005
1.707353e+000,-1.158160e-005,1.343495e-005
1.708147e+000,-8.224612e-006,1.344146e-005
1.708941e+000,-4.364080e-006,1.344387e-005
1.709735e+000,1.678492e-007,1.344292e-005
1.710529e+000,5.874723e-006,1.344049e-005
1.711324e+000,9.231709e-006,1.344177e-005
1.712118e+000,6.546120e-006,1.344729e-005
1.712912e+000,5.874723e-006,1.344676e-005
1.713706e+000,-1.678492e-007,1.344721e-005
1.714500e+000,-5.539025e-006,1.344479e-005
1.715294e+000,-6.881819e-006,1.344479e-005
1.716088e+000,-1.107805e-005,1.344422e-005
1.716882e+000,-1.023880e-005,1.345008e-005
1.717676e+000,-5.706874e-006,1.345008e-005
1.718471e+000,-9.063859e-006,1.342982e-005
1.719265e+000,-1.426719e-005,1.341189e-005
1.720059e+000,-1.443504e-005,1.342192e-005
1.720853e+000,-1.426719e-005,1.342883e-005
1.721647e+000,-1.527428e-005,1.341471e-005
1.722441e+000,-1.359579e-005,1.340896e-005
1.723235e+000,-1.560998e-005,1.341107e-005
1.724029e+000,-1.762417e-005,1.341351e-005
1.724824e+000,-1.795987e-005,1.342329e-005
1.725618e+000,-1.795987e-005,1.343139e-005
1.726412e+000,-1.829557e-005,1.343280e-005
1.727206e+000,-1.560998e-005,1.343841e-005
1.728000e+000,-1.628138e-005,1.343255e-005
1.728794e+000,-1.829557e-005,1.344206e-005
1.729588e+000,-1.896696e-005,1.346759e-005
1.730382e+000,-1.762417e-005,1.349136e-005
1.731176e+000,-1.460288e-005,1.350830e-005
1.731971e+000,-1.426719e-005,1.351762e-005
1.732765e+000,-1.493858e-005,1.353004e-005
1.733559e+000,-1.594568e-005,1.355404e-005
1.734353e+000,-1.762417e-005,1.358323e-005
1.735147e+000,-1.594568e-005,1.361509e-005
1.735941e+000,-1.493858e-005,1.364076e-005
1.736735e+000,-1.460288e-005,1.366403e-005
1.737529e+000,-1.225299e-005,1.368846e-005
1.738324e+000,-1.225299e-005,1.370565e-005
1.739118e+000,-1.225299e-005,1.371861e-005
1.739912e+000,-1.225299e-005,1.372386e-005
1.740706e+000,-1.292439e-005,1.373066e-005
1.741500e+000,-9.231709e-006,1.374085e-005
1.742294e+000,-8.392462e-006,1.373974e-005
1.743088e+000,-7.888914e-006,1.372954e-005
1.743882e+000,-7.553216e-006,1.371531e-005
1.744676e+000,-6.881819e-006,1.369601e-005
1.745471e+000,-6.881819e-006,1.366537e-005
1.746265e+000,-8.224612e-006,1.362589e-005
1.747059e+000,-6.881819e-006,1.357458e-005
1.747853e+000,-4.867628e-006,1.350258e-005
1.748647e+000,-6.546120e-006,1.343143e-005
1.749441e+000,-7.553216e-006,1.337369e-005
1.750235e+000,-1.057450e-005,1.332715e-005
1.751029e+000,-1.158160e-005,1.327631e-005
1.751824e+000,-9.567407e-006,1.322511e-005
1.752618e+000,-1.376364e-005,1.319201e-005
1.753412e+000,-1.628138e-005,1.317144e-005
1.754206e+000,-1.728847e-005,1.314678e-005
1.755000e+000,-1.896696e-005,1.313547e-005
1.755794e+000,-1.930266e-005,1.314889e-005
1.756588e+000,-2.030976e-005,1.316637e-005
1.757382e+000,-2.198825e-005,1.319904e-005
1.758176e+000,-2.165255e-005,1.324545e-005
1.758971e+000,-2.165255e-005,1.328744e-005
1.759765e+000,-1.930266e-005,1.332032e-005
1.760559e+000,-1.560998e-005,1.334590e-005
1.761353e+000,-1.359579e-005,1.335291e-005
1.762147e+000,-1.158160e-005,1.334068e-005
1.762941e+000,-7.553216e-006,1.333005e-005
1.763735e+000,-8.224612e-006,1.332084e-005
1.764529e+000,-6.881819e-006,1.331048e-005
1.765324e+000,-6.546120e-006,1.329915e-005
1.766118e+000,-4.867628e-006,1.327632e-005
1.766912e+000,-7.049668e-006,1.324601e-005
1.767706e+000,-3.189136e-006,1.322267e-005
1.768500e+000,-3.189136e-006,1.320107e-005
1.769294e+000,-4.196231e-006,1.318964e-005
1.770088e+000,-6.210422e-006,1.318605e-005
1.770882e+000,-5.874723e-006,1.319070e-005
1.771676e+000,-6.881819e-006,1.319307e-005
1.772471e+000,-6.881819e-006,1.319729e-005
1.773265e+000,-1.107805e-005,1.319973e-005
1.774059e+000,-1.560998e-005,1.320703e-005
1.774853e+000,-1.560998e-005,1.322612e-005
1.775647e+000,-1.426719e-005,1.324364e-005
1.776441e+000,-1.292439e-005,1.325929e-005
1.777235e+000,-7.553216e-006,1.327520e-005
1.778029e+000,1.510643e-006,1.328147e-005
1.778824e+000,1.007095e-006,1.328025e-005
1.779618e+000,-4.196231e-006,1.327624e-005
1.780412e+000,-4.867628e-006,1.326493e-005
1.781206e+000,-6.210422e-006,1.324557e-005
1.782000e+000,-4.196231e-006,1.320992e-005
1.782794e+000,-4.196231e-006,1.316861e-005
1.783588e+000,-4.531929e-006,1.313021e-005
1.784382e+000,-3.692683e-006,1.308823e-005
1.785176e+000,-4.196231e-006,1.305205e-005
1.785971e+000,-1.023880e-005,1.302315e-005
1.786765e+000,-1.493858e-005,1.299796e-005
1.787559e+000,-1.829557e-005,1.298724e-005
1.788353e+000,-2.383459e-005,1.300091e-005
1.789147e+000,-2.366674e-005,1.304777e-005
1.789941e+000,-2.249180e-005,1.308101e-005
1.790735e+000,-2.467384e-005,1.310404e-005
1.791529e+000,-2.635233e-005,1.313730e-005
1.792324e+000,-2.366674e-005,1.318083e-005
1.793118e+000,-2.265965e-005,1.320501e-005
1.793912e+000,-2.232395e-005,1.321718e-005
1.794706e+000,-2.064546e-005,1.322587e-005
1.795500e+000,-1.426719e-005,1.322419e-005
1.796294e+000,-1.158160e-005,1.320144e-005
1.797088e+000,-1.326009e-005,1.318430e-005
1.797882e+000,-1.594568e-005,1.318536e-005
1.798676e+000,-1.426719e-005,1.320788e-005
1.799471e+000,-1.309224e-005,1.322426e-005
1.800265e+000,-1.158160e-005,1.323536e-005
1.801059e+000,-1.174945e-005,1.324463e-005
1.801853e+000,-1.225299e-005,1.325437e-005
1.802647e+000,-9.903105e-006,1.326360e-005
1.803441e+000,-7.217518e-006,1.326968e-005
1.804235e+000,-4.867628e-006,1.327179e-005
1.805029e+000,-3.860533e-006,1.327001e-005
1.805824e+000,-7.553216e-006,1.326003e-005
1.806618e+000,-9.903105e-006,1.326273e-005
1.807412e+000,-8.896010e-006,1.327239e-005
1.808206e+000,-8.896010e-006,1.327942e-005
1.809000e+000,-1.091020e-005,1.328377e-005
1.809794e+000,-9.567407e-006,1.328004e-005
1.810588e+000,-1.040665e-005,1.326885e-005
1.811382e+000,-1.091020e-005,1.326074e-005
1.812176e+000,-1.309224e-005,1.325172e-005
1.812971e+000,-1.359579e-005,1.326093e-005
1.813765e+000,-1.426719e-005,1.326883e-005
1.814559e+000,-1.628138e-005,1.327424e-005
1.815353e+000,-1.594568e-005,1.328162e-005
1.816147e+000,-1.628138e-005,1.328939e-005
1.816941e+000,-1.560998e-005,1.330460e-005
1.817735e+000,-1.560998e-005,1.331862e-005
1.818529e+000,-1.560998e-005,1.333351e-005
1.819324e+000,-1.510643e-005,1.334266e-005
1.820118e+000,-1.527428e-005,1.334891e-005
1.820912e+000,-1.493858e-005,1.335469e-005
1.821706e+000,-1.443504e-005,1.334969e-005
1.822500e+000,-1.359579e-005,1.333749e-005
1.823294e+000,-1.560998e-005,1.331659e-005
1.824088e+000,-1.359579e-005,1.328964e-005
1.824882e+000,-9.903105e-006,1.325021e-005
1.825676e+000,-4.196231e-006,1.321872e-005
1.826471e+000,-5.035477e-007,1.317107e-005
1.827265e+000,5.035477e-007,1.312439e-005
1.828059e+000,2.517739e-006,1.309852e-005
1.828853e+000,-1.678492e-007,1.308391e-005
1.829647e+000,-4.196231e-006,1.307568e-005
1.830441e+000,-6.210422e-006,1.307782e-005
1.831235e+000,-1.057450e-005,1.307730e-005
1.832029e+000,-1.560998e-005,1.308717e-005
1.832824e+000,-1.661708e-005,1.311017e-005
1.833618e+000,-1.930266e-005,1.313764e-005
1.834412e+000,-2.030976e-005,1.318256e-005
1.835206e+000,-2.030976e-005,1.323017e-005
1.836000e+000,-1.829557e-005,1.327404e-005
1.836794e+000,-1.896696e-005,1.330731e-005
1.837588e+000,-1.963836e-005,1.333035e-005
1.838382e+000,-1.896696e-005,1.333268e-005
1.839176e+000,-1.930266e-005,1.333640e-005
1.839971e+000,-1.997406e-005,1.334724e-005
1.840765e+000,-1.628138e-005,1.336321e-005
1.841559e+000,-1.628138e-005,1.337222e-005
1.842353e+000,-1.359579e-005,1.336956e-005
1.843147e+000,-1.493858e-005,1.335457e-005
1.843941e+000,-1.493858e-005,1.333518e-005
1.844735e+000,-1.393149e-005,1.331886e-005
1.845529e+000,-9.903105e-006,1.331356e-005
1.846324e+000,-5.539025e-006,1.328811e-005
1.847118e+000,5.035477e-007,1.325452e-005
1.847912e+000,5.874723e-006,1.323650e-005
1.848706e+000,8.560311e-006,1.322259e-005
1.849500e+000,5.203327e-006,1.320453e-005
1.850294e+000,4.531929e-006,1.319161e-005
1.851088e+000,5.035477e-007,1.317596e-005
1.851882e+000,-7.553216e-006,1.316069e-005
1.852676e+000,-1.023880e-005,1.314943e-005
1.853471e+000,-1.158160e-005,1.314083e-005
1.854265e+000,-1.158160e-005,1.313468e-005
1.855059e+000,-1.225299e-005,1.313561e-005
1.855853e+000,-1.258869e-005,1.312614e-005
1.856647e+000,-1.174945e-005,1.311580e-005
1.857441e+000,-9.903105e-006,1.311228e-005
1.858235e+000,-1.091020e-005,1.310929e-005
1.859029e+000,-1.040665e-005,1.310929e-005
1.859824e+000,-1.426719e-005,1.311669e-005
1.860618e+000,-1.829557e-005,1.313142e-005
1.861412e+000,-2.047761e-005,1.316164e-005
1.862206e+000,-2.131685e-005,1.319747e-005
1.863000e+000,-2.165255e-005,1.323414e-005
1.863794e+000,-2.165255e-005,1.327786e-005
1.864588e+000,-2.198825e-005,1.332715e-005
1.865382e+000,-2.165255e-005,1.336692e-005
1.866176e+000,-1.762417e-005,1.339849e-005
1.866971e+000,-1.460288e-005,1.342209e-005
1.867765e+000,-1.560998e-005,1.342324e-005
1.868559e+000,-1.292439e-005,1.342800e-005
1.869353e+000,-8.560311e-006,1.342589e-005
1.870147e+000,-7.049668e-006,1.341677e-005
1.870941e+000,-9.567407e-006,1.340385e-005
1.871735e+000,-1.359579e-005,1.338997e-005
1.872529e+000,-1.493858e-005,1.337911e-005
1.873324e+000,-1.443504e-005,1.337666e-005
1.874118e+000,-1.393149e-005,1.338360e-005
1.874912e+000,-1.258869e-005,1.338783e-005
1.875706e+000,-9.567407e-006,1.338470e-005
1.876500e+000,-3.189136e-006,1.337249e-005
1.877294e+000,-3.524834e-006,1.335112e-005
1.878088e+000,-6.210422e-006,1.333054e-005
1.878882e+000,-7.217518e-006,1.331621e-005
1.879676e+000,-6.881819e-006,1.329072e-005
1.880471e+000,-7.888914e-006,1.328124e-005
1.881265e+000,-1.023880e-005,1.327921e-005
1.882059e+000,-1.326009e-005,1.328367e-005
1.882853e+000,-1.661708e-005,1.329663e-005
1.883647e+000,-2.114900e-005,1.331543e-005
1.884441e+000,-1.930266e-005,1.336076e-005
1.885235e+000,-1.628138e-005,1.340227e-005
1.886029e+000,-1.762417e-005,1.343092e-005
1.886824e+000,-1.628138e-005,1.346695e-005
1.887618e+000,-1.560998e-005,1.349825e-005
1.888412e+000,-1.628138e-005,1.352577e-005
1.889206e+000,-9.735256e-006,1.355548e-005
1.890000e+000,-4.867628e-006,1.356454e-005
1.890794e+000,-4.196231e-006,1.356063e-005
1.891588e+000,-4.867628e-006,1.355686e-005
1.892382e+000,-3.524834e-006,1.355757e-005
1.893176e+000,-1.846342e-006,1.355450e-005
1.893971e+000,-2.853437e-006,1.354878e-005
1.894765e+000,-4.196231e-006,1.354242e-005
1.895559e+000,-5.539025e-006,1.352166e-005
1.896353e+000,-3.860533e-006,1.348865e-005
1.897147e+000,-3.021286e-006,1.345645e-005
1.897941e+000,-8.224612e-006,1.341337e-005
1.898735e+000,-1.023880e-005,1.337237e-005
1.899529e+000,-1.258869e-005,1.333730e-005
1.900324e+000,-1.426719e-005,1.331093e-005
1.901118e+000,-1.426719e-005,1.330858e-005
1.901912e+000,-1.493858e-005,1.332483e-005
1.902706e+000,-1.628138e-005,1.335050e-005
1.903500e+000,-1.762417e-005,1.337843e-005
1.904294e+000,-1.997406e-005,1.340122e-005
1.905088e+000,-1.930266e-005,1.342554e-005
1.905882e+000,-1.896696e-005,1.345286e-005
1.906676e+000,-2.030976e-005,1.348217e-005
1.907471e+000,-1.913481e-005,1.350332e-005
1.908265e+000,-1.292439e-005,1.351125e-005
1.909059e+000,-1.023880e-005,1.350096e-005
1.909853e+000,-1.023880e-005,1.348205e-005
1.910647e+000,-8.728161e-006,1.346311e-005
1.911441e+000,-8.224612e-006,1.345025e-005
1.912235e+000,-4.867628e-006,1.343183e-005
1.913029e+000,-5.874723e-006,1.340053e-005
1.913824e+000,-1.225299e-005,1.337179e-005
1.914618e+000,-1.292439e-005,1.337079e-005
1.915412e+000,-1.191730e-005,1.337079e-005
1.916206e+000,-1.258869e-005,1.335070e-005
1.917000e+000,-1.057450e-005,1.332667e-005
1.917794e+000,-1.091020e-005,1.332007e-005
1.918588e+000,-1.913481e-005,1.331220e-005
1.919382e+000,-2.232395e-005,1.333600e-005
1.920176e+000,-2.299535e-005,1.337115e-005
1.920971e+000,-2.198825e-005,1.341416e-005
1.921765e+000,-1.795987e-005,1.345903e-005
1.922559e+000,-1.795987e-005,1.349041e-005
1.923353e+000,-1.628138e-005,1.352364e-005
1.924147e+000,-1.393149e-005,1.354978e-005
1.924941e+000,-1.493858e-005,1.356701e-005
1.925735e+000,-1.762417e-005,1.358526e-005
1.926529e+000,-1.795987e-005,1.361236e-005
1.927324e+000,-1.628138e-005,1.363699e-005
1.928118e+000,-1.695277e-005,1.365724e-005
1.928912e+000,-1.896696e-005,1.367930e-005
1.929706e+000,-1.863127e-005,1.370171e-005
1.930500e+000,-1.493858e-005,1.372819e-005
1.931294e+000,-1.493858e-005,1.374622e-005
1.932088e+000,-1.510643e-005,1.376709e-005
1.932882e+000,-1.174945e-005,1.379109e-005
1.933676e+000,-7.553216e-006,1.380429e-005
1.934471e+000,-2.853437e-006,1.380486e-005
1.935265e+000,3.692683e-006,1.380033e-005
1.936059e+000,1.191730e-005,1.379837e-005
1.936853e+000,9.735256e-006,1.381182e-005
1.937647e+000,3.524834e-006,1.382248e-005
1.938441e+000,5.035477e-006,1.382188e-005
1.939235e+000,4.531929e-006,1.381273e-005
1.940029e+000,5.203327e-006,1.379681e-005
1.940824e+000,7.217518e-006,1.378354e-005
1.941618e+000,5.539025e-006,1.377406e-005
1.942412e+000,-1.174945e-006,1.375623e-005
1.943206e+000,-5.874723e-006,1.373704e-005
1.944000e+000,-1.174945e-005,1.372167e-005
1.944794e+000,-1.510643e-005,1.372387e-005
1.945588e+000,-1.560998e-005,1.373097e-005
1.946382e+000,-1.728847e-005,1.373779e-005
1.947176e+000,-2.165255e-005,1.374656e-005
1.947971e+000,-2.433814e-005,1.376757e-005
1.948765e+000,-2.836652e-005,1.379145e-005
1.949559e+000,-2.903792e-005,1.383346e-005
1.950353e+000,-2.534523e-005,1.388603e-005
1.951147e+000,-2.098116e-005,1.391392e-005
1.951941e+000,-1.846342e-005,1.391064e-005
1.952735e+000,-1.393149e-005,1.387803e-005
1.953529e+000,-1.628138e-005,1.383412e-005
1.954324e+000,-1.326009e-005,1.380725e-005
1.955118e+000,-1.158160e-005,1.377993e-005
1.955912e+000,-1.124590e-005,1.375083e-005
1.956706e+000,-9.567407e-006,1.372949e-005
1.957500e+000,-1.023880e-005,1.372455e-005
1.958294e+000,-9.063859e-006,1.372886e-005
1.959088e+000,-8.224612e-006,1.373618e-005
1.959882e+000,-8.224612e-006,1.374402e-005
1.960676e+000,-9.903105e-006,1.374785e-005
1.961471e+000,-9.903105e-006,1.374934e-005
1.962265e+000,-1.258869e-005,1.375574e-005
1.963059e+000,-1.091020e-005,1.377008e-005
1.963853e+000,-6.881819e-006,1.378383e-005
1.964647e+000,-6.210422e-006,1.378576e-005
1.965441e+000,-8.224612e-006,1.378474e-005
1.966235e+000,-1.023880e-005,1.377838e-005
1.967029e+000,-1.091020e-005,1.377838e-005
1.967824e+000,-1.359579e-005,1.378837e-005
1.968618e+000,-1.292439e-005,1.380022e-005
1.969412e+000,-1.560998e-005,1.379601e-005
1.970206e+000,-1.846342e-005,1.380008e-005
1.971000e+000,-1.762417e-005,1.381592e-005
1.971794e+000,-1.628138e-005,1.382483e-005
1.972588e+000,-1.695277e-005,1.383407e-005
1.973382e+000,-1.560998e-005,1.383910e-005
1.974176e+000,-1.359579e-005,1.383140e-005
1.974971e+000,-1.728847e-005,1.381553e-005
1.975765e+000,-1.678492e-005,1.381280e-005
1.976559e+000,-1.493858e-005,1.380669e-005
1.977353e+000,-1.628138e-005,1.380433e-005
1.978147e+000,-1.661708e-005,1.380433e-005
1.978941e+000,-2.030976e-005,1.379757e-005
1.979735e+000,-1.795987e-005,1.380365e-005
1.980529e+000,-1.493858e-005,1.380503e-005
1.981324e+000,-1.326009e-005,1.380617e-005
1.982118e+000,-1.174945e-005,1.380298e-005
1.982912e+000,-1.023880e-005,1.379315e-005
1.983706e+000,-9.903105e-006,1.377589e-005
1.984500e+000,-6.881819e-006,1.375130e-005
1.985294e+000,-8.560311e-006,1.372732e-005
1.986088e+000,-1.191730e-005,1.370993e-005
1.986882e+000,-1.359579e-005,1.370165e-005
1.987676e+000,-1.023880e-005,1.370568e-005
1.988471e+000,-8.560311e-006,1.370042e-005
1.989265e+000,-1.057450e-005,1.369148e-005
1.990059e+000,-1.426719e-005,1.368703e-005
1.990853e+000,-1.695277e-005,1.369127e-005
1.991647e+000,-1.896696e-005,1.371477e-005
1.992441e+000,-1.963836e-005,1.374832e-005
1.993235e+000,-1.628138e-005,1.378573e-005
1.994029e+000,-9.567407e-006,1.380973e-005
1.994824e+000,-6.210422e-006,1.381483e-005
1.995618e+000,-6.881819e-006,1.381381e-005
1.996412e+000,-5.035477e-007,1.381148e-005
1.997206e+000,1.510643e-006,1.380604e-005
1.998000e+000,5.035477e-007,1.380357e-005
1.998794e+000,2.853437e-006,1.379866e-005
1.999588e+000,3.524834e-006,1.379301e-005
2.000382e+000,2.517739e-006,1.378153e-005
2.001176e+000,-4.196231e-006,1.376676e-005
2.001971e+000,-8.896010e-006,1.375821e-005
2.002765e+000,-1.292439e-005,1.374543e-005
2.003559e+000,-1.292439e-005,1.373407e-005
2.004353e+000,-1.225299e-005,1.371878e-005
2.005147e+000,-1.359579e-005,1.369443e-005
2.005941e+000,-1.292439e-005,1.367258e-005
2.006735e+000,-1.644922e-005,1.364396e-005
2.007529e+000,-1.393149e-005,1.361909e-005
2.008324e+000,-1.812772e-005,1.358693e-005
2.009118e+000,-1.829557e-005,1.357049e-005
2.009912e+000,-1.493858e-005,1.356604e-005
2.010706e+000,-1.493858e-005,1.356363e-005
2.011500e+000,-1.225299e-005,1.356813e-005
2.012294e+000,-1.023880e-005,1.357001e-005
2.013088e+000,-1.091020e-005,1.357562e-005
2.013882e+000,-1.174945e-005,1.358164e-005
2.014676e+000,-7.553216e-006,1.359227e-005
2.015471e+000,-8.224612e-006,1.359393e-005
2.016265e+000,-1.174945e-005,1.359908e-005
2.017059e+000,-1.359579e-005,1.360942e-005
2.017853e+000,-1.124590e-005,1.362984e-005
2.018647e+000,-1.460288e-005,1.364343e-005
2.019441e+000,-1.695277e-005,1.366624e-005
2.020235e+000,-1.712062e-005,1.369520e-005
2.021029e+000,-1.628138e-005,1.372524e-005
2.021824e+000,-1.443504e-005,1.375047e-005
2.022618e+000,-9.735256e-006,1.376911e-005
2.023412e+000,-8.896010e-006,1.376587e-005
2.024206e+000,-1.057450e-005,1.374683e-005
2.025000e+000,-1.158160e-005,1.373155e-005
2.025794e+000,-1.023880e-005,1.372349e-005
2.026588e+000,-1.091020e-005,1.371627e-005
2.027382e+000,-1.309224e-005,1.372347e-005
2.028176e+000,-1.560998e-005,1.374308e-005
2.028971e+000,-1.527428e-005,1.377116e-005
2.029765e+000,-1.158160e-005,1.379608e-005
2.030559e+000,-1.124590e-005,1.380882e-005
2.031353e+000,-1.628138e-005,1.381896e-005
2.032147e+000,-1.829557e-005,1.384744e-005
2.032941e+000,-1.896696e-005,1.388386e-005
2.033735e+000,-1.829557e-005,1.392271e-005
2.034529e+000,-1.762417e-005,1.395939e-005
2.035324e+000,-1.628138e-005,1.399277e-005
2.036118e+000,-1.426719e-005,1.401100e-005
2.036912e+000,-1.493858e-005,1.400877e-005
2.037706e+000,-1.644922e-005,1.399608e-005
2.038500e+000,-1.695277e-005,1.396219e-005
2.039294e+000,-1.963836e-005,1.393105e-005
2.040088e+000,-1.963836e-005,1.391730e-005
2.040882e+000,-1.376364e-005,1.389175e-005
2.041676e+000,-8.896010e-006,1.383374e-005
2.042471e+000,-8.896010e-006,1.377827e-005
2.043265e+000,-7.217518e-006,1.372798e-005
2.044059e+000,-2.182040e-006,1.367612e-005
2.044853e+000,-4.867628e-006,1.362696e-005
2.045647e+000,-3.189136e-006,1.360592e-005
2.046441e+000,-5.539025e-006,1.359141e-005
2.047235e+000,-4.531929e-006,1.357439e-005
2.048029e+000,-3.021286e-006,1.354695e-005
2.048824e+000,-5.035477e-006,1.352407e-005
2.049618e+000,-1.091020e-005,1.350687e-005
2.050412e+000,-1.393149e-005,1.350509e-005
2.051206e+000,-1.292439e-005,1.351169e-005
2.052000e+000,-1.258869e-005,1.351368e-005
2.052794e+000,-7.888914e-006,1.352080e-005
2.053588e+000,-5.706874e-006,1.352199e-005
2.054382e+000,-6.881819e-006,1.352304e-005
2.055176e+000,-1.225299e-005,1.352686e-005
2.055971e+000,-1.493858e-005,1.353781e-005
2.056765e+000,-1.628138e-005,1.355252e-005
2.057559e+000,-1.527428e-005,1.357435e-005
2.058353e+000,-1.762417e-005,1.359242e-005
2.059147e+000,-1.728847e-005,1.361485e-005
2.059941e+000,-2.249180e-005,1.363908e-005
2.060735e+000,-2.769513e-005,1.368542e-005
2.061529e+000,-2.702373e-005,1.376061e-005
2.062324e+000,-2.601663e-005,1.382513e-005
2.063118e+000,-2.383459e-005,1.388168e-005
2.063912e+000,-2.299535e-005,1.392343e-005
2.064706e+000,-1.913481e-005,1.395356e-005
2.065500e+000,-1.930266e-005,1.396632e-005
2.066294e+000,-1.594568e-005,1.397857e-005
2.067088e+000,-8.896010e-006,1.397978e-005
2.067882e+000,-2.182040e-006,1.396103e-005
2.068676e+000,5.874723e-006,1.393375e-005
2.069471e+000,1.191730e-005,1.391160e-005
2.070265e+000,1.258869e-005,1.390115e-005
2.071059e+000,1.376364e-005,1.389373e-005
2.071853e+000,8.560311e-006,1.389156e-005
2.072647e+000,4.531929e-006,1.387877e-005
2.073441e+000,1.678492e-007,1.385314e-005
2.074235e+000,2.182040e-006,1.383188e-005
2.075029e+000,5.035477e-007,1.382114e-005
2.075824e+000,-1.678492e-006,1.381914e-005
2.076618e+000,-3.189136e-006,1.381943e-005
2.077412e+000,-5.539025e-006,1.382058e-005
2.078206e+000,-1.091020e-005,1.382338e-005
2.079000e+000,-1.695277e-005,1.383708e-005
2.079794e+000,-2.232395e-005,1.386810e-005
2.080588e+000,-2.433814e-005,1.392079e-005
2.081382e+000,-2.232395e-005,1.397565e-005
2.082176e+000,-2.165255e-005,1.400463e-005
2.082971e+000,-2.165255e-005,1.402653e-005
2.083765e+000,-2.198825e-005,1.403745e-005
2.084559e+000,-2.299535e-005,1.404550e-005
2.085353e+000,-2.165255e-005,1.405868e-005
2.086147e+000,-1.695277e-005,1.407386e-005
2.086941e+000,-1.628138e-005,1.406567e-005
2.087735e+000,-1.795987e-005,1.405202e-005
2.088529e+000,-2.030976e-005,1.404780e-005
2.089324e+000,-1.829557e-005,1.405232e-005
2.090118e+000,-1.493858e-005,1.404504e-005
2.090912e+000,-1.493858e-005,1.404029e-005
2.091706e+000,-1.460288e-005,1.403553e-005
2.092500e+000,-1.712062e-005,1.403876e-005
2.093294e+000,-1.762417e-005,1.404669e-005
2.094088e+000,-1.980621e-005,1.405660e-005
2.094882e+000,-1.695277e-005,1.407903e-005
2.095676e+000,-1.661708e-005,1.410043e-005
2.096471e+000,-1.426719e-005,1.412812e-005
2.097265e+000,-1.258869e-005,1.415102e-005
2.098059e+000,-1.023880e-005,1.416496e-005
2.098853e+000,-9.567407e-006,1.416851e-005
2.099647e+000,-6.378271e-006,1.417575e-005
2.100441e+000,-2.182040e-006,1.417801e-005
2.101235e+000,-1.678492e-007,1.417852e-005
2.102029e+000,3.860533e-006,1.417211e-005
2.102824e+000,9.903105e-006,1.416200e-005
2.103618e+000,1.258869e-005,1.415795e-005
2.104412e+000,1.191730e-005,1.416069e-005
2.105206e+000,5.203327e-006,1.415977e-005
2.106000e+000,-5.203327e-006,1.414499e-005
2.106794e+000,-9.903105e-006,1.413249e-005
2.107588e+000,-1.359579e-005,1.413249e-005
2.108382e+000,-1.560998e-005,1.413990e-005
2.109176e+000,-1.527428e-005,1.415514e-005
2.109971e+000,-1.426719e-005,1.415849e-005
2.110765e+000,-1.829557e-005,1.414373e-005
2.111559e+000,-2.198825e-005,1.413420e-005
2.112353e+000,-2.652018e-005,1.413747e-005
2.113147e+000,-2.970932e-005,1.416386e-005
2.113941e+000,-2.735943e-005,1.421031e-005
2.114735e+000,-2.467384e-005,1.423998e-005
2.115529e+000,-2.735943e-005,1.425562e-005
2.116324e+000,-2.433814e-005,1.430445e-005
2.117118e+000,-1.628138e-005,1.434659e-005
2.117912e+000,-1.460288e-005,1.434897e-005
2.118706e+000,-1.359579e-005,1.435409e-005
2.119500e+000,-1.258869e-005,1.436647e-005
2.120294e+000,-9.567407e-006,1.437852e-005
2.121088e+000,-2.182040e-006,1.437852e-005
2.121882e+000,4.531929e-006,1.435856e-005
2.122676e+000,4.867628e-006,1.433607e-005
2.123471e+000,-2.853437e-006,1.431554e-005
2.124265e+000,-5.874723e-006,1.429485e-005
2.125059e+000,-7.553216e-006,1.428103e-005
2.125853e+000,-8.392462e-006,1.427719e-005
2.126647e+000,-1.023880e-005,1.428390e-005
2.127441e+000,-1.225299e-005,1.429420e-005
2.128235e+000,-1.141375e-005,1.430663e-005
2.129029e+000,-1.460288e-005,1.431532e-005
2.129824e+000,-1.628138e-005,1.433376e-005
2.130618e+000,-1.493858e-005,1.435628e-005
2.131412e+000,-1.359579e-005,1.436940e-005
2.132206e+000,-1.795987e-005,1.437040e-005
2.133000e+000,-1.896696e-005,1.437554e-005
2.133794e+000,-1.577783e-005,1.436584e-005
2.134588e+000,-1.829557e-005,1.435213e-005
2.135382e+000,-1.963836e-005,1.435986e-005
2.136176e+000,-1.980621e-005,1.436818e-005
2.136971e+000,-2.030976e-005,1.438227e-005
2.137765e+000,-1.795987e-005,1.440094e-005
2.138559e+000,-1.426719e-005,1.440730e-005
2.139353e+000,-1.225299e-005,1.441932e-005
2.140147e+000,-1.023880e-005,1.443327e-005
2.140941e+000,-6.881819e-006,1.444289e-005
2.141735e+000,-6.881819e-006,1.444550e-005
2.142529e+000,-7.553216e-006,1.444935e-005
2.143324e+000,-8.224612e-006,1.445526e-005
2.144118e+000,-9.567407e-006,1.446182e-005
2.144912e+000,-6.546120e-006,1.446995e-005
2.145706e+000,-4.531929e-006,1.447129e-005
2.146500e+000,-3.189136e-006,1.447191e-005
2.147294e+000,-3.189136e-006,1.447203e-005
2.148088e+000,-6.210422e-006,1.446570e-005
2.148882e+000,-6.881819e-006,1.445841e-005
2.149676e+000,-6.881819e-006,1.444616e-005
2.150471e+000,-8.392462e-006,1.442894e-005
2.151265e+000,-9.903105e-006,1.441424e-005
2.152059e+000,-9.231709e-006,1.440041e-005
2.152853e+000,-1.309224e-005,1.438051e-005
2.153647e+000,-1.762417e-005,1.436509e-005
2.154441e+000,-1.963836e-005,1.435529e-005
2.155235e+000,-2.064546e-005,1.435674e-005
2.156029e+000,-1.795987e-005,1.436411e-005
2.156824e+000,-2.030976e-005,1.435414e-005
2.157618e+000,-1.963836e-005,1.435928e-005
2.158412e+000,-1.829557e-005,1.438351e-005
2.159206e+000,-1.762417e-005,1.440894e-005
2.160000e+000,-1.510643e-005,1.443166e-005
2.160794e+000,-8.560311e-006,1.444842e-005
2.161588e+000,-4.867628e-006,1.444904e-005
2.162382e+000,-2.853437e-006,1.444904e-005
2.163176e+000,-1.678492e-007,1.444614e-005
2.163971e+000,1.174945e-006,1.442958e-005
2.164765e+000,-1.678492e-006,1.441129e-005
2.165559e+000,-2.182040e-006,1.439590e-005
2.166353e+000,-4.196231e-006,1.437889e-005
2.167147e+000,-5.203327e-006,1.436845e-005
