X [s],L DELTOID POSTERIOR: EMG 5 [V],L DELTOID POSTERIOR: EMG 5->filter (FilterSlidingRMS51) [V]
0.000000e+000,0.000000e+000,0.000000e+000
7.941176e-004,0.000000e+000,0.000000e+000
1.588235e-003,0.000000e+000,0.000000e+000
2.382353e-003,0.000000e+000,0.000000e+000
3.176471e-003,0.000000e+000,0.000000e+000
3.970588e-003,0.000000e+000,0.000000e+000
4.764706e-003,0.000000e+000,0.000000e+000
5.558824e-003,0.000000e+000,0.000000e+000
6.352941e-003,0.000000e+000,0.000000e+000
7.147059e-003,0.000000e+000,0.000000e+000
7.941176e-003,0.000000e+000,0.000000e+000
8.735294e-003,0.000000e+000,0.000000e+000
9.529412e-003,0.000000e+000,0.000000e+000
1.032353e-002,0.000000e+000,0.000000e+000
1.111765e-002,0.000000e+000,0.000000e+000
1.191176e-002,0.000000e+000,0.000000e+000
1.270588e-002,0.000000e+000,0.000000e+000
1.350000e-002,0.000000e+000,0.000000e+000
1.429412e-002,0.000000e+000,0.000000e+000
1.508824e-002,0.000000e+000,0.000000e+000
1.588235e-002,0.000000e+000,0.000000e+000
1.667647e-002,0.000000e+000,0.000000e+000
1.747059e-002,0.000000e+000,0.000000e+000
1.826471e-002,0.000000e+000,0.000000e+000
1.905882e-002,0.000000e+000,0.000000e+000
1.985294e-002,0.000000e+000,0.000000e+000
2.064706e-002,0.000000e+000,0.000000e+000
2.144118e-002,0.000000e+000,0.000000e+000
2.223529e-002,0.000000e+000,0.000000e+000
2.302941e-002,0.000000e+000,0.000000e+000
2.382353e-002,0.000000e+000,0.000000e+000
2.461765e-002,0.000000e+000,0.000000e+000
2.541176e-002,0.000000e+000,0.000000e+000
2.620588e-002,0.000000e+000,0.000000e+000
2.700000e-002,0.000000e+000,0.000000e+000
2.779412e-002,0.000000e+000,0.000000e+000
2.858824e-002,0.000000e+000,0.000000e+000
2.938235e-002,0.000000e+000,0.000000e+000
3.017647e-002,0.000000e+000,0.000000e+000
3.097059e-002,0.000000e+000,0.000000e+000
3.176471e-002,0.000000e+000,0.000000e+000
3.255882e-002,0.000000e+000,0.000000e+000
3.335294e-002,0.000000e+000,0.000000e+000
3.414706e-002,0.000000e+000,0.000000e+000
3.494118e-002,0.000000e+000,0.000000e+000
3.573529e-002,0.000000e+000,0.000000e+000
3.652941e-002,0.000000e+000,0.000000e+000
3.732353e-002,0.000000e+000,0.000000e+000
3.811765e-002,0.000000e+000,0.000000e+000
3.891176e-002,0.000000e+000,0.000000e+000
3.970588e-002,0.000000e+000,0.000000e+000
4.050000e-002,0.000000e+000,0.000000e+000
4.129412e-002,0.000000e+000,0.000000e+000
4.208824e-002,0.000000e+000,0.000000e+000
4.288235e-002,0.000000e+000,0.000000e+000
4.367647e-002,0.000000e+000,0.000000e+000
4.447059e-002,0.000000e+000,0.000000e+000
4.526471e-002,0.000000e+000,0.000000e+000
4.605882e-002,0.000000e+000,0.000000e+000
4.685294e-002,0.000000e+000,0.000000e+000
4.764706e-002,0.000000e+000,0.000000e+000
4.844118e-002,0.000000e+000,0.000000e+000
4.923529e-002,0.000000e+000,0.000000e+000
5.002941e-002,0.000000e+000,0.000000e+000
5.082353e-002,0.000000e+000,0.000000e+000
5.161765e-002,0.000000e+000,0.000000e+000
5.241176e-002,0.000000e+000,0.000000e+000
5.320588e-002,0.000000e+000,0.000000e+000
5.400000e-002,0.000000e+000,0.000000e+000
5.479412e-002,0.000000e+000,0.000000e+000
5.558824e-002,0.000000e+000,0.000000e+000
5.638235e-002,0.000000e+000,0.000000e+000
5.717647e-002,0.000000e+000,0.000000e+000
5.797059e-002,0.000000e+000,0.000000e+000
5.876471e-002,0.000000e+000,0.000000e+000
5.955882e-002,0.000000e+000,0.000000e+000
6.035294e-002,0.000000e+000,0.000000e+000
6.114706e-002,0.000000e+000,0.000000e+000
6.194118e-002,0.000000e+000,0.000000e+000
6.273529e-002,0.000000e+000,0.000000e+000
6.352941e-002,0.000000e+000,0.000000e+000
6.432353e-002,0.000000e+000,0.000000e+000
6.511765e-002,0.000000e+000,0.000000e+000
6.591176e-002,0.000000e+000,0.000000e+000
6.670588e-002,0.000000e+000,0.000000e+000
6.750000e-002,0.000000e+000,0.000000e+000
6.829412e-002,0.000000e+000,0.000000e+000
6.908824e-002,0.000000e+000,0.000000e+000
6.988235e-002,0.000000e+000,0.000000e+000
7.067647e-002,0.000000e+000,0.000000e+000
7.147059e-002,0.000000e+000,0.000000e+000
7.226471e-002,0.000000e+000,0.000000e+000
7.305882e-002,0.000000e+000,0.000000e+000
7.385294e-002,0.000000e+000,0.000000e+000
7.464706e-002,0.000000e+000,0.000000e+000
7.544118e-002,0.000000e+000,0.000000e+000
7.623529e-002,0.000000e+000,0.000000e+000
7.702941e-002,0.000000e+000,0.000000e+000
7.782353e-002,0.000000e+000,0.000000e+000
7.861765e-002,0.000000e+000,0.000000e+000
7.941176e-002,0.000000e+000,0.000000e+000
8.020588e-002,0.000000e+000,0.000000e+000
8.100000e-002,0.000000e+000,0.000000e+000
8.179412e-002,0.000000e+000,0.000000e+000
8.258824e-002,0.000000e+000,0.000000e+000
8.338235e-002,0.000000e+000,0.000000e+000
8.417647e-002,0.000000e+000,0.000000e+000
8.497059e-002,0.000000e+000,0.000000e+000
8.576471e-002,0.000000e+000,0.000000e+000
8.655882e-002,0.000000e+000,0.000000e+000
8.735294e-002,0.000000e+000,0.000000e+000
8.814706e-002,0.000000e+000,0.000000e+000
8.894118e-002,0.000000e+000,0.000000e+000
8.973529e-002,0.000000e+000,0.000000e+000
9.052941e-002,0.000000e+000,0.000000e+000
9.132353e-002,0.000000e+000,0.000000e+000
9.211765e-002,0.000000e+000,0.000000e+000
9.291176e-002,0.000000e+000,0.000000e+000
9.370588e-002,0.000000e+000,0.000000e+000
9.450000e-002,-7.217518e-006,0.000000e+000
9.529412e-002,1.678492e-007,0.000000e+000
9.608824e-002,1.174945e-006,0.000000e+000
9.688235e-002,8.392462e-007,0.000000e+000
9.767647e-002,-6.210422e-006,0.000000e+000
9.847059e-002,-1.460288e-005,0.000000e+000
9.926471e-002,-1.795987e-005,0.000000e+000
1.000588e-001,-1.829557e-005,0.000000e+000
1.008529e-001,-1.628138e-005,0.000000e+000
1.016471e-001,-1.510643e-005,0.000000e+000
1.024412e-001,-1.829557e-005,0.000000e+000
1.032353e-001,-2.232395e-005,0.000000e+000
1.040294e-001,-2.433814e-005,0.000000e+000
1.048235e-001,-2.769513e-005,0.000000e+000
1.056176e-001,-3.575189e-005,0.000000e+000
1.064118e-001,-4.246586e-005,0.000000e+000
1.072059e-001,-3.843748e-005,0.000000e+000
1.080000e-001,-2.903792e-005,0.000000e+000
1.087941e-001,-1.174945e-005,0.000000e+000
1.095882e-001,-1.678492e-007,0.000000e+000
1.103824e-001,8.560311e-006,0.000000e+000
1.111765e-001,1.661708e-005,0.000000e+000
1.119706e-001,1.728847e-005,0.000000e+000
1.127647e-001,1.057450e-005,0.000000e+000
1.135588e-001,3.189136e-006,0.000000e+000
1.143529e-001,-5.539025e-006,0.000000e+000
1.151471e-001,-1.326009e-005,0.000000e+000
1.159412e-001,-1.661708e-005,0.000000e+000
1.167353e-001,-2.165255e-005,0.000000e+000
1.175294e-001,-3.004501e-005,0.000000e+000
1.183235e-001,-3.172351e-005,0.000000e+000
1.191176e-001,-2.937362e-005,0.000000e+000
1.199118e-001,-3.172351e-005,0.000000e+000
1.207059e-001,-2.769513e-005,0.000000e+000
1.215000e-001,-1.628138e-005,0.000000e+000
1.222941e-001,-3.524834e-006,0.000000e+000
1.230882e-001,7.888914e-006,0.000000e+000
1.238824e-001,7.217518e-006,0.000000e+000
1.246765e-001,-2.182040e-006,0.000000e+000
1.254706e-001,-7.217518e-006,0.000000e+000
1.262647e-001,-5.539025e-006,0.000000e+000
1.270588e-001,-8.896010e-006,0.000000e+000
1.278529e-001,-1.023880e-005,0.000000e+000
1.286471e-001,-8.560311e-006,0.000000e+000
1.294412e-001,-7.217518e-006,0.000000e+000
1.302353e-001,-5.203327e-006,0.000000e+000
1.310294e-001,-2.182040e-006,0.000000e+000
1.318235e-001,2.517739e-006,0.000000e+000
1.326176e-001,1.510643e-006,0.000000e+000
1.334118e-001,-8.392462e-007,0.000000e+000
1.342059e-001,-5.539025e-006,0.000000e+000
1.350000e-001,-1.292439e-005,0.000000e+000
1.357941e-001,-1.292439e-005,0.000000e+000
1.365882e-001,-6.210422e-006,0.000000e+000
1.373824e-001,-8.392462e-007,0.000000e+000
1.381765e-001,8.392462e-007,0.000000e+000
1.389706e-001,-5.874723e-006,0.000000e+000
1.397647e-001,-1.460288e-005,0.000000e+000
1.405588e-001,-2.433814e-005,0.000000e+000
1.413529e-001,-2.987716e-005,0.000000e+000
1.421471e-001,-3.273060e-005,0.000000e+000
1.429412e-001,-3.105211e-005,0.000000e+000
1.437353e-001,-3.273060e-005,0.000000e+000
1.445294e-001,-3.256275e-005,0.000000e+000
1.453235e-001,-3.105211e-005,0.000000e+000
1.461176e-001,-2.584878e-005,0.000000e+000
1.469118e-001,-2.299535e-005,0.000000e+000
1.477059e-001,-2.568093e-005,0.000000e+000
1.485000e-001,-2.635233e-005,0.000000e+000
1.492941e-001,-2.433814e-005,0.000000e+000
1.500882e-001,-2.114900e-005,0.000000e+000
1.508824e-001,-2.030976e-005,0.000000e+000
1.516765e-001,-1.896696e-005,0.000000e+000
1.524706e-001,-1.829557e-005,0.000000e+000
1.532647e-001,-1.896696e-005,0.000000e+000
1.540588e-001,-1.963836e-005,0.000000e+000
1.548529e-001,-1.426719e-005,0.000000e+000
1.556471e-001,-7.888914e-006,0.000000e+000
1.564412e-001,-2.182040e-006,0.000000e+000
1.572353e-001,-1.678492e-007,0.000000e+000
1.580294e-001,-7.217518e-006,0.000000e+000
1.588235e-001,-1.158160e-005,0.000000e+000
1.596176e-001,-1.057450e-005,0.000000e+000
1.604118e-001,-1.158160e-005,0.000000e+000
1.612059e-001,-9.567407e-006,0.000000e+000
1.620000e-001,-6.546120e-006,0.000000e+000
1.627941e-001,-1.040665e-005,0.000000e+000
1.635882e-001,-1.628138e-005,0.000000e+000
1.643824e-001,-1.762417e-005,0.000000e+000
1.651765e-001,-2.500954e-005,0.000000e+000
1.659706e-001,-3.239490e-005,0.000000e+000
1.667647e-001,-2.970932e-005,0.000000e+000
1.675588e-001,-2.299535e-005,0.000000e+000
1.683529e-001,-1.493858e-005,0.000000e+000
1.691471e-001,-5.539025e-006,0.000000e+000
1.699412e-001,1.191730e-005,0.000000e+000
1.707353e-001,2.803082e-005,0.000000e+000
1.715294e-001,2.937362e-005,0.000000e+000
1.723235e-001,1.863127e-005,0.000000e+000
1.731176e-001,-2.349889e-006,0.000000e+000
1.739118e-001,-2.467384e-005,0.000000e+000
1.747059e-001,-4.112306e-005,0.000000e+000
1.755000e-001,-4.548714e-005,0.000000e+000
1.762941e-001,-4.313725e-005,0.000000e+000
1.770882e-001,-3.944457e-005,0.000000e+000
1.778824e-001,-3.071641e-005,0.000000e+000
1.786765e-001,-1.326009e-005,0.000000e+000
1.794706e-001,8.560311e-006,0.000000e+000
1.802647e-001,2.668803e-005,0.000000e+000
1.810588e-001,3.743038e-005,0.000000e+000
1.818529e-001,3.038071e-005,0.000000e+000
1.826471e-001,1.359579e-005,0.000000e+000
1.834412e-001,1.678492e-006,0.000000e+000
1.842353e-001,-9.567407e-006,0.000000e+000
1.850294e-001,-2.064546e-005,0.000000e+000
1.858235e-001,-2.366674e-005,0.000000e+000
1.866176e-001,-2.265965e-005,0.000000e+000
1.874118e-001,-2.030976e-005,0.000000e+000
1.882059e-001,-2.165255e-005,0.000000e+000
1.890000e-001,-2.333104e-005,0.000000e+000
1.897941e-001,-2.635233e-005,0.000000e+000
1.905882e-001,-2.601663e-005,0.000000e+000
1.913824e-001,-2.366674e-005,0.000000e+000
1.921765e-001,-2.165255e-005,0.000000e+000
1.929706e-001,-2.165255e-005,0.000000e+000
1.937647e-001,-2.098116e-005,0.000000e+000
1.945588e-001,-2.433814e-005,0.000000e+000
1.953529e-001,-2.568093e-005,0.000000e+000
1.961471e-001,-2.467384e-005,0.000000e+000
1.969412e-001,-2.568093e-005,0.000000e+000
1.977353e-001,-2.568093e-005,0.000000e+000
1.985294e-001,-2.030976e-005,0.000000e+000
1.993235e-001,-1.258869e-005,0.000000e+000
2.001176e-001,-5.539025e-006,0.000000e+000
2.009118e-001,-3.356985e-007,0.000000e+000
2.017059e-001,-3.524834e-006,0.000000e+000
2.025000e-001,-1.040665e-005,0.000000e+000
2.032941e-001,-1.762417e-005,0.000000e+000
2.040882e-001,-2.198825e-005,0.000000e+000
2.048824e-001,-2.198825e-005,0.000000e+000
2.056765e-001,-1.963836e-005,0.000000e+000
2.064706e-001,-1.225299e-005,0.000000e+000
2.072647e-001,-4.867628e-006,0.000000e+000
2.080588e-001,-2.182040e-006,0.000000e+000
2.088529e-001,-2.517739e-006,0.000000e+000
2.096471e-001,-4.196231e-006,0.000000e+000
2.104412e-001,-5.539025e-006,0.000000e+000
2.112353e-001,-6.881819e-006,0.000000e+000
2.120294e-001,-9.903105e-006,0.000000e+000
2.128235e-001,-1.292439e-005,0.000000e+000
2.136176e-001,-1.560998e-005,0.000000e+000
2.144118e-001,-1.661708e-005,0.000000e+000
2.152059e-001,-2.030976e-005,0.000000e+000
2.160000e-001,-1.762417e-005,0.000000e+000
2.167941e-001,-1.225299e-005,0.000000e+000
2.175882e-001,-1.023880e-005,0.000000e+000
2.183824e-001,-9.567407e-006,0.000000e+000
2.191765e-001,-1.091020e-005,0.000000e+000
2.199706e-001,-9.231709e-006,0.000000e+000
2.207647e-001,-1.124590e-005,0.000000e+000
2.215588e-001,-1.594568e-005,0.000000e+000
2.223529e-001,-2.165255e-005,0.000000e+000
2.231471e-001,-2.467384e-005,0.000000e+000
2.239412e-001,-2.064546e-005,0.000000e+000
2.247353e-001,-2.165255e-005,0.000000e+000
2.255294e-001,-2.803082e-005,0.000000e+000
2.263235e-001,-2.903792e-005,0.000000e+000
2.271176e-001,-3.121996e-005,0.000000e+000
2.279118e-001,-3.575189e-005,0.000000e+000
2.287059e-001,-3.306630e-005,0.000000e+000
2.295000e-001,-3.306630e-005,0.000000e+000
2.302941e-001,-3.440909e-005,0.000000e+000
2.310882e-001,-3.306630e-005,0.000000e+000
2.318824e-001,-2.702373e-005,0.000000e+000
2.326765e-001,-1.695277e-005,0.000000e+000
2.334706e-001,-9.903105e-006,0.000000e+000
2.342647e-001,-8.392462e-007,0.000000e+000
2.350588e-001,8.896010e-006,0.000000e+000
2.358529e-001,2.366674e-005,0.000000e+000
2.366471e-001,3.810178e-005,0.000000e+000
2.374412e-001,4.750134e-005,0.000000e+000
2.382353e-001,4.145876e-005,0.000000e+000
2.390294e-001,3.138781e-005,0.000000e+000
2.398235e-001,2.265965e-005,0.000000e+000
2.406176e-001,1.678492e-005,0.000000e+000
2.414118e-001,7.888914e-006,0.000000e+000
2.422059e-001,-5.539025e-006,0.000000e+000
2.430000e-001,-2.165255e-005,0.000000e+000
2.437941e-001,-3.172351e-005,0.000000e+000
2.445882e-001,-3.709468e-005,0.000000e+000
2.453824e-001,-3.810178e-005,0.000000e+000
2.461765e-001,-3.440909e-005,0.000000e+000
2.469706e-001,-3.810178e-005,0.000000e+000
2.477647e-001,-3.910887e-005,0.000000e+000
2.485588e-001,-4.045167e-005,0.000000e+000
2.493529e-001,-3.776608e-005,1.714454e-005
2.501471e-001,-3.575189e-005,1.727650e-005
2.509412e-001,-3.843748e-005,1.739391e-005
2.517353e-001,-4.112306e-005,1.752865e-005
2.525294e-001,-3.810178e-005,1.768160e-005
2.533235e-001,-3.038071e-005,1.781186e-005
2.541176e-001,-2.467384e-005,1.789419e-005
2.549118e-001,-1.863127e-005,1.794828e-005
2.557059e-001,-1.510643e-005,1.797905e-005
2.565000e-001,-1.661708e-005,1.799925e-005
2.572941e-001,-2.030976e-005,1.802366e-005
2.580882e-001,-2.030976e-005,1.806007e-005
2.588824e-001,-1.560998e-005,1.809640e-005
2.596765e-001,-9.567407e-006,1.811783e-005
2.604706e-001,5.203327e-006,1.812587e-005
2.612647e-001,1.997406e-005,1.812825e-005
2.620588e-001,3.440909e-005,1.816326e-005
2.628529e-001,4.347295e-005,1.826677e-005
2.636471e-001,3.709468e-005,1.843078e-005
2.644412e-001,2.920577e-005,1.854928e-005
2.652353e-001,1.963836e-005,1.862236e-005
2.660294e-001,1.124590e-005,1.865531e-005
2.668235e-001,-2.182040e-006,1.866610e-005
2.676176e-001,-1.023880e-005,1.866650e-005
2.684118e-001,-1.963836e-005,1.867545e-005
2.692059e-001,-2.803082e-005,1.870830e-005
2.700000e-001,-3.373770e-005,1.877506e-005
2.707941e-001,-4.213016e-005,1.887135e-005
2.715882e-001,-5.052262e-005,1.902053e-005
2.723824e-001,-5.522240e-005,1.923303e-005
2.731765e-001,-5.052262e-005,1.948387e-005
2.739706e-001,-4.750134e-005,1.969138e-005
2.747647e-001,-5.018692e-005,1.987301e-005
2.755588e-001,-5.723659e-005,2.007381e-005
2.763529e-001,-6.462196e-005,2.033202e-005
2.771471e-001,-6.999313e-005,2.065649e-005
2.779412e-001,-6.193637e-005,2.103075e-005
2.787353e-001,-3.541619e-005,2.131922e-005
2.795294e-001,2.182040e-006,2.141270e-005
2.803235e-001,4.682994e-005,2.141306e-005
2.811176e-001,8.241398e-005,2.157553e-005
2.819118e-001,1.003738e-004,2.207112e-005
2.827059e-001,1.002060e-004,2.278639e-005
2.835000e-001,8.577096e-005,2.347761e-005
2.842941e-001,6.025788e-005,2.397138e-005
2.850882e-001,3.004501e-005,2.421138e-005
2.858824e-001,5.874723e-006,2.427068e-005
2.866765e-001,-1.695277e-005,2.427294e-005
2.874706e-001,-3.306630e-005,2.429179e-005
2.882647e-001,-3.978027e-005,2.436335e-005
2.890588e-001,-4.414435e-005,2.446656e-005
2.898529e-001,-5.052262e-005,2.459307e-005
2.906471e-001,-4.985122e-005,2.475779e-005
2.914412e-001,-5.052262e-005,2.491711e-005
2.922353e-001,-5.018692e-005,2.507970e-005
2.930294e-001,-4.464790e-005,2.523912e-005
2.938235e-001,-4.246586e-005,2.536457e-005
2.946176e-001,-3.978027e-005,2.547753e-005
2.954118e-001,-3.675899e-005,2.557625e-005
2.962059e-001,-3.541619e-005,2.566023e-005
2.970000e-001,-3.306630e-005,2.573795e-005
2.977941e-001,-3.239490e-005,2.580551e-005
2.985882e-001,-3.675899e-005,2.587019e-005
2.993824e-001,-3.944457e-005,2.595322e-005
3.001765e-001,-3.642328e-005,2.604851e-005
3.009706e-001,-3.105211e-005,2.612948e-005
3.017647e-001,-2.635233e-005,2.618818e-005
3.025588e-001,-2.165255e-005,2.623037e-005
3.033529e-001,-1.644922e-005,2.625881e-005
3.041471e-001,-1.091020e-005,2.627522e-005
3.049412e-001,-8.392462e-007,2.628243e-005
3.057353e-001,1.326009e-005,2.628247e-005
3.065294e-001,2.366674e-005,2.629312e-005
3.073235e-001,2.098116e-005,2.632702e-005
3.081176e-001,1.057450e-005,2.635363e-005
3.089118e-001,8.560311e-006,2.636039e-005
3.097059e-001,9.567407e-006,2.636482e-005
3.105000e-001,1.091020e-005,2.637035e-005
3.112941e-001,9.903105e-006,2.637753e-005
3.120882e-001,2.517739e-006,2.638345e-005
3.128824e-001,-6.210422e-006,2.638383e-005
3.136765e-001,-1.661708e-005,2.638616e-005
3.144706e-001,-2.568093e-005,2.640282e-005
3.152647e-001,-2.568093e-005,2.644257e-005
3.160588e-001,-3.004501e-005,2.648225e-005
3.168529e-001,-2.702373e-005,2.653647e-005
3.176471e-001,-2.433814e-005,2.658026e-005
3.184412e-001,-2.299535e-005,2.661572e-005
3.192353e-001,-1.829557e-005,2.664734e-005
3.200294e-001,-1.695277e-005,2.666733e-005
3.208235e-001,-1.443504e-005,2.668449e-005
3.216176e-001,-1.158160e-005,2.669692e-005
3.224118e-001,-1.393149e-005,2.670492e-005
3.232059e-001,-1.661708e-005,2.671649e-005
3.240000e-001,-1.930266e-005,2.673294e-005
3.247941e-001,-2.232395e-005,2.675513e-005
3.255882e-001,-2.098116e-005,2.678477e-005
3.263824e-001,-1.493858e-005,2.681093e-005
3.271765e-001,-1.628138e-005,2.682418e-005
3.279706e-001,-1.628138e-005,2.683991e-005
3.287647e-001,-1.158160e-005,2.685564e-005
3.295588e-001,-1.326009e-005,2.686359e-005
3.303529e-001,-1.326009e-005,2.687401e-005
3.311471e-001,-1.510643e-005,2.688443e-005
3.319412e-001,-1.829557e-005,2.689794e-005
3.327353e-001,-1.963836e-005,2.691775e-005
3.335294e-001,-2.433814e-005,2.694055e-005
3.343235e-001,-3.172351e-005,2.697554e-005
3.351176e-001,-3.105211e-005,2.703488e-005
3.359118e-001,-2.030976e-005,2.709162e-005
3.367059e-001,-1.460288e-005,2.711585e-005
3.375000e-001,-1.326009e-005,2.712837e-005
3.382941e-001,-7.553216e-006,2.713869e-005
3.390882e-001,-2.517739e-006,2.714203e-005
3.398824e-001,-3.356985e-007,2.714241e-005
3.406765e-001,5.874723e-006,2.714241e-005
3.414706e-001,1.191730e-005,2.714444e-005
3.422647e-001,2.500954e-005,2.715277e-005
3.430588e-001,3.189136e-005,2.718942e-005
3.438529e-001,2.769513e-005,2.724892e-005
3.446471e-001,2.131685e-005,2.729067e-005
3.454412e-001,1.426719e-005,2.731717e-005
3.462353e-001,1.174945e-006,2.732895e-005
3.470294e-001,-1.225299e-005,2.732899e-005
3.478235e-001,-2.366674e-005,2.733549e-005
3.486176e-001,-2.970932e-005,2.735569e-005
3.494118e-001,-2.937362e-005,2.738827e-005
3.502059e-001,-2.836652e-005,2.741896e-005
3.510000e-001,-2.232395e-005,2.745027e-005
3.517941e-001,-1.762417e-005,2.746594e-005
3.525882e-001,-1.594568e-005,2.746454e-005
3.533824e-001,-1.560998e-005,2.745038e-005
3.541765e-001,-2.316319e-005,2.743015e-005
3.549706e-001,-2.568093e-005,2.741677e-005
3.557647e-001,-2.433814e-005,2.738081e-005
3.565588e-001,-2.534523e-005,2.731029e-005
3.573529e-001,-3.172351e-005,2.726156e-005
3.581471e-001,-3.642328e-005,2.727109e-005
3.589412e-001,-3.541619e-005,2.734040e-005
3.597353e-001,-3.675899e-005,2.741336e-005
3.605294e-001,-3.776608e-005,2.748749e-005
3.613235e-001,-3.138781e-005,2.755404e-005
3.621176e-001,-2.047761e-005,2.759367e-005
3.629118e-001,-2.517739e-006,2.761141e-005
3.637059e-001,9.903105e-006,2.761119e-005
3.645000e-001,1.326009e-005,2.761507e-005
3.652941e-001,1.594568e-005,2.761507e-005
3.660882e-001,1.258869e-005,2.761381e-005
3.668824e-001,6.546120e-006,2.759591e-005
3.676765e-001,-2.349889e-006,2.754625e-005
3.684706e-001,-1.158160e-005,2.748834e-005
3.692647e-001,-1.594568e-005,2.744609e-005
3.700588e-001,-1.695277e-005,2.740242e-005
3.708529e-001,-1.930266e-005,2.737454e-005
3.716471e-001,-2.299535e-005,2.738079e-005
3.724412e-001,-2.299535e-005,2.741080e-005
3.732353e-001,-2.333104e-005,2.743789e-005
3.740294e-001,-2.366674e-005,2.746644e-005
3.748235e-001,-2.316319e-005,2.749862e-005
3.756176e-001,-2.030976e-005,2.752666e-005
3.764118e-001,-1.493858e-005,2.754874e-005
3.772059e-001,-1.225299e-005,2.755706e-005
3.780000e-001,-1.493858e-005,2.755968e-005
3.787941e-001,-1.829557e-005,2.756834e-005
3.795882e-001,-2.030976e-005,2.758466e-005
3.803824e-001,-2.232395e-005,2.760690e-005
3.811765e-001,-2.635233e-005,2.763535e-005
3.819706e-001,-2.836652e-005,2.767497e-005
3.827647e-001,-2.786297e-005,2.772110e-005
3.835588e-001,-2.568093e-005,2.776562e-005
3.843529e-001,-2.165255e-005,2.780166e-005
3.851471e-001,-1.225299e-005,2.781894e-005
3.859412e-001,-5.874723e-006,2.781797e-005
3.867353e-001,-1.678492e-006,2.781774e-005
3.875294e-001,3.860533e-006,2.781786e-005
3.883235e-001,2.517739e-006,2.781867e-005
3.891176e-001,-1.174945e-006,2.781706e-005
3.899118e-001,-8.560311e-006,2.780493e-005
3.907059e-001,-1.091020e-005,2.777519e-005
3.915000e-001,-6.210422e-006,2.773080e-005
3.922941e-001,-1.091020e-005,2.767144e-005
3.930882e-001,-1.628138e-005,2.762276e-005
3.938824e-001,-2.232395e-005,2.757624e-005
3.946765e-001,-2.635233e-005,2.754377e-005
3.954706e-001,-3.138781e-005,2.752817e-005
3.962647e-001,-2.920577e-005,2.754650e-005
3.970588e-001,-2.098116e-005,2.756524e-005
3.978529e-001,-5.539025e-006,2.755257e-005
3.986471e-001,5.203327e-006,2.751418e-005
3.994412e-001,1.661708e-005,2.748144e-005
4.002353e-001,2.265965e-005,2.747153e-005
4.010294e-001,2.265965e-005,2.747738e-005
4.018235e-001,1.292439e-005,2.748629e-005
4.026176e-001,3.189136e-006,2.747657e-005
4.034118e-001,-1.678492e-007,2.745630e-005
4.042059e-001,-8.392462e-006,2.743393e-005
4.050000e-001,-1.594568e-005,2.742620e-005
4.057941e-001,-2.584878e-005,2.743735e-005
4.065882e-001,-2.786297e-005,2.747582e-005
4.073824e-001,-2.433814e-005,2.752078e-005
4.081765e-001,-2.114900e-005,2.755202e-005
4.089706e-001,-2.114900e-005,2.757011e-005
4.097647e-001,-2.433814e-005,2.758948e-005
4.105588e-001,-3.239490e-005,2.761591e-005
4.113529e-001,-3.373770e-005,2.767109e-005
4.121471e-001,-3.440909e-005,2.773405e-005
4.129412e-001,-3.944457e-005,2.779574e-005
4.137353e-001,-4.313725e-005,2.786959e-005
4.145294e-001,-4.599069e-005,2.795803e-005
4.153235e-001,-4.615854e-005,2.804274e-005
4.161176e-001,-4.011597e-005,2.810407e-005
4.169118e-001,-2.568093e-005,2.814521e-005
4.177059e-001,-9.903105e-006,2.815260e-005
4.185000e-001,-5.035477e-007,2.814553e-005
4.192941e-001,6.546120e-006,2.814381e-005
4.200882e-001,9.231709e-006,2.813819e-005
4.208824e-001,1.728847e-005,2.809852e-005
4.216765e-001,2.182040e-005,2.806655e-005
4.224706e-001,1.728847e-005,2.807387e-005
4.232647e-001,5.203327e-006,2.809050e-005
4.240588e-001,1.678492e-007,2.805751e-005
4.248529e-001,1.174945e-006,2.796137e-005
4.256471e-001,1.846342e-006,2.784336e-005
4.264412e-001,-1.007095e-006,2.773693e-005
4.272353e-001,-9.567407e-006,2.764753e-005
4.280294e-001,-2.064546e-005,2.759841e-005
4.288235e-001,-2.433814e-005,2.761286e-005
4.296176e-001,-2.165255e-005,2.764277e-005
4.304118e-001,-1.829557e-005,2.762875e-005
4.312059e-001,-2.232395e-005,2.756722e-005
4.320000e-001,-2.467384e-005,2.754269e-005
4.327941e-001,-2.165255e-005,2.756718e-005
4.335882e-001,-1.326009e-005,2.759409e-005
4.343824e-001,-4.867628e-006,2.759895e-005
4.351765e-001,-1.678492e-007,2.757572e-005
4.359706e-001,1.007095e-006,2.754336e-005
4.367647e-001,-2.182040e-006,2.751372e-005
4.375588e-001,-4.196231e-006,2.749011e-005
4.383529e-001,-5.874723e-006,2.746396e-005
4.391471e-001,-8.224612e-006,2.743438e-005
4.399412e-001,-1.393149e-005,2.739798e-005
4.407353e-001,-2.316319e-005,2.736991e-005
4.415294e-001,-3.172351e-005,2.736853e-005
4.423235e-001,-3.105211e-005,2.739979e-005
4.431176e-001,-3.105211e-005,2.742857e-005
4.439118e-001,-3.340200e-005,2.745897e-005
4.447059e-001,-3.273060e-005,2.748930e-005
4.455000e-001,-2.534523e-005,2.751315e-005
4.462941e-001,-1.829557e-005,2.751509e-005
4.470882e-001,-1.225299e-005,2.749629e-005
4.478824e-001,-5.539025e-006,2.746677e-005
4.486765e-001,-5.874723e-006,2.744463e-005
4.494706e-001,-1.023880e-005,2.743744e-005
4.502647e-001,-1.560998e-005,2.744174e-005
4.510588e-001,-2.064546e-005,2.745587e-005
4.518529e-001,-2.232395e-005,2.747986e-005
4.526471e-001,-2.098116e-005,2.750245e-005
4.534412e-001,-2.568093e-005,2.750995e-005
4.542353e-001,-3.373770e-005,2.752014e-005
4.550294e-001,-3.843748e-005,2.755800e-005
4.558235e-001,-3.910887e-005,2.762101e-005
4.566176e-001,-3.105211e-005,2.770042e-005
4.574118e-001,-2.668803e-005,2.775443e-005
4.582059e-001,-1.661708e-005,2.779499e-005
4.590000e-001,1.678492e-007,2.781045e-005
4.597941e-001,1.158160e-005,2.780944e-005
4.605882e-001,1.829557e-005,2.781536e-005
4.613824e-001,2.131685e-005,2.783181e-005
4.621765e-001,2.131685e-005,2.785219e-005
4.629706e-001,3.071641e-005,2.786861e-005
4.637647e-001,4.280156e-005,2.790857e-005
4.645588e-001,4.011597e-005,2.799720e-005
4.653529e-001,2.534523e-005,2.806519e-005
4.661471e-001,7.888914e-006,2.808400e-005
4.669412e-001,-8.224612e-006,2.807902e-005
4.677353e-001,-2.064546e-005,2.807691e-005
4.685294e-001,-3.575189e-005,2.809588e-005
4.693235e-001,-4.129091e-005,2.816150e-005
4.701176e-001,-4.414435e-005,2.825294e-005
4.709118e-001,-4.481575e-005,2.835546e-005
4.717059e-001,-4.515145e-005,2.845380e-005
4.725000e-001,-4.078737e-005,2.854152e-005
4.732941e-001,-3.508049e-005,2.860030e-005
4.740882e-001,-2.970932e-005,2.864505e-005
4.748824e-001,-1.695277e-005,2.866805e-005
4.756765e-001,-1.678492e-007,2.864036e-005
4.764706e-001,5.203327e-006,2.859344e-005
4.772647e-001,1.174945e-006,2.854062e-005
4.780588e-001,-8.560311e-006,2.846929e-005
4.788529e-001,-2.400244e-005,2.841218e-005
4.796471e-001,-3.541619e-005,2.838317e-005
4.804412e-001,-3.776608e-005,2.838712e-005
4.812353e-001,-2.635233e-005,2.840579e-005
4.820294e-001,-1.628138e-005,2.840378e-005
4.828235e-001,-1.292439e-005,2.840253e-005
4.836176e-001,-1.359579e-005,2.840639e-005
4.844118e-001,-1.359579e-005,2.841671e-005
4.852059e-001,-1.560998e-005,2.842264e-005
4.860000e-001,-1.292439e-005,2.840490e-005
4.867941e-001,-6.210422e-006,2.833279e-005
4.875882e-001,1.174945e-006,2.820787e-005
4.883824e-001,3.524834e-006,2.811075e-005
4.891765e-001,1.846342e-006,2.805559e-005
4.899706e-001,1.846342e-006,2.802663e-005
4.907647e-001,1.007095e-006,2.801081e-005
4.915588e-001,-1.678492e-007,2.800733e-005
4.923529e-001,-4.867628e-006,2.800559e-005
4.931471e-001,-1.359579e-005,2.798027e-005
4.939412e-001,-1.963836e-005,2.793348e-005
4.947353e-001,-2.433814e-005,2.787696e-005
4.955294e-001,-2.500954e-005,2.782783e-005
4.963235e-001,-2.383459e-005,2.779586e-005
4.971176e-001,-2.299535e-005,2.774519e-005
4.979118e-001,-2.467384e-005,2.768769e-005
4.987059e-001,-2.568093e-005,2.762853e-005
4.995000e-001,-2.500954e-005,2.758431e-005
5.002941e-001,-2.400244e-005,2.754660e-005
5.010882e-001,-2.165255e-005,2.749445e-005
5.018824e-001,-1.896696e-005,2.742357e-005
5.026765e-001,-1.493858e-005,2.736009e-005
5.034706e-001,-9.567407e-006,2.731933e-005
5.042647e-001,-1.393149e-005,2.728916e-005
5.050588e-001,-1.695277e-005,2.728023e-005
5.058529e-001,-1.863127e-005,2.728369e-005
5.066471e-001,-1.493858e-005,2.728783e-005
5.074412e-001,-8.896010e-006,2.727678e-005
5.082353e-001,-4.196231e-006,2.725731e-005
5.090294e-001,2.517739e-006,2.724410e-005
5.098235e-001,4.196231e-006,2.723912e-005
5.106176e-001,6.546120e-006,2.723857e-005
5.114118e-001,5.203327e-006,2.721774e-005
5.122059e-001,-1.174945e-006,2.714997e-005
5.130000e-001,-8.224612e-006,2.703899e-005
5.137941e-001,-9.567407e-006,2.696183e-005
5.145882e-001,-8.896010e-006,2.691682e-005
5.153824e-001,-8.560311e-006,2.689868e-005
5.161765e-001,-4.196231e-006,2.689553e-005
5.169706e-001,-7.553216e-006,2.689629e-005
5.177647e-001,-1.359579e-005,2.689346e-005
5.185588e-001,-2.182040e-005,2.688157e-005
5.193529e-001,-2.568093e-005,2.686322e-005
5.201471e-001,-3.306630e-005,2.683483e-005
5.209412e-001,-3.407340e-005,2.679436e-005
5.217353e-001,-3.256275e-005,2.671153e-005
5.225294e-001,-2.970932e-005,2.659269e-005
5.233235e-001,-2.702373e-005,2.649251e-005
5.241176e-001,-2.702373e-005,2.640062e-005
5.249118e-001,-2.534523e-005,2.629253e-005
5.257059e-001,-2.366674e-005,2.613254e-005
5.265000e-001,-2.030976e-005,2.591127e-005
5.272941e-001,-2.198825e-005,2.563407e-005
5.280882e-001,-2.584878e-005,2.542496e-005
5.288824e-001,-2.232395e-005,2.538822e-005
5.296765e-001,-2.299535e-005,2.541916e-005
5.304706e-001,-2.433814e-005,2.531469e-005
5.312647e-001,-2.467384e-005,2.492166e-005
5.320588e-001,-2.299535e-005,2.430931e-005
5.328529e-001,-1.527428e-005,2.367801e-005
5.336471e-001,-8.560311e-006,2.319401e-005
5.344412e-001,2.517739e-006,2.294846e-005
5.352353e-001,1.762417e-005,2.288618e-005
5.360294e-001,2.299535e-005,2.290538e-005
5.368235e-001,1.930266e-005,2.292216e-005
5.376176e-001,1.158160e-005,2.287203e-005
5.384118e-001,2.517739e-006,2.277097e-005
5.392059e-001,-5.539025e-006,2.263474e-005
5.400000e-001,-1.023880e-005,2.245662e-005
5.407941e-001,-1.258869e-005,2.228720e-005
5.415882e-001,-2.030976e-005,2.211549e-005
5.423824e-001,-3.004501e-005,2.196331e-005
5.431765e-001,-3.239490e-005,2.188409e-005
5.439706e-001,-2.098116e-005,2.182916e-005
5.447647e-001,-9.903105e-006,2.174568e-005
5.455588e-001,1.007095e-006,2.165372e-005
5.463529e-001,8.896010e-006,2.156136e-005
5.471471e-001,5.203327e-006,2.148633e-005
5.479412e-001,5.035477e-007,2.141043e-005
5.487353e-001,-2.853437e-006,2.130971e-005
5.495294e-001,-1.292439e-005,2.119375e-005
5.503235e-001,-2.030976e-005,2.110644e-005
5.511176e-001,-1.493858e-005,2.106477e-005
5.519118e-001,-1.258869e-005,2.102912e-005
5.527059e-001,-1.695277e-005,2.100560e-005
5.535000e-001,-1.829557e-005,2.100688e-005
5.542941e-001,-1.930266e-005,2.102322e-005
5.550882e-001,-2.098116e-005,2.105137e-005
5.558824e-001,-1.712062e-005,2.107136e-005
5.566765e-001,-1.963836e-005,2.105117e-005
5.574706e-001,-2.299535e-005,2.104705e-005
5.582647e-001,-2.165255e-005,2.107857e-005
5.590588e-001,-1.896696e-005,2.110843e-005
5.598529e-001,-9.567407e-006,2.112865e-005
5.606471e-001,-1.846342e-006,2.112658e-005
5.614412e-001,1.174945e-006,2.111944e-005
5.622353e-001,-1.678492e-007,2.111907e-005
5.630294e-001,-2.182040e-006,2.111616e-005
5.638235e-001,-3.189136e-006,2.109569e-005
5.646176e-001,-9.903105e-006,2.104662e-005
5.654118e-001,-1.728847e-005,2.100410e-005
5.662059e-001,-2.098116e-005,2.095827e-005
5.670000e-001,-2.232395e-005,2.093622e-005
5.677941e-001,-2.484169e-005,2.092907e-005
5.685882e-001,-2.702373e-005,2.093579e-005
5.693824e-001,-2.232395e-005,2.096586e-005
5.701765e-001,-2.333104e-005,2.098187e-005
5.709706e-001,-2.568093e-005,2.100735e-005
5.717647e-001,-2.299535e-005,2.104714e-005
5.725588e-001,-2.047761e-005,2.107245e-005
5.733529e-001,-2.098116e-005,2.108327e-005
5.741471e-001,-2.030976e-005,2.108837e-005
5.749412e-001,-1.829557e-005,2.108189e-005
5.757353e-001,-1.829557e-005,2.107392e-005
5.765294e-001,-1.829557e-005,2.108235e-005
5.773235e-001,-1.896696e-005,2.108761e-005
5.781176e-001,-1.762417e-005,2.109475e-005
5.789118e-001,-1.628138e-005,2.110807e-005
5.797059e-001,-1.795987e-005,2.111480e-005
5.805000e-001,-1.997406e-005,2.112586e-005
5.812941e-001,-1.829557e-005,2.113873e-005
5.820882e-001,-1.426719e-005,2.113873e-005
5.828824e-001,-1.292439e-005,2.112501e-005
5.836765e-001,-1.359579e-005,2.109293e-005
5.844706e-001,-1.426719e-005,2.103082e-005
5.852647e-001,-1.225299e-005,2.097314e-005
5.860588e-001,-1.091020e-005,2.095321e-005
5.868529e-001,-1.292439e-005,2.094605e-005
5.876471e-001,-1.292439e-005,2.094538e-005
5.884412e-001,-9.231709e-006,2.095374e-005
5.892353e-001,-7.217518e-006,2.095974e-005
5.900294e-001,-6.210422e-006,2.096369e-005
5.908235e-001,-4.867628e-006,2.096399e-005
5.916176e-001,-1.510643e-006,2.095501e-005
5.924118e-001,3.524834e-006,2.090760e-005
5.932059e-001,2.517739e-006,2.083094e-005
5.940000e-001,-1.174945e-006,2.077271e-005
5.947941e-001,-8.224612e-006,2.073795e-005
5.955882e-001,-1.225299e-005,2.072752e-005
5.963824e-001,-1.191730e-005,2.073894e-005
5.971765e-001,-1.158160e-005,2.073832e-005
5.979706e-001,-1.191730e-005,2.070558e-005
5.987647e-001,-1.225299e-005,2.064855e-005
5.995588e-001,-1.225299e-005,2.059351e-005
6.003529e-001,-1.258869e-005,2.054284e-005
6.011471e-001,-1.728847e-005,2.051648e-005
6.019412e-001,-2.249180e-005,2.051557e-005
6.027353e-001,-2.165255e-005,2.053509e-005
6.035294e-001,-2.131685e-005,2.055254e-005
6.043235e-001,-2.232395e-005,2.054618e-005
6.051176e-001,-2.098116e-005,2.053369e-005
6.059118e-001,-2.064546e-005,2.052188e-005
6.067059e-001,-2.299535e-005,2.050511e-005
6.075000e-001,-2.232395e-005,2.046798e-005
6.082941e-001,-2.098116e-005,2.040344e-005
6.090882e-001,-1.896696e-005,2.033981e-005
6.098824e-001,-1.628138e-005,2.026204e-005
6.106765e-001,-1.292439e-005,2.017058e-005
6.114706e-001,-1.158160e-005,2.010588e-005
6.122647e-001,-1.225299e-005,2.008328e-005
6.130588e-001,-1.225299e-005,2.009468e-005
6.138529e-001,-1.091020e-005,2.009881e-005
6.146471e-001,-1.023880e-005,2.009431e-005
6.154412e-001,-8.224612e-006,2.008246e-005
6.162353e-001,-1.057450e-005,2.007526e-005
6.170294e-001,-1.258869e-005,2.008073e-005
6.178235e-001,-1.023880e-005,2.009285e-005
6.186176e-001,-9.231709e-006,2.009053e-005
6.194118e-001,-8.896010e-006,2.007713e-005
6.202059e-001,-8.224612e-006,2.006060e-005
6.210000e-001,-1.225299e-005,2.003638e-005
6.217941e-001,-1.158160e-005,2.000627e-005
6.225882e-001,-1.124590e-005,1.997483e-005
6.233824e-001,-1.091020e-005,1.994149e-005
6.241765e-001,-9.903105e-006,1.990624e-005
6.249706e-001,-1.292439e-005,1.987114e-005
6.257647e-001,-1.292439e-005,1.985146e-005
6.265588e-001,-1.426719e-005,1.984695e-005
6.273529e-001,-1.560998e-005,1.985124e-005
6.281471e-001,-1.695277e-005,1.985289e-005
6.289412e-001,-1.779202e-005,1.984909e-005
6.297353e-001,-1.695277e-005,1.984139e-005
6.305294e-001,-1.661708e-005,1.982445e-005
6.313235e-001,-1.493858e-005,1.979082e-005
6.321176e-001,-1.846342e-005,1.974398e-005
6.329118e-001,-2.098116e-005,1.970883e-005
6.337059e-001,-2.433814e-005,1.969110e-005
6.345000e-001,-3.273060e-005,1.970109e-005
6.352941e-001,-3.978027e-005,1.977540e-005
6.360882e-001,-3.910887e-005,1.989966e-005
6.368824e-001,-3.726253e-005,2.002145e-005
6.376765e-001,-3.105211e-005,2.013040e-005
6.384706e-001,-2.433814e-005,2.020603e-005
6.392647e-001,-6.546120e-006,2.025255e-005
6.400588e-001,1.460288e-005,2.025015e-005
6.408529e-001,2.500954e-005,2.025756e-005
6.416471e-001,2.786297e-005,2.030364e-005
6.424412e-001,2.735943e-005,2.035513e-005
6.432353e-001,2.534523e-005,2.039291e-005
6.440294e-001,2.265965e-005,2.040416e-005
6.448235e-001,1.728847e-005,2.039003e-005
6.456176e-001,1.292439e-005,2.033636e-005
6.464118e-001,7.888914e-006,2.028258e-005
6.472059e-001,5.874723e-006,2.025288e-005
6.480000e-001,3.860533e-006,2.025318e-005
6.487941e-001,-3.189136e-006,2.025223e-005
6.495882e-001,-1.091020e-005,2.023130e-005
6.503824e-001,-2.433814e-005,2.020024e-005
6.511765e-001,-4.313725e-005,2.020645e-005
6.519706e-001,-5.455100e-005,2.033949e-005
6.527647e-001,-6.344701e-005,2.057036e-005
6.535588e-001,-8.073549e-005,2.087965e-005
6.543529e-001,-9.349202e-005,2.136572e-005
6.551471e-001,-1.015488e-004,2.198912e-005
6.559412e-001,-9.819181e-005,2.267674e-005
6.567353e-001,-7.872129e-005,2.329094e-005
6.575294e-001,-4.112306e-005,2.367102e-005
6.583235e-001,1.191730e-005,2.375455e-005
6.591176e-001,6.076142e-005,2.373408e-005
6.599118e-001,9.030289e-005,2.394113e-005
6.607059e-001,8.979935e-005,2.440913e-005
6.615000e-001,7.016098e-005,2.485683e-005
6.622941e-001,4.145876e-005,2.509518e-005
6.630882e-001,1.225299e-005,2.510552e-005
6.638824e-001,-1.527428e-005,2.499678e-005
6.646765e-001,-3.810178e-005,2.487662e-005
6.654706e-001,-3.978027e-005,2.483312e-005
6.662647e-001,-2.786297e-005,2.483140e-005
6.670588e-001,-1.023880e-005,2.483890e-005
6.678529e-001,1.023880e-005,2.483933e-005
6.686471e-001,2.937362e-005,2.484603e-005
6.694412e-001,3.138781e-005,2.489853e-005
6.702353e-001,1.863127e-005,2.495602e-005
6.710294e-001,-4.196231e-006,2.495909e-005
6.718235e-001,-1.628138e-005,2.492982e-005
6.726176e-001,-2.500954e-005,2.492766e-005
6.734118e-001,-2.702373e-005,2.496586e-005
6.742059e-001,-2.601663e-005,2.501239e-005
6.750000e-001,-3.138781e-005,2.505536e-005
6.757941e-001,-3.978027e-005,2.511768e-005
6.765882e-001,-4.246586e-005,2.521774e-005
6.773824e-001,-4.112306e-005,2.532560e-005
6.781765e-001,-4.246586e-005,2.540500e-005
6.789706e-001,-4.045167e-005,2.548079e-005
6.797647e-001,-3.440909e-005,2.555365e-005
6.805588e-001,-2.903792e-005,2.560652e-005
6.813529e-001,-2.568093e-005,2.562795e-005
6.821471e-001,-2.232395e-005,2.563110e-005
6.829412e-001,-2.030976e-005,2.563294e-005
6.837353e-001,-1.560998e-005,2.564763e-005
6.845294e-001,-1.326009e-005,2.566129e-005
6.853235e-001,-1.309224e-005,2.567219e-005
6.861176e-001,-1.544213e-005,2.568276e-005
6.869118e-001,-1.426719e-005,2.569725e-005
6.877059e-001,-1.628138e-005,2.570876e-005
6.885000e-001,-1.829557e-005,2.572304e-005
6.892941e-001,-1.997406e-005,2.573957e-005
6.900882e-001,-2.433814e-005,2.575224e-005
6.908824e-001,-2.433814e-005,2.575569e-005
6.916765e-001,-2.534523e-005,2.573008e-005
6.924706e-001,-2.433814e-005,2.571016e-005
6.932647e-001,-2.030976e-005,2.568711e-005
6.940588e-001,-1.023880e-005,2.564349e-005
6.948529e-001,-1.678492e-006,2.558340e-005
6.956471e-001,7.217518e-006,2.554356e-005
6.964412e-001,9.231709e-006,2.552594e-005
6.972353e-001,2.517739e-006,2.552189e-005
6.980294e-001,-4.867628e-006,2.552037e-005
6.988235e-001,-7.721065e-006,2.551969e-005
6.996176e-001,-8.224612e-006,2.551687e-005
7.004118e-001,-8.896010e-006,2.550588e-005
7.012059e-001,-4.196231e-006,2.548421e-005
7.020000e-001,-3.692683e-006,2.545415e-005
7.027941e-001,-5.874723e-006,2.542745e-005
7.035882e-001,-8.224612e-006,2.538828e-005
7.043824e-001,-1.091020e-005,2.532104e-005
7.051765e-001,-1.376364e-005,2.523547e-005
7.059706e-001,-1.225299e-005,2.515077e-005
7.067647e-001,-1.023880e-005,2.509918e-005
7.075588e-001,-1.091020e-005,2.506061e-005
7.083529e-001,-1.158160e-005,2.505063e-005
7.091471e-001,-8.560311e-006,2.505915e-005
7.099412e-001,-1.191730e-005,2.505528e-005
7.107353e-001,-1.661708e-005,2.504303e-005
7.115294e-001,-1.661708e-005,2.503170e-005
7.123235e-001,-1.762417e-005,2.502035e-005
7.131176e-001,-2.198825e-005,2.498004e-005
7.139118e-001,-2.635233e-005,2.489393e-005
7.147059e-001,-2.769513e-005,2.483535e-005
7.155000e-001,-3.038071e-005,2.484334e-005
7.162941e-001,-3.776608e-005,2.489845e-005
7.170882e-001,-3.575189e-005,2.498518e-005
7.178824e-001,-3.138781e-005,2.503942e-005
7.186765e-001,-3.172351e-005,2.502078e-005
7.194706e-001,-3.457694e-005,2.497629e-005
7.202647e-001,-3.004501e-005,2.492822e-005
7.210588e-001,-2.668803e-005,2.485749e-005
7.218529e-001,-2.030976e-005,2.477237e-005
7.226471e-001,-1.225299e-005,2.469182e-005
7.234412e-001,-2.182040e-006,2.462204e-005
7.242353e-001,3.860533e-006,2.456520e-005
7.250294e-001,1.728847e-005,2.454753e-005
7.258235e-001,3.239490e-005,2.456691e-005
7.266176e-001,4.078737e-005,2.463309e-005
7.274118e-001,4.280156e-005,2.474031e-005
7.282059e-001,3.978027e-005,2.485325e-005
7.290000e-001,2.786297e-005,2.491764e-005
7.297941e-001,1.661708e-005,2.488708e-005
7.305882e-001,3.692683e-006,2.481338e-005
7.313824e-001,-4.196231e-006,2.476965e-005
7.321765e-001,-1.510643e-006,2.475373e-005
7.329706e-001,1.158160e-005,2.474313e-005
7.337647e-001,1.863127e-005,2.473987e-005
7.345588e-001,5.203327e-006,2.475031e-005
7.353529e-001,-1.493858e-005,2.473637e-005
7.361471e-001,-3.105211e-005,2.473998e-005
7.369412e-001,-4.850843e-005,2.479949e-005
7.377353e-001,-6.428626e-005,2.495003e-005
7.385294e-001,-7.502861e-005,2.521163e-005
7.393235e-001,-8.274968e-005,2.556449e-005
7.401176e-001,-7.704280e-005,2.598729e-005
7.409118e-001,-5.857939e-005,2.634842e-005
7.417059e-001,-3.709468e-005,2.655500e-005
7.425000e-001,-2.299535e-005,2.663596e-005
7.432941e-001,-8.896010e-006,2.665652e-005
7.440882e-001,1.057450e-005,2.663820e-005
7.448824e-001,2.534523e-005,2.660946e-005
7.456765e-001,2.635233e-005,2.661047e-005
7.464706e-001,2.064546e-005,2.661803e-005
7.472647e-001,1.023880e-005,2.661190e-005
7.480588e-001,4.867628e-006,2.658173e-005
7.488529e-001,-8.896010e-006,2.654361e-005
7.496471e-001,-2.400244e-005,2.651081e-005
7.504412e-001,-2.836652e-005,2.651081e-005
7.512353e-001,-2.568093e-005,2.653098e-005
7.520294e-001,-2.836652e-005,2.654896e-005
7.528235e-001,-3.071641e-005,2.658382e-005
7.536176e-001,-3.038071e-005,2.663480e-005
7.544118e-001,-3.038071e-005,2.667834e-005
7.552059e-001,-2.433814e-005,2.671625e-005
7.560000e-001,-2.030976e-005,2.673086e-005
7.567941e-001,-1.896696e-005,2.674214e-005
7.575882e-001,-1.930266e-005,2.675884e-005
7.583824e-001,-1.695277e-005,2.677996e-005
7.591765e-001,-2.299535e-005,2.679667e-005
7.599706e-001,-2.635233e-005,2.682703e-005
7.607647e-001,-2.299535e-005,2.686567e-005
7.615588e-001,-2.366674e-005,2.689540e-005
7.623529e-001,-2.366674e-005,2.692846e-005
7.631471e-001,-2.030976e-005,2.695756e-005
7.639412e-001,-1.493858e-005,2.697651e-005
7.647353e-001,-7.888914e-006,2.698501e-005
7.655294e-001,-9.735256e-006,2.698436e-005
7.663235e-001,-9.903105e-006,2.698891e-005
7.671176e-001,-9.735256e-006,2.699133e-005
7.679118e-001,-1.359579e-005,2.698602e-005
7.687059e-001,-1.829557e-005,2.696883e-005
7.695000e-001,-1.963836e-005,2.694964e-005
7.702941e-001,-1.376364e-005,2.690780e-005
7.710882e-001,-7.721065e-006,2.685024e-005
7.718824e-001,-4.196231e-006,2.679083e-005
7.726765e-001,-2.853437e-006,2.673936e-005
7.734706e-001,-6.881819e-006,2.669632e-005
7.742647e-001,-1.091020e-005,2.665556e-005
7.750588e-001,-8.896010e-006,2.662428e-005
7.758529e-001,-1.023880e-005,2.659549e-005
7.766471e-001,-1.376364e-005,2.657707e-005
7.774412e-001,-1.628138e-005,2.655944e-005
7.782353e-001,-1.460288e-005,2.653527e-005
7.790294e-001,-9.567407e-006,2.651815e-005
7.798235e-001,5.035477e-007,2.649188e-005
7.806176e-001,1.695277e-005,2.645627e-005
7.814118e-001,2.433814e-005,2.643692e-005
7.822059e-001,1.191730e-005,2.644074e-005
7.830000e-001,-8.224612e-006,2.643525e-005
7.837941e-001,-2.568093e-005,2.643491e-005
7.845882e-001,-3.843748e-005,2.647422e-005
7.853824e-001,-4.011597e-005,2.654431e-005
7.861765e-001,-3.675899e-005,2.660905e-005
7.869706e-001,-2.987716e-005,2.666755e-005
7.877647e-001,-1.695277e-005,2.671281e-005
7.885588e-001,-3.860533e-006,2.672955e-005
7.893529e-001,7.888914e-006,2.672861e-005
7.901471e-001,2.333104e-005,2.672608e-005
7.909412e-001,3.273060e-005,2.674906e-005
7.917353e-001,2.836652e-005,2.678825e-005
7.925294e-001,1.191730e-005,2.678242e-005
7.933235e-001,-8.896010e-006,2.672841e-005
7.941176e-001,-2.232395e-005,2.670689e-005
7.949118e-001,-2.769513e-005,2.673075e-005
7.957059e-001,-2.836652e-005,2.677634e-005
7.965000e-001,-2.920577e-005,2.681945e-005
7.972941e-001,-3.340200e-005,2.686845e-005
7.980882e-001,-3.709468e-005,2.693447e-005
7.988824e-001,-3.373770e-005,2.701522e-005
7.996765e-001,-2.534523e-005,2.707240e-005
8.004706e-001,-2.030976e-005,2.708592e-005
8.012647e-001,-2.568093e-005,2.709705e-005
8.020588e-001,-2.836652e-005,2.712648e-005
8.028529e-001,-2.970932e-005,2.715682e-005
8.036471e-001,-2.366674e-005,2.718893e-005
8.044412e-001,-1.493858e-005,2.719991e-005
8.052353e-001,-1.678492e-007,2.718720e-005
8.060294e-001,1.728847e-005,2.717003e-005
8.068235e-001,2.265965e-005,2.716494e-005
8.076176e-001,1.997406e-005,2.716405e-005
8.084118e-001,1.124590e-005,2.715995e-005
8.092059e-001,8.560311e-006,2.714627e-005
8.100000e-001,-8.392462e-007,2.714520e-005
8.107941e-001,-1.292439e-005,2.714504e-005
8.115882e-001,-2.064546e-005,2.715476e-005
8.123824e-001,-2.668803e-005,2.717974e-005
8.131765e-001,-2.568093e-005,2.722116e-005
8.139706e-001,-2.769513e-005,2.725912e-005
8.147647e-001,-2.970932e-005,2.729816e-005
8.155588e-001,-2.366674e-005,2.733219e-005
8.163529e-001,-1.695277e-005,2.733918e-005
8.171471e-001,-1.896696e-005,2.732689e-005
8.179412e-001,-2.299535e-005,2.731189e-005
8.187353e-001,-2.635233e-005,2.730014e-005
8.195294e-001,-3.038071e-005,2.731157e-005
8.203235e-001,-3.575189e-005,2.733364e-005
8.211176e-001,-3.373770e-005,2.736966e-005
8.219118e-001,-3.239490e-005,2.740509e-005
8.227059e-001,-2.836652e-005,2.744168e-005
8.235000e-001,-1.896696e-005,2.746282e-005
8.242941e-001,-1.544213e-005,2.745976e-005
8.250882e-001,-1.493858e-005,2.745418e-005
8.258824e-001,-2.030976e-005,2.744771e-005
8.266765e-001,-2.467384e-005,2.745222e-005
8.274706e-001,-2.198825e-005,2.746666e-005
8.282647e-001,-2.366674e-005,2.747668e-005
8.290588e-001,-2.030976e-005,2.749377e-005
8.298529e-001,-1.661708e-005,2.749898e-005
8.306471e-001,-1.661708e-005,2.749187e-005
8.314412e-001,-1.023880e-005,2.748847e-005
8.322353e-001,7.888914e-006,2.748275e-005
8.330294e-001,2.265965e-005,2.747668e-005
8.338235e-001,2.333104e-005,2.749572e-005
8.346176e-001,1.292439e-005,2.751545e-005
8.354118e-001,3.524834e-006,2.751643e-005
8.362059e-001,-8.392462e-007,2.751026e-005
8.370000e-001,-6.210422e-006,2.750062e-005
8.377941e-001,-1.309224e-005,2.749318e-005
8.385882e-001,-1.762417e-005,2.749817e-005
8.393824e-001,-2.030976e-005,2.751314e-005
8.401765e-001,-1.829557e-005,2.753477e-005
8.409706e-001,-1.258869e-005,2.755275e-005
8.417647e-001,-1.510643e-006,2.756177e-005
8.425588e-001,-8.392462e-007,2.756119e-005
8.433529e-001,-4.196231e-006,2.756086e-005
8.441471e-001,-3.189136e-006,2.756180e-005
8.449412e-001,-9.231709e-006,2.755848e-005
8.457353e-001,-1.359579e-005,2.755473e-005
8.465294e-001,-1.007095e-005,2.755721e-005
8.473235e-001,-3.189136e-006,2.755532e-005
8.481176e-001,-7.888914e-006,2.754769e-005
8.489118e-001,-1.896696e-005,2.754261e-005
8.497059e-001,-2.500954e-005,2.755473e-005
8.505000e-001,-2.450599e-005,2.758170e-005
8.512941e-001,-2.601663e-005,2.759911e-005
8.520882e-001,-2.568093e-005,2.760898e-005
8.528824e-001,-2.299535e-005,2.761997e-005
8.536765e-001,-2.467384e-005,2.762426e-005
8.544706e-001,-2.165255e-005,2.763063e-005
8.552647e-001,-2.400244e-005,2.763228e-005
8.560588e-001,-2.299535e-005,2.764091e-005
8.568529e-001,-2.333104e-005,2.764091e-005
8.576471e-001,-2.165255e-005,2.764356e-005
8.584412e-001,-1.795987e-005,2.764521e-005
8.592353e-001,-1.695277e-005,2.764307e-005
8.600294e-001,-1.577783e-005,2.764435e-005
8.608235e-001,-1.493858e-005,2.764907e-005
8.616176e-001,-1.661708e-005,2.765420e-005
8.624118e-001,-2.165255e-005,2.766145e-005
8.632059e-001,-2.098116e-005,2.767979e-005
8.640000e-001,-1.426719e-005,2.769826e-005
8.647941e-001,-8.896010e-006,2.770393e-005
8.655882e-001,-7.217518e-006,2.770459e-005
8.663824e-001,-1.023880e-005,2.770116e-005
8.671765e-001,-1.359579e-005,2.769808e-005
8.679706e-001,-1.896696e-005,2.770268e-005
8.687647e-001,-2.433814e-005,2.771845e-005
8.695588e-001,-3.038071e-005,2.774792e-005
8.703529e-001,-3.205920e-005,2.779696e-005
8.711471e-001,-3.440909e-005,2.784719e-005
8.719412e-001,-2.836652e-005,2.790716e-005
8.727353e-001,-8.896010e-006,2.794583e-005
8.735294e-001,1.057450e-005,2.794356e-005
8.743235e-001,2.265965e-005,2.794434e-005
8.751176e-001,2.316319e-005,2.796408e-005
8.759118e-001,1.594568e-005,2.798511e-005
8.767059e-001,1.057450e-005,2.798799e-005
8.775000e-001,3.524834e-006,2.798049e-005
8.782941e-001,2.517739e-006,2.796484e-005
8.790882e-001,7.049668e-006,2.794717e-005
8.798824e-001,6.210422e-006,2.793362e-005
8.806765e-001,-1.678492e-007,2.792008e-005
8.814706e-001,-1.426719e-005,2.790735e-005
8.822647e-001,-2.601663e-005,2.789951e-005
8.830588e-001,-3.340200e-005,2.791301e-005
8.838529e-001,-3.709468e-005,2.794285e-005
8.846471e-001,-4.112306e-005,2.796021e-005
8.854412e-001,-3.508049e-005,2.796640e-005
8.862353e-001,-2.803082e-005,2.794938e-005
8.870294e-001,-2.064546e-005,2.791502e-005
8.878235e-001,-5.539025e-006,2.788431e-005
8.886176e-001,7.888914e-006,2.785222e-005
8.894118e-001,1.057450e-005,2.785332e-005
8.902059e-001,8.560311e-006,2.784753e-005
8.910000e-001,6.546120e-006,2.781593e-005
8.917941e-001,3.860533e-006,2.777391e-005
8.925882e-001,-1.678492e-007,2.773182e-005
8.933824e-001,-1.678492e-007,2.769491e-005
8.941765e-001,-8.392462e-007,2.766537e-005
8.949706e-001,-8.896010e-006,2.764820e-005
8.957647e-001,-1.577783e-005,2.764314e-005
8.965588e-001,-2.584878e-005,2.765389e-005
8.973529e-001,-3.373770e-005,2.769035e-005
8.981471e-001,-4.011597e-005,2.775488e-005
8.989412e-001,-4.045167e-005,2.784647e-005
8.997353e-001,-3.474479e-005,2.793310e-005
9.005294e-001,-2.887007e-005,2.796813e-005
9.013235e-001,-2.568093e-005,2.790957e-005
9.021176e-001,-2.064546e-005,2.777711e-005
9.029118e-001,-1.695277e-005,2.757000e-005
9.037059e-001,-1.091020e-005,2.720775e-005
9.045000e-001,-5.539025e-006,2.669838e-005
9.052941e-001,-4.196231e-006,2.607796e-005
9.060882e-001,-8.224612e-006,2.548353e-005
9.068824e-001,-1.527428e-005,2.509761e-005
9.076765e-001,-2.165255e-005,2.500495e-005
9.084706e-001,-2.467384e-005,2.502575e-005
9.092647e-001,-2.400244e-005,2.482880e-005
9.100588e-001,-1.393149e-005,2.433791e-005
9.108529e-001,-3.524834e-006,2.381745e-005
9.116471e-001,5.203327e-006,2.348687e-005
9.124412e-001,2.517739e-006,2.337190e-005
9.132353e-001,-2.182040e-006,2.336210e-005
9.140294e-001,-6.881819e-006,2.334651e-005
9.148235e-001,-1.309224e-005,2.325053e-005
9.156176e-001,-1.493858e-005,2.315369e-005
9.164118e-001,-1.560998e-005,2.311561e-005
9.172059e-001,-1.846342e-005,2.312518e-005
9.180000e-001,-2.366674e-005,2.314143e-005
9.187941e-001,-2.987716e-005,2.312059e-005
9.195882e-001,-3.239490e-005,2.311421e-005
9.203824e-001,-3.138781e-005,2.316255e-005
9.211765e-001,-3.273060e-005,2.322897e-005
9.219706e-001,-3.138781e-005,2.328417e-005
9.227647e-001,-2.165255e-005,2.330876e-005
9.235588e-001,-1.560998e-005,2.329089e-005
9.243529e-001,-1.661708e-005,2.326125e-005
9.251471e-001,-2.668803e-005,2.321266e-005
9.259412e-001,-3.004501e-005,2.315289e-005
9.267353e-001,-2.517739e-005,2.309086e-005
9.275294e-001,-2.198825e-005,2.301784e-005
9.283235e-001,-1.493858e-005,2.292636e-005
9.291176e-001,-8.392462e-007,2.282799e-005
9.299118e-001,1.661708e-005,2.274530e-005
9.307059e-001,4.078737e-005,2.270557e-005
9.315000e-001,5.488670e-005,2.277588e-005
9.322941e-001,5.555810e-005,2.295098e-005
9.330882e-001,4.615854e-005,2.313578e-005
9.338824e-001,3.004501e-005,2.326529e-005
9.346765e-001,3.692683e-006,2.331498e-005
9.354706e-001,-1.762417e-005,2.330421e-005
9.362647e-001,-3.038071e-005,2.330914e-005
9.370588e-001,-3.508049e-005,2.335823e-005
9.378529e-001,-3.306630e-005,2.342396e-005
9.386471e-001,-3.508049e-005,2.347548e-005
9.394412e-001,-3.726253e-005,2.353182e-005
9.402353e-001,-3.608759e-005,2.358564e-005
9.410294e-001,-3.743038e-005,2.363352e-005
9.418235e-001,-3.508049e-005,2.368458e-005
9.426176e-001,-3.306630e-005,2.372746e-005
9.434118e-001,-3.373770e-005,2.377311e-005
9.442059e-001,-3.776608e-005,2.384223e-005
9.450000e-001,-3.239490e-005,2.393711e-005
9.457941e-001,-2.836652e-005,2.400336e-005
9.465882e-001,-2.970932e-005,2.405104e-005
9.473824e-001,-3.105211e-005,2.410899e-005
9.481765e-001,-2.517739e-005,2.417103e-005
9.489706e-001,-2.030976e-005,2.420883e-005
9.497647e-001,-1.762417e-005,2.423150e-005
9.505588e-001,-1.359579e-005,2.424671e-005
9.513529e-001,-4.196231e-006,2.425769e-005
9.521471e-001,1.426719e-005,2.425795e-005
9.529412e-001,1.963836e-005,2.426904e-005
9.537353e-001,1.594568e-005,2.428990e-005
9.545294e-001,9.231709e-006,2.429876e-005
9.553235e-001,-5.203327e-006,2.429193e-005
9.561176e-001,-1.510643e-005,2.428387e-005
9.569118e-001,-1.225299e-005,2.429195e-005
9.577059e-001,-8.224612e-006,2.429399e-005
9.585000e-001,1.174945e-006,2.428963e-005
9.592941e-001,1.124590e-005,2.428492e-005
9.600882e-001,1.191730e-005,2.428390e-005
9.608824e-001,6.713969e-007,2.427511e-005
9.616765e-001,-7.217518e-006,2.425702e-005
9.624706e-001,-1.594568e-005,2.424004e-005
9.632647e-001,-2.030976e-005,2.422498e-005
9.640588e-001,-2.232395e-005,2.420644e-005
9.648529e-001,-2.635233e-005,2.418876e-005
9.656471e-001,-2.769513e-005,2.417371e-005
9.664412e-001,-2.467384e-005,2.413024e-005
9.672353e-001,-1.795987e-005,2.408603e-005
9.680294e-001,-1.762417e-005,2.404218e-005
9.688235e-001,-2.568093e-005,2.399605e-005
9.696176e-001,-3.038071e-005,2.396046e-005
9.704118e-001,-3.239490e-005,2.396180e-005
9.712059e-001,-3.910887e-005,2.398420e-005
9.720000e-001,-4.481575e-005,2.405825e-005
9.727941e-001,-3.978027e-005,2.418093e-005
9.735882e-001,-2.652018e-005,2.428460e-005
9.743824e-001,-1.158160e-005,2.432970e-005
9.751765e-001,1.174945e-006,2.431892e-005
9.759706e-001,2.853437e-006,2.425019e-005
9.767647e-001,-1.678492e-007,2.414125e-005
9.775588e-001,5.035477e-007,2.402011e-005
9.783529e-001,4.196231e-006,2.391499e-005
9.791471e-001,5.203327e-006,2.386441e-005
9.799412e-001,5.874723e-006,2.384779e-005
9.807353e-001,7.217518e-006,2.384918e-005
9.815294e-001,4.364080e-006,2.385149e-005
9.823235e-001,-8.224612e-006,2.385260e-005
9.831176e-001,-1.560998e-005,2.384817e-005
9.839118e-001,-1.930266e-005,2.384126e-005
9.847059e-001,-1.712062e-005,2.386432e-005
9.855000e-001,-1.896696e-005,2.386899e-005
9.862941e-001,-1.913481e-005,2.382863e-005
9.870882e-001,-1.661708e-005,2.369548e-005
9.878824e-001,-1.292439e-005,2.343488e-005
9.886765e-001,-9.567407e-006,2.306074e-005
9.894706e-001,-9.567407e-006,2.258942e-005
9.902647e-001,-1.426719e-005,2.217364e-005
9.910588e-001,-1.393149e-005,2.194061e-005
9.918529e-001,-1.393149e-005,2.185466e-005
9.926471e-001,-1.493858e-005,2.183026e-005
9.934412e-001,-1.930266e-005,2.184076e-005
9.942353e-001,-2.702373e-005,2.185977e-005
9.950294e-001,-3.054856e-005,2.186617e-005
9.958235e-001,-2.735943e-005,2.188355e-005
9.966176e-001,-2.635233e-005,2.190699e-005
9.974118e-001,-2.870222e-005,2.194980e-005
9.982059e-001,-1.779202e-005,2.200777e-005
9.990000e-001,-7.553216e-006,2.202495e-005
9.997941e-001,1.007095e-006,2.198739e-005
1.000588e+000,1.846342e-006,2.192911e-005
1.001382e+000,-3.524834e-006,2.188141e-005
1.002176e+000,-1.158160e-005,2.182368e-005
1.002971e+000,-1.560998e-005,2.176455e-005
1.003765e+000,-1.695277e-005,2.171479e-005
1.004559e+000,-1.695277e-005,2.166813e-005
1.005353e+000,-1.359579e-005,2.164571e-005
1.006147e+000,-1.023880e-005,2.162896e-005
1.006941e+000,-8.560311e-006,2.161018e-005
1.007735e+000,-9.903105e-006,2.158812e-005
1.008529e+000,-1.023880e-005,2.157415e-005
1.009324e+000,-1.493858e-005,2.154283e-005
1.010118e+000,-1.628138e-005,2.150797e-005
1.010912e+000,-1.628138e-005,2.148844e-005
1.011706e+000,-1.426719e-005,2.146656e-005
1.012500e+000,-1.023880e-005,2.144010e-005
1.013294e+000,-8.560311e-006,2.141724e-005
1.014088e+000,-5.874723e-006,2.140609e-005
1.014882e+000,-5.539025e-006,2.140403e-005
1.015676e+000,-1.292439e-005,2.139926e-005
1.016471e+000,-1.728847e-005,2.140439e-005
1.017265e+000,-2.232395e-005,2.141957e-005
1.018059e+000,-2.702373e-005,2.144286e-005
1.018853e+000,-3.071641e-005,2.147222e-005
1.019647e+000,-3.105211e-005,2.151355e-005
1.020441e+000,-2.970932e-005,2.157082e-005
1.021235e+000,-2.534523e-005,2.163149e-005
1.022029e+000,-1.225299e-005,2.167743e-005
1.022824e+000,4.531929e-006,2.168786e-005
1.023618e+000,1.460288e-005,2.168589e-005
1.024412e+000,6.546120e-006,2.169280e-005
1.025206e+000,-2.853437e-006,2.169014e-005
1.026000e+000,-9.567407e-006,2.168304e-005
1.026794e+000,-1.242084e-005,2.167585e-005
1.027588e+000,-1.191730e-005,2.166771e-005
1.028382e+000,-4.531929e-006,2.166248e-005
1.029176e+000,5.203327e-006,2.165726e-005
1.029971e+000,1.191730e-005,2.165923e-005
1.030765e+000,1.997406e-005,2.164854e-005
1.031559e+000,2.265965e-005,2.163431e-005
1.032353e+000,2.400244e-005,2.166163e-005
1.033147e+000,1.695277e-005,2.169898e-005
1.033941e+000,3.692683e-006,2.167165e-005
1.034735e+000,-8.392462e-006,2.156383e-005
1.035529e+000,-2.098116e-005,2.144989e-005
1.036324e+000,-3.306630e-005,2.138216e-005
1.037118e+000,-3.642328e-005,2.139710e-005
1.037912e+000,-3.440909e-005,2.147430e-005
1.038706e+000,-3.440909e-005,2.156082e-005
1.039500e+000,-3.508049e-005,2.164350e-005
1.040294e+000,-3.105211e-005,2.169394e-005
1.041088e+000,-2.903792e-005,2.168608e-005
1.041882e+000,-2.719158e-005,2.168891e-005
1.042676e+000,-2.635233e-005,2.173272e-005
1.043471e+000,-2.668803e-005,2.177776e-005
1.044265e+000,-2.500954e-005,2.179339e-005
1.045059e+000,-2.366674e-005,2.178304e-005
1.045853e+000,-2.400244e-005,2.176516e-005
1.046647e+000,-2.165255e-005,2.174490e-005
1.047441e+000,-2.299535e-005,2.169748e-005
1.048235e+000,-2.568093e-005,2.163521e-005
1.049029e+000,-2.316319e-005,2.159995e-005
1.049824e+000,-2.249180e-005,2.159214e-005
1.050618e+000,-2.517739e-005,2.159903e-005
1.051412e+000,-2.383459e-005,2.159714e-005
1.052206e+000,-2.198825e-005,2.157969e-005
1.053000e+000,-1.997406e-005,2.155022e-005
1.053794e+000,-1.225299e-005,2.153831e-005
1.054588e+000,-9.567407e-006,2.153291e-005
1.055382e+000,-9.567407e-006,2.153967e-005
1.056176e+000,-1.426719e-005,2.152434e-005
1.056971e+000,-1.695277e-005,2.150140e-005
1.057765e+000,-1.829557e-005,2.149314e-005
1.058559e+000,-2.249180e-005,2.150856e-005
1.059353e+000,-2.836652e-005,2.154056e-005
1.060147e+000,-3.944457e-005,2.159991e-005
1.060941e+000,-4.917983e-005,2.170206e-005
1.061735e+000,-5.690089e-005,2.184776e-005
1.062529e+000,-5.287251e-005,2.203106e-005
1.063324e+000,-3.105211e-005,2.218490e-005
1.064118e+000,-3.524834e-006,2.219905e-005
1.064912e+000,1.527428e-005,2.213654e-005
1.065706e+000,3.508049e-005,2.211302e-005
1.066500e+000,5.085832e-005,2.218084e-005
1.067294e+000,6.294347e-005,2.234013e-005
1.068088e+000,7.603571e-005,2.258351e-005
1.068882e+000,8.073549e-005,2.293939e-005
1.069676e+000,6.495765e-005,2.332456e-005
1.070471e+000,3.407340e-005,2.352450e-005
1.071265e+000,9.231709e-006,2.352604e-005
1.072059e+000,-1.359579e-005,2.346069e-005
1.072853e+000,-3.038071e-005,2.341858e-005
1.073647e+000,-3.843748e-005,2.345685e-005
1.074441e+000,-3.910887e-005,2.354080e-005
1.075235e+000,-3.373770e-005,2.362900e-005
1.076029e+000,-2.568093e-005,2.367786e-005
1.076824e+000,-2.265965e-005,2.368127e-005
1.077618e+000,-1.560998e-005,2.368329e-005
1.078412e+000,-1.393149e-005,2.366200e-005
1.079206e+000,-1.644922e-005,2.364730e-005
1.080000e+000,-2.265965e-005,2.364692e-005
1.080794e+000,-2.635233e-005,2.366290e-005
1.081588e+000,-3.038071e-005,2.370254e-005
1.082382e+000,-3.239490e-005,2.376030e-005
1.083176e+000,-3.793393e-005,2.379619e-005
1.083971e+000,-3.642328e-005,2.385598e-005
1.084765e+000,-3.373770e-005,2.393326e-005
1.085559e+000,-3.105211e-005,2.400805e-005
1.086353e+000,-2.601663e-005,2.407187e-005
1.087147e+000,-2.299535e-005,2.411406e-005
1.087941e+000,-2.232395e-005,2.413764e-005
1.088735e+000,-2.299535e-005,2.415003e-005
1.089529e+000,-2.232395e-005,2.415769e-005
1.090324e+000,-2.232395e-005,2.416848e-005
1.091118e+000,-2.030976e-005,2.419086e-005
1.091912e+000,-2.098116e-005,2.421785e-005
1.092706e+000,-1.896696e-005,2.424673e-005
1.093500e+000,-1.963836e-005,2.426919e-005
1.094294e+000,-2.165255e-005,2.429381e-005
1.095088e+000,-2.400244e-005,2.431894e-005
1.095882e+000,-2.568093e-005,2.434455e-005
1.096676e+000,-2.836652e-005,2.438102e-005
1.097471e+000,-2.870222e-005,2.443286e-005
1.098265e+000,-2.903792e-005,2.448244e-005
1.099059e+000,-3.038071e-005,2.451387e-005
1.099853e+000,-2.769513e-005,2.453318e-005
1.100647e+000,-2.030976e-005,2.454399e-005
1.101441e+000,-7.553216e-006,2.452683e-005
1.102235e+000,5.035477e-007,2.448768e-005
1.103029e+000,3.189136e-006,2.445329e-005
1.103824e+000,8.560311e-006,2.441428e-005
1.104618e+000,2.265965e-005,2.438847e-005
1.105412e+000,3.709468e-005,2.438438e-005
1.106206e+000,4.515145e-005,2.443964e-005
1.107000e+000,5.052262e-005,2.453681e-005
1.107794e+000,3.440909e-005,2.467166e-005
1.108588e+000,1.661708e-005,2.472720e-005
1.109382e+000,2.349889e-006,2.472647e-005
1.110176e+000,-5.539025e-006,2.471079e-005
1.110971e+000,-1.309224e-005,2.469839e-005
1.111765e+000,-2.030976e-005,2.469163e-005
1.112559e+000,-2.366674e-005,2.468800e-005
1.113353e+000,-3.071641e-005,2.469573e-005
1.114147e+000,-3.474479e-005,2.474340e-005
1.114941e+000,-3.323415e-005,2.481589e-005
1.115735e+000,-3.273060e-005,2.488332e-005
1.116529e+000,-3.390555e-005,2.494509e-005
1.117324e+000,-3.541619e-005,2.500660e-005
1.118118e+000,-3.105211e-005,2.506350e-005
1.118912e+000,-2.836652e-005,2.508712e-005
1.119706e+000,-2.903792e-005,2.507961e-005
1.120500e+000,-2.970932e-005,2.506788e-005
1.121294e+000,-2.853437e-005,2.504873e-005
1.122088e+000,-2.568093e-005,2.504934e-005
1.122882e+000,-2.098116e-005,2.508621e-005
1.123676e+000,-1.896696e-005,2.510704e-005
1.124471e+000,-1.628138e-005,2.509729e-005
1.125265e+000,-1.493858e-005,2.508006e-005
1.126059e+000,-1.560998e-005,2.507809e-005
1.126853e+000,-1.527428e-005,2.508646e-005
1.127647e+000,-1.560998e-005,2.510047e-005
1.128441e+000,-1.762417e-005,2.511553e-005
1.129235e+000,-2.064546e-005,2.513206e-005
1.130029e+000,-2.366674e-005,2.515661e-005
1.130824e+000,-2.383459e-005,2.519204e-005
1.131618e+000,-2.098116e-005,2.521507e-005
1.132412e+000,-2.064546e-005,2.520012e-005
1.133206e+000,-1.963836e-005,2.515652e-005
1.134000e+000,-1.560998e-005,2.509375e-005
1.134794e+000,-1.393149e-005,2.500174e-005
1.135588e+000,-1.762417e-005,2.493563e-005
1.136382e+000,-1.091020e-005,2.490527e-005
1.137176e+000,-2.182040e-006,2.488562e-005
1.137971e+000,-1.510643e-006,2.488397e-005
1.138765e+000,-2.853437e-006,2.488013e-005
1.139559e+000,-8.896010e-006,2.487349e-005
1.140353e+000,-1.762417e-005,2.487387e-005
1.141147e+000,-2.668803e-005,2.489100e-005
1.141941e+000,-2.030976e-005,2.493557e-005
1.142735e+000,6.546120e-006,2.496190e-005
1.143529e+000,2.668803e-005,2.496463e-005
1.144324e+000,4.179446e-005,2.500997e-005
1.145118e+000,5.857939e-005,2.511593e-005
1.145912e+000,6.697185e-005,2.531690e-005
1.146706e+000,5.220111e-005,2.555586e-005
1.147500e+000,2.870222e-005,2.565453e-005
1.148294e+000,9.903105e-006,2.560573e-005
1.149088e+000,-6.881819e-006,2.550989e-005
1.149882e+000,-1.997406e-005,2.543739e-005
1.150676e+000,-3.105211e-005,2.541017e-005
1.151471e+000,-3.440909e-005,2.542926e-005
1.152265e+000,-3.776608e-005,2.547667e-005
1.153059e+000,-3.860533e-005,2.554775e-005
1.153853e+000,-4.061952e-005,2.563308e-005
1.154647e+000,-4.313725e-005,2.573348e-005
1.155441e+000,-3.978027e-005,2.584728e-005
1.156235e+000,-3.944457e-005,2.594044e-005
1.157029e+000,-3.743038e-005,2.602150e-005
1.157824e+000,-3.709468e-005,2.607848e-005
1.158618e+000,-4.011597e-005,2.612528e-005
1.159412e+000,-4.179446e-005,2.618818e-005
1.160206e+000,-3.994812e-005,2.628242e-005
1.161000e+000,-3.508049e-005,2.637818e-005
1.161794e+000,-3.172351e-005,2.645074e-005
1.162588e+000,-3.138781e-005,2.651087e-005
1.163382e+000,-3.105211e-005,2.656970e-005
1.164176e+000,-3.457694e-005,2.662459e-005
1.164971e+000,-3.726253e-005,2.668577e-005
1.165765e+000,-3.642328e-005,2.675522e-005
1.166559e+000,-3.038071e-005,2.681959e-005
1.167353e+000,-2.098116e-005,2.685413e-005
1.168147e+000,-1.107805e-005,2.684702e-005
1.168941e+000,-5.539025e-006,2.680132e-005
1.169735e+000,-3.524834e-006,2.674072e-005
1.170529e+000,-4.867628e-006,2.668273e-005
1.171324e+000,-3.524834e-006,2.662014e-005
1.172118e+000,-6.713969e-007,2.656189e-005
1.172912e+000,6.881819e-006,2.653379e-005
1.173706e+000,1.258869e-005,2.652201e-005
1.174500e+000,1.258869e-005,2.651494e-005
1.175294e+000,2.198825e-005,2.648167e-005
1.176088e+000,2.568093e-005,2.645645e-005
1.176882e+000,1.829557e-005,2.645799e-005
1.177676e+000,1.527428e-005,2.644903e-005
1.178471e+000,1.393149e-005,2.644964e-005
1.179265e+000,1.393149e-005,2.646128e-005
1.180059e+000,1.057450e-005,2.645635e-005
1.180853e+000,6.546120e-006,2.636278e-005
1.181647e+000,-1.174945e-006,2.618279e-005
1.182441e+000,-3.524834e-006,2.599448e-005
1.183235e+000,2.517739e-006,2.586440e-005
1.184029e+000,7.888914e-006,2.580915e-005
1.184824e+000,3.524834e-006,2.581215e-005
1.185618e+000,-5.539025e-006,2.579375e-005
1.186412e+000,-2.064546e-005,2.573860e-005
1.187206e+000,-3.407340e-005,2.568879e-005
1.188000e+000,-4.045167e-005,2.569298e-005
1.188794e+000,-4.112306e-005,2.571811e-005
1.189588e+000,-4.330510e-005,2.573684e-005
1.190382e+000,-4.246586e-005,2.577227e-005
1.191176e+000,-3.843748e-005,2.579712e-005
1.191971e+000,-3.541619e-005,2.581234e-005
1.192765e+000,-3.273060e-005,2.582227e-005
1.193559e+000,-2.970932e-005,2.581814e-005
1.194353e+000,-2.836652e-005,2.578459e-005
1.195147e+000,-2.803082e-005,2.576947e-005
1.195941e+000,-2.836652e-005,2.576830e-005
1.196735e+000,-2.500954e-005,2.576348e-005
1.197529e+000,-2.467384e-005,2.574253e-005
1.198324e+000,-2.635233e-005,2.574098e-005
1.199118e+000,-2.836652e-005,2.575842e-005
1.199912e+000,-3.239490e-005,2.578894e-005
1.200706e+000,-3.105211e-005,2.584227e-005
1.201500e+000,-3.071641e-005,2.590054e-005
1.202294e+000,-2.903792e-005,2.594599e-005
1.203088e+000,-2.232395e-005,2.597405e-005
1.203882e+000,-1.795987e-005,2.598901e-005
1.204676e+000,-1.493858e-005,2.600355e-005
1.205471e+000,-6.210422e-006,2.601555e-005
1.206265e+000,6.210422e-006,2.600395e-005
1.207059e+000,9.231709e-006,2.599711e-005
1.207853e+000,4.531929e-006,2.599819e-005
1.208647e+000,2.517739e-006,2.599936e-005
1.209441e+000,-1.174945e-006,2.599200e-005
1.210235e+000,-5.035477e-006,2.598339e-005
1.211029e+000,-1.225299e-005,2.598491e-005
1.211824e+000,-1.493858e-005,2.599092e-005
1.212618e+000,-1.560998e-005,2.598901e-005
1.213412e+000,-1.930266e-005,2.597867e-005
1.214206e+000,-2.601663e-005,2.597096e-005
1.215000e+000,-3.038071e-005,2.596988e-005
1.215794e+000,-3.843748e-005,2.597944e-005
1.216588e+000,-3.743038e-005,2.603263e-005
1.217382e+000,-3.239490e-005,2.609851e-005
1.218176e+000,-1.493858e-005,2.614355e-005
1.218971e+000,5.203327e-006,2.611696e-005
1.219765e+000,2.702373e-005,2.606228e-005
1.220559e+000,3.675899e-005,2.604278e-005
1.221353e+000,3.810178e-005,2.603187e-005
1.222147e+000,3.340200e-005,2.599780e-005
1.222941e+000,3.256275e-005,2.596919e-005
1.223735e+000,2.568093e-005,2.599107e-005
1.224529e+000,1.661708e-005,2.602324e-005
1.225324e+000,3.524834e-006,2.604005e-005
1.226118e+000,-8.392462e-006,2.604031e-005
1.226912e+000,-9.903105e-006,2.604461e-005
1.227706e+000,-7.217518e-006,2.605059e-005
1.228500e+000,-8.224612e-006,2.605270e-005
1.229294e+000,-1.460288e-005,2.605518e-005
1.230088e+000,-1.779202e-005,2.606610e-005
1.230882e+000,-1.896696e-005,2.608225e-005
1.231676e+000,-2.299535e-005,2.610304e-005
1.232471e+000,-2.769513e-005,2.613116e-005
1.233265e+000,-3.256275e-005,2.616303e-005
1.234059e+000,-3.709468e-005,2.620486e-005
1.234853e+000,-3.709468e-005,2.627058e-005
1.235647e+000,-3.508049e-005,2.633210e-005
1.236441e+000,-3.138781e-005,2.638433e-005
1.237235e+000,-3.440909e-005,2.642709e-005
1.238029e+000,-3.910887e-005,2.648829e-005
1.238824e+000,-3.659113e-005,2.657460e-005
1.239618e+000,-3.575189e-005,2.664924e-005
1.240412e+000,-3.675899e-005,2.671337e-005
1.241206e+000,-3.642328e-005,2.678226e-005
1.242000e+000,-2.987716e-005,2.684951e-005
1.242794e+000,-2.500954e-005,2.688919e-005
1.243588e+000,-2.165255e-005,2.690416e-005
1.244382e+000,-2.534523e-005,2.688868e-005
1.245176e+000,-2.735943e-005,2.687145e-005
1.245971e+000,-2.299535e-005,2.687145e-005
1.246765e+000,-1.426719e-005,2.686163e-005
1.247559e+000,1.174945e-006,2.682484e-005
1.248353e+000,1.846342e-005,2.680612e-005
1.249147e+000,3.004501e-005,2.682298e-005
1.249941e+000,3.843748e-005,2.687645e-005
1.250735e+000,3.810178e-005,2.696364e-005
1.251529e+000,3.121996e-005,2.704851e-005
1.252324e+000,1.829557e-005,2.709795e-005
1.253118e+000,5.203327e-006,2.710330e-005
1.253912e+000,-2.349889e-006,2.708800e-005
1.254706e+000,-1.225299e-005,2.707143e-005
1.255500e+000,-2.098116e-005,2.706939e-005
1.256294e+000,-2.702373e-005,2.708911e-005
1.257088e+000,-2.769513e-005,2.712770e-005
1.257882e+000,-2.467384e-005,2.716694e-005
1.258676e+000,-1.963836e-005,2.719646e-005
1.259471e+000,-2.265965e-005,2.720597e-005
1.260265e+000,-2.433814e-005,2.722051e-005
1.261059e+000,-2.299535e-005,2.723964e-005
1.261853e+000,-1.359579e-005,2.725865e-005
1.262647e+000,-7.217518e-006,2.726332e-005
1.263441e+000,-5.539025e-006,2.726209e-005
1.264235e+000,-5.203327e-006,2.726186e-005
1.265029e+000,-9.903105e-006,2.726165e-005
1.265824e+000,-1.762417e-005,2.725762e-005
1.266618e+000,-2.265965e-005,2.725831e-005
1.267412e+000,-2.769513e-005,2.725919e-005
1.268206e+000,-3.172351e-005,2.726133e-005
1.269000e+000,-3.138781e-005,2.726501e-005
1.269794e+000,-3.407340e-005,2.726623e-005
1.270588e+000,-3.373770e-005,2.728248e-005
1.271382e+000,-3.189136e-005,2.731141e-005
1.272176e+000,-2.803082e-005,2.736191e-005
1.272971e+000,-2.433814e-005,2.740640e-005
1.273765e+000,-2.467384e-005,2.742842e-005
1.274559e+000,-3.256275e-005,2.746125e-005
1.275353e+000,-3.340200e-005,2.752220e-005
1.276147e+000,-3.508049e-005,2.758139e-005
1.276941e+000,-3.910887e-005,2.764346e-005
1.277735e+000,-3.910887e-005,2.772327e-005
1.278529e+000,-3.172351e-005,2.780981e-005
1.279324e+000,-2.333104e-005,2.786582e-005
1.280118e+000,-9.567407e-006,2.788880e-005
1.280912e+000,-3.189136e-006,2.787125e-005
1.281706e+000,-1.510643e-006,2.784247e-005
1.282500e+000,-3.356985e-007,2.780964e-005
1.283294e+000,1.174945e-006,2.779318e-005
1.284088e+000,1.426719e-005,2.779248e-005
1.284882e+000,2.735943e-005,2.780011e-005
1.285676e+000,3.608759e-005,2.781776e-005
1.286471e+000,4.078737e-005,2.782972e-005
1.287265e+000,3.810178e-005,2.784899e-005
1.288059e+000,2.870222e-005,2.786430e-005
1.288853e+000,1.728847e-005,2.784371e-005
1.289647e+000,3.860533e-006,2.779037e-005
1.290441e+000,-4.196231e-006,2.773592e-005
1.291235e+000,-1.728847e-005,2.768848e-005
1.292029e+000,-2.970932e-005,2.766314e-005
1.292824e+000,-3.910887e-005,2.767397e-005
1.293618e+000,-4.917983e-005,2.772096e-005
1.294412e+000,-5.320821e-005,2.782377e-005
1.295206e+000,-4.917983e-005,2.795344e-005
1.296000e+000,-4.716563e-005,2.805820e-005
1.296794e+000,-4.145876e-005,2.815767e-005
1.297588e+000,-3.810178e-005,2.822489e-005
1.298382e+000,-3.944457e-005,2.826955e-005
1.299176e+000,-3.810178e-005,2.832691e-005
1.299971e+000,-3.373770e-005,2.838003e-005
1.300765e+000,-1.795987e-005,2.840831e-005
1.301559e+000,4.531929e-006,2.839454e-005
1.302353e+000,1.594568e-005,2.836857e-005
1.303147e+000,3.004501e-005,2.836045e-005
1.303941e+000,4.112306e-005,2.840267e-005
1.304735e+000,4.011597e-005,2.849221e-005
1.305529e+000,3.390555e-005,2.857691e-005
1.306324e+000,2.165255e-005,2.862957e-005
1.307118e+000,1.326009e-005,2.863966e-005
1.307912e+000,1.174945e-006,2.863083e-005
1.308706e+000,-1.661708e-005,2.860275e-005
1.309500e+000,-2.198825e-005,2.857331e-005
1.310294e+000,-2.299535e-005,2.851348e-005
1.311088e+000,-2.668803e-005,2.840775e-005
1.311882e+000,-3.340200e-005,2.826583e-005
1.312676e+000,-3.642328e-005,2.817104e-005
1.313471e+000,-3.709468e-005,2.819152e-005
1.314265e+000,-3.642328e-005,2.826844e-005
1.315059e+000,-3.105211e-005,2.832996e-005
1.315853e+000,-2.652018e-005,2.831498e-005
1.316647e+000,-2.433814e-005,2.820887e-005
1.317441e+000,-2.349889e-005,2.801802e-005
1.318235e+000,-2.299535e-005,2.771923e-005
1.319029e+000,-2.064546e-005,2.737300e-005
1.319824e+000,-2.198825e-005,2.715144e-005
1.320618e+000,-2.316319e-005,2.711168e-005
1.321412e+000,-2.568093e-005,2.713817e-005
1.322206e+000,-2.970932e-005,2.716601e-005
1.323000e+000,-3.508049e-005,2.716364e-005
1.323794e+000,-3.440909e-005,2.714917e-005
1.324588e+000,-3.239490e-005,2.712890e-005
1.325382e+000,-2.500954e-005,2.712369e-005
1.326176e+000,-1.712062e-005,2.712169e-005
1.326971e+000,-4.867628e-006,2.710875e-005
1.327765e+000,6.210422e-006,2.709582e-005
1.328559e+000,1.023880e-005,2.708668e-005
1.329353e+000,1.040665e-005,2.707694e-005
1.330147e+000,5.539025e-006,2.705310e-005
1.330941e+000,2.517739e-006,2.701400e-005
1.331735e+000,5.035477e-007,2.695991e-005
1.332529e+000,-1.510643e-006,2.689788e-005
1.333324e+000,-1.846342e-006,2.681269e-005
1.334118e+000,-2.853437e-006,2.673399e-005
1.334912e+000,-4.531929e-006,2.666659e-005
1.335706e+000,-1.174945e-006,2.661018e-005
1.336500e+000,1.678492e-007,2.656973e-005
1.337294e+000,-4.867628e-006,2.653802e-005
1.338088e+000,-4.867628e-006,2.650952e-005
1.338882e+000,-1.124590e-005,2.647917e-005
1.339676e+000,-3.105211e-005,2.645679e-005
1.340471e+000,-4.313725e-005,2.648482e-005
1.341265e+000,-4.448005e-005,2.657175e-005
1.342059e+000,-4.213016e-005,2.666378e-005
1.342853e+000,-3.591974e-005,2.674816e-005
1.343647e+000,-2.433814e-005,2.680196e-005
1.344441e+000,-1.191730e-005,2.680929e-005
1.345235e+000,5.035477e-007,2.678350e-005
1.346029e+000,7.888914e-006,2.674427e-005
1.346824e+000,1.527428e-005,2.670003e-005
1.347618e+000,1.930266e-005,2.666479e-005
1.348412e+000,1.426719e-005,2.663667e-005
1.349206e+000,2.517739e-006,2.659363e-005
1.350000e+000,-5.539025e-006,2.654804e-005
1.350794e+000,-9.231709e-006,2.652513e-005
1.351588e+000,-1.174945e-005,2.652682e-005
1.352382e+000,-1.829557e-005,2.653510e-005
1.353176e+000,-2.299535e-005,2.655457e-005
1.353971e+000,-2.400244e-005,2.658187e-005
1.354765e+000,-2.433814e-005,2.658562e-005
1.355559e+000,-2.601663e-005,2.653864e-005
1.356353e+000,-2.987716e-005,2.645680e-005
1.357147e+000,-3.743038e-005,2.635671e-005
1.357941e+000,-4.481575e-005,2.636982e-005
1.358735e+000,-5.220111e-005,2.647422e-005
1.359529e+000,-5.790799e-005,2.663729e-005
1.360324e+000,-6.294347e-005,2.683518e-005
1.361118e+000,-5.152972e-005,2.705916e-005
1.361912e+000,-2.232395e-005,2.719083e-005
1.362706e+000,6.546120e-006,2.718721e-005
1.363500e+000,2.803082e-005,2.713441e-005
1.364294e+000,3.994812e-005,2.710966e-005
1.365088e+000,4.246586e-005,2.713851e-005
1.365882e+000,4.196231e-005,2.718143e-005
1.366676e+000,3.205920e-005,2.721721e-005
1.367471e+000,1.124590e-005,2.720396e-005
1.368265e+000,-6.210422e-006,2.715487e-005
1.369059e+000,-1.695277e-005,2.710991e-005
1.369853e+000,-3.071641e-005,2.707725e-005
1.370647e+000,-3.910887e-005,2.708083e-005
1.371441e+000,-4.548714e-005,2.712285e-005
1.372235e+000,-3.843748e-005,2.720548e-005
1.373029e+000,-2.719158e-005,2.726612e-005
1.373824e+000,-1.359579e-005,2.728829e-005
1.374618e+000,-1.510643e-006,2.728360e-005
1.375412e+000,5.539025e-006,2.727071e-005
1.376206e+000,4.196231e-006,2.725827e-005
1.377000e+000,2.517739e-006,2.724567e-005
1.377794e+000,5.035477e-007,2.723179e-005
1.378588e+000,-5.539025e-006,2.721364e-005
1.379382e+000,-9.063859e-006,2.719048e-005
1.380176e+000,-6.210422e-006,2.716248e-005
1.380971e+000,-4.531929e-006,2.713142e-005
1.381765e+000,-3.524834e-006,2.710678e-005
1.382559e+000,-4.196231e-006,2.708246e-005
1.383353e+000,-3.524834e-006,2.706081e-005
1.384147e+000,-3.189136e-006,2.704720e-005
1.384941e+000,-8.560311e-006,2.703637e-005
1.385735e+000,-1.376364e-005,2.702238e-005
1.386529e+000,-2.316319e-005,2.702653e-005
1.387324e+000,-2.970932e-005,2.705785e-005
1.388118e+000,-3.256275e-005,2.710961e-005
1.388912e+000,-3.239490e-005,2.717134e-005
1.389706e+000,-2.970932e-005,2.722814e-005
1.390500e+000,-2.769513e-005,2.726157e-005
1.391294e+000,-2.467384e-005,2.726477e-005
1.392088e+000,-2.500954e-005,2.727624e-005
1.392882e+000,-2.433814e-005,2.731023e-005
1.393676e+000,-2.098116e-005,2.730324e-005
1.394471e+000,-2.030976e-005,2.722693e-005
1.395265e+000,-1.829557e-005,2.704978e-005
1.396059e+000,-1.795987e-005,2.680434e-005
1.396853e+000,-1.896696e-005,2.666124e-005
1.397647e+000,-1.997406e-005,2.663351e-005
1.398441e+000,-1.930266e-005,2.665149e-005
1.399235e+000,-1.594568e-005,2.667092e-005
1.400029e+000,-8.896010e-006,2.666228e-005
1.400824e+000,-3.692683e-006,2.660936e-005
1.401618e+000,4.196231e-006,2.653923e-005
1.402412e+000,7.888914e-006,2.645458e-005
1.403206e+000,3.189136e-006,2.636848e-005
1.404000e+000,-7.888914e-006,2.626926e-005
1.404794e+000,-2.030976e-005,2.616001e-005
1.405588e+000,-2.769513e-005,2.608870e-005
1.406382e+000,-3.038071e-005,2.604051e-005
1.407176e+000,-3.273060e-005,2.601126e-005
1.407971e+000,-2.803082e-005,2.599260e-005
1.408765e+000,-1.930266e-005,2.594210e-005
1.409559e+000,-1.359579e-005,2.585761e-005
1.410353e+000,-8.224612e-006,2.577057e-005
1.411147e+000,2.182040e-006,2.569861e-005
1.411941e+000,1.527428e-005,2.563647e-005
1.412735e+000,2.098116e-005,2.558972e-005
1.413529e+000,1.594568e-005,2.555710e-005
1.414324e+000,8.896010e-006,2.549838e-005
1.415118e+000,-5.539025e-006,2.541648e-005
1.415912e+000,-1.863127e-005,2.533516e-005
1.416706e+000,-2.970932e-005,2.529894e-005
1.417500e+000,-3.172351e-005,2.532677e-005
1.418294e+000,-3.172351e-005,2.538227e-005
1.419088e+000,-3.239490e-005,2.544340e-005
1.419882e+000,-4.078737e-005,2.550822e-005
1.420676e+000,-3.994812e-005,2.561039e-005
1.421471e+000,-2.568093e-005,2.570865e-005
1.422265e+000,-1.628138e-005,2.574944e-005
1.423059e+000,-1.359579e-005,2.576290e-005
1.423853e+000,-1.560998e-005,2.576453e-005
1.424647e+000,-2.165255e-005,2.576980e-005
1.425441e+000,-1.963836e-005,2.576889e-005
1.426235e+000,-8.896010e-006,2.575196e-005
1.427029e+000,1.258869e-005,2.573615e-005
1.427824e+000,2.668803e-005,2.573152e-005
1.428618e+000,2.853437e-005,2.576357e-005
1.429412e+000,3.810178e-005,2.580187e-005
1.430206e+000,4.414435e-005,2.588443e-005
1.431000e+000,3.390555e-005,2.600141e-005
1.431794e+000,1.594568e-005,2.607163e-005
1.432588e+000,3.189136e-006,2.608640e-005
1.433382e+000,-1.393149e-005,2.608663e-005
1.434176e+000,-3.138781e-005,2.609468e-005
1.434971e+000,-3.440909e-005,2.615397e-005
1.435765e+000,-3.541619e-005,2.622410e-005
1.436559e+000,-3.810178e-005,2.627433e-005
1.437353e+000,-4.112306e-005,2.629195e-005
1.438147e+000,-4.682994e-005,2.629526e-005
1.438941e+000,-5.052262e-005,2.632564e-005
1.439735e+000,-4.850843e-005,2.636657e-005
1.440529e+000,-4.179446e-005,2.639975e-005
1.441324e+000,-3.172351e-005,2.641599e-005
1.442118e+000,-2.098116e-005,2.640104e-005
1.442912e+000,-1.493858e-005,2.636295e-005
1.443706e+000,-8.896010e-006,2.632309e-005
1.444500e+000,-7.217518e-006,2.627916e-005
1.445294e+000,-5.874723e-006,2.623467e-005
1.446088e+000,-7.721065e-006,2.618788e-005
1.446882e+000,-1.158160e-005,2.615345e-005
1.447676e+000,-1.695277e-005,2.612454e-005
1.448471e+000,-1.896696e-005,2.609971e-005
1.449265e+000,-1.695277e-005,2.607256e-005
1.450059e+000,-1.762417e-005,2.602597e-005
1.450853e+000,-1.762417e-005,2.598595e-005
1.451647e+000,-1.695277e-005,2.594714e-005
1.452441e+000,-1.326009e-005,2.591301e-005
1.453235e+000,-9.903105e-006,2.589318e-005
1.454029e+000,-7.217518e-006,2.587938e-005
1.454824e+000,-7.553216e-006,2.586885e-005
1.455618e+000,-9.903105e-006,2.586998e-005
1.456412e+000,-1.158160e-005,2.587365e-005
1.457206e+000,-1.326009e-005,2.587666e-005
1.458000e+000,-1.493858e-005,2.588621e-005
1.458794e+000,-1.493858e-005,2.589955e-005
1.459588e+000,-1.527428e-005,2.591318e-005
1.460382e+000,-1.829557e-005,2.592595e-005
1.461176e+000,-1.795987e-005,2.593729e-005
1.461971e+000,-1.728847e-005,2.594339e-005
1.462765e+000,-2.098116e-005,2.594678e-005
1.463559e+000,-2.500954e-005,2.595093e-005
1.464353e+000,-2.668803e-005,2.594777e-005
1.465147e+000,-2.903792e-005,2.593484e-005
1.465941e+000,-2.937362e-005,2.589587e-005
1.466735e+000,-2.970932e-005,2.586275e-005
1.467529e+000,-2.803082e-005,2.585248e-005
1.468324e+000,-2.030976e-005,2.588711e-005
1.469118e+000,-1.225299e-005,2.591080e-005
1.469912e+000,1.846342e-006,2.587512e-005
1.470706e+000,1.057450e-005,2.579205e-005
1.471500e+000,1.376364e-005,2.570919e-005
1.472294e+000,1.661708e-005,2.565175e-005
1.473088e+000,2.450599e-005,2.560303e-005
1.473882e+000,2.635233e-005,2.559936e-005
1.474676e+000,1.997406e-005,2.562537e-005
1.475471e+000,1.376364e-005,2.564938e-005
1.476265e+000,9.231709e-006,2.565676e-005
1.477059e+000,3.189136e-006,2.565597e-005
1.477853e+000,-3.524834e-006,2.565336e-005
1.478647e+000,-1.292439e-005,2.564994e-005
1.479441e+000,-2.652018e-005,2.564707e-005
1.480235e+000,-3.105211e-005,2.567107e-005
1.481029e+000,-3.038071e-005,2.570854e-005
1.481824e+000,-2.803082e-005,2.573294e-005
1.482618e+000,-2.870222e-005,2.573410e-005
1.483412e+000,-2.970932e-005,2.571946e-005
1.484206e+000,-2.735943e-005,2.568890e-005
1.485000e+000,-2.635233e-005,2.564997e-005
1.485794e+000,-2.500954e-005,2.561666e-005
1.486588e+000,-2.467384e-005,2.559429e-005
1.487382e+000,-2.601663e-005,2.555848e-005
1.488176e+000,-2.769513e-005,2.550531e-005
1.488971e+000,-2.786297e-005,2.546958e-005
1.489765e+000,-2.903792e-005,2.543818e-005
1.490559e+000,-3.172351e-005,2.540636e-005
1.491353e+000,-2.870222e-005,2.538628e-005
1.492147e+000,-2.299535e-005,2.538196e-005
1.492941e+000,-2.232395e-005,2.537590e-005
1.493735e+000,-1.628138e-005,2.537775e-005
1.494529e+000,-3.021286e-006,2.535406e-005
1.495324e+000,5.203327e-006,2.530758e-005
1.496118e+000,7.217518e-006,2.527600e-005
1.496912e+000,-3.021286e-006,2.526645e-005
1.497706e+000,-7.888914e-006,2.526694e-005
1.498500e+000,-9.231709e-006,2.524937e-005
1.499294e+000,-1.158160e-005,2.519777e-005
1.500088e+000,-1.091020e-005,2.511273e-005
1.500882e+000,-5.539025e-006,2.502808e-005
1.501676e+000,-5.203327e-006,2.496795e-005
1.502471e+000,-1.174945e-005,2.494832e-005
1.503265e+000,-1.896696e-005,2.495541e-005
1.504059e+000,-2.165255e-005,2.497800e-005
1.504853e+000,-2.030976e-005,2.499831e-005
1.505647e+000,-2.030976e-005,2.499654e-005
1.506441e+000,-2.098116e-005,2.497629e-005
1.507235e+000,-2.165255e-005,2.495544e-005
1.508029e+000,-1.728847e-005,2.494651e-005
1.508824e+000,-1.661708e-005,2.494097e-005
1.509618e+000,-1.191730e-005,2.492581e-005
1.510412e+000,-3.524834e-006,2.489703e-005
1.511206e+000,6.546120e-006,2.486398e-005
1.512000e+000,1.594568e-005,2.485489e-005
1.512794e+000,2.517739e-005,2.486784e-005
1.513588e+000,4.045167e-005,2.490643e-005
1.514382e+000,3.440909e-005,2.500911e-005
1.515176e+000,1.728847e-005,2.507815e-005
1.515971e+000,2.182040e-006,2.507741e-005
1.516765e+000,-1.258869e-005,2.504508e-005
1.517559e+000,-3.172351e-005,2.500636e-005
1.518353e+000,-4.280156e-005,2.500636e-005
1.519147e+000,-4.129091e-005,2.506023e-005
1.519941e+000,-3.340200e-005,2.509477e-005
1.520735e+000,-2.500954e-005,2.509334e-005
1.521529e+000,-2.030976e-005,2.506848e-005
1.522324e+000,-1.661708e-005,2.504476e-005
1.523118e+000,-1.393149e-005,2.502464e-005
1.523912e+000,-1.158160e-005,2.499824e-005
1.524706e+000,-1.560998e-005,2.493917e-005
1.525500e+000,-1.158160e-005,2.488343e-005
1.526294e+000,-1.191730e-005,2.481317e-005
1.527088e+000,-1.930266e-005,2.472396e-005
1.527882e+000,-1.628138e-005,2.464934e-005
1.528676e+000,-1.359579e-005,2.460141e-005
1.529471e+000,-1.628138e-005,2.457813e-005
1.530265e+000,-2.333104e-005,2.458937e-005
1.531059e+000,-2.769513e-005,2.462394e-005
1.531853e+000,-2.903792e-005,2.467334e-005
1.532647e+000,-2.903792e-005,2.472769e-005
1.533441e+000,-2.870222e-005,2.478184e-005
1.534235e+000,-3.038071e-005,2.482166e-005
1.535029e+000,-3.138781e-005,2.483285e-005
1.535824e+000,-2.970932e-005,2.481251e-005
1.536618e+000,-2.668803e-005,2.476234e-005
1.537412e+000,-2.735943e-005,2.471474e-005
1.538206e+000,-2.635233e-005,2.470989e-005
1.539000e+000,-2.652018e-005,2.473537e-005
1.539794e+000,-2.568093e-005,2.477965e-005
1.540588e+000,-2.299535e-005,2.482086e-005
1.541382e+000,-2.131685e-005,2.483560e-005
1.542176e+000,-2.635233e-005,2.480813e-005
1.542971e+000,-2.383459e-005,2.475448e-005
1.543765e+000,-1.577783e-005,2.463515e-005
1.544559e+000,-7.217518e-006,2.446767e-005
1.545353e+000,3.524834e-006,2.431317e-005
1.546147e+000,5.874723e-006,2.416785e-005
1.546941e+000,1.258869e-005,2.405662e-005
1.547735e+000,2.400244e-005,2.397086e-005
1.548529e+000,3.071641e-005,2.390569e-005
1.549324e+000,2.534523e-005,2.387181e-005
1.550118e+000,2.064546e-005,2.383871e-005
1.550912e+000,1.493858e-005,2.384564e-005
1.551706e+000,-5.035477e-007,2.385917e-005
1.552500e+000,-1.174945e-005,2.384221e-005
1.553294e+000,-1.577783e-005,2.379108e-005
1.554088e+000,-1.863127e-005,2.369436e-005
1.554882e+000,-1.930266e-005,2.360939e-005
1.555676e+000,-2.198825e-005,2.355692e-005
1.556471e+000,-2.601663e-005,2.355791e-005
1.557265e+000,-2.903792e-005,2.359176e-005
1.558059e+000,-2.987716e-005,2.364851e-005
1.558853e+000,-2.970932e-005,2.368999e-005
1.559647e+000,-3.172351e-005,2.371680e-005
1.560441e+000,-3.205920e-005,2.374884e-005
1.561235e+000,-3.038071e-005,2.376999e-005
1.562029e+000,-2.433814e-005,2.375708e-005
1.562824e+000,-1.594568e-005,2.370781e-005
1.563618e+000,-5.539025e-006,2.363234e-005
1.564412e+000,6.546120e-006,2.354486e-005
1.565206e+000,2.098116e-005,2.348246e-005
1.566000e+000,2.433814e-005,2.346462e-005
1.566794e+000,2.198825e-005,2.346462e-005
1.567588e+000,1.829557e-005,2.345995e-005
1.568382e+000,1.174945e-005,2.344678e-005
1.569176e+000,-1.510643e-006,2.342720e-005
1.569971e+000,-1.359579e-005,2.339447e-005
1.570765e+000,-2.467384e-005,2.337052e-005
1.571559e+000,-3.038071e-005,2.336706e-005
1.572353e+000,-3.205920e-005,2.336981e-005
1.573147e+000,-3.709468e-005,2.335598e-005
1.573941e+000,-3.642328e-005,2.336907e-005
1.574735e+000,-3.239490e-005,2.338795e-005
1.575529e+000,-2.920577e-005,2.341680e-005
1.576324e+000,-2.836652e-005,2.345484e-005
1.577118e+000,-3.105211e-005,2.350780e-005
1.577912e+000,-3.608759e-005,2.357042e-005
1.578706e+000,-4.112306e-005,2.365118e-005
1.579500e+000,-4.347295e-005,2.375751e-005
1.580294e+000,-4.448005e-005,2.388180e-005
1.581088e+000,-4.246586e-005,2.401293e-005
1.581882e+000,-3.172351e-005,2.413220e-005
1.582676e+000,-1.309224e-005,2.419837e-005
1.583471e+000,3.860533e-006,2.420942e-005
1.584265e+000,1.510643e-005,2.420987e-005
1.585059e+000,2.131685e-005,2.422352e-005
1.585853e+000,2.400244e-005,2.425328e-005
1.586647e+000,2.098116e-005,2.429108e-005
1.587441e+000,2.114900e-005,2.431837e-005
1.588235e+000,1.191730e-005,2.434609e-005
1.589029e+000,1.174945e-006,2.434710e-005
1.589824e+000,-3.021286e-006,2.428405e-005
1.590618e+000,-3.860533e-006,2.416232e-005
1.591412e+000,-5.035477e-006,2.403257e-005
1.592206e+000,-1.023880e-005,2.391637e-005
1.593000e+000,-1.225299e-005,2.383731e-005
1.593794e+000,-1.795987e-005,2.380775e-005
1.594588e+000,-2.366674e-005,2.381982e-005
1.595382e+000,-2.702373e-005,2.385722e-005
1.596176e+000,-2.903792e-005,2.390177e-005
1.596971e+000,-2.735943e-005,2.394237e-005
1.597765e+000,-2.903792e-005,2.396736e-005
1.598559e+000,-3.457694e-005,2.400982e-005
1.599353e+000,-2.970932e-005,2.408856e-005
1.600147e+000,-2.165255e-005,2.414481e-005
1.600941e+000,-1.762417e-005,2.417010e-005
1.601735e+000,-1.158160e-005,2.418146e-005
1.602529e+000,-1.040665e-005,2.416825e-005
1.603324e+000,-1.359579e-005,2.414053e-005
1.604118e+000,-1.292439e-005,2.411471e-005
1.604912e+000,-1.258869e-005,2.408661e-005
1.605706e+000,-1.762417e-005,2.405231e-005
1.606500e+000,-2.064546e-005,2.401375e-005
1.607294e+000,-1.795987e-005,2.394902e-005
1.608088e+000,-1.930266e-005,2.383666e-005
1.608882e+000,-2.299535e-005,2.367900e-005
1.609676e+000,-1.359579e-005,2.348829e-005
1.610471e+000,-9.567407e-006,2.323082e-005
1.611265e+000,-1.225299e-005,2.305441e-005
1.612059e+000,-1.426719e-005,2.303035e-005
1.612853e+000,-1.359579e-005,2.304146e-005
1.613647e+000,-1.107805e-005,2.299989e-005
1.614441e+000,-1.560998e-005,2.289768e-005
1.615235e+000,-2.316319e-005,2.278896e-005
1.616029e+000,-3.105211e-005,2.270325e-005
1.616824e+000,-3.273060e-005,2.269879e-005
1.617618e+000,-2.668803e-005,2.276497e-005
1.618412e+000,-1.829557e-005,2.281205e-005
1.619206e+000,-1.628138e-005,2.281535e-005
1.620000e+000,-1.091020e-005,2.276795e-005
1.620794e+000,5.035477e-007,2.266909e-005
1.621588e+000,1.426719e-005,2.252330e-005
1.622382e+000,2.265965e-005,2.243306e-005
1.623176e+000,3.407340e-005,2.241702e-005
1.623971e+000,4.011597e-005,2.248625e-005
1.624765e+000,2.870222e-005,2.259976e-005
1.625559e+000,7.888914e-006,2.265558e-005
1.626353e+000,-1.326009e-005,2.265871e-005
1.627147e+000,-2.987716e-005,2.267062e-005
1.627941e+000,-3.440909e-005,2.273321e-005
1.628735e+000,-3.323415e-005,2.281386e-005
1.629529e+000,-3.407340e-005,2.288510e-005
1.630324e+000,-3.306630e-005,2.296307e-005
1.631118e+000,-2.635233e-005,2.303734e-005
1.631912e+000,-2.635233e-005,2.308444e-005
1.632706e+000,-2.517739e-005,2.313108e-005
1.633500e+000,-1.091020e-005,2.317381e-005
1.634294e+000,1.846342e-006,2.318129e-005
1.635088e+000,8.224612e-006,2.317649e-005
1.635882e+000,7.217518e-006,2.316812e-005
1.636676e+000,5.035477e-007,2.313480e-005
1.637471e+000,-1.292439e-005,2.307399e-005
1.638265e+000,-2.433814e-005,2.301226e-005
1.639059e+000,-3.642328e-005,2.298061e-005
1.639853e+000,-3.910887e-005,2.301135e-005
1.640647e+000,-3.172351e-005,2.306406e-005
1.641441e+000,-2.433814e-005,2.309149e-005
1.642235e+000,-1.225299e-005,2.308921e-005
1.643029e+000,-7.553216e-006,2.305869e-005
1.643824e+000,-7.553216e-006,2.303221e-005
1.644618e+000,-7.553216e-006,2.300763e-005
1.645412e+000,-1.292439e-005,2.298840e-005
1.646206e+000,-1.896696e-005,2.297763e-005
1.647000e+000,-1.695277e-005,2.297763e-005
1.647794e+000,-1.963836e-005,2.296989e-005
1.648588e+000,-2.517739e-005,2.297080e-005
1.649382e+000,-2.903792e-005,2.299710e-005
1.650176e+000,-3.038071e-005,2.304994e-005
1.650971e+000,-3.038071e-005,2.311268e-005
1.651765e+000,-2.467384e-005,2.317497e-005
1.652559e+000,-1.963836e-005,2.321250e-005
1.653353e+000,-1.896696e-005,2.323824e-005
1.654147e+000,-1.846342e-005,2.325862e-005
1.654941e+000,-2.064546e-005,2.325372e-005
1.655735e+000,-1.695277e-005,2.323037e-005
1.656529e+000,-1.225299e-005,2.318676e-005
1.657324e+000,-1.258869e-005,2.312341e-005
1.658118e+000,-7.888914e-006,2.308018e-005
1.658912e+000,-4.196231e-006,2.305875e-005
1.659706e+000,-8.392462e-007,2.304720e-005
1.660500e+000,4.196231e-006,2.304258e-005
1.661294e+000,1.023880e-005,2.304347e-005
1.662088e+000,1.124590e-005,2.303459e-005
1.662882e+000,3.524834e-006,2.301289e-005
1.663676e+000,-7.553216e-006,2.299615e-005
1.664471e+000,-1.560998e-005,2.299462e-005
1.665265e+000,-2.584878e-005,2.300936e-005
1.666059e+000,-3.709468e-005,2.303157e-005
1.666853e+000,-4.179446e-005,2.306566e-005
1.667647e+000,-4.112306e-005,2.311671e-005
1.668441e+000,-3.239490e-005,2.316383e-005
1.669235e+000,-2.131685e-005,2.316383e-005
1.670029e+000,-5.203327e-006,2.308056e-005
1.670824e+000,8.224612e-006,2.297207e-005
1.671618e+000,2.098116e-005,2.293101e-005
1.672412e+000,2.534523e-005,2.294316e-005
1.673206e+000,1.795987e-005,2.297490e-005
1.674000e+000,7.217518e-006,2.298036e-005
1.674794e+000,1.174945e-006,2.295147e-005
1.675588e+000,-2.517739e-006,2.292479e-005
1.676382e+000,1.510643e-006,2.291973e-005
1.677176e+000,1.426719e-005,2.290888e-005
1.677971e+000,1.326009e-005,2.287349e-005
1.678765e+000,6.210422e-006,2.282901e-005
1.679559e+000,1.846342e-006,2.273022e-005
1.680353e+000,-8.896010e-006,2.259354e-005
1.681147e+000,-2.098116e-005,2.251797e-005
1.681941e+000,-2.970932e-005,2.253111e-005
1.682735e+000,-3.021286e-005,2.259269e-005
1.683529e+000,-3.004501e-005,2.264329e-005
1.684324e+000,-3.105211e-005,2.263749e-005
1.685118e+000,-3.105211e-005,2.262202e-005
1.685912e+000,-2.769513e-005,2.260160e-005
1.686706e+000,-2.333104e-005,2.255330e-005
1.687500e+000,-2.299535e-005,2.247219e-005
1.688294e+000,-2.500954e-005,2.235395e-005
1.689088e+000,-2.333104e-005,2.221626e-005
1.689882e+000,-2.030976e-005,2.208623e-005
1.690676e+000,-2.064546e-005,2.198982e-005
1.691471e+000,-2.500954e-005,2.194778e-005
1.692265e+000,-3.038071e-005,2.196121e-005
1.693059e+000,-3.642328e-005,2.201190e-005
1.693853e+000,-3.172351e-005,2.210196e-005
1.694647e+000,-2.165255e-005,2.217061e-005
1.695441e+000,-1.628138e-005,2.220178e-005
1.696235e+000,-1.225299e-005,2.221651e-005
1.697029e+000,-7.553216e-006,2.221766e-005
1.697824e+000,-3.860533e-006,2.220114e-005
1.698618e+000,-4.196231e-006,2.217639e-005
1.699412e+000,-1.678492e-007,2.215701e-005
1.700206e+000,2.517739e-006,2.213468e-005
1.701000e+000,2.517739e-006,2.211278e-005
1.701794e+000,-3.692683e-006,2.209253e-005
1.702588e+000,-5.539025e-006,2.208084e-005
1.703382e+000,-1.426719e-005,2.207598e-005
1.704176e+000,-2.400244e-005,2.208690e-005
1.704971e+000,-2.601663e-005,2.212429e-005
1.705765e+000,-2.433814e-005,2.216591e-005
1.706559e+000,-2.064546e-005,2.219880e-005
1.707353e+000,-1.695277e-005,2.221676e-005
1.708147e+000,-1.493858e-005,2.222136e-005
1.708941e+000,-1.091020e-005,2.222136e-005
1.709735e+000,-1.107805e-005,2.221317e-005
1.710529e+000,-1.124590e-005,2.219797e-005
1.711324e+000,-1.225299e-005,2.218390e-005
1.712118e+000,-1.997406e-005,2.217322e-005
1.712912e+000,-2.333104e-005,2.217026e-005
1.713706e+000,-2.803082e-005,2.216443e-005
1.714500e+000,-2.601663e-005,2.216971e-005
1.715294e+000,-1.963836e-005,2.215776e-005
1.716088e+000,-1.091020e-005,2.212344e-005
1.716882e+000,8.392462e-007,2.206841e-005
1.717676e+000,1.057450e-005,2.201169e-005
1.718471e+000,1.023880e-005,2.198993e-005
1.719265e+000,4.196231e-006,2.198665e-005
1.720059e+000,-1.678492e-007,2.198768e-005
1.720853e+000,-8.392462e-006,2.197958e-005
1.721647e+000,-1.594568e-005,2.197096e-005
1.722441e+000,-1.829557e-005,2.196937e-005
1.723235e+000,-1.309224e-005,2.195010e-005
1.724029e+000,-1.023880e-005,2.191212e-005
1.724824e+000,-1.225299e-005,2.189074e-005
1.725618e+000,-1.527428e-005,2.188788e-005
1.726412e+000,-1.426719e-005,2.189865e-005
1.727206e+000,-1.258869e-005,2.191271e-005
1.728000e+000,-1.225299e-005,2.192332e-005
1.728794e+000,-1.091020e-005,2.192209e-005
1.729588e+000,-9.567407e-006,2.187960e-005
1.730382e+000,-1.225299e-005,2.181600e-005
1.731176e+000,-1.560998e-005,2.175951e-005
1.731971e+000,-1.829557e-005,2.171981e-005
1.732765e+000,-2.652018e-005,2.168392e-005
1.733559e+000,-2.903792e-005,2.167075e-005
1.734353e+000,-2.635233e-005,2.167770e-005
1.735147e+000,-2.870222e-005,2.167770e-005
1.735941e+000,-2.568093e-005,2.169227e-005
1.736735e+000,-2.165255e-005,2.169599e-005
1.737529e+000,-1.762417e-005,2.168072e-005
1.738324e+000,-1.695277e-005,2.164717e-005
1.739118e+000,-8.896010e-006,2.161117e-005
1.739912e+000,1.678492e-007,2.155480e-005
1.740706e+000,2.517739e-006,2.148033e-005
1.741500e+000,9.567407e-006,2.141964e-005
1.742294e+000,7.888914e-006,2.138711e-005
1.743088e+000,-4.196231e-006,2.135462e-005
1.743882e+000,-1.460288e-005,2.133616e-005
1.744676e+000,-1.762417e-005,2.135138e-005
1.745471e+000,-1.913481e-005,2.137252e-005
1.746265e+000,-1.493858e-005,2.139590e-005
1.747059e+000,-1.695277e-005,2.141183e-005
1.747853e+000,-2.299535e-005,2.142856e-005
1.748647e+000,-2.165255e-005,2.146150e-005
1.749441e+000,-2.098116e-005,2.148632e-005
1.750235e+000,-2.114900e-005,2.151011e-005
1.751029e+000,-1.762417e-005,2.154093e-005
1.751824e+000,-1.493858e-005,2.156188e-005
1.752618e+000,-1.426719e-005,2.156816e-005
1.753412e+000,-2.030976e-005,2.155663e-005
1.754206e+000,-2.500954e-005,2.155246e-005
1.755000e+000,-2.098116e-005,2.156820e-005
1.755794e+000,-1.174945e-005,2.157024e-005
1.756588e+000,-8.896010e-006,2.154792e-005
1.757382e+000,-6.210422e-006,2.151911e-005
1.758176e+000,-1.023880e-005,2.149983e-005
1.758971e+000,-1.863127e-005,2.148715e-005
1.759765e+000,-1.661708e-005,2.150234e-005
1.760559e+000,-1.510643e-005,2.152186e-005
1.761353e+000,-1.493858e-005,2.153557e-005
1.762147e+000,-1.258869e-005,2.153327e-005
1.762941e+000,-8.896010e-006,2.149808e-005
1.763735e+000,-1.510643e-006,2.138243e-005
1.764529e+000,1.158160e-005,2.129425e-005
1.765324e+000,2.534523e-005,2.128192e-005
1.766118e+000,2.803082e-005,2.132958e-005
1.766912e+000,1.829557e-005,2.137635e-005
1.767706e+000,9.903105e-006,2.132626e-005
1.768500e+000,5.035477e-007,2.119640e-005
1.769294e+000,-4.867628e-006,2.106795e-005
1.770088e+000,-8.896010e-006,2.098525e-005
1.770882e+000,-9.735256e-006,2.094375e-005
1.771676e+000,-1.023880e-005,2.091958e-005
1.772471e+000,-1.426719e-005,2.090654e-005
1.773265e+000,-1.980621e-005,2.090726e-005
1.774059e+000,-2.098116e-005,2.092691e-005
1.774853e+000,-2.635233e-005,2.094186e-005
1.775647e+000,-3.474479e-005,2.098443e-005
1.776441e+000,-3.709468e-005,2.106510e-005
1.777235e+000,-3.709468e-005,2.114081e-005
1.778029e+000,-3.709468e-005,2.122433e-005
1.778824e+000,-3.642328e-005,2.131351e-005
1.779618e+000,-2.870222e-005,2.139267e-005
1.780412e+000,-2.265965e-005,2.141346e-005
1.781206e+000,-2.249180e-005,2.139460e-005
1.782000e+000,-2.316319e-005,2.136949e-005
1.782794e+000,-2.568093e-005,2.134662e-005
1.783588e+000,-2.467384e-005,2.133436e-005
1.784382e+000,-2.635233e-005,2.131090e-005
1.785176e+000,-2.366674e-005,2.128916e-005
1.785971e+000,-2.568093e-005,2.126502e-005
1.786765e+000,-2.366674e-005,2.126108e-005
1.787559e+000,-1.896696e-005,2.124696e-005
1.788353e+000,-1.829557e-005,2.122186e-005
1.789147e+000,-1.292439e-005,2.119419e-005
1.789941e+000,-8.896010e-006,2.115715e-005
1.790735e+000,-2.853437e-006,2.112328e-005
1.791529e+000,1.174945e-006,2.108962e-005
1.792324e+000,-1.678492e-007,2.103722e-005
1.793118e+000,5.035477e-007,2.099418e-005
1.793912e+000,-1.846342e-006,2.097531e-005
1.794706e+000,-5.539025e-006,2.097161e-005
1.795500e+000,-1.158160e-005,2.097300e-005
1.796294e+000,-1.426719e-005,2.098056e-005
1.797088e+000,-1.695277e-005,2.098398e-005
1.797882e+000,-1.728847e-005,2.096206e-005
1.798676e+000,-1.896696e-005,2.091304e-005
1.799471e+000,-1.913481e-005,2.089151e-005
1.800265e+000,-1.661708e-005,2.088692e-005
1.801059e+000,-2.114900e-005,2.089096e-005
1.801853e+000,-2.836652e-005,2.092501e-005
1.802647e+000,-2.903792e-005,2.097567e-005
1.803441e+000,-2.702373e-005,2.102074e-005
1.804235e+000,-2.165255e-005,2.104974e-005
1.805029e+000,-1.225299e-005,2.105702e-005
1.805824e+000,-8.392462e-007,2.103180e-005
1.806618e+000,9.903105e-006,2.098054e-005
1.807412e+000,1.225299e-005,2.092391e-005
1.808206e+000,5.203327e-006,2.086733e-005
1.809000e+000,2.182040e-006,2.080194e-005
1.809794e+000,7.553216e-006,2.072513e-005
1.810588e+000,2.131685e-005,2.065041e-005
1.811382e+000,2.870222e-005,2.061424e-005
1.812176e+000,1.963836e-005,2.063212e-005
1.812971e+000,1.057450e-005,2.064226e-005
1.813765e+000,-1.678492e-007,2.064851e-005
1.814559e+000,-6.881819e-006,2.064521e-005
1.815353e+000,-8.224612e-006,2.061489e-005
1.816147e+000,-9.567407e-006,2.057432e-005
1.816941e+000,-1.560998e-005,2.054396e-005
1.817735e+000,-1.930266e-005,2.053690e-005
1.818529e+000,-2.366674e-005,2.055508e-005
1.819324e+000,-2.903792e-005,2.059825e-005
1.820118e+000,-2.769513e-005,2.064908e-005
1.820912e+000,-2.769513e-005,2.066128e-005
1.821706e+000,-2.702373e-005,2.064926e-005
1.822500e+000,-2.568093e-005,2.062630e-005
1.823294e+000,-2.568093e-005,2.057091e-005
1.824088e+000,-2.702373e-005,2.051920e-005
1.824882e+000,-2.635233e-005,2.049442e-005
1.825676e+000,-2.702373e-005,2.048210e-005
1.826471e+000,-2.836652e-005,2.047632e-005
1.827265e+000,-2.568093e-005,2.046390e-005
1.828059e+000,-2.500954e-005,2.041382e-005
1.828853e+000,-2.333104e-005,2.033053e-005
1.829647e+000,-2.299535e-005,2.022487e-005
1.830441e+000,-1.896696e-005,2.011041e-005
1.831235e+000,-1.896696e-005,1.999577e-005
1.832029e+000,-2.064546e-005,1.994421e-005
1.832824e+000,-1.980621e-005,1.996455e-005
1.833618e+000,-1.963836e-005,1.999462e-005
1.834412e+000,-2.400244e-005,2.000716e-005
1.835206e+000,-2.333104e-005,2.001685e-005
1.836000e+000,-2.467384e-005,2.001432e-005
1.836794e+000,-2.702373e-005,2.002773e-005
1.837588e+000,-2.500954e-005,2.005021e-005
1.838382e+000,-2.333104e-005,2.008857e-005
1.839176e+000,-1.795987e-005,2.013156e-005
1.839971e+000,-9.567407e-006,2.015634e-005
1.840765e+000,-5.539025e-006,2.016239e-005
1.841559e+000,-4.364080e-006,2.016281e-005
1.842353e+000,-5.874723e-006,2.015604e-005
1.843147e+000,-4.196231e-006,2.014690e-005
1.843941e+000,7.553216e-006,2.012278e-005
1.844735e+000,1.225299e-005,2.008294e-005
1.845529e+000,9.903105e-006,2.003688e-005
1.846324e+000,7.721065e-006,1.997758e-005
1.847118e+000,7.888914e-006,1.992259e-005
1.847912e+000,8.392462e-007,1.986007e-005
1.848706e+000,-2.182040e-006,1.976404e-005
1.849500e+000,5.203327e-006,1.969318e-005
1.850294e+000,1.326009e-005,1.965743e-005
1.851088e+000,7.553216e-006,1.964651e-005
1.851882e+000,-4.531929e-006,1.964026e-005
1.852676e+000,-1.560998e-005,1.963314e-005
1.853471e+000,-2.433814e-005,1.963792e-005
1.854265e+000,-2.450599e-005,1.967237e-005
1.855059e+000,-2.366674e-005,1.970812e-005
1.855853e+000,-2.366674e-005,1.972827e-005
1.856647e+000,-2.299535e-005,1.973907e-005
1.857441e+000,-2.702373e-005,1.975570e-005
1.858235e+000,-2.702373e-005,1.978451e-005
1.859029e+000,-2.702373e-005,1.980072e-005
1.859824e+000,-3.038071e-005,1.984454e-005
1.860618e+000,-3.323415e-005,1.991114e-005
1.861412e+000,-2.903792e-005,1.998732e-005
1.862206e+000,-2.165255e-005,2.003822e-005
1.863000e+000,-1.762417e-005,2.006077e-005
1.863794e+000,-1.644922e-005,2.007568e-005
1.864588e+000,-1.997406e-005,2.007781e-005
1.865382e+000,-3.273060e-005,2.006690e-005
1.866176e+000,-3.978027e-005,2.007539e-005
1.866971e+000,-3.978027e-005,2.011590e-005
1.867765e+000,-3.440909e-005,2.018467e-005
1.868559e+000,-2.433814e-005,2.025155e-005
1.869353e+000,-7.888914e-006,2.027727e-005
1.870147e+000,1.997406e-005,2.027281e-005
1.870941e+000,4.548714e-005,2.030410e-005
1.871735e+000,5.824369e-005,2.044988e-005
1.872529e+000,5.186542e-005,2.067283e-005
1.873324e+000,3.743038e-005,2.079027e-005
1.874118e+000,1.695277e-005,2.077432e-005
1.874912e+000,-1.846342e-006,2.073316e-005
1.875706e+000,-2.635233e-005,2.072864e-005
1.876500e+000,-4.246586e-005,2.076844e-005
1.877294e+000,-4.045167e-005,2.083815e-005
1.878088e+000,-3.239490e-005,2.087269e-005
1.878882e+000,-1.896696e-005,2.086849e-005
1.879676e+000,-6.881819e-006,2.080726e-005
1.880471e+000,-1.678492e-007,2.072705e-005
1.881265e+000,3.524834e-006,2.067363e-005
1.882059e+000,-1.846342e-006,2.062104e-005
1.882853e+000,-9.903105e-006,2.057229e-005
1.883647e+000,-1.628138e-005,2.057067e-005
1.884441e+000,-1.560998e-005,2.059092e-005
1.885235e+000,-1.292439e-005,2.060452e-005
1.886029e+000,-1.258869e-005,2.061341e-005
1.886824e+000,-1.779202e-005,2.062562e-005
1.887618e+000,-2.232395e-005,2.063717e-005
1.888412e+000,-2.769513e-005,2.062991e-005
1.889206e+000,-2.836652e-005,2.058667e-005
1.890000e+000,-3.038071e-005,2.053053e-005
1.890794e+000,-3.440909e-005,2.052406e-005
1.891588e+000,-3.440909e-005,2.056991e-005
1.892382e+000,-3.105211e-005,2.064979e-005
1.893176e+000,-2.668803e-005,2.071962e-005
1.893971e+000,-2.568093e-005,2.076992e-005
1.894765e+000,-2.114900e-005,2.081605e-005
1.895559e+000,-1.560998e-005,2.083748e-005
1.896353e+000,-1.225299e-005,2.082861e-005
1.897147e+000,-1.057450e-005,2.081811e-005
1.897941e+000,-6.378271e-006,2.079716e-005
1.898735e+000,-3.692683e-006,2.075169e-005
1.899529e+000,-8.224612e-006,2.068793e-005
1.900324e+000,-1.359579e-005,2.062199e-005
1.901118e+000,-1.661708e-005,2.056492e-005
1.901912e+000,-1.896696e-005,2.053914e-005
1.902706e+000,-1.695277e-005,2.053713e-005
1.903500e+000,-1.560998e-005,2.053152e-005
1.904294e+000,-1.661708e-005,2.052398e-005
1.905088e+000,-1.695277e-005,2.051233e-005
1.905882e+000,-1.460288e-005,2.051233e-005
1.906676e+000,-1.359579e-005,2.051723e-005
1.907471e+000,-1.628138e-005,2.051927e-005
1.908265e+000,-1.695277e-005,2.053501e-005
1.909059e+000,-1.896696e-005,2.055592e-005
1.909853e+000,-1.997406e-005,2.058371e-005
1.910647e+000,-1.863127e-005,2.061319e-005
1.911441e+000,-1.628138e-005,2.063190e-005
1.912235e+000,-1.527428e-005,2.064260e-005
1.913029e+000,-1.493858e-005,2.065963e-005
1.913824e+000,-1.426719e-005,2.067243e-005
1.914618e+000,-1.628138e-005,2.066934e-005
1.915412e+000,-1.527428e-005,2.063826e-005
1.916206e+000,-1.292439e-005,2.054991e-005
1.917000e+000,-1.493858e-005,2.042713e-005
1.917794e+000,-1.577783e-005,2.031238e-005
1.918588e+000,-2.030976e-005,2.024953e-005
1.919382e+000,-2.232395e-005,2.024623e-005
1.920176e+000,-2.635233e-005,2.028326e-005
1.920971e+000,-2.836652e-005,2.033241e-005
1.921765e+000,-2.635233e-005,2.036093e-005
1.922559e+000,-2.433814e-005,2.036501e-005
1.923353e+000,-1.560998e-005,2.038609e-005
1.924147e+000,-3.524834e-006,2.040105e-005
1.924941e+000,2.182040e-006,2.040191e-005
1.925735e+000,5.203327e-006,2.040179e-005
1.926529e+000,9.231709e-006,2.040372e-005
1.927324e+000,1.527428e-005,2.039449e-005
1.928118e+000,1.779202e-005,2.039897e-005
1.928912e+000,1.661708e-005,2.042066e-005
1.929706e+000,6.881819e-006,2.044192e-005
1.930500e+000,-2.853437e-006,2.043944e-005
1.931294e+000,-8.392462e-007,2.040575e-005
1.932088e+000,2.182040e-006,2.033681e-005
1.932882e+000,2.517739e-006,2.026559e-005
1.933676e+000,3.860533e-006,2.019503e-005
1.934471e+000,1.174945e-006,2.012004e-005
1.935265e+000,-3.524834e-006,2.004369e-005
1.936059e+000,-1.091020e-005,1.998366e-005
1.936853e+000,-1.661708e-005,1.994974e-005
1.937647e+000,-2.299535e-005,1.992956e-005
1.938441e+000,-2.987716e-005,1.992183e-005
1.939235e+000,-3.256275e-005,1.994965e-005
1.940029e+000,-3.541619e-005,2.000130e-005
1.940824e+000,-4.011597e-005,2.006711e-005
1.941618e+000,-4.061952e-005,2.014503e-005
1.942412e+000,-3.709468e-005,2.020241e-005
1.943206e+000,-3.273060e-005,2.020630e-005
1.944000e+000,-2.433814e-005,2.021142e-005
1.944794e+000,-1.443504e-005,2.022114e-005
1.945588e+000,-1.091020e-005,2.021668e-005
1.946382e+000,-9.903105e-006,2.021423e-005
1.947176e+000,2.182040e-006,2.021746e-005
1.947971e+000,1.510643e-005,2.021666e-005
1.948765e+000,2.635233e-005,2.023324e-005
1.949559e+000,2.433814e-005,2.028781e-005
1.950353e+000,1.661708e-005,2.033376e-005
1.951147e+000,1.426719e-005,2.035487e-005
1.951941e+000,1.292439e-005,2.036973e-005
1.952735e+000,3.189136e-006,2.038038e-005
1.953529e+000,-1.023880e-005,2.036527e-005
1.954324e+000,-2.131685e-005,2.032838e-005
1.955118e+000,-3.239490e-005,2.031095e-005
1.955912e+000,-3.642328e-005,2.034676e-005
1.956706e+000,-3.373770e-005,2.041710e-005
1.957500e+000,-3.558404e-005,2.048335e-005
1.958294e+000,-3.910887e-005,2.056428e-005
1.959088e+000,-4.347295e-005,2.067321e-005
1.959882e+000,-4.666209e-005,2.080888e-005
1.960676e+000,-5.119402e-005,2.096523e-005
1.961471e+000,-5.287251e-005,2.115205e-005
1.962265e+000,-5.052262e-005,2.133170e-005
1.963059e+000,-4.112306e-005,2.148109e-005
1.963853e+000,-2.500954e-005,2.154810e-005
1.964647e+000,-1.292439e-005,2.154430e-005
1.965441e+000,-8.224612e-006,2.152813e-005
1.966235e+000,-7.553216e-006,2.152433e-005
1.967029e+000,-4.531929e-006,2.152850e-005
1.967824e+000,2.349889e-006,2.152175e-005
1.968618e+000,1.443504e-005,2.151440e-005
1.969412e+000,2.652018e-005,2.152851e-005
1.970206e+000,2.769513e-005,2.158047e-005
1.971000e+000,2.198825e-005,2.163181e-005
1.971794e+000,1.661708e-005,2.164868e-005
1.972588e+000,4.531929e-006,2.164436e-005
1.973382e+000,-7.553216e-006,2.163326e-005
1.974176e+000,-1.258869e-005,2.162974e-005
1.974971e+000,-1.225299e-005,2.163036e-005
1.975765e+000,-1.107805e-005,2.162424e-005
1.976559e+000,-1.359579e-005,2.161828e-005
1.977353e+000,-1.762417e-005,2.162023e-005
1.978147e+000,-1.963836e-005,2.163204e-005
1.978941e+000,-2.366674e-005,2.165166e-005
1.979735e+000,-2.568093e-005,2.168609e-005
1.980529e+000,-2.500954e-005,2.172346e-005
1.981324e+000,-2.769513e-005,2.175143e-005
1.982118e+000,-2.299535e-005,2.178306e-005
1.982912e+000,-2.165255e-005,2.177029e-005
1.983706e+000,-2.333104e-005,2.174289e-005
1.984500e+000,-2.030976e-005,2.173190e-005
1.985294e+000,-2.316319e-005,2.170174e-005
1.986088e+000,-2.400244e-005,2.169271e-005
1.986882e+000,-2.333104e-005,2.170059e-005
1.987676e+000,-2.433814e-005,2.171773e-005
1.988471e+000,-2.769513e-005,2.174008e-005
1.989265e+000,-2.836652e-005,2.179040e-005
1.990059e+000,-2.568093e-005,2.184912e-005
1.990853e+000,-2.500954e-005,2.189667e-005
1.991647e+000,-2.668803e-005,2.193547e-005
1.992441e+000,-2.702373e-005,2.198260e-005
1.993235e+000,-2.383459e-005,2.203417e-005
1.994029e+000,-1.963836e-005,2.205980e-005
1.994824e+000,-8.224612e-006,2.206521e-005
1.995618e+000,5.203327e-006,2.204366e-005
1.996412e+000,1.326009e-005,2.202949e-005
1.997206e+000,2.165255e-005,2.202143e-005
1.998000e+000,1.930266e-005,2.201709e-005
1.998794e+000,1.057450e-005,2.201013e-005
1.999588e+000,3.189136e-006,2.198636e-005
2.000382e+000,-5.874723e-006,2.195468e-005
2.001176e+000,-1.661708e-005,2.193464e-005
2.001971e+000,-2.500954e-005,2.193849e-005
2.002765e+000,-3.373770e-005,2.196909e-005
2.003559e+000,-4.380865e-005,2.202163e-005
2.004353e+000,-4.850843e-005,2.211498e-005
2.005147e+000,-4.112306e-005,2.225229e-005
2.005941e+000,-2.534523e-005,2.236315e-005
2.006735e+000,-9.567407e-006,2.240322e-005
2.007529e+000,3.189136e-006,2.240698e-005
2.008324e+000,8.560311e-006,2.240025e-005
2.009118e+000,8.224612e-006,2.238078e-005
2.009912e+000,6.546120e-006,2.236594e-005
2.010706e+000,-8.224612e-006,2.235274e-005
2.011500e+000,-2.165255e-005,2.234166e-005
2.012294e+000,-3.440909e-005,2.236377e-005
2.013088e+000,-3.004501e-005,2.244230e-005
2.013882e+000,-3.860533e-006,2.250609e-005
2.014676e+000,1.795987e-005,2.249766e-005
2.015471e+000,3.407340e-005,2.247501e-005
2.016265e+000,3.743038e-005,2.250158e-005
2.017059e+000,3.340200e-005,2.257691e-005
2.017853e+000,2.333104e-005,2.264857e-005
2.018647e+000,2.064546e-005,2.268679e-005
2.019441e+000,1.376364e-005,2.271503e-005
2.020235e+000,6.881819e-006,2.272276e-005
2.021029e+000,-2.853437e-006,2.271944e-005
2.021824e+000,-1.258869e-005,2.271266e-005
2.022618e+000,-2.769513e-005,2.270950e-005
2.023412e+000,-3.843748e-005,2.273576e-005
2.024206e+000,-4.464790e-005,2.280829e-005
2.025000e+000,-4.917983e-005,2.289880e-005
2.025794e+000,-5.152972e-005,2.298289e-005
2.026588e+000,-5.740444e-005,2.307135e-005
2.027382e+000,-5.690089e-005,2.320344e-005
2.028176e+000,-5.387960e-005,2.333085e-005
2.028971e+000,-4.196231e-005,2.343819e-005
2.029765e+000,-2.601663e-005,2.350176e-005
2.030559e+000,-1.091020e-005,2.351283e-005
2.031353e+000,-2.182040e-006,2.348662e-005
2.032147e+000,-4.867628e-006,2.345054e-005
2.032941e+000,-5.874723e-006,2.340732e-005
2.033735e+000,-8.224612e-006,2.336822e-005
2.034529e+000,-1.628138e-005,2.332547e-005
2.035324e+000,-1.963836e-005,2.330533e-005
2.036118e+000,-1.678492e-005,2.328661e-005
2.036912e+000,-1.930266e-005,2.326756e-005
2.037706e+000,-2.114900e-005,2.326844e-005
2.038500e+000,-1.762417e-005,2.327614e-005
2.039294e+000,-1.359579e-005,2.328596e-005
2.040088e+000,-1.493858e-005,2.329319e-005
2.040882e+000,-1.762417e-005,2.330788e-005
2.041676e+000,-1.812772e-005,2.332900e-005
2.042471e+000,-1.829557e-005,2.335142e-005
2.043265e+000,-1.863127e-005,2.337422e-005
2.044059e+000,-1.225299e-005,2.339762e-005
2.044853e+000,-8.560311e-006,2.340575e-005
2.045647e+000,-9.567407e-006,2.340161e-005
2.046441e+000,-6.210422e-006,2.339398e-005
2.047235e+000,-5.539025e-006,2.337704e-005
2.048029e+000,-5.539025e-006,2.335876e-005
2.048824e+000,-6.881819e-006,2.333632e-005
2.049618e+000,-9.567407e-006,2.331456e-005
2.050412e+000,-1.292439e-005,2.330195e-005
2.051206e+000,-1.594568e-005,2.328279e-005
2.052000e+000,-1.963836e-005,2.324512e-005
2.052794e+000,-2.383459e-005,2.321375e-005
2.053588e+000,-2.568093e-005,2.320262e-005
2.054382e+000,-2.433814e-005,2.321571e-005
2.055176e+000,-1.661708e-005,2.324602e-005
2.055971e+000,-9.567407e-006,2.326488e-005
2.056765e+000,-5.539025e-006,2.326443e-005
2.057559e+000,-2.182040e-006,2.325625e-005
2.058353e+000,-5.035477e-007,2.325472e-005
2.059147e+000,7.049668e-006,2.325442e-005
2.059941e+000,1.426719e-005,2.325391e-005
2.060735e+000,1.359579e-005,2.323673e-005
2.061529e+000,8.896010e-006,2.319290e-005
2.062324e+000,3.189136e-006,2.317184e-005
2.063118e+000,-6.881819e-006,2.316486e-005
2.063912e+000,-2.165255e-005,2.316811e-005
2.064706e+000,-3.843748e-005,2.319706e-005
2.065500e+000,-4.582284e-005,2.329364e-005
2.066294e+000,-4.850843e-005,2.343052e-005
2.067088e+000,-5.555810e-005,2.357344e-005
2.067882e+000,-5.992218e-005,2.375606e-005
2.068676e+000,-6.227207e-005,2.395834e-005
2.069471e+000,-5.992218e-005,2.415919e-005
2.070265e+000,-4.750134e-005,2.434458e-005
2.071059e+000,-2.568093e-005,2.444181e-005
2.071853e+000,6.210422e-006,2.443720e-005
2.072647e+000,4.380865e-005,2.439670e-005
2.073441e+000,6.999313e-005,2.447878e-005
2.074235e+000,7.905699e-005,2.474848e-005
2.075029e+000,6.831464e-005,2.510339e-005
2.075824e+000,4.682994e-005,2.535186e-005
2.076618e+000,2.232395e-005,2.543892e-005
2.077412e+000,-2.182040e-006,2.542883e-005
2.078206e+000,-2.467384e-005,2.538993e-005
2.079000e+000,-3.776608e-005,2.539397e-005
2.079794e+000,-3.508049e-005,2.545019e-005
2.080588e+000,-3.038071e-005,2.550462e-005
2.081382e+000,-2.366674e-005,2.553976e-005
2.082176e+000,-1.393149e-005,2.554811e-005
2.082971e+000,-5.203327e-006,2.553575e-005
2.083765e+000,-4.364080e-006,2.551338e-005
2.084559e+000,-1.359579e-005,2.547859e-005
2.085353e+000,-2.299535e-005,2.545611e-005
2.086147e+000,-3.373770e-005,2.545111e-005
2.086941e+000,-4.246586e-005,2.547662e-005
2.087735e+000,-4.817273e-005,2.555013e-005
2.088529e+000,-4.397650e-005,2.566059e-005
2.089324e+000,-3.239490e-005,2.576039e-005
2.090118e+000,-3.038071e-005,2.581954e-005
2.090912e+000,-3.172351e-005,2.587451e-005
2.091706e+000,-3.256275e-005,2.593520e-005
2.092500e+000,-3.205920e-005,2.599811e-005
2.093294e+000,-2.601663e-005,2.605991e-005
2.094088e+000,-1.493858e-005,2.609775e-005
2.094882e+000,-4.531929e-006,2.610221e-005
2.095676e+000,-8.392462e-007,2.609748e-005
2.096471e+000,-1.174945e-006,2.609388e-005
2.097265e+000,-5.706874e-006,2.609017e-005
2.098059e+000,-1.292439e-005,2.609212e-005
2.098853e+000,-2.333104e-005,2.610202e-005
2.099647e+000,-2.333104e-005,2.613355e-005
2.100441e+000,-1.359579e-005,2.615600e-005
2.101235e+000,8.392462e-007,2.616377e-005
2.102029e+000,1.309224e-005,2.616257e-005
2.102824e+000,1.141375e-005,2.615817e-005
2.103618e+000,3.189136e-006,2.613002e-005
2.104412e+000,-4.364080e-006,2.609402e-005
2.105206e+000,-3.524834e-006,2.606098e-005
2.106000e+000,-3.189136e-006,2.602750e-005
2.106794e+000,-1.023880e-005,2.599575e-005
2.107588e+000,-1.846342e-005,2.595741e-005
2.108382e+000,-1.930266e-005,2.593351e-005
2.109176e+000,-1.863127e-005,2.591154e-005
2.109971e+000,-1.225299e-005,2.587613e-005
2.110765e+000,-1.510643e-006,2.581733e-005
2.111559e+000,3.189136e-006,2.576541e-005
2.112353e+000,3.524834e-006,2.573705e-005
2.113147e+000,3.860533e-006,2.571860e-005
2.113941e+000,-2.182040e-006,2.570276e-005
2.114735e+000,-8.896010e-006,2.567833e-005
2.115529e+000,-1.628138e-005,2.561673e-005
2.116324e+000,-2.232395e-005,2.553471e-005
2.117118e+000,-2.635233e-005,2.546701e-005
2.117912e+000,-2.970932e-005,2.543639e-005
2.118706e+000,-2.853437e-005,2.545455e-005
2.119500e+000,-1.829557e-005,2.550155e-005
2.120294e+000,-1.762417e-005,2.549754e-005
2.121088e+000,-2.064546e-005,2.538748e-005
2.121882e+000,-2.131685e-005,2.520076e-005
2.122676e+000,-2.299535e-005,2.505910e-005
2.123471e+000,-2.299535e-005,2.500361e-005
2.124265e+000,-2.433814e-005,2.501898e-005
2.125059e+000,-2.433814e-005,2.505643e-005
2.125853e+000,-2.433814e-005,2.504995e-005
2.126647e+000,-2.165255e-005,2.497285e-005
2.127441e+000,-2.500954e-005,2.489829e-005
2.128235e+000,-3.205920e-005,2.487116e-005
2.129029e+000,-3.440909e-005,2.491390e-005
2.129824e+000,-3.642328e-005,2.498644e-005
2.130618e+000,-4.246586e-005,2.507084e-005
2.131412e+000,-4.582284e-005,2.518433e-005
2.132206e+000,-4.750134e-005,2.531653e-005
2.133000e+000,-4.716563e-005,2.545192e-005
2.133794e+000,-3.843748e-005,2.557422e-005
2.134588e+000,-2.970932e-005,2.565093e-005
2.135382e+000,-3.256275e-005,2.569531e-005
2.136176e+000,-3.038071e-005,2.575114e-005
2.136971e+000,-1.023880e-005,2.578861e-005
2.137765e+000,2.047761e-005,2.576430e-005
2.138559e+000,4.750134e-005,2.574280e-005
2.139353e+000,5.790799e-005,2.583245e-005
2.140147e+000,5.941863e-005,2.598183e-005
2.140941e+000,6.294347e-005,2.612525e-005
2.141735e+000,5.757229e-005,2.629402e-005
2.142529e+000,5.287251e-005,2.643597e-005
2.143324e+000,4.045167e-005,2.656116e-005
2.144118e+000,2.668803e-005,2.661965e-005
2.144912e+000,2.467384e-005,2.663550e-005
2.145706e+000,1.795987e-005,2.665732e-005
2.146500e+000,7.888914e-006,2.666762e-005
2.147294e+000,-8.224612e-006,2.666465e-005
2.148088e+000,-2.030976e-005,2.666626e-005
2.148882e+000,-3.105211e-005,2.669007e-005
2.149676e+000,-4.045167e-005,2.674351e-005
2.150471e+000,-4.632639e-005,2.682980e-005
2.151265e+000,-4.716563e-005,2.694055e-005
2.152059e+000,-4.985122e-005,2.705055e-005
2.152853e+000,-4.850843e-005,2.717962e-005
2.153647e+000,-4.380865e-005,2.730292e-005
2.154441e+000,-4.313725e-005,2.739858e-005
2.155235e+000,-3.843748e-005,2.748987e-005
2.156029e+000,-3.407340e-005,2.756300e-005
2.156824e+000,-3.239490e-005,2.761934e-005
2.157618e+000,-3.239490e-005,2.766452e-005
2.158412e+000,-3.642328e-005,2.770835e-005
2.159206e+000,-3.810178e-005,2.776386e-005
2.160000e+000,-3.575189e-005,2.782418e-005
2.160794e+000,-3.575189e-005,2.787741e-005
2.161588e+000,-3.843748e-005,2.793522e-005
2.162382e+000,-4.112306e-005,2.800605e-005
2.163176e+000,-4.380865e-005,2.808939e-005
2.163971e+000,-4.666209e-005,2.818648e-005
2.164765e+000,-4.850843e-005,2.829430e-005
2.165559e+000,-4.515145e-005,2.841335e-005
2.166353e+000,-4.179446e-005,2.851804e-005
2.167147e+000,-4.380865e-005,2.860299e-005
2.167941e+000,-4.246586e-005,2.869583e-005
2.168735e+000,-2.030976e-005,2.877290e-005
2.169529e+000,5.874723e-006,2.876815e-005
2.170324e+000,2.735943e-005,2.873160e-005
2.171118e+000,4.817273e-005,2.872849e-005
2.171912e+000,6.562905e-005,2.881848e-005
2.172706e+000,7.905699e-005,2.902302e-005
2.173500e+000,7.553216e-005,2.935071e-005
2.174294e+000,6.361486e-005,2.965795e-005
2.175088e+000,4.313725e-005,2.987418e-005
