X [s].2,L DELTOID ANTERIOR: EMG 3 [V],X [s].3,L BICEPS BRACHII: EMG 4 [V],X [s].4,L DELTOID POSTERIOR: EMG 5 [V],X [s].7,L DELTOID MEDIUS: EMG 8 [V]
0.0,-2.85344e-06,0.0,-2.76951e-05,0.0,-1.30922e-05,0.0,-1.42672e-05
0.000794117179931,-2.182040693340636e-06,0.000794117179931,-2.4673803120032865e-05,0.000794117179931,-1.225300086662416e-05,0.000794117179931,-1.42672e-05
0.0015882343598621,-2.8534352314775835e-06,0.0015882343598621,-2.299531192130604e-05,0.0015882343598621,-1.5274278541649127e-05,0.0015882343598621,-1.4938595231477583e-05
0.0023823515397932,-5.539026419940064e-06,0.0023823515397932,-1.896699349080012e-05,0.0023823515397932,-1.8631300976283032e-05,0.0023823515397932,-1.6281400650919988e-05
0.0031764687197242,-3.6926829766748992e-06,0.0031764687197242,-1.561000541213618e-05,0.0031764687197242,-1.913479918826018e-05,0.0031764687197242,-1.661709945878638e-05
0.0039705858996553,-1.5106512667053267e-06,0.0039705858996553,-1.4938603466694449e-05,0.0039705858996553,-1.9638397399720997e-05,0.0039705858996553,-1.7624194799958326e-05
0.0047647030795864,-2.1820341490383377e-06,0.0047647030795864,-1.2253023403846648e-05,0.0047647030795864,-1.9974097074519168e-05,0.0047647030795864,-1.795989707451917e-05
0.0055588202595174,-4.196229835440445e-06,0.0055588202595174,-1.0574500219412742e-05,0.0055588202595174,-1.896699956117452e-05,0.0055588202595174,-1.795989978058726e-05
0.0063529374394485,-3.6926816236408543e-06,0.0063529374394485,-1.1245897835145528e-05,0.0063529374394485,-1.7624204329708944e-05,0.0063529374394485,-1.728850216485447e-05
0.0071470546193796,-6.881798391739748e-06,0.0071470546193796,-9.231723647297304e-06,0.0071470546193796,-1.76242e-05,0.0071470546193796,-1.49386159219259e-05
0.0079411717993107,-7.553213066611101e-06,0.0079411717993107,-8.224620400083348e-06,0.0079411717993107,-1.8127694800474663e-05,0.0079411717993107,-1.460290346669445e-05
0.0087352889792417,-7.55322e-06,0.0087352889792417,-7.721070647256167e-06,0.0087352889792417,-1.6952801510230117e-05,0.0087352889792417,-1.5609998705461957e-05
0.0095294061591728,-6.042577306383844e-06,0.0095294061591728,-7.2175224354612815e-06,0.0095294061591728,-1.5274308118204273e-05,0.0095294061591728,-1.4602904870922564e-05
0.0103235233391039,-6.881800267127098e-06,0.0103235233391039,-7.217593997979474e-06,0.0103235233391039,-1.4938580267127098e-05,0.0103235233391039,-1.5610019732872903e-05
0.0111176405190349,-6.21042e-06,0.0111176405190349,-9.73535419782808e-06,0.0111176405190349,-1.4267165746058812e-05,0.0111176405190349,-1.62814e-05
0.011911757698966,-6.21042e-06,0.011911757698966,-1.1581501659417011e-05,0.011911757698966,-1.3595835760405677e-05,0.011911757698966,-1.62814e-05
0.0127058748788971,-6.881798760472904e-06,0.0127058748788971,-2.0645213266384207e-05,0.0127058748788971,-1.1581663718581289e-05,0.0127058748788971,-1.158174867668967e-05
0.0134999920588282,-8.224596571809493e-06,0.0134999920588282,-2.83664227883296e-05,0.0134999920588282,-1.2252993285854745e-05,0.0134999920588282,-1.5609959715128476e-05
0.0142941092387592,-4.196210472024875e-06,0.0142941092387592,-3.3737785923602455e-05,0.0142941092387592,-1.1245903905618296e-05,0.0142941092387592,-1.7624223433709762e-05
0.0150882264186903,-2.5177064992910566e-06,0.0150882264186903,-4.112231832011778e-05,0.0150882264186903,-1.158158883309702e-05,0.0150882264186903,-1.9638478168320868e-05
0.0158823435986214,-1.5107115208113528e-06,0.0158823435986214,-1.7625868811829905e-05,0.0158823435986214,-1.1245923840270453e-05,0.0158823435986214,-2.198813311810685e-05
0.0166764607785524,1.677660976347799e-07,0.0166764607785524,1.460130826909549e-05,0.0166764607785524,-1.3931367355346366e-05,0.0166764607785524,-2.4337983940867176e-05
0.0174705779584835,8.39227364301704e-07,0.0174705779584835,4.3304303324501554e-05,0.0174705779584835,-1.4267190682109216e-05,0.0174705779584835,-2.366671863578157e-05
0.0182646951384146,-2.1820215032869563e-06,0.0182646951384146,2.5345309952886483e-05,0.0182646951384146,-1.3595804110399722e-05,0.0182646951384146,-2.064551849618654e-05
0.0190588123183456,-7.553199170035766e-06,0.0190588123183456,-5.3880912287746735e-05,0.0190588123183456,-1.2924452074910584e-05,0.0190588123183456,-1.3595779170035766e-05
0.0198529294982767,-6.210444937223648e-06,0.0198529294982767,-0.0001384763490988,0.0198529294982767,-1.6281449874447294e-05,0.0198529294982767,-1.2253e-05
0.0206470466782078,-6.881774922876781e-06,0.0206470466782078,-0.0001478743689605,0.0206470466782078,-1.7624109845753562e-05,0.0206470466782078,-1.2253e-05
0.0214411638581389,-1.15813860989851e-05,0.0214411638581389,-4.666670650116199e-05,0.0214411638581389,-1.76242e-05,0.0214411638581389,-8.224793344052151e-06
0.0222352810380699,-1.2924367935927924e-05,0.0222352810380699,9.113880944012438e-05,0.0222352810380699,-1.9638351903891888e-05,0.0222352810380699,-7.21754404781527e-06
0.023029398218001,-8.896019039902726e-06,0.023029398218001,0.0001737238146822,0.023029398218001,-1.863130225998129e-05,0.023029398218001,-7.553219246672902e-06
0.0238235153979321,-7.553193962544709e-06,0.0238235153979321,0.0001837942807123,0.0238235153979321,-1.4267226037455293e-05,0.0238235153979321,-9.56741e-06
0.0246176325778631,-6.2103993445190025e-06,0.0246176325778631,0.0001466973905467,0.0246176325778631,-1.560997245935867e-05,0.0246176325778631,-9.567368689038004e-06
0.0254117497577942,-5.706901855279149e-06,0.0254117497577942,8.308942434880538e-05,0.0254117497577942,-1.4938642473705532e-05,0.0254117497577942,-8.560373710558299e-06
0.0262058669377253,-8.895877220472679e-06,0.0262058669377253,1.7291239447399985e-05,0.0262058669377253,-1.3595855907344703e-05,0.0262058669377253,-7.385418918510266e-06
0.0269999841176564,-8.560316714145255e-06,0.0269999841176564,-3.239390631050244e-05,0.0269999841176564,-1.5609959715128476e-05,0.0269999841176564,-7.888899928982123e-06
0.0277941012975874,-9.567411371429529e-06,0.0277941012975874,-4.51513917719784e-05,0.0277941012975874,-1.493859451454333e-05,0.0277941012975874,-7.553218902908666e-06
0.0285882184775185,-1.040661799164499e-05,0.0285882184775185,-4.011580474367371e-05,0.0285882184775185,-1.1581615620506104e-05,0.0285882184775185,-6.881882481791758e-06
0.0293823356574496,-6.882105570094451e-06,0.0293823356574496,-3.172417992300949e-05,0.0293823356574496,-1.225294560615924e-05,0.0293823356574496,-9.56719242544712e-06
0.0301764528373806,-8.560210312322256e-06,0.0301764528373806,-2.702397912716064e-05,0.0301764528373806,-1.426708037407401e-05,0.0301764528373806,-8.39252978179016e-06
0.0309705700173117,-1.1245798600670277e-05,0.0309705700173117,-2.6016638024890237e-05,0.0309705700173117,-1.2924450699853644e-05,0.0309705700173117,-7.553251687030961e-06
0.0317646871972428,-1.158159458772751e-05,0.0317646871972428,-3.978007809682797e-05,0.0317646871972428,-1.0910232473634932e-05,0.0317646871972428,-5.874747061362444e-06
0.0325588043771738,-9.567407224372351e-06,0.0325588043771738,-5.723664811032801e-05,0.0325588043771738,-1.023878519676279e-05,0.0325588043771738,3.356841219279109e-07
0.0333529215571049,-9.063828108133362e-06,0.0333529215571049,-6.59647410051857e-05,0.0333529215571049,-7.553128880652467e-06,0.0333529215571049,-2.182117451404688e-06
0.034147038737036,-7.889000633240383e-06,0.034147038737036,-6.747528346769119e-05,0.034147038737036,-4.196488951343998e-06,0.034147038737036,-5.035259891473309e-06
0.0349411559169671,-3.189400899276525e-06,0.0349411559169671,-6.327943294449391e-05,0.0349411559169671,-4.5319113642184345e-06,0.0349411559169671,-5.874673411101218e-06
0.0357352730968981,-1.5106968654532297e-06,0.0357352730968981,-5.740459903078024e-05,0.0357352730968981,-4.53193e-06,0.0357352730968981,-1.4266915673411429e-05
0.0365293902768292,5.035233377485933e-07,0.0365293902768292,-2.83668555477394e-05,0.0365293902768292,-6.881791227324382e-06,0.0365293902768292,-1.779195684141512e-05
0.0373235074567603,1.846321086356128e-06,0.0373235074567603,-1.225356740959787e-05,0.0373235074567603,-9.903123641714446e-06,0.0373235074567603,-1.829563152291194e-05
0.0381176246366913,-1.678802407330232e-07,0.0381176246366913,-7.268186574039358e-05,0.0381176246366913,-1.242091975876451e-05,0.0381176246366913,-2.1652631237910133e-05
0.0389117418166224,-1.174866220151251e-06,0.0389117418166224,-0.0001747235236118,0.0389117418166224,-1.628111717105596e-05,0.0389117418166224,-2.2659526226817944e-05
0.0397058589965535,-3.860391329245927e-06,0.0397058589965535,-0.0002507630738722,0.0397058589965535,-2.030959199309436e-05,0.0397058589965535,-1.8631508001742124e-05
0.0404999761764846,-8.895858932331766e-06,0.0404999761764846,-0.0002385143675979,0.0404999761764846,-2.4337979148385467e-05,0.0404999761764846,-1.2924571210704012e-05
0.0412940933564156,-5.539058085102279e-06,0.0412940933564156,-0.0001690245813659,0.0412940933564156,-2.366670561705392e-05,0.0412940933564156,-1.1078115446479971e-05
0.0420882105363467,-2.517713278487393e-06,0.0420882105363467,-9.95333374092192e-05,0.0420882105363467,-1.8967048988307693e-05,0.0420882105363467,-1.6617157896840602e-05
0.0428823277162778,-5.037313206937323e-07,0.0428823277162778,-4.372741898046081e-06,0.0428823277162778,-2.265926391982806e-05,0.0428823277162778,-2.0980802803586e-05
0.0436764448962088,-2.8532769374664106e-06,0.0436764448962088,0.0001052333943389,0.0436764448962088,-2.333095341054608e-05,0.0436764448962088,-1.896713976836176e-05
0.0444705620761399,-4.196165872333421e-06,0.0444705620761399,0.0002099739980238,0.0444705620761399,-2.098131221947656e-05,0.0444705620761399,-1.8295632064072075e-05
0.045264679256071,-4.867612461309766e-06,0.045264679256071,0.0002881949567451,0.045264679256071,-2.1652582461309767e-05,0.045264679256071,-1.8966982461309766e-05
0.046058796436002,-6.378263220101006e-06,0.046058796436002,0.0003167318719321,0.046058796436002,-2.16526e-05,0.046058796436002,-1.8631301506654192e-05
0.0468529136159331,-5.203289712987698e-06,0.0468529136159331,0.0002861817367115,0.0468529136159331,-2.165261726422147e-05,0.0468529136159331,-2.2659628776559812e-05
0.0476470307958642,-2.853644762158885e-06,0.0476470307958642,0.0002125034207705,0.0476470307958642,-2.2659512253129296e-05,0.0476470307958642,-2.4337953740692675e-05
0.0484411479757953,-4.196142029238356e-06,0.0484411479757953,0.0001280745311667,0.0484411479757953,-2.098130995771963e-05,0.0484411479757953,-2.568081202858322e-05
0.0492352651557263,-4.531915269836725e-06,0.0492352651557263,6.294635763851157e-05,0.0492352651557263,-1.7624347301632744e-05,0.0492352651557263,-2.6016585269836728e-05
0.0500293823356574,-6.0425363965968495e-06,0.0500293823356574,2.198921102717836e-05,0.0500293823356574,-1.4267274674723546e-05,0.0500293823356574,-2.1317004542388515e-05
0.0508234995155885,-3.6926814334639218e-06,0.0508234995155885,-2.165257337847489e-05,0.0508234995155885,-1.661709856652998e-05,0.0508234995155885,-2.0981200204781435e-05
0.0516176166955195,-4.19623705702081e-06,0.0516176166955195,-5.958717746979336e-05,0.0516176166955195,-1.6281343543833523e-05,0.0516176166955195,-2.1316712987897452e-05
0.0524117338754506,-4.531902049847376e-06,0.0524117338754506,-9.18108168019999e-05,0.0524117338754506,-1.3596023601220995e-05,0.0524117338754506,-1.2421540683207518e-05
0.0532058510553817,-6.881675163746352e-06,0.0532058510553817,-0.0001257169102232,0.0532058510553817,-9.567658291160793e-06,0.0532058510553817,-7.217840705897672e-06
0.0539999682353128,-6.210446856581018e-06,0.0539999682353128,-0.0001592876571709,0.0539999682353128,-6.881927425924061e-06,0.0539999682353128,-2.1822414235576146e-06
0.0547940854152438,-5.539042331015508e-06,0.0547940854152438,-0.000171373778042,0.0547940854152438,-4.867666993413852e-06,0.0547940854152438,2.5176536819731253e-06
0.0555882025951749,-3.692688775592893e-06,0.0555882025951749,-0.0001626459232132,0.0555882025951749,1.678347396770712e-07,0.0555882025951749,3.8605190305268565e-06
0.056382319775106,-6.377998719248254e-06,0.056382319775106,-0.0001391493737154,0.056382319775106,-4.195789169258226e-06,0.056382319775106,5.038871003841089e-07
0.057176436955037,-7.888790067695782e-06,0.057176436955037,-0.000114306972249,0.057176436955037,-4.531903348200414e-06,0.057176436955037,-2.517500134756427e-06
0.0579705541349681,-5.539165722605497e-06,0.0579705541349681,-6.46248695534278e-05,0.0579705541349681,-6.210323055034258e-06,0.0579705541349681,-3.5247718332515835e-06
0.0587646713148992,-3.524902758506476e-06,0.0587646713148992,-3.608863074189614e-05,0.0587646713148992,-1.0574342357291758e-05,0.0587646713148992,-8.727972041247393e-06
0.0595587884948302,-2.182059454762409e-06,0.0595587884948302,-2.7695221593170576e-05,0.0595587884948302,-1.2252975681365884e-05,0.0595587884948302,-1.1581558658466884e-05
0.0603529056747613,-3.52483e-06,0.0603529056747613,3.860853817731503e-06,0.0603529056747613,-1.091021918929629e-05,0.0603529056747613,-1.2924428783944435e-05
0.0611470228546924,-3.52483e-06,0.0611470228546924,4.917539787330294e-05,0.0611470228546924,-1.359553913190884e-05,0.0611470228546924,-1.695240869786326e-05
0.0619411400346235,-1.5107920988058025e-06,0.0619411400346235,5.740377893056852e-05,0.0619411400346235,-1.79595704509513e-05,0.0619411400346235,-1.896684790043906e-05
0.0627352572145545,-1.1749580872359002e-06,0.0627352572145545,-7.549720137633416e-06,0.0627352572145545,-1.8295581912764103e-05,0.0627352572145545,-1.577797183143501e-05
0.0635293743944856,-1.0071054119500418e-06,0.0635293743944856,-9.886025573730896e-05,0.0635293743944856,-1.5777881185699565e-05,0.0635293743944856,-1.4267248708840165e-05
0.0643234915744167,-2.182027533616891e-06,0.0643234915744167,-0.0001371325939486,0.0643234915744167,-1.393151958966682e-05,0.0643234915744167,-1.7288467943313456e-05
0.0651176087543477,-4.196254052300489e-06,0.0651176087543477,-9.751948601280188e-05,0.0651176087543477,-1.3092205551107462e-05,0.0651176087543477,-1.6281411101112637e-05
0.0659117259342788,-6.378066506715959e-06,0.0659117259342788,-1.4610632742928405e-05,0.0659117259342788,-1.3595753035133249e-05,0.0659117259342788,-1.7288406079592327e-05
0.0667058431142099,-4.196386311634999e-06,0.0667058431142099,4.514711946786897e-05,0.0667058431142099,-1.661688356751351e-05,0.0667058431142099,-1.6449260123716916e-05
0.067499960294141,-6.378160895639617e-06,0.067499960294141,5.606105447819809e-05,0.067499960294141,-1.829551607318432e-05,0.067499960294141,-1.5274358746270927e-05
0.068294077474072,-7.217496193319463e-06,0.068294077474072,4.2801976141297485e-05,0.068294077474072,-1.9638361909311145e-05,0.068294077474072,-1.4938609522672216e-05
0.0690881946540031,-9.56739418019824e-06,0.0690881946540031,3.273066779943893e-05,0.0690881946540031,-1.561002711977557e-05,0.0690881946540031,-1.49386e-05
0.0698823118339342,-7.721274966675767e-06,0.0698823118339342,2.4674694404883897e-05,0.0698823118339342,-1.258903540183146e-05,0.0698823118339342,-1.4267274533740324e-05
0.0706764290138652,-5.874885048797181e-06,0.0706764290138652,9.904420381438248e-06,0.0706764290138652,-1.3595709973383357e-05,0.0706764290138652,-1.2588850044361073e-05
0.0714705461937963,-6.210397253818709e-06,0.0714705461937963,-4.866629172766186e-06,0.0714705461937963,-1.158173647708775e-05,0.0714705461937963,-1.3931409015274831e-05
0.0722646633737274,-1.0070821938477e-05,0.0722646633737274,-1.0238552265537693e-05,0.0722646633737274,-1.4434868392637964e-05,0.0722646633737274,-1.0910339351413371e-05
0.0730587805536585,-8.728192884177324e-06,0.0730587805536585,-1.5609868467208866e-05,0.0730587805536585,-1.4267204109175297e-05,0.0730587805536585,-1.242076300762692e-05
0.0738528977335895,-7.553223353351311e-06,0.0738528977335895,-1.1581611497302348e-05,0.0738528977335895,-1.2253005748651171e-05,0.0738528977335895,-1.3092198083782942e-05
0.0746470149135206,-8.224538070748704e-06,0.0746470149135206,-8.896297720219227e-06,0.0746470149135206,-1.2253e-05,0.0746470149135206,-1.292441797722392e-05
0.0754411320934517,-6.881934827142669e-06,0.0754411320934517,-8.89601e-06,0.0754411320934517,-1.4602699051003835e-05,0.0754411320934517,-1.4267085172002191e-05
0.0762352492733827,-2.853697330424759e-06,0.0762352492733827,-7.888974332925587e-06,0.0762352492733827,-1.4267221444308527e-05,0.0762352492733827,-1.393152144430853e-05
0.0770293664533138,-4.531859092334419e-06,0.0770293664533138,-6.378333816856778e-06,0.0770293664533138,-1.3595828363235212e-05,0.0770293664533138,-1.4434978729685836e-05
0.0778234836332449,-5.539009243219933e-06,0.0778234836332449,-7.553195783756588e-06,0.0778234836332449,-1.6952730810733113e-05,0.0778234836332449,-1.7959827350239244e-05
0.078617600813176,-4.867627250242596e-06,0.078617600813176,-5.539030171850239e-06,0.078617600813176,-1.5610002062325735e-05,0.078617600813176,-1.846339914074881e-05
0.079411717993107,-2.182317306587281e-06,0.079411717993107,-5.706852669306332e-06,0.079411717993107,-1.7623992019285108e-05,0.079411717993107,-1.7624286653468343e-05
0.0802058351730381,-2.517712594873317e-06,0.0802058351730381,-7.553069271803243e-06,0.0802058351730381,-1.76242e-05,0.0802058351730381,-1.76242e-05
0.0809999523529692,-3.5247695732927144e-06,0.0809999523529692,-5.874820712178831e-06,0.0809999523529692,-1.5274440997050363e-05,0.0809999523529692,-1.9806069077167587e-05
0.0817940695329002,-3.189152879361169e-06,0.0817940695329002,-6.881781360765488e-06,0.0817940695329002,-1.6281361360765487e-05,0.0817940695329002,-1.8967032197443757e-05
0.0825881867128313,-5.706827872430244e-06,0.0825881867128313,-8.224587531951643e-06,0.0825881867128313,-1.594570561705392e-05,0.0825881867128313,-1.863130561705392e-05
0.0833823038927624,-6.378188752959816e-06,0.0833823038927624,-8.56026937647991e-06,0.0833823038927624,-1.930229376479908e-05,0.0833823038927624,-2.0980915635359355e-05
0.0841764210726934,-5.539113413868187e-06,0.0841764210726934,-2.635053161585644e-05,0.0841764210726934,-1.6953033561613905e-05,0.0841764210726934,-1.9638533463779374e-05
0.0849705382526245,-3.524986619523487e-06,0.0849705382526245,-5.11920683669861e-05,0.0849705382526245,-1.69528e-05,0.0849705382526245,-1.829570441301566e-05
0.0857646554325556,-7.552993913805262e-06,0.0857646554325556,-5.790762318874005e-05,0.0857646554325556,-1.6617118840562998e-05,0.0857646554325556,-1.896696231887401e-05
0.0865587726124866,-7.55322e-06,0.0865587726124866,-3.910954835738764e-05,0.0865587726124866,-1.5274346311488323e-05,0.0865587726124866,-1.8967e-05
0.0873528897924177,-6.210437260724631e-06,0.0873528897924177,1.5101178651366203e-06,0.0873528897924177,-1.52743e-05,0.0873528897924177,-1.829560863036232e-05
0.0881470069723488,-3.692974912413052e-06,0.0881470069723488,3.876883529534975e-05,0.0881470069723488,-1.7288264069132488e-05,0.0881470069723488,-1.4603332539923772e-05
0.0889411241522799,-4.196181903891888e-06,0.0889411241522799,5.471737696135216e-05,0.0889411241522799,-1.8966839679639622e-05,0.0889411241522799,-1.4938567935927924e-05
0.0897352413322109,-6.881621589689535e-06,0.0897352413322109,4.649480763753234e-05,0.0897352413322109,-1.628159841104926e-05,0.0897352413322109,-1.6952651191713057e-05
0.090529358512142,-7.55318492261953e-06,0.090529358512142,2.80317646227384e-05,0.090529358512142,-1.561003507738047e-05,0.090529358512142,-1.4938705232141407e-05
0.0913234756920731,-4.867712207688388e-06,0.0913234756920731,1.5274690484912783e-05,0.0913234756920731,-1.4602930827997936e-05,0.0913234756920731,-1.5609979448001378e-05
0.0921175928720041,-3.692690546579361e-06,0.0921175928720041,5.203420398982383e-06,0.0921175928720041,-1.4267203013308388e-05,0.0921175928720041,-1.644919246717784e-05
0.0929117100519352,-3.189197029021056e-06,0.0929117100519352,2.518044159686732e-06,0.0929117100519352,-1.5609847919590355e-05,0.0929117100519352,-1.6952742964183573e-05
0.0937058272318663,-2.853470762199312e-06,0.0937058272318663,5.037325724627832e-07,0.0937058272318663,-1.359598457319587e-05,0.0937058272318663,-1.7959807713402064e-05
0.0944999444117974,-4.196136002666459e-06,0.0944999444117974,-1.594454852772902e-05,0.0944999444117974,-1.35958e-05,0.0944999444117974,-1.762422349950839e-05
0.0952940615917284,-3.0213468283774813e-06,0.0952940615917284,-2.6351796663495076e-05,0.0952940615917284,-1.2253064947269887e-05,0.0952940615917284,-1.5610097420904834e-05
0.0960881787716595,-6.881716798079338e-06,0.0960881787716595,-2.7023682051746904e-05,0.0960881787716595,-1.4938528206987608e-05,0.0960881787716595,-1.62813820517469e-05
0.0968822959515906,-5.707023930595078e-06,0.0968822959515906,-1.1783264547502675e-06,0.0968822959515906,-1.6952536118979868e-05,0.0968822959515906,-1.527443194051007e-05
0.0976764131315216,-8.224334578462928e-06,0.0976764131315216,5.873948821008907e-06,0.0976764131315216,-1.3931830507157196e-05,0.0976764131315216,-1.52743e-05
0.0984705303114527,-8.895951079346902e-06,0.0984705303114527,-6.0084211074793226e-05,0.0984705303114527,-1.5274182158693806e-05,0.0984705303114527,-1.2588935682612392e-05
0.0992646474913838,-4.364379666758485e-06,0.0992646474913838,-0.0001592824406218,0.0992646474913838,-1.5945655604728746e-05,0.0992646474913838,-1.359573340709312e-05
0.1000587646713148,-3.189488101580361e-06,0.1000587646713148,-0.0002015744682957,0.1000587646713148,-1.561009945844088e-05,0.1000587646713148,-1.0910995667527036e-05
0.1008528818512459,-4.363905166628387e-06,0.1008528818512459,-0.0001535891432379,0.1008528818512459,-1.695260018873185e-05,0.1008528818512459,-1.3595400377463696e-05
0.101646999031177,-4.196230204807223e-06,0.101646999031177,-3.440924541239608e-05,0.101646999031177,-1.7288499590385552e-05,0.101646999031177,-1.661709631346999e-05
0.1024411162111081,-5.538440398405857e-06,0.1024411162111081,9.048175502806068e-05,0.1024411162111081,-1.82956e-05,0.1024411162111081,-1.4938649133588146e-05
0.1032352333910391,-1.510837353581501e-06,0.1032352333910391,0.0001660019144671,0.1032352333910391,-1.82954026464185e-05,0.1032352333910391,-1.5273510585673995e-05
0.1040293505709702,-2.1830022136854487e-06,0.1040293505709702,0.0001622916441921,0.1040293505709702,-1.7623311798681404e-05,0.1040293505709702,-1.2587737803953342e-05
0.1048234677509013,-4.362619133555608e-06,0.1048234677509013,0.0001207118684289,0.1048234677509013,-1.5611348498282478e-05,0.1048234677509013,-1.0408160839664564e-05
0.1056175849308323,-5.202891276071883e-06,0.1056175849308323,9.820355795810068e-05,0.1056175849308323,-1.561e-05,0.1056175849308323,-9.73561100005278e-06
0.1064117021107634,-6.210042164645808e-06,0.1064117021107634,9.56750445790061e-05,0.1064117021107634,-1.4938851892737296e-05,0.1064117021107634,-1.023861108419878e-05
0.1072058192906945,-5.874796403166051e-06,0.1072058192906945,6.93276976371553e-05,0.1072058192906945,-1.3596105612664203e-05,0.1072058192906945,-1.2252541581003696e-05
0.1079999364706256,-4.196364299017175e-06,0.1079999364706256,7.89382534850925e-06,0.1079999364706256,-1.560983884021925e-05,0.1079999364706256,-1.0574634299817291e-05
0.1087940536505566,-2.853508049041701e-06,0.1087940536505566,-4.532108062413649e-05,0.1087940536505566,-1.6952527801130397e-05,0.1087940536505566,-1.3763543295280665e-05
0.1095881708304877,-3.860674452883463e-06,0.1095881708304877,-7.167087773558269e-05,0.1095881708304877,-1.2923786086002868e-05,0.1095881708304877,-1.2924255547116536e-05
0.1103822880104188,-4.532904153527302e-06,0.1103822880104188,-6.830997278978883e-05,0.1103822880104188,-1.0070330252446846e-05,0.1103822880104188,-1.2253243539288658e-05
0.1111764051903498,-7.218375481698586e-06,0.1111764051903498,-5.5558271097359065e-05,0.1111764051903498,-8.223070133961892e-06,0.1111764051903498,-1.292354451320468e-05
0.1119705223702809,-8.895001576469014e-06,0.1119705223702809,-5.5893598314092215e-05,0.1119705223702809,-5.205145161154192e-06,0.1119705223702809,-1.1246908429538908e-05
0.112764639550212,-8.89601e-06,0.112764639550212,-7.468436582920764e-05,0.112764639550212,-4.1966871901529855e-06,0.112764639550212,-8.561529169201625e-06
0.1135587567301431,-1.0238388589003597e-05,0.1135587567301431,-0.0001186555263733,0.1135587567301431,-6.880997174943342e-06,0.1135587567301431,-4.197567089568124e-06
0.1143528739100741,-1.3595266896875283e-05,0.1143528739100741,-0.0001581077359985,0.1143528739100741,-8.224396760338149e-06,0.1143528739100741,2.8523204882022007e-06
0.1151469910900052,-1.35958e-05,0.1151469910900052,-0.0001478751148985,0.1151469910900052,-9.567394931560482e-06,0.1151469910900052,4.53191116456282e-06
0.1159411082699363,-1.2252450688250977e-05,0.1159411082699363,-0.0001048987216012,0.1159411082699363,-1.107832886682758e-05,0.1159411082699363,2.853394223907281e-06
0.1167352254498673,-8.222989580497973e-06,0.1167352254498673,-5.152331363560837e-05,0.1167352254498673,-1.2757119589616616e-05,0.1167352254498673,2.516977448760874e-06
0.1175293426297984,-2.517305959157209e-06,0.1175293426297984,-2.903182347129901e-05,0.1175293426297984,-1.493946808168558e-05,0.1175293426297984,-1.694404749015972e-07
0.1183234598097295,-1.5113243089577454e-06,0.1183234598097295,-1.4948180257459971e-05,0.1183234598097295,-1.695143138208451e-05,0.1183234598097295,-3.858020880065142e-06
0.1191175769896605,-2.852724611733301e-06,0.1191175769896605,1.3245076899675188e-05,0.1191175769896605,-1.8294884611733303e-05,0.1191175769896605,-2.5184553829391125e-06
0.1199116941695916,-8.400218208734341e-07,0.1199116941695916,3.8092231552575576e-05,0.1199116941695916,-1.7624458607728164e-05,0.1199116941695916,-8.893553238137737e-06
0.1207058113495227,1.676097192035219e-07,0.1207058113495227,4.481410481052982e-05,0.1207058113495227,-1.695295952132297e-05,0.1207058113495227,-9.231630239338516e-06
0.1214999285294538,-1.6781878272113426e-07,0.1214999285294538,2.937498999410772e-05,0.1214999285294538,-1.8966818695246648e-05,0.1214999285294538,-1.3091852504623535e-05
0.1222940457093848,-3.524878314359264e-06,0.1222940457093848,8.557797664256275e-06,0.1222940457093848,-1.8967077302974822e-05,0.1222940457093848,-1.863147393169335e-05
0.1230881628893159,-4.363632353900566e-06,0.1230881628893159,-3.508745572254603e-05,0.1230881628893159,-2.030918017948332e-05,0.1230881628893159,-2.1653150931055357e-05
0.123882280069247,-2.1827504693660198e-06,0.123882280069247,-6.899186138373346e-05,0.123882280069247,-1.728755270280888e-05,0.123882280069247,-2.433845523644667e-05
0.124676397249178,-4.19690097634758e-06,0.124676397249178,-8.558875795552314e-05,0.124676397249178,-1.460122255913105e-05,0.124676397249178,-2.534436127956553e-05
0.1254705144291091,-5.538209843280199e-06,0.1254705144291091,-5.691843075826863e-05,0.1254705144291091,-1.1247950391799506e-05,0.1254705144291091,-2.3667725195899756e-05
0.1262646316090402,-4.196853016852359e-06,0.1262646316090402,-6.905027275677298e-06,0.1262646316090402,-1.4265798212082192e-05,0.1262646316090402,-1.9807991150252108e-05
0.1270587487889713,-3.189458629867625e-06,0.1270587487889713,4.412825598335399e-05,0.1270587487889713,-1.3596012422020994e-05,0.1270587487889713,-1.76248903557489e-05
0.1278528659689023,-3.860416666072239e-06,0.1278528659689023,6.0926466626485226e-05,0.1278528659689023,-1.0239366678079052e-05,0.1278528659689023,-1.6449398345767916e-05
0.1286469831488334,-5.874677252580353e-06,0.1286469831488334,5.622959974447439e-05,0.1286469831488334,-1.3092139441915994e-05,0.1286469831488334,-1.4267246308873378e-05
0.1294411003287645,-4.53154823388797e-06,0.1294411003287645,3.943704951495397e-05,0.1294411003287645,-1.7288372744208127e-05,0.1294411003287645,-1.5274596930181035e-05
0.1302352175086955,-1.51064e-06,0.1302352175086955,-2.032313437880089e-05,0.1302352175086955,-1.6281216076400234e-05,0.1302352175086955,-1.762484373259918e-05
0.1310293346886266,-1.5103573485084297e-06,0.1310293346886266,-6.898585867299125e-05,0.1310293346886266,-1.5610282654017523e-05,0.1310293346886266,-1.997480663504381e-05
0.1318234518685577,-8.397089083793274e-07,0.1318234518685577,-6.865053145625809e-05,0.1318234518685577,-1.6280937087483833e-05,0.1318234518685577,-2.165144271870958e-05
0.1326175690484888,-6.207504741117934e-06,0.1326175690484888,-4.851933221945084e-05,0.1326175690484888,-1.6952435590875774e-05,0.1326175690484888,-2.3162380106608487e-05
0.1334116862284198,-1.023720807158944e-05,0.1334116862284198,-8.240529280153812e-06,0.1334116862284198,-1.8966204031842936e-05,0.1334116862284198,-1.8633090908594477e-05
0.1342058034083509,-1.0910033763686165e-05,0.1342058034083509,3.658000378547458e-05,0.1342058034083509,-2.064508440921541e-05,0.1342058034083509,-1.460389741788302e-05
0.134999920588282,-1.1581532850091348e-05,0.134999920588282,6.629742863154435e-05,0.134999920588282,-2.06455e-05,0.134999920588282,-1.174968539211251e-05
0.135794037768213,-1.1077900395469516e-05,0.135794037768213,9.382792355547588e-05,0.135794037768213,-1.8966824349268945e-05,0.135794037768213,-1.728861975948373e-05
0.1365881549481441,-6.882082043851991e-06,0.1365881549481441,9.85235038210118e-05,0.1365881549481441,-1.527397244274565e-05,0.1365881549481441,-1.980564316242505e-05
0.1373822721280752,-8.22374709352634e-06,0.1373822721280752,7.803425263567527e-05,0.1373822721280752,-1.3595627400883277e-05,0.1373822721280752,-1.6950729016237682e-05
0.1381763893080062,-5.708267317028214e-06,0.1381763893080062,3.238059806767623e-05,0.1381763893080062,-1.3093761737224677e-05,0.1381763893080062,-1.0910693172444176e-05
0.1389705064879373,-8.558538670364683e-06,0.1389705064879373,3.207270056426618e-06,0.1389705064879373,-1.627942024066637e-05,0.1389705064879373,-1.191667482264364e-05
0.1397646236678684,-8.56031e-06,0.1397646236678684,-1.3587844443012029e-05,0.1397646236678684,-1.6952481776582956e-05,0.1397646236678684,-1.393054532974886e-05
0.1405587408477994,-8.22471956850593e-06,0.1405587408477994,-2.2992232114472743e-05,0.1405587408477994,-1.3596895685059312e-05,0.1405587408477994,-1.4938271294482203e-05
0.1413528580277305,-7.88897002530334e-06,0.1413528580277305,-1.3597480690612855e-05,0.1413528580277305,-1.1246320177123374e-05,0.1413528580277305,-1.4267320050606676e-05
0.1421469752076616,-8.224599517899264e-06,0.1421469752076616,-5.035747292632009e-06,0.1421469752076616,-9.90314192840294e-06,0.1421469752076616,-1.4938579035798528e-05
0.1429410923875927,-7.552751267941428e-06,0.1429410923875927,-1.3766119435251158e-05,0.1429410923875927,-1.107831483024229e-05,0.1429410923875927,-1.493844375559262e-05
0.1437352095675237,-3.525095812913348e-06,0.1437352095675237,-3.542949059287958e-05,0.1437352095675237,-1.2924045582782203e-05,0.1437352095675237,-1.359495827230468e-05
0.1445293267474548,-4.532412903968042e-06,0.1445293267474548,-8.580811481184237e-05,0.1445293267474548,-1.1581875947473184e-05,0.1445293267474548,-1.040525126343569e-05
0.1453234439273859,-5.706048173638738e-06,0.1453234439273859,-0.0001760108364462,0.1453234439273859,-1.2252530380939492e-05,0.1453234439273859,-6.884285521051532e-06
0.146117561107317,-5.539122775501153e-06,0.146117561107317,-0.0001911716499837,0.146117561107317,-1.3595057751769854e-05,0.146117561107317,-8.22386775729747e-06
0.146911678287248,-4.196774075419777e-06,0.146911678287248,-0.0001170210598833,0.146911678287248,-1.5609183886870336e-05,0.146911678287248,-1.2251367777792468e-05
0.1477057954671791,-4.531843524347648e-06,0.1477057954671791,-1.0266299154408735e-05,0.1477057954671791,-1.3764075628967836e-05,0.1477057954671791,-1.393106762173824e-05
0.1484999126471102,-4.53193e-06,0.1484999126471102,7.569054533687096e-05,0.1484999126471102,-1.2420947729798992e-05,0.1484999126471102,-1.7623793743052768e-05
0.1492940298270412,-2.853339114315432e-06,0.1492940298270412,5.1527165249950384e-05,0.1492940298270412,-1.5610081968015134e-05,0.1492940298270412,-2.165268827151327e-05
0.1500881470069723,-1.6788007679257077e-07,0.1500881470069723,-1.5945389230222818e-05,0.1500881470069723,-1.7791968932279645e-05,0.1500881470069723,-2.4001902786871243e-05
0.1508822641869034,-3.358655450715843e-07,0.1508822641869034,-1.4252344344528054e-05,0.1508822641869034,-1.7623753211367887e-05,0.1508822641869034,-2.131522454262957e-05
0.1516763813668344,-8.406953302077039e-07,0.1516763813668344,3.041000868883332e-05,0.1516763813668344,-1.6280836344615714e-05,0.1516763813668344,-1.6281722075085114e-05
0.1524704985467655,-3.858624298573648e-06,0.1524704985467655,9.143926246740922e-05,0.1524704985467655,-1.510714114157291e-05,0.1524704985467655,-1.6952376508551448e-05
0.1532646157266966,-5.873745189615901e-06,0.1532646157266966,0.000120669865034,0.1532646157266966,-1.728744392597563e-05,0.1532646157266966,-2.097925036955237e-05
0.1540587329066277,-5.539142922637469e-06,0.1540587329066277,5.222413693791742e-05,0.1540587329066277,-1.9637609517990447e-05,0.1540587329066277,-2.0645612926001365e-05
0.1548528500865587,-3.525210296792567e-06,0.1548528500865587,-3.64065670166502e-05,0.1548528500865587,-1.997403661720124e-05,0.1548528500865587,-1.6953497210786373e-05
0.1556469672664898,-4.531888481211458e-06,0.1556469672664898,-8.811876871043339e-05,0.1556469672664898,-1.9134834601051755e-05,0.1556469672664898,-1.4267310716769445e-05
0.1564410844464209,-7.553291406149289e-06,0.1564410844464209,-7.73697169521715e-05,0.1564410844464209,-1.7624485628851385e-05,0.1564410844464209,-1.1917478518032115e-05
0.157235201626352,-8.224950987236062e-06,0.157235201626352,5.219356316295519e-06,0.157235201626352,-2.03098e-05,0.157235201626352,-1.3596695078797787e-05
0.158029318806283,-9.56741e-06,0.158029318806283,6.831998481857692e-05,0.158029318806283,-2.030764607256923e-05,0.158029318806283,-1.7119792277213463e-05
0.1588234359862141,-9.56741e-06,0.1588234359862141,8.173307348790357e-05,0.1588234359862141,-1.494241060483857e-05,0.1588234359862141,-1.5107828976814464e-05
0.1596175531661451,-1.2251488649203774e-05,0.1596175531661451,4.617852541633978e-05,0.1596175531661451,-1.5609622160894038e-05,0.1596175531661451,-1.3932161190297283e-05
0.1604116703460762,-1.2924121247299244e-05,0.1604116703460762,-3.387225892726641e-05,0.1604116703460762,-1.4267757505401512e-05,0.1604116703460762,-1.39315e-05
0.1612057875260073,-1.4266840667408904e-05,0.1612057875260073,-9.616093601798776e-05,0.1612057875260073,-1.0407733067819428e-05,0.1612057875260073,-1.0911008498329969e-05
0.1619999047059384,-1.0910602899451936e-05,0.1619999047059384,-0.0001055758719055,0.1619999047059384,-9.567510729663692e-06,0.1619999047059384,-8.896251738470985e-06
0.1627940218858694,-8.89606551926882e-06,0.1627940218858694,-8.409192630079698e-05,0.1627940218858694,-9.567447012754e-06,0.1627940218858694,-5.5389004548372825e-06
0.1635881390658005,-1.0910317592920005e-05,0.1635881390658005,-6.32768481415999e-05,0.1635881390658005,-1.0910082407079994e-05,0.1635881390658005,-8.384228537634672e-07
0.1643822562457316,-1.1581491660337404e-05,0.1643822562457316,-4.985856706478367e-05,0.1643822562457316,-1.0239233358650378e-05,0.1643822562457316,3.860096644576898e-06
0.1651763734256627,-1.12463730528112e-05,0.1651763734256627,-7.26796461056224e-05,0.1651763734256627,-1.15819153685408e-05,0.1651763734256627,2.515374745338365e-06
0.1659704906055937,-1.2252354703010626e-05,0.1659704906055937,-7.469160940602126e-05,0.1659704906055937,-1.2252569802007083e-05,0.1659704906055937,-2.5145135278680875e-06
0.1667646077855248,-7.555541563912016e-06,0.1667646077855248,-4.650812939335155e-05,0.1667646077855248,-1.527280755970548e-05,0.1667646077855248,-5.705294656235243e-06
0.1675587249654559,-4.1973928315040775e-06,0.1675587249654559,-1.3271611996904863e-05,0.1675587249654559,-1.6952218582516006e-05,0.1675587249654559,-1.090839761272744e-05
0.1683528421453869,-3.0215235890416297e-06,0.1683528421453869,1.1720701792776755e-06,0.1683528421453869,-1.561026696117683e-05,0.1683528421453869,-8.896410439777147e-06
0.169146959325318,-5.538901022325255e-06,0.169146959325318,5.03582393773385e-07,0.169146959325318,-1.561e-05,0.169146959325318,-1.1581462423779454e-05
0.1699410765052491,-4.196165307778021e-06,0.1699410765052491,-4.8680019783492935e-06,0.1699410765052491,-1.35958e-05,0.1699410765052491,-1.4267523461109891e-05
0.1707351936851801,-3.5249937786271637e-06,0.1707351936851801,-8.72975683917548e-06,0.1707351936851801,-1.3595472442745674e-05,0.1707351936851801,-1.7624527557254327e-05
0.1715293108651112,-4.194917334333748e-06,0.1715293108651112,-1.527521887034586e-05,0.1715293108651112,-1.2253787603153594e-05,0.1715293108651112,-1.896686873280773e-05
0.1723234280450423,-8.416611492348716e-07,0.1723234280450423,-1.762250938747786e-05,0.1723234280450423,-1.426575090355245e-05,0.1723234280450423,-1.863154151607459e-05
0.1731175452249733,3.186832683437856e-06,0.1731175452249733,-1.2256076432774465e-05,0.1731175452249733,-1.527372316885479e-05,0.1731175452249733,-2.0644346337709577e-05
0.1739116624049044,2.350246834614529e-06,0.1739116624049044,-7.219660999183522e-06,0.1739116624049044,-1.359651366922906e-05,0.1739116624049044,-2.1316614532308376e-05
0.1747057795848355,4.195717454238302e-06,0.1747057795848355,-3.5258550942994066e-06,0.1747057795848355,-1.0910945525145756e-05,0.1747057795848355,-2.031007957192966e-05
0.1754998967647666,1.510989178224734e-06,0.1754998967647666,-1.5109018833435023e-06,0.1754998967647666,-1.3595450820475072e-05,0.1754998967647666,-1.8295861884643696e-05
0.1762940139446976,-1.6781362562133e-07,0.1762940139446976,2.182045895761976e-06,0.1762940139446976,-1.510634988690133e-05,0.1762940139446976,-1.628141473852681e-05
0.1770881311246287,1.8463954389645687e-06,0.1770881311246287,2.51774e-06,0.1770881311246287,-1.2252722805177155e-05,0.1770881311246287,-1.712073860566864e-05
0.1778822483045598,2.1819350178328397e-06,0.1778822483045598,2.5175300356656784e-06,0.1778822483045598,-1.0574919928668642e-05,0.1778822483045598,-1.79606873506174e-05
0.1786763654844909,1.8458770097636825e-06,0.1786763654844909,1.8458770097636825e-06,0.1786763654844909,-1.1916837007005308e-05,0.1786763654844909,-2.047798585048202e-05
0.1794704826644219,8.39901352901426e-07,0.1794704826644219,8.39901352901426e-07,0.1794704826644219,-1.0910855356805844e-05,0.1794704826644219,-2.1316353836791637e-05
0.180264599844353,-5.02871266244547e-07,0.180264599844353,1.1747708188290214e-06,0.180264599844353,-1.0239138368389647e-05,0.180264599844353,-2.0310307552584474e-05
0.181058717024284,-8.391263597205527e-07,0.181058717024284,2.517261436031069e-06,0.181058717024284,-1.1245541077023304e-05,0.181058717024284,-2.0980960718015537e-05
0.1818528342042151,-2.18175961009435e-06,0.1818528342042151,1.5108502933688862e-06,0.1818528342042151,-1.242055466817684e-05,0.1818528342042151,-1.6618011271265174e-05
0.1826469513841462,-3.524747782264144e-06,0.1826469513841462,-5.03424673212529e-07,0.1826469513841462,-1.1749441109174072e-05,0.1826469513841462,-1.6952779445412964e-05
0.1834410685640773,-1.0071724706753618e-06,0.1834410685640773,-3.8606169658466666e-06,0.1834410685640773,-1.5274328988615555e-05,0.1834410685640773,-1.5609826068306667e-05
0.1842351857440083,-1.8464577977272215e-06,0.1842351857440083,-4.867944124933247e-06,0.1842351857440083,-1.5609842936363707e-05,0.1842351857440083,-1.3595171745454815e-05
0.1850293029239394,-2.350337694909974e-06,0.1850293029239394,-6.209268782339859e-06,0.1850293029239394,-1.4936361510208673e-05,0.1850293029239394,-1.0911031421428808e-05
0.1858234201038705,-3.52397296458067e-06,0.1858234201038705,-3.191343809532158e-06,0.1858234201038705,-9.068145206273816e-06,0.1858234201038705,-1.3090608385717588e-05
0.1866175372838016,-5.537856192736974e-06,0.1866175372838016,-4.1956431021961466e-06,0.1866175372838016,-1.1244628381292715e-05,0.1866175372838016,-1.326000215358978e-05
0.1874116544637326,-6.88123563898686e-06,0.1874116544637326,-6.880651273621877e-06,0.1874116544637326,-1.3594777360611282e-05,0.1874116544637326,-1.3595653908658754e-05
0.1882057716436637,-6.546216548138653e-06,0.1882057716436637,-6.546216548138653e-06,0.1882057716436637,-1.2924593096277306e-05,0.1882057716436637,-1.2924593096277306e-05
0.1889998888235948,-4.19655903315214e-06,0.1889998888235948,-7.720905482723825e-06,0.1889998888235948,-1.4938317970383705e-05,0.1889998888235948,-1.35957059901279e-05
0.1897940060035258,-4.867646498656916e-06,0.1897940060035258,-1.12459e-05,0.1897940060035258,-1.527429238520037e-05,0.1897940060035258,-1.3931488577422503e-05
0.1905881231834569,-7.049748122203702e-06,0.1905881231834569,-1.1245847918530865e-05,0.1905881231834569,-1.426678334824692e-05,0.1905881231834569,-1.242059168963775e-05
0.191382240363388,-7.553067562992392e-06,0.191382240363388,-1.0909488630325077e-05,0.191382240363388,-1.1581904874015217e-05,0.191382240363388,-1.1078963794573545e-05
0.192176357543319,-7.048688649278078e-06,0.192176357543319,-8.577068433146093e-06,0.192176357543319,-1.2589454888630249e-05,0.192176357543319,-1.3931047066821853e-05
0.1929704747232501,-4.869071729407843e-06,0.1929704747232501,-4.57981797237253e-05,0.1929704747232501,-1.4266090972296076e-05,0.1929704747232501,-1.2925065416622352e-05
0.1937645919031812,-6.209729838378725e-06,0.1937645919031812,-0.0001535266143744,0.1937645919031812,-1.4938254916619482e-05,0.1937645919031812,-1.3595454916619482e-05
0.1945587090831123,-5.539275993311392e-06,0.1945587090831123,-0.0001562670158655,0.1945587090831123,-1.9636678021172677e-05,0.1945587090831123,-1.5273685007561668e-05
0.1953528262630433,-3.525270731710375e-06,0.1953528262630433,-4.786072603519397e-05,0.1953528262630433,-1.829589382114025e-05,0.1953528262630433,-1.4938673455285062e-05
0.1961469434429744,-3.692668043958765e-06,0.1961469434429744,5.890749599338969e-05,0.1961469434429744,-1.82956e-05,0.1961469434429744,-1.3260219560412352e-05
0.1969410606229055,-2.853465631120122e-06,0.1969410606229055,0.0001072556923807,0.1969410606229055,-1.8967012811742495e-05,0.1969410606229055,-1.1245976893360364e-05
0.1977351778028366,-3.1902676081228943e-06,0.1977351778028366,0.0001032216627126,0.1977351778028366,-1.913431137809893e-05,0.1977351778028366,-1.2253225522968175e-05
0.1985292949827676,-8.226353845360346e-06,0.1985292949827676,7.938547551952562e-05,0.1985292949827676,-1.6953298242591666e-05,0.1985292949827676,-1.3259726318056253e-05
0.1993234121626987,-1.2920924890729328e-05,0.1993234121626987,5.9936596837955445e-05,0.1993234121626987,-1.829460710952433e-05,0.1993234121626987,-1.2253744667856754e-05
0.2001175293426297,-1.1582395968157086e-05,0.2001175293426297,5.086367278506033e-05,0.2001175293426297,-1.6953595968157086e-05,0.2001175293426297,-1.2253e-05
0.2009116465225608,-9.064980861823238e-06,0.2009116465225608,4.280518672756174e-05,0.2009116465225608,-1.628169889767336e-05,0.2009116465225608,-1.2253e-05
0.2017057637024919,-8.896059952817038e-06,0.2017057637024919,2.6021595281703773e-05,0.2017057637024919,-2.030860113239109e-05,0.2017057637024919,-1.3763150439526855e-05
0.202499880882423,-6.882122173088748e-06,0.202499880882423,3.863853900975797e-06,0.202499880882423,-2.2323597840413245e-05,0.202499880882423,-1.4099249637568506e-05
0.203293998062354,-6.210421638457783e-06,0.203293998062354,-1.225296067718405e-05,0.203293998062354,-1.8967008192044875e-05,0.203293998062354,-1.4938597951805754e-05
0.2040881152422851,-6.21066361841715e-06,0.2040881152422851,-2.736271321569833e-05,0.2040881152422851,-1.728815893218401e-05,0.2040881152422851,-1.2924692343842276e-05
0.2048822324222162,-7.88851693422206e-06,0.2048822324222162,-5.019200986389492e-05,0.2048822324222162,-1.4938403465647414e-05,0.2048822324222162,-1.493801039694224e-05
0.2056763496021472,-6.546415248907784e-06,0.2056763496021472,-6.764423337117725e-05,0.2056763496021472,-1.4267052375546107e-05,0.2056763496021472,-1.2922997572085536e-05
0.2064704667820783,-7.217069682374115e-06,0.2064704667820783,-6.99915238883094e-05,0.2064704667820783,-1.3931725158812942e-05,0.2064704667820783,-9.737399002015804e-06
0.2072645839620094,-6.881995899185692e-06,0.2072645839620094,-7.133519640325723e-05,0.2072645839620094,-1.1750543370905866e-05,0.2072645839620094,-9.903012055646928e-06
0.2080587011419405,-6.88182e-06,0.2080587011419405,-7.10003263559831e-05,0.2080587011419405,-9.568231291306342e-06,0.2080587011419405,-1.023867364401691e-05
0.2088528183218715,-6.88182e-06,0.2088528183218715,-6.227409710941183e-05,0.2088528183218715,-8.896163625561016e-06,0.2088528183218715,-8.22507087439491e-06
0.2096469355018026,-8.224500922500704e-06,0.2096469355018026,-4.918086351353826e-05,0.2096469355018026,-7.721165442710344e-06,0.2096469355018026,-1.309180459599431e-05
0.2104410526817337,-5.2033522736247e-06,0.2104410526817337,-3.50799208857578e-05,0.2104410526817337,-1.0238944775243058e-05,0.2104410526817337,-1.51063109055012e-05
0.2112351698616647,-5.5391018146879645e-06,0.2112351698616647,-2.6360199829607663e-05,0.2112351698616647,-1.2420979552764778e-05,0.2112351698616647,-1.3763564102282938e-05
0.2120292870415958,-5.8733867260878296e-06,0.2120292870415958,-6.333386420151432e-05,0.2120292870415958,-1.3259978792624242e-05,0.2120292870415958,-1.3596890866381824e-05
0.2128234042215269,-2.18480731981382e-06,0.2128234042215269,-0.0002145655399475,0.2128234042215269,-1.2924651575891088e-05,0.2128234042215269,-1.6614835816980216e-05
0.2136175214014579,-8.400553945222074e-07,0.2136175214014579,-0.0002109892254229,0.2136175214014579,-1.3092098855371096e-05,0.2136175214014579,-1.946878005909345e-05
0.214411638581389,1.1740231683800123e-06,0.214411638581389,-4.992454694837124e-05,0.214411638581389,-1.4937759542414084e-05,0.214411638581389,-1.9302776380406693e-05
0.2152057557613201,5.037545237981988e-07,0.2152057557613201,9.831410952825998e-05,0.2152057557613201,-1.49386e-05,0.2152057557613201,-2.09806836843524e-05
0.2159998729412512,-2.1816102425049465e-06,0.2159998729412512,0.0001864668985111,0.2159998729412512,-1.510637314803772e-05,0.2159998729412512,-2.2659331416367776e-05
0.2167939901211822,-5.5389882328812864e-06,0.2167939901211822,0.0001143058980019,0.2167939901211822,-1.6281385380842813e-05,0.2167939901211822,-2.1988308352204444e-05
0.2175881073011133,-6.210692197518205e-06,0.2175881073011133,3.861312568371611e-05,0.2175881073011133,-1.4938781465913068e-05,0.2175881073011133,-1.9134595857604797e-05
0.2183822244810444,-8.224799819361741e-06,0.2183822244810444,9.653864082824824e-05,0.2183822244810444,-1.628220671815132e-05,0.2183822244810444,-1.7624579638723483e-05
0.2191763416609755,-8.895288648389006e-06,0.2191763416609755,0.0001861664962771,0.2191763416609755,-1.9135160699442416e-05,0.2191763416609755,-1.8967e-05
0.2199704588409065,-7.218662553618579e-06,0.2199704588409065,0.0002361299519035,0.2199704588409065,-1.997352868575203e-05,0.2199704588409065,-1.8967e-05
0.2207645760208376,-6.881999256681114e-06,0.2207645760208376,0.0001952308691015,0.2207645760208376,-1.9638579256681115e-05,0.2207645760208376,-1.66183547967678e-05
0.2215586932007686,-7.552960573042931e-06,0.2215586932007686,9.252459228579168e-05,0.2215586932007686,-1.7624978280871204e-05,0.2215586932007686,-1.76238108595644e-05
0.2223528103806997,-8.560069491560363e-06,0.2223528103806997,-2.1625342225591395e-05,0.2223528103806997,-1.561048102165558e-05,0.2223528103806997,-2.030915863779256e-05
0.2231469275606308,-1.0070862174520642e-05,0.2231469275606308,-0.0001065762514143,0.2231469275606308,-1.4267322508293352e-05,0.2231469275606308,-1.9974130627073332e-05
0.2239410447405619,-1.0910237832258508e-05,0.2239410447405619,-0.0001508966999024,0.2239410447405619,-1.359615940645583e-05,0.2239410447405619,-1.0238241976891718e-05
0.2247351619204929,-1.1582010755991148e-05,0.2247351619204929,-0.0001633196700566,0.2247351619204929,-1.997403154066814e-05,0.2247351619204929,-3.350476387945088e-07
0.225529279100424,-1.359556429179282e-05,0.225529279100424,-0.0001764090570267,0.225529279100424,-1.9637692875378463e-05,0.225529279100424,2.85344e-06
0.2263233962803551,-1.2924909858326512e-05,0.2263233962803551,-0.000173726039737,0.2263233962803551,-1.7625729574979536e-05,0.2263233962803551,2.85344e-06
0.2271175134602862,-1.29244e-05,0.2271175134602862,-0.0001579556682916,0.2271175134602862,-1.76242e-05,0.2271175134602862,4.195407178007195e-06
0.2279116306402172,-9.568971633623582e-06,0.2279116306402172,-0.0001297601178545,0.2279116306402172,-1.3597673965930562e-05,0.2279116306402172,2.518520814485848e-06
0.2287057478201483,-6.882672961823475e-06,0.2287057478201483,-9.68594486306803e-05,0.2287057478201483,-1.0911052964999544e-05,0.2287057478201483,1.175366482499772e-06
0.2294998650000794,-5.203615385411504e-06,0.2294998650000794,-6.395619355338536e-05,0.2294998650000794,-8.560709540256207e-06,0.2294998650000794,3.860073382321445e-06
0.2302939821800104,-1.5107228761929124e-06,0.2302939821800104,-4.14593047904795e-05,0.2302939821800104,-1.0910147260686122e-05,0.2302939821800104,3.3577710890348706e-07
0.2310880993599415,1.5107660269485357e-06,0.2310880993599415,-3.50805e-05,0.2310880993599415,-8.223895851045785e-06,0.2310880993599415,-4.531972008982845e-06
0.2318822165398726,2.5172822407091347e-06,0.2318822165398726,-3.509514829512592e-05,0.2318822165398726,-2.518197758199984e-06,0.2318822165398726,-4.868362414756296e-06
0.2326763337198036,8.405142544696125e-07,0.2326763337198036,-8.879568198785195e-05,0.2326763337198036,-4.1974982569882525e-06,0.2326763337198036,-7.556602021433827e-06
0.2334704508997347,3.858443222835451e-06,0.2334704508997347,-9.68434353004942e-05,0.2334704508997347,-7.215433218691298e-06,0.2334704508997347,-1.560443524523885e-05
0.2342645680796658,1.1764009079725822e-06,0.2342645680796658,-5.725814836403663e-05,0.2342645680796658,-1.241796951834212e-05,0.2342645680796658,-1.896517385823452e-05
0.2350586852595969,5.03814138776724e-07,0.2350586852595969,5.1822152131663535e-05,0.2350586852595969,-1.3930901160797274e-05,0.2350586852595969,-1.8295866141947915e-05
0.2358528024395279,-2.18137178081489e-06,0.2358528024395279,0.0001528858581657,0.2358528024395279,-1.6952048250057727e-05,0.2358528024395279,-2.2994130636082576e-05
0.236646919619459,-4.5316921090309474e-06,0.236646919619459,0.0001478755098191,0.236646919619459,-2.0309460154312283e-05,0.236646919619459,-2.970862030862457e-05
0.2374410367993901,-4.1962611172676415e-06,0.2374410367993901,7.368317060478839e-05,0.2374410367993901,-2.030970664819708e-05,0.2374410367993901,-3.407329108956326e-05
0.2382351539793211,-4.86841121815852e-06,0.2382351539793211,1.694752677064249e-05,0.2382351539793211,-1.829520938898145e-05,0.2382351539793211,-3.172327215326895e-05
0.2390292711592522,-8.897040504071974e-06,0.2390292711592522,-1.026673806643422e-05,0.2390292711592522,-1.628117099833716e-05,0.2390292711592522,-3.054854273253025e-05
0.2398233883391833,-1.191497546577502e-05,0.2398233883391833,-9.208617939351012e-05,0.2398233883391833,-1.5610516564870853e-05,0.2398233883391833,-3.0380829179686945e-05
0.2406175055191144,-9.568873445451209e-06,0.2406175055191144,-7.537475316400087e-05,0.2406175055191144,-1.7958436548321072e-05,0.2406175055191144,-2.702579064525561e-05
0.2414116226990454,-5.876474729800758e-06,0.2414116226990454,3.3350315328953105e-05,0.2414116226990454,-1.6953278563968908e-05,0.2414116226990454,-2.1990692772325523e-05
0.2422057398789765,-4.196779887325801e-06,0.2422057398789765,0.000162939548511,0.2422057398789765,-1.980526520235721e-05,0.2422057398789765,-1.963916984684264e-05
0.2429998570589076,-1.8467630426242269e-06,0.2429998570589076,0.0002287671547921,0.2429998570589076,-2.299472587728237e-05,0.2429998570589076,-2.299469566882481e-05
0.2437939742388386,-5.035915666012115e-07,0.2437939742388386,0.0001952100891715,0.2437939742388386,-2.182043811938093e-05,0.2437939742388386,-2.29953e-05
0.2445880914187697,1.1747853953168613e-06,0.2445880914187697,0.0001052311826258,0.2445880914187697,-1.7623968091075532e-05,0.2445880914187697,-1.8966574833638478e-05
0.2453822085987008,-1.6890733128838605e-07,0.2453822085987008,1.996210557470327e-05,0.2453822085987008,-1.561026458407001e-05,0.2453822085987008,-1.5273903110759046e-05
0.2461763257786318,-4.19623e-06,0.2461763257786318,-2.568825968761087e-05,0.2461763257786318,-1.6616137047538307e-05,0.2461763257786318,-1.37614677727076e-05
0.2469704429585629,-4.19623e-06,0.2469704429585629,-4.3628215838358535e-05,0.2469704429585629,-1.4268846530406142e-05,0.2469704429585629,-8.563955846715594e-06
0.247764560138494,-7.55136028881988e-06,0.247764560138494,-5.689355414665534e-05,0.247764560138494,-1.2254115830031962e-05,0.247764560138494,-2.85660150180444e-06
0.2485586773184251,-7.55322e-06,0.2485586773184251,-6.461886214520403e-05,0.2485586773184251,-1.1749604663024083e-05,0.2485586773184251,-1.6789674996428642e-06
0.2493527944983561,-8.224436232054587e-06,0.2493527944983561,-8.140255576254194e-05,0.2493527944983561,-1.2252869659158893e-05,0.2493527944983561,-3.1887490162994105e-06
0.2501469116782872,-9.902913290791336e-06,0.2501469116782872,-9.550463164442702e-05,0.2501469116782872,-1.0239024052385232e-05,0.2501469116782872,-5.035274619759234e-06
0.2509410288582183,-1.1581612201138374e-05,0.2509410288582183,-0.0001065843782461,0.2509410288582183,-1.15816488045535e-05,0.2509410288582183,-6.210493206466797e-06
0.2517351460381494,-1.1916620814088246e-05,0.2517351460381494,-0.0001169914940282,0.2517351460381494,-1.29244e-05,0.2517351460381494,-8.223930815927517e-06
0.2525292632180804,-8.225054590237004e-06,0.2525292632180804,-0.0001196754438679,0.2525292632180804,-1.292351081952599e-05,0.2525292632180804,-4.530707382145708e-06
0.2533233803980115,-9.566363457169622e-06,0.2533233803980115,-0.0001149806630557,0.2533233803980115,-1.0240893085660752e-05,0.2533233803980115,-8.421239803135599e-07
0.2541174975779426,-1.2922275786117783e-05,0.2541174975779426,-0.0001022280722899,0.2541174975779426,-8.56137210377724e-06,0.2541174975779426,2.515615788648878e-06
0.2549116147578736,-1.1582251515273656e-05,0.2549116147578736,-7.94037756140947e-05,0.2549116147578736,-9.73468992413555e-06,0.2549116147578736,1.175591515273658e-06
0.2557057319378047,-1.191718666438419e-05,0.2557057319378047,-6.143886343856539e-05,0.2557057319378047,-1.2252149986257518e-05,0.2557057319378047,5.037746685307426e-07
0.2564998491177358,-8.89658412981858e-06,0.2564998491177358,-4.4147685280775935e-05,0.2564998491177358,-1.1749495698121212e-05,0.2564998491177358,8.391822079668494e-07
0.2572939662976669,-6.881905494839295e-06,0.2572939662976669,-2.836716971289944e-05,0.2572939662976669,-1.2252978624061748e-05,0.2572939662976669,-9.902644027552057e-06
0.2580880834775979,-3.1891047060080223e-06,0.2580880834775979,-8.391207069592926e-06,0.2580880834775979,-1.4267129412016043e-05,0.2580880834775979,-1.4267694115887686e-05
0.258882200657529,-2.853312744208128e-06,0.258882200657529,3.526908491049864e-06,0.258882200657529,-1.3595333382793935e-05,0.258882200657529,-1.896823012668557e-05
0.2596763178374601,-2.350091317047824e-06,0.2596763178374601,1.175188293024627e-05,0.2596763178374601,-1.1749198702941954e-05,0.2596763178374601,-2.383433157726957e-05
0.2604704350173911,-2.8530821421475557e-06,0.2604704350173911,1.7955486384286356e-05,0.2604704350173911,-1.1246257822318948e-05,0.2604704350173911,-2.3163677143803257e-05
0.2612645521973222,-2.182418658334878e-06,0.2612645521973222,2.0643985366660488e-05,0.2612645521973222,-1.3594474695827926e-05,0.2612645521973222,-2.1653451953054318e-05
0.2620586693772533,1.8446625767502864e-06,0.2620586693772533,2.534324303813278e-05,0.2620586693772533,-1.4266920428070375e-05,0.2620586693772533,-2.3665861325851277e-05
0.2628527865571843,1.175120485524463e-06,0.2628527865571843,2.8030078057902147e-05,0.2628527865571843,-1.6280858543426612e-05,0.2628527865571843,-2.7358407329615456e-05
0.2636469037371154,-2.1816330068282475e-06,0.2636469037371154,2.5009866296036856e-05,0.2636469037371154,-1.62814e-05,0.2636469037371154,-2.7695059300440347e-05
0.2644410209170465,-2.182009047513021e-06,0.2644410209170465,2.3330946940776533e-05,0.2644410209170465,-2.0309782312714048e-05,0.2644410209170465,-2.584881326414727e-05
0.2652351380969776,-1.0068372595428458e-06,0.2652351380969776,2.1316666452617774e-05,0.2652351380969776,-1.9638108065772216e-05,0.2652351380969776,-2.6352533547382224e-05
0.2660292552769086,5.037635860053165e-07,0.2660292552769086,1.9976471442205244e-05,0.2660292552769086,-1.796022338286121e-05,0.2660292552769086,-2.7694237645703435e-05
0.2668233724568397,1.1744100283553965e-06,0.2668233724568397,2.735357032138171e-05,0.2668233724568397,-1.8966205033060745e-05,0.2668233724568397,-2.501161991183801e-05
0.2676174896367708,-1.669858890047616e-07,0.2676174896367708,3.608198973257255e-05,0.2676174896367708,-1.6283126236131523e-05,0.2676174896367708,-2.50095e-05
0.2684116068167018,-5.033817641813565e-07,0.2684116068167018,3.139012730839371e-05,0.2684116068167018,-1.4939264945255346e-05,0.2684116068167018,-2.3331831181569184e-05
0.2692057239966329,-1.84587323033596e-06,0.2692057239966329,-4.519443896192023e-06,0.2692057239966329,-1.6616516534443837e-05,0.2692057239966329,-1.9639683589462437e-05
0.269999841176564,-5.873914205096764e-06,0.269999841176564,-1.3258354108375928e-05,0.269999841176564,-1.7623998550274043e-05,0.269999841176564,-1.4268274398538437e-05
0.270793958356495,-8.895851540170043e-06,0.270793958356495,3.188277274550497e-06,0.270793958356495,-1.76242e-05,0.270793958356495,-1.5274247179881855e-05
0.2715880755364261,-9.567346127006888e-06,0.2715880755364261,1.863062933357233e-05,0.2715880755364261,-1.695286387299311e-05,0.2715880755364261,-1.3595544508027555e-05
0.2723821927163572,-8.895847040601727e-06,0.2723821927163572,1.1577118635964784e-05,0.2723821927163572,-1.762362964210605e-05,0.2723821927163572,-1.0910362959398272e-05
0.2731763098962882,-8.224871716186117e-06,0.2731763098962882,-6.889409722620591e-06,0.2731763098962882,-1.5273907425720825e-05,0.2731763098962882,-1.1582123432372234e-05
0.2739704270762193,-8.89552614965238e-06,0.2739704270762193,-2.6338268426398053e-05,0.2739704270762193,-1.4267925775521431e-05,0.2739704270762193,-1.2923432299304757e-05
0.2747645442561504,-6.88297611423718e-06,0.2747645442561504,-5.9231916764440365e-05,0.2747645442561504,-1.6951258506697298e-05,0.2747645442561504,-1.3259907313337164e-05
0.2755586614360815,-4.197375143418029e-06,0.2755586614360815,-4.381528455653155e-05,0.2755586614360815,-1.896614113923845e-05,0.2755586614360815,-1.2924543143460257e-05
0.2763527786160125,-5.538655598969293e-06,0.2763527786160125,-4.878487593643782e-06,0.2763527786160125,-1.7960180800773032e-05,0.2763527786160125,-1.1246368001288383e-05
0.2771468957959436,-7.552955658982096e-06,0.2771468957959436,1.812468210747783e-05,0.2771468957959436,-1.79599e-05,0.2771468957959436,-1.4938115372394454e-05
0.2779410129758747,-2.853429027704938e-06,0.2779410129758747,1.829533940864598e-05,0.2779410129758747,-1.6449178055409878e-05,0.2779410129758747,-1.4938567083114814e-05
0.2787351301558057,-2.1825902918618705e-06,0.2787351301558057,2.346945939604498e-06,0.2787351301558057,-1.510615237612071e-05,0.2787351301558057,-1.2923959765199109e-05
0.2795292473357368,-5.539447760948511e-06,0.2795292473357368,-1.5612715435276325e-05,0.2795292473357368,-1.3594964471880696e-05,0.2795292473357368,-1.0238173357021662e-05
0.2803233645156679,-6.880746638985783e-06,0.2803233645156679,-2.4331123181384893e-05,0.2803233645156679,-1.091234673801546e-05,0.2803233645156679,-8.22622004551808e-06
0.2811174816955989,-6.2108582740237256e-06,0.2811174816955989,-2.7692908629881373e-05,0.2811174816955989,-1.2252123451952547e-05,0.2811174816955989,-4.198859631086824e-06
0.2819115988755301,-6.881480812381482e-06,0.2819115988755301,-2.5346387156664808e-05,0.2819115988755301,-1.1581939187618516e-05,0.2819115988755301,-8.409419300094733e-07
0.2827057160554611,-6.88182e-06,0.2827057160554611,-2.0311600723338897e-05,0.2827057160554611,-9.903700253033391e-06,0.2827057160554611,-7.550818997164368e-06
0.2834998332353922,-4.868053042324136e-06,0.2834998332353922,-1.9974170507404076e-05,0.2834998332353922,-1.292376543336333e-05,0.2834998332353922,-7.217590507404074e-06
0.2842939504153233,-5.538988071597059e-06,0.2842939504153233,-8.308145874885833e-05,0.2842939504153233,-1.4938474214791175e-05,0.2842939504153233,-8.560226143818611e-06
0.2850880675952543,-7.04954139534633e-06,0.2850880675952543,-0.0001458564845348,0.2850880675952543,-1.2253200053007767e-05,0.2850880675952543,-1.091037147400666e-05
0.2858821847751854,-5.538717511185238e-06,0.2858821847751854,-9.28041944070393e-05,0.2858821847751854,-1.4603134366611073e-05,0.2858821847751854,-1.2925024977629524e-05
0.2866763019551165,-4.196740019283605e-06,0.2866763019551165,-2.2324983809968548e-05,0.2866763019551165,-1.5607959922865583e-05,0.2866763019551165,-1.5610255009641802e-05
0.2874704191350475,-5.538048886216223e-06,0.2874704191350475,-2.5175315096677085e-05,0.2874704191350475,-1.024272445513511e-05,0.2874704191350475,-1.6280909443108112e-05
0.2882645363149786,-3.5260062649497e-06,0.2882645363149786,2.1289747971675684e-05,0.2882645363149786,-1.0909807911683432e-05,0.2882645363149786,-1.4939384176633132e-05
0.2890586534949096,-2.8537329975473616e-06,0.2890586534949096,9.178273497386416e-05,0.2890586534949096,-1.4936841988531564e-05,0.2890586534949096,-1.7623027992354376e-05
0.2898527706748408,-2.182233915506198e-06,0.2898527706748408,0.0001643030573275,0.2898527706748408,-1.5609806084493804e-05,0.2898527706748408,-1.8295406084493804e-05
0.2906468878547718,-3.524640343210428e-06,0.2906468878547718,0.000180435724045,0.2906468878547718,-1.493869482910099e-05,0.2906468878547718,-1.82956e-05
0.2914410050347029,-4.867627871347915e-06,0.2914410050347029,0.0001347825700141,0.2914410050347029,-1.426720851460834e-05,0.2914410050347029,-1.963839148539166e-05
0.292235122214634,-4.532110849952185e-06,0.292235122214634,6.696203071269581e-05,0.292235122214634,-1.5610413374837515e-05,0.292235122214634,-1.8295289968871865e-05
0.293029239394565,-5.706617283654363e-06,0.293029239394565,2.832312770169156e-06,0.293029239394565,-1.8295195649028977e-05,0.293029239394565,-1.6280591298057955e-05
0.2938233565744961,-4.868309230716822e-06,0.2938233565744961,-6.725071592682772e-05,0.2938233565744961,-1.695388678209636e-05,0.2938233565744961,-1.359797356419272e-05
0.2946174737544272,-4.19667498901457e-06,0.2946174737544272,-0.0001226612884062,0.2946174737544272,-1.4268979956058276e-05,0.2946174737544272,-1.493771002197086e-05
0.2954115909343582,-7.551490492104919e-06,0.2954115909343582,-0.0001240403080917,0.2954115909343582,-1.3763859452716855e-05,0.2954115909343582,-1.6280708194781183e-05
0.2962057081142893,-6.210913632408496e-06,0.2962057081142893,-0.0001089395535484,0.2962057081142893,-1.0911248950487338e-05,0.2962057081142893,-1.5106831946738145e-05
0.2969998252942204,-5.539177727598668e-06,0.2969998252942204,-8.577609661205551e-05,0.2969998252942204,-1.510547669975792e-05,0.2969998252942204,-1.3260506245945607e-05
0.2977939424741515,-5.2033543216969165e-06,0.2977939424741515,-6.025974844172054e-05,0.2977939424741515,-1.7624017583650596e-05,0.2977939424741515,-9.90334321696916e-06
0.2985880596540825,-5.538979556988671e-06,0.2985880596540825,-6.462298363120781e-05,0.2985880596540825,-1.3595900886022658e-05,0.2985880596540825,-8.224509114728653e-06
0.2993821768340136,-4.867854291897747e-06,0.2993821768340136,-7.773049852823733e-05,0.2993821768340136,-1.4939123352958043e-05,0.2993821768340136,-6.88182e-06
0.3001762940139447,-5.8755890571427536e-06,0.3001762940139447,-0.0001509610551156,0.3001762940139447,-1.7287382636061517e-05,0.3001762940139447,-6.880081885714493e-06
0.3009704111938757,-8.22286958537949e-06,0.3009704111938757,-0.0003266717175722,0.3009704111938757,-1.4269437685463127e-05,0.3009704111938757,-2.1855208292410204e-06
0.3017645283738068,-5.540625201350078e-06,0.3017645283738068,-0.0002338692337234,0.3017645283738068,-1.2925197606614917e-05,0.3017645283738068,8.374513934322674e-07
0.3025586455537379,-4.1968294338045e-06,0.3025586455537379,3.3953813491689354e-05,0.3025586455537379,-1.1917749575353376e-05,0.3025586455537379,-1.1740408555429326e-06
0.3033527627336689,-5.0352292118786974e-06,0.3033527627336689,0.0002505342969336,0.3033527627336689,-1.1078350773180098e-05,0.3033527627336689,-4.195327165751552e-06
0.3041468799136,-6.5458915273056905e-06,0.3041468799136,0.0003183997441072,0.3041468799136,-1.174929847103235e-05,0.3041468799136,-9.566597650289797e-06
0.3049409970935311,-5.203334915336742e-06,0.3049409970935311,0.0002428782764879,0.3049409970935311,-1.4938588325805274e-05,0.3049409970935311,-1.6617074194326535e-05
0.3057351142734621,-6.546651455073514e-06,0.3057351142734621,0.0001008628440136,0.3057351142734621,-1.6952606742562933e-05,0.3057351142734621,-1.9638158428203666e-05
0.3065292314533932,-1.0237822661116978e-05,0.3065292314533932,2.5071847237597327e-06,0.3065292314533932,-1.5610097734470576e-05,0.3065292314533932,-1.7959411327647126e-05
0.3073233486333243,-6.884570471575889e-06,0.3073233486333243,-3.370799486109796e-05,0.3073233486333243,-1.5945424951203753e-05,0.3073233486333243,-1.6282775243981235e-05
0.3081174658132554,-7.552768295994539e-06,0.3081174658132554,-4.04471829599454e-05,0.3081174658132554,-1.561022585200273e-05,0.3081174658132554,-1.862971903598089e-05
0.3089115829931864,-7.55322e-06,0.3089115829931864,-4.917521602371586e-05,0.3089115829931864,-1.8965236911998505e-05,0.3089115829931864,-2.165101322079865e-05
0.3097057001731175,-5.03643073820526e-06,0.3097057001731175,-6.595836175788546e-05,0.3097057001731175,-1.4940121187170268e-05,0.3097057001731175,-1.997473382798761e-05
0.3104998173530486,-6.881395279128159e-06,0.3104998173530486,-8.20745933250428e-05,0.3104998173530486,-1.242137917946376e-05,0.3104998173530486,-1.8967231667184825e-05
0.3112939345329796,-7.553164641615277e-06,0.3112939345329796,-6.932275180930974e-05,0.3112939345329796,-1.3595703118704126e-05,0.3112939345329796,-1.7624310716769445e-05
0.3120880517129107,-4.1959239052891285e-06,0.3120880517129107,-4.817232831833845e-05,0.3120880517129107,-1.6952690679948672e-05,0.3120880517129107,-1.4938479744687056e-05
0.3128821688928418,5.033337792123064e-07,0.3128821688928418,-4.246582859278716e-05,0.3128821688928418,-1.527394296393577e-05,0.3128821688928418,-1.3091735863752068e-05
0.3136762860727728,-5.049371737030843e-07,0.3136762860727728,-4.212911281551114e-05,0.3136762860727728,-1.3595075210340762e-05,0.3136762860727728,-1.09102e-05
0.314470403252704,-4.36118218612301e-06,0.314470403252704,-3.911116786491254e-05,0.314470403252704,-1.1583111909941696e-05,0.314470403252704,-1.09102e-05
0.315264520432635,-1.1241743455562082e-05,0.315264520432635,-3.508293310978981e-05,0.315264520432635,-1.3594583445105094e-05,0.315264520432635,-1.09102e-05
0.3160586376125661,-1.2923633920267265e-05,0.3160586376125661,-2.36719093421826e-05,0.3160586376125661,-1.242133627863328e-05,0.3160586376125661,-1.1916840352160358e-05
0.3168527547924971,-1.1582014690975863e-05,0.3168527547924971,-1.24242730214816e-05,0.3168527547924971,-1.292424447544277e-05,0.3168527547924971,-1.09105110182319e-05
0.3176468719724282,-1.0910308259082725e-05,0.3176468719724282,-7.88964073913377e-06,0.3176468719724282,-1.2253108259082725e-05,0.3176468719724282,-9.064157710865057e-06
0.3184409891523593,-8.896037517895933e-06,0.3184409891523593,-6.881833758879656e-06,0.3184409891523593,-1.2924390827322484e-05,0.3184409891523593,-1.2420754137432131e-05
0.3192351063322903,-7.049467695452e-06,0.3192351063322903,-1.6744438969872254e-07,0.3192351063322903,-1.1581689913727643e-05,0.3192351063322903,-1.1581982126646495e-05
0.3200292235122214,-5.539218759585361e-06,0.3200292235122214,2.8530624752063302e-06,0.3200292235122214,-1.225375504958734e-05,0.3200292235122214,-1.4436368541434426e-05
0.3208233406921525,-6.2098632041563246e-06,0.3208233406921525,1.511753608273712e-06,0.3208233406921525,-1.4936372783452576e-05,0.3208233406921525,-1.929866312854189e-05
0.3216174578720835,-8.429133342185102e-07,0.3216174578720835,3.0202585572582096e-06,0.3216174578720835,-1.2925775256989052e-05,0.3216174578720835,-1.762534604749088e-05
0.3224115750520147,-3.5233926781987977e-06,0.3224115750520147,-9.728432707529115e-06,0.3224115750520147,-1.1582318665182192e-05,0.3224115750520147,-1.8295240667408904e-05
0.3232056922319457,-3.52483e-06,0.3232056922319457,-2.1647980634075812e-05,0.3232056922319457,-1.2923879507628129e-05,0.3232056922319457,-2.165129876907032e-05
0.3239998094118768,-5.042732146928488e-07,0.3239998094118768,-9.23469145354398e-06,0.3239998094118768,-1.0910683479342324e-05,0.3239998094118768,-2.198821942010961e-05
0.3247939265918079,1.1747848176705264e-06,0.3247939265918079,-1.0238706890861184e-05,0.3247939265918079,-1.0238862073375566e-05,0.3247939265918079,-2.1652631036687783e-05
0.3255880437717389,2.349880746742589e-06,0.3255880437717389,-6.462138928501093e-05,0.3255880437717389,-1.3931648052118564e-05,0.3255880437717389,-2.165268327656029e-05
0.32638216095167,2.18204e-06,0.32638216095167,-5.353151500819182e-05,0.32638216095167,-1.6617304149152204e-05,0.32638216095167,-2.3163234014723203e-05
0.3271762781316011,2.181922554995618e-06,0.3271762781316011,7.565962723500774e-06,0.3271762781316011,-1.7624082554995618e-05,0.3271762781316011,-2.332947324992814e-05
0.3279703953115321,1.8465953382624636e-06,0.3279703953115321,4.394879592782718e-05,0.3279703953115321,-1.728875533826246e-05,0.3279703953115321,-1.897031932135058e-05
0.3287645124914632,-3.1860482626112177e-06,0.3287645124914632,6.427382997370286e-05,0.3287645124914632,-1.628201834993372e-05,0.3287645124914632,-1.4437782605401264e-05
0.3295586296713942,-7.886717985804371e-06,0.3295586296713942,5.723988804228184e-05,0.3295586296713942,-2.030792111869609e-05,0.3295586296713942,-1.2589561130610518e-05
0.3303527468513254,-8.224502969760611e-06,0.3303527468513254,2.770451862918349e-05,0.3303527468513254,-1.9974207030239383e-05,0.3303527468513254,-1.292429296976061e-05
0.3311468640312564,-4.868204866943177e-06,0.3311468640312564,3.927471670579239e-05,0.3311468640312564,-1.7288959896294464e-05,0.3311468640312564,-1.6280825129631918e-05
0.3319409812111875,-5.539014112331592e-06,0.3319409812111875,5.740397103531932e-05,0.3319409812111875,-1.561003971917102e-05,0.3319409812111875,-1.863124439316057e-05
0.3327350983911186,-3.524788401870783e-06,0.3327350983911186,-1.2928102331395736e-05,0.3327350983911186,-1.5106462405248514e-05,0.3327350983911186,-1.89667504037896e-05
0.3335292155710496,-3.189048972073763e-06,0.3335292155710496,-4.278858305264511e-05,0.3335292155710496,-1.5610364111704947e-05,0.3335292155710496,-1.6952344860368818e-05
0.3343233327509807,-2.8537217553406086e-06,0.3343233327509807,5.163039128975116e-06,0.3343233327509807,-1.6951672978637567e-05,0.3343233327509807,-1.5275708776703045e-05
0.3351174499309118,-3.188907433006402e-06,0.3351174499309118,3.47243341946251e-05,0.3351174499309118,-1.3598125669935976e-05,0.3351174499309118,-1.3932430267974392e-05
0.3359115671108428,-4.195680934079023e-06,0.3359115671108428,4.615227724562626e-05,0.3359115671108428,-1.460235092862702e-05,0.3359115671108428,-1.024081326170093e-05
0.3367056842907739,-5.20292955823476e-06,0.3367056842907739,2.2668943601427064e-05,0.3367056842907739,-1.443506676017514e-05,0.3367056842907739,-1.0574366519411586e-05
0.337499801470705,-5.53894606261419e-06,0.337499801470705,-8.138087953541752e-05,0.337499801470705,-1.5274090144033632e-05,0.337499801470705,-1.3595044563527714e-05
0.338293918650636,-2.853715152441093e-06,0.338293918650636,-0.0002693787393496,0.338293918650636,-1.7791742048748714e-05,0.338293918650636,-1.2588803182549616e-05
0.3390880358305671,-2.853621787329965e-06,0.3390880358305671,-0.0001918420168278,0.3390880358305671,-1.4267328764408352e-05,0.3390880358305671,-1.0238784850980624e-05
0.3398821530104982,-6.881852346110989e-06,0.3398821530104982,2.939669502689221e-05,0.3398821530104982,-1.712069704796839e-05,0.3398821530104982,-9.903552845553851e-06
0.3406762701904293,-7.048928407139161e-06,0.3406762701904293,0.0001492251877451,0.3406762701904293,-1.7623287266142203e-05,0.3406762701904293,-1.2253456366928898e-05
0.3414703873703603,-4.869311487269155e-06,0.3414703873703603,0.0001703507025103,0.3414703873703603,-1.4940669532277152e-05,0.3414703873703603,-1.3594765233861424e-05
0.3422645045502914,-6.880563161399951e-06,0.3422645045502914,0.000118030677841,0.3422645045502914,-1.225467579311996e-05,0.3422645045502914,-1.2589328422419986e-05
0.3430586217302225,-6.88182e-06,0.3430586217302225,-2.2424869212358707e-05,0.3430586217302225,-1.1246379792812244e-05,0.3430586217302225,-1.3595320207187755e-05
0.3438527389101535,-1.0237696129228228e-05,0.3438527389101535,-0.0001075630169558,0.3438527389101535,-1.2588258449060664e-05,0.3438527389101535,-1.4938158449060664e-05
0.3446468560900846,-1.0910078310935538e-05,0.3446468560900846,-0.0001391412805777,0.3446468560900846,-1.124614337812892e-05,0.3446468560900846,-1.49386e-05
0.3454409732700157,-8.560389108970735e-06,0.3454409732700157,-8.57727969013111e-05,0.3454409732700157,-7.5533443139525905e-06,0.3454409732700157,-1.4435016953677687e-05
0.3462350904499467,-9.567333516254092e-06,0.3462350904499467,-2.0972155836917245e-05,0.3462350904499467,-9.73585274789162e-06,0.3462350904499467,-1.3931461758127046e-05
0.3470292076298778,-8.894607210758125e-06,0.3470292076298778,5.842837717503302e-05,0.3470292076298778,-1.4937723253459208e-05,0.3470292076298778,-1.3595449301383682e-05
0.3478233248098089,-3.5293917208183423e-06,0.3478233248098089,0.000122978117229,0.3478233248098089,-1.1584451086127662e-05,0.3478233248098089,-1.2254140434451064e-05
0.34861744198974,-2.8539118419502024e-06,0.34861744198974,0.0001146468977608,0.34861744198974,-1.15816e-05,0.34861744198974,-7.556522928790602e-06
0.349411559169671,-5.048526645634593e-07,0.349411559169671,6.934686136262892e-05,0.349411559169671,-1.527224980584917e-05,0.349411559169671,-4.533607426025934e-06
0.3502056763496021,1.8453821383045945e-06,0.3502056763496021,-2.832668032141399e-05,0.3502056763496021,-1.5609863161916165e-05,0.3502056763496021,-3.18968734825914e-06
0.3509997935295332,1.84634e-06,0.3509997935295332,-0.0001136118271781,0.3509997935295332,-1.2253872948812314e-05,0.3509997935295332,-4.195968117956689e-06
0.3517939107094642,-1.5102624854626216e-06,0.3517939107094642,-0.0001378012819241,0.3517939107094642,-1.2420781129783504e-05,0.3517939107094642,1.6778293489973046e-06
0.3525880278893953,-2.1820753745718583e-06,0.3525880278893953,-0.0001428397582684,0.3525880278893953,-1.2924411791523952e-05,0.3525880278893953,1.1747454409085335e-06
0.3533821450693264,-3.190213352233534e-06,0.3533821450693264,-0.0001359598400417,0.3533821450693264,-1.3260805340220055e-05,0.3533821450693264,-4.365398691139761e-06
0.3541762622492574,-9.063417049458556e-06,0.3541762622492574,-0.0001460167633506,0.3541762622492574,-1.7121209078023904e-05,0.3541762622492574,-1.1583150338440614e-05
0.3549703794291886,-7.722118171421189e-06,0.3549703794291886,-0.0001089629560682,0.3549703794291886,-1.896555871453311e-05,0.3549703794291886,-1.6277731372705105e-05
0.3557644966091196,-9.566239432345012e-06,0.3557644966091196,-8.61211723610119e-05,0.3557644966091196,-2.3999207588867745e-05,0.3557644966091196,-1.577811927915284e-05
0.3565586137890507,-1.4935987389938356e-05,0.3565586137890507,-0.0001008698155521,0.3565586137890507,-2.299578986529858e-05,0.3565586137890507,-1.728776517773154e-05
0.3573527309689818,-1.1750480596628713e-05,0.3573527309689818,-5.070750469168029e-05,0.3573527309689818,-2.064629618272863e-05,0.3573527309689818,-1.7959672509539534e-05
0.3581468481489128,-8.225284109815455e-06,0.3581468481489128,1.1066286865161622e-05,0.3581468481489128,-2.0309864202027653e-05,0.3581468481489128,-1.6952992606082957e-05
0.3589409653288439,-9.567351364699712e-06,0.3589409653288439,4.749970952839632e-05,0.3589409653288439,-1.7288631929425645e-05,0.3589409653288439,-1.4267317270600577e-05
0.3597350825087749,-8.392407673433738e-06,0.3597350825087749,5.958559300618478e-05,0.3597350825087749,-1.5609598824462885e-05,0.3597350825087749,-1.174903372027108e-05
0.360529199688706,-7.890006175453179e-06,0.360529199688706,5.085252402301546e-05,0.360529199688706,-1.1749231382354232e-05,0.360529199688706,-8.224188395602198e-06
0.3613233168686371,-1.224925000408884e-05,0.3613233168686371,2.788275951022456e-05,0.3613233168686371,-1.1078676837841371e-05,0.3613233168686371,-6.54756230083177e-06
0.3621174340485681,-1.3930303590077674e-05,0.3621174340485681,7.232235792149645e-06,0.3621174340485681,-1.2587623266709166e-05,0.3621174340485681,-9.565256469267663e-06
0.3629115512284993,-1.1582928171473028e-05,0.3629115512284993,3.862427382166579e-06,0.3629115512284993,-1.1078953796258206e-05,0.3629115512284993,-1.4600053923924116e-05
0.3637056684084303,-9.568251169299328e-06,0.3637056684084303,4.531649608841485e-06,0.3637056684084303,-1.3259188749615909e-05,0.3637056684084303,-1.5609579413262228e-05
0.3644997855883614,-4.868899127872681e-06,0.3644997855883614,-4.361677722819653e-06,0.3644997855883614,-1.3595709347623323e-05,0.3644997855883614,-1.6952437390493293e-05
0.3652939027682925,1.1742000385404255e-06,0.3652939027682925,-1.393032839221266e-05,0.3652939027682925,-1.2924482218348143e-05,0.3652939027682925,-1.6617141109174073e-05
0.3660880199482235,1.191736325395762e-05,0.3660880199482235,-5.085910966422433e-05,0.3660880199482235,-1.3931516868057016e-05,0.3660880199482235,-2.0981183131942988e-05
0.3668821371281546,1.4434101363280106e-05,0.3668821371281546,-8.307794995170803e-05,0.3668821371281546,-1.4602957977231111e-05,0.3668821371281546,-2.0308292591991108e-05
0.3676762543080857,9.23063615131998e-06,0.3676762543080857,-3.992689153735194e-05,0.3676762543080857,-1.493924431112732e-05,0.3676762543080857,-1.1581385229624226e-05
0.3684703714880167,5.877373972883779e-06,0.3684703714880167,2.6299884156109004e-05,0.3684703714880167,-1.6951207611526248e-05,0.3684703714880167,-1.0910730796157916e-05
0.3692644886679478,1.848934256690732e-06,0.3692644886679478,1.4945950366050622e-05,0.3692644886679478,-1.7791459559372534e-05,0.3692644886679478,-1.09102e-05
0.3700586058478789,-5.023814844589839e-07,0.3700586058478789,-6.927987207056649e-05,0.3700586058478789,-1.42689497574263e-05,0.3700586058478789,-1.2252333416286873e-05
0.3708527230278099,-1.0235404037699242e-05,0.3708527230278099,-2.2340294311828665e-05,0.3708527230278099,-1.1918119719079748e-05,0.3708527230278099,-1.4937663178194571e-05
0.371646840207741,-1.4937654166676631e-05,0.371646840207741,4.681598281874172e-05,0.371646840207741,-1.0910402678569292e-05,0.371646840207741,-1.5274232440476903e-05
0.3724409573876721,-1.5274281983679482e-05,0.3724409573876721,7.838390647123817e-05,0.3724409573876721,-1.4267019836794826e-05,0.3724409573876721,-1.6952709918397414e-05
0.3732350745676032,-1.5105911338022988e-05,0.3732350745676032,8.711329556988625e-05,0.3732350745676032,-1.49386e-05,0.3732350745676032,-2.098101083870734e-05
0.3740291917475342,-9.90188548558964e-06,0.3740291917475342,8.173936127561036e-05,0.3740291917475342,-1.4939571617316893e-05,0.3740291917475342,-1.8967323872438965e-05
0.3748233089274653,-4.872007201278357e-06,0.3748233089274653,6.832627260628418e-05,0.3748233089274653,-1.8963498218114748e-05,0.3748233089274653,-2.030863273937158e-05
0.3756174261073964,-4.1967152789597744e-06,0.3756174261073964,5.355457606483637e-05,0.3756174261073964,-1.8296085278959776e-05,0.3756174261073964,-2.03098e-05
0.3764115432873274,-6.8802752355335936e-06,0.3764115432873274,3.6768654756344857e-05,0.3764115432873274,-1.9973134518613466e-05,0.3764115432873274,-2.1651827614890773e-05
0.3772056604672585,-9.566261579678609e-06,0.3772056604672585,2.098794695174873e-05,0.3772056604672585,-2.098076934077589e-05,0.3772056604672585,-2.2323612936612902e-05
0.3779997776471896,-1.0238611983056214e-05,0.3779997776471896,2.858516521891693e-06,0.3779997776471896,-1.8296352078976795e-05,0.3779997776471896,-1.930354606084476e-05
0.3787938948271206,-8.224876798692517e-06,0.3787938948271206,-8.894453673189825e-06,0.3787938948271206,-1.7288633400008554e-05,0.3787938948271206,-1.728876680001711e-05
0.3795880120070517,-5.203335076533086e-06,0.3795880120070517,-4.81728192977714e-05,0.3795880120070517,-1.3931464464268405e-05,0.3795880120070517,-1.8295589846933832e-05
0.3803821291869828,-5.5390573082408045e-06,0.3803821291869828,-5.605534608093959e-05,0.3803821291869828,-1.158154538026431e-05,0.3803821291869828,-1.7624418478942755e-05
0.3811762463669139,-5.705673639167294e-06,0.3811762463669139,-1.761462909474462e-05,0.3811762463669139,-1.1244755655125147e-05,0.3811762463669139,-1.8968872543493155e-05
0.3819703635468449,-1.8494306245267068e-06,0.3819703635468449,1.323537495575214e-05,0.3819703635468449,-7.556176248851137e-06,0.3819703635468449,-2.5004662555736484e-05
0.382764480726776,5.020111814638014e-07,0.382764480726776,2.76856595604684e-05,0.382764480726776,4.98278901896495e-07,0.382764480726776,-2.8699784987110613e-05
0.3835585979067071,1.1745999972039097e-06,0.3835585979067071,-3.0351289559623588e-05,0.3835585979067071,2.5167199835090924e-06,0.3835585979067071,-2.87022e-05
0.3843527150866381,1.8460990795577525e-06,0.3843527150866381,-0.0002313918446863,0.3843527150866381,-1.6769842544126118e-06,0.3843527150866381,-2.5681984141990117e-05
0.3851468322665692,-1.674235002126436e-07,0.3851468322665692,-0.0002650269082981,0.3851468322665692,-3.0210063319259203e-06,0.3851468322665692,-2.131782190011564e-05
0.3859409494465003,-3.5246162630505597e-06,0.3859409494465003,-5.825686621330176e-05,0.3859409494465003,-1.090969771787275e-05,0.3859409494465003,-1.896714961671141e-05
0.3867350666264313,-5.539424368895932e-06,0.3867350666264313,0.0001131345211991,0.3867350666264313,-1.930289718570665e-05,0.3867350666264313,-1.2923892952718286e-05
0.3875291838063624,-1.023887761483756e-05,0.3875291838063624,0.0001670180719893,0.3875291838063624,-2.1652988051067503e-05,0.3875291838063624,-6.881742385162439e-06
0.3883233009862935,-1.057420483157074e-05,0.3883233009862935,0.0002018923023075,0.3883233009862935,-2.3329524245779945e-05,0.3883233009862935,-6.5464151684292616e-06
0.3891174181662246,-8.561785974524117e-06,0.3891174181662246,0.0002025935082991,0.3891174181662246,-2.702099403327134e-05,0.3891174181662246,-6.881574003024667e-06
0.3899115353461556,-8.56031e-06,0.3899115353461556,0.0001401905402846,0.3899115353461556,-2.8365714184909085e-05,0.3899115353461556,-6.88182e-06
0.3907056525260867,-9.734745813004562e-06,0.3907056525260867,5.895065213915795e-05,0.3907056525260867,-3.004426544714937e-05,0.3907056525260867,-6.88182e-06
0.3914997697060178,-6.882647619723701e-06,0.3914997697060178,-2.162923191880214e-05,0.3914997697060178,-3.0380602632632453e-05,0.3914997697060178,-8.22422053343025e-06
0.3922938868859488,-8.895723056434966e-06,0.3922938868859488,-7.434969164884261e-05,0.3922938868859488,-2.903809129665976e-05,0.3922938868859488,-1.0909817408105084e-05
0.3930880040658799,-7.888904842938218e-06,0.3930880040658799,-9.6009855868468e-05,0.3930880040658799,-2.7359381090585707e-05,0.3930880040658799,-1.0238803438075326e-05
0.393882121245811,-6.8823326193483855e-06,0.393882121245811,-0.0001069207688572,0.393882121245811,-2.3665982343906843e-05,0.393882121245811,-1.09102e-05
0.394676238425742,-1.023849796706849e-05,0.394676238425742,-0.0001119581211279,0.394676238425742,-1.896599321356475e-05,0.394676238425742,-1.0910300678643524e-05
0.3954703556056732,-9.232526305764304e-06,0.3954703556056732,-0.0001223535645135,0.3954703556056732,-1.5612721046232974e-05,0.3954703556056732,-1.1245627895376702e-05
0.3962644727856042,-5.038266288241666e-06,0.3962644727856042,-0.0001290715419175,0.3962644727856042,-1.426809161648692e-05,0.3962644727856042,-6.884717740302531e-06
0.3970585899655353,-6.209813241947138e-06,0.3970585899655353,-0.0001411547591101,0.3970585899655353,-9.737600367244358e-06,0.3970585899655353,-4.533143521269886e-06
0.3978527071454664,-2.854678169788769e-06,0.3978527071454664,-0.0001606248184249,0.3978527071454664,-6.211720082335387e-06,0.3978527071454664,-3.525201453149637e-06
0.3986468243253974,-2.85344e-06,0.3986468243253974,-0.0001277402789908,0.3986468243253974,-2.854182740714366e-06,0.3986468243253974,3.019841653615712e-06
0.3994409415053285,-3.021277634344319e-06,0.3994409415053285,-7.066870428609602e-05,0.3994409415053285,-8.393943874261436e-07,0.3994409415053285,5.538844515901497e-06
0.4002350586852595,-3.692543535337405e-06,0.4002350586852595,-3.0378814305875777e-05,0.4002350586852595,-1.6807230635577236e-07,0.4002350586852595,-1.680971175078822e-07
0.4010291758651906,-1.8456716503356557e-06,0.4010291758651906,-4.866887386558111e-06,0.4010291758651906,-3.189399913266769e-06,0.4010291758651906,-3.524978523130806e-06
0.4018232930451217,1.1722533224720454e-06,0.4018232930451217,-1.5136252081219115e-06,0.4018232930451217,-4.363035182937465e-06,0.4018232930451217,-4.195632956597115e-06
0.4026174102250527,5.040467029991929e-07,0.4026174102250527,-4.194235171661857e-06,0.4026174102250527,-7.718576462720347e-06,0.4026174102250527,-9.060244375029848e-06
0.4034115274049838,-8.384467584986433e-07,0.4034115274049838,-1.2583704736152462e-05,0.4034115274049838,-7.553319905634075e-06,0.4034115274049838,-1.2586601987636497e-05
0.4042056445849149,-1.681495347882629e-07,0.4042056445849149,-5.542185615948199e-06,0.4042056445849149,-1.1244247060231246e-05,0.4042056445849149,-1.7957495710950872e-05
0.404999761764846,-8.390445511741527e-07,0.404999761764846,9.898466677305551e-06,0.404999761764846,-1.225269782541103e-05,0.404999761764846,-2.098029347623309e-05
0.4057938789447771,-1.6783620467638684e-06,0.4057938789447771,1.460218345675492e-05,0.4057938789447771,-1.3259946455018912e-05,0.4057938789447771,-1.9974253544981087e-05
0.4065879961247081,-5.203312796242093e-06,0.4065879961247081,-1.6777690810649578e-07,0.4065879961247081,-1.3595798361542218e-05,0.4065879961247081,-2.23238885312836e-05
0.4073821133046392,-6.210515809489597e-06,0.4073821133046392,2.5008206586160557e-05,0.4073821133046392,-1.1749567673741846e-05,0.4073821133046392,-2.5680852095255203e-05
0.4081762304845703,-6.882209298586387e-06,0.4081762304845703,1.5880881447612444e-05,0.4081762304845703,-1.2925665229828082e-05,0.4081762304845703,-2.5345394650742786e-05
0.4089703476645013,-8.22350817662366e-06,0.4089703476645013,-0.0002074465454519,0.4089703476645013,-1.728491904735909e-05,0.4089703476645013,-2.601604908420909e-05
0.4097644648444324,-5.540840079457416e-06,0.4097644648444324,-0.0002616405723514,0.4097644648444324,-2.1985132337359543e-05,0.4097644648444324,-2.5681126261617176e-05
0.4105585820243635,-6.2100665684350335e-06,0.4105585820243635,-9.70012494501979e-06,0.4105585820243635,-2.0646206873658288e-05,0.4105585820243635,-2.232566718414572e-05
0.4113526992042945,-4.532565872271597e-06,0.4113526992042945,0.0001874133483361,0.4113526992042945,-1.7625344576907922e-05,0.4113526992042945,-2.1317281487752384e-05
0.4121468163842256,-4.364118816004693e-06,0.4121468163842256,0.0002561221244043,0.4121468163842256,-1.5274843424065713e-05,0.4121468163842256,-1.8967543424065712e-05
0.4129409335641567,-4.531915955596609e-06,0.4129409335641567,0.0002375085588994,0.4129409335641567,-1.4938628088806784e-05,0.4129409335641567,-1.963834382238644e-05
0.4137350507440878,-4.196272908791594e-06,0.4137350507440878,0.0001576047544545,0.4137350507440878,-1.359592872637478e-05,0.4137350507440878,-1.71204176408312e-05
0.4145291679240188,-4.8682681704147065e-06,0.4145291679240188,7.551996837222143e-05,0.4145291679240188,-1.560985818341351e-05,0.4145291679240188,-1.4267058183413509e-05
0.4153232851039499,-7.886193143222197e-06,0.4153232851039499,1.7676273208139947e-05,0.4153232851039499,-1.4939203749947246e-05,0.4153232851039499,-1.3596403749947246e-05
0.416117402283881,-8.224357288033822e-06,0.416117402283881,-1.625587616669524e-05,0.416117402283881,-1.5609494576067647e-05,0.416117402283881,-1.2924905423932352e-05
0.416911519463812,-9.063352078091007e-06,0.416911519463812,-3.657880838058381e-05,0.416911519463812,-1.561e-05,0.416911519463812,-1.4937380987418422e-05
0.4177056366437431,-9.567179561658475e-06,0.4177056366437431,-5.789824479975686e-05,0.4177056366437431,-1.4938907251122032e-05,0.4177056366437431,-1.896515649326781e-05
0.4184997538236742,-8.225026329433554e-06,0.4184997538236742,-7.619792752697011e-05,0.4184997538236742,-1.5777539809606315e-05,0.4184997538236742,-2.098057550584967e-05
0.4192938710036052,-8.895900921688384e-06,0.4192938710036052,-8.677638202471523e-05,0.4192938710036052,-1.493873633976632e-05,0.4192938710036052,-1.6282163548181316e-05
0.4200879881835363,-7.049697477593931e-06,0.4200879881835363,-7.872141990287746e-05,0.4200879881835363,-1.2253039967625822e-05,0.4200879881835363,-8.224729902728645e-06
0.4208821053634674,-6.88182e-06,0.4208821053634674,-5.68972025915698e-05,0.4208821053634674,-9.5673654527506e-06,0.4208821053634674,-1.8458499829105969e-06
0.4216762225433985,-6.88182e-06,0.4216762225433985,-2.9044149130601035e-05,0.4216762225433985,-9.231897941399132e-06,0.4216762225433985,1.8465279441984204e-06
0.4224703397233295,-6.88182e-06,0.4224703397233295,-5.134335909887909e-05,0.4224703397233295,-9.902542385970095e-06,0.4224703397233295,2.517182377664729e-06
0.4232644569032606,-5.539948469610382e-06,0.4232644569032606,-5.27037815235496e-05,0.4232644569032606,-9.232169231385188e-06,0.4232644569032606,-2.178825346103651e-06
0.4240585740831917,-5.53903e-06,0.4240585740831917,6.849856649348342e-06,0.4240585740831917,-1.1915859398084054e-05,0.4240585740831917,-7.214818872078123e-06
0.4248526912631227,-1.0236972553761334e-05,0.4248526912631227,2.1982426035943148e-05,0.4248526912631227,-1.1581730532707411e-05,0.4248526912631227,-1.2251042017165546e-05
0.4256468084430538,-1.02388e-05,0.4256468084430538,1.1584110674649092e-05,0.4256468084430538,-1.0239123958019237e-05,0.4256468084430538,-1.5609190104951908e-05
0.4264409256229849,-7.553471568544356e-06,0.4264409256229849,-4.7831434032607615e-05,0.4264409256229849,-1.393115409067548e-05,0.4264409256229849,-2.0309359751768792e-05
0.4272350428029159,-7.553093322236455e-06,0.4272350428029159,-0.0001549201862406,0.4272350428029159,-1.7624127612398502e-05,0.4272350428029159,-2.29953e-05
0.428029159982847,-5.202316678507518e-06,0.428029159982847,-6.559039117416618e-05,0.428029159982847,-1.628156887749085e-05,0.428029159982847,-2.299489468999724e-05
0.4288232771627781,-1.724274064110049e-07,0.4288232771627781,0.0001265511051244,0.4288232771627781,-1.7119836974847068e-05,0.4288232771627781,-2.0983031278551623e-05
0.4296173943427092,4.528345043555931e-06,0.4296173943427092,0.0002655989878531,0.4296173943427092,-1.7791487861076752e-05,0.4296173943427092,-2.1148872003408816e-05
0.4304115115226402,1.1241769493275485e-05,0.4304115115226402,0.0002735891466021,0.4304115115226402,-1.896627712733281e-05,0.4304115115226402,-2.265867066259485e-05
0.4312056287025713,1.3930244135548685e-05,0.4312056287025713,0.0001744413883295,0.4312056287025713,-1.8128092481022487e-05,0.4312056287025713,-2.1653070902406343e-05
0.4319997458825024,1.5777209096806274e-05,0.4319997458825024,4.653513429626831e-05,0.4319997458825024,-1.6617583463339892e-05,0.4319997458825024,-2.16526e-05
0.4327938630624334,1.0911039492819906e-05,0.4327938630624334,-3.238129435594154e-05,0.4327938630624334,-1.8966594723441224e-05,0.4327938630624334,-2.098131579330251e-05
0.4335879802423645,1.8465655421175656e-06,0.4335879802423645,-6.764232289287097e-05,0.4335879802423645,-2.0309766586205496e-05,0.4335879802423645,-1.9638433413794502e-05
0.4343820974222956,-7.721749628486278e-06,0.4343820974222956,-9.349669565649038e-05,0.4343820974222956,-2.1652435240984182e-05,0.4343820974222956,-1.9638441189753958e-05
0.4351762146022266,-1.3260915569443264e-05,0.4351762146022266,-0.000131766712071,0.4351762146022266,-2.031007185648109e-05,0.4351762146022266,-1.997382814351891e-05
0.4359703317821577,-1.6278860520041866e-05,0.4359703317821577,-0.0001492033277853,0.4359703317821577,-2.131605350668062e-05,0.4359703317821577,-1.896784649331938e-05
0.4367644489620888,-1.6952334046783917e-05,0.4367644489620888,-0.000154585272513,0.4367644489620888,-2.1820050569788053e-05,0.4367644489620888,-1.2928593578944778e-05
0.4375585661420199,-1.4939700600432636e-05,0.4375585661420199,-0.0001680096626637,0.4375585661420199,-2.2323624877212877e-05,0.4375585661420199,-8.898211195401066e-06
0.438352683321951,-9.569552239256978e-06,0.438352683321951,-0.000178419849284,0.438352683321951,-2.031060330133313e-05,0.438352683321951,-9.567142219594329e-06
0.439146800501882,-9.903015655512316e-06,0.439146800501882,-0.0001532523261506,0.439146800501882,-1.7960490429001786e-05,0.439146800501882,-1.848279973468154e-06
0.4399409176818131,-1.0910095588606977e-05,0.4399409176818131,-0.0001290785058319,0.4399409176818131,-1.1246596075953493e-05,0.4399409176818131,9.901881873301908e-06
0.4407350348617442,-1.4603283220138123e-05,0.4407350348617442,-0.0001025546587141,0.4407350348617442,-6.210361042819254e-06,0.4407350348617442,1.4602922106912106e-05
0.4415291520416752,-2.33306790103802e-05,0.4415291520416752,-7.200171448609453e-05,0.4415291520416752,-4.868272013664126e-06,0.4415291520416752,1.5104891272287994e-05
0.4423232692216063,-2.165414281566788e-05,0.4423232692216063,-4.2828446408217e-05,0.4423232692216063,-8.221524203204981e-06,0.4423232692216063,7.224771601326277e-06
0.4431173864015373,-1.8969075415656543e-05,0.4431173864015373,-1.5631013506243097e-05,0.4431173864015373,-8.895491146085863e-06,0.4431173864015373,-8.330197793053674e-07
0.4439115035814684,-1.6618569186281084e-05,0.4439115035814684,8.545198425949385e-06,0.4439115035814684,-9.56699023249112e-06,0.4439115035814684,-6.878042108675588e-06
0.4447056207613995,-1.292616374607046e-05,0.4447056207613995,2.567272268439449e-05,0.4447056207613995,-1.2251717280361424e-05,0.4447056207613995,-1.241815441432844e-05
0.4454997379413306,-9.56851797019231e-06,0.4454997379413306,4.548056298939737e-05,0.4454997379413306,-1.426653521590432e-05,0.4454997379413306,-1.695130421928229e-05
0.4462938551212617,-3.5259325709908267e-06,0.4462938551212617,5.421370739218643e-05,0.4462938551212617,-1.3931561254146676e-05,0.4462938551212617,-2.030918745853324e-05
0.4470879723011927,1.174776047829548e-06,0.4470879723011927,2.467483055958981e-05,0.4470879723011927,-1.4938564867167784e-05,0.4470879723011927,-2.1652553156223712e-05
0.4478820894811238,5.874455175317407e-06,0.4478820894811238,-6.2089067164214575e-06,0.4478820894811238,-1.4938373006448948e-05,0.4478820894811238,-2.333156748387763e-05
0.4486762066610549,3.5233464933657063e-06,0.4486762066610549,7.1997178995923925e-06,0.4486762066610549,-1.2924094557560395e-05,0.4486762066610549,-2.83665e-05
0.4494703238409859,-2.177186224411885e-06,0.4494703238409859,-6.120675462490146e-05,0.4494703238409859,-1.1750399354517631e-05,0.4494703238409859,-2.83665e-05
0.450264441020917,-9.562210670843364e-06,0.450264441020917,-7.132881004729573e-05,0.450264441020917,-1.124625446595504e-05,0.450264441020917,-3.0379281995379062e-05
0.4510585582008481,-1.6948690605745274e-05,0.4510585582008481,-3.73031818290428e-06,0.4510585582008481,-8.897317530741809e-06,0.4510585582008481,-3.1722752836396554e-05
0.4518526753807791,-1.728836275230172e-05,0.4518526753807791,0.000140095189676,0.4518526753807791,-1.1916064774803875e-05,0.4518526753807791,-2.9038997981586248e-05
0.4526467925607102,-1.6952887704495703e-05,0.4526467925607102,0.0002307693197861,0.4526467925607102,-1.5105566820353773e-05,0.4526467925607102,-2.97091245910086e-05
0.4534409097406413,-1.158221058068917e-05,0.4534409097406413,0.0001690310217006,0.4534409097406413,-1.6281266429790406e-05,0.4534409097406413,-2.635268161293073e-05
0.4542350269205724,1.1754180388431053e-06,0.4542350269205724,4.447718868191371e-05,0.4542350269205724,-2.098113170854296e-05,0.4542350269205724,-2.047753740119296e-05
0.4550291441005034,1.5275821193792317e-05,0.4550291441005034,-3.843363613079079e-05,0.4550291441005034,-1.896706084847673e-05,0.4550291441005034,-1.863056981827928e-05
0.4558232612804345,2.365890172316773e-05,0.4558232612804345,-1.71404078127122e-05,0.4558232612804345,-1.930238806520988e-05,0.4558232612804345,-1.4606643217481426e-05
0.4566173784603656,3.138175595759273e-05,0.4566173784603656,8.20006475465472e-05,0.4566173784603656,-1.896726278445249e-05,0.4566173784603656,-1.141619649143843e-05
0.4574114956402966,3.2058773517500225e-05,0.4574114956402966,0.0001220006246723,0.4574114956402966,-1.9302486758750117e-05,0.4574114956402966,-6.2137251949082735e-06
0.4582056128202277,2.5012937658993412e-05,0.4582056128202277,9.182823258044152e-05,0.4582056128202277,-1.829609109414192e-05,0.4582056128202277,-1.0096373051042788e-06
0.4589997300001588,1.561319630164663e-05,0.4589997300001588,3.6777721292516034e-05,0.4589997300001588,-1.913451462989075e-05,0.4589997300001588,-4.195145535776337e-06
0.4597938471800898,5.876593733771472e-06,0.4597938471800898,-1.761373295247383e-05,0.4597938471800898,-1.695321996605022e-05,0.4597938471800898,-6.8813031087879e-06
0.4605879643600209,1.1751509572555118e-06,0.4605879643600209,-5.790619179623524e-05,0.4605879643600209,-1.829553972624193e-05,0.4605879643600209,-7.217504931560482e-06
0.461382081539952,1.1745780170414952e-06,0.461382081539952,-7.821906174800716e-05,0.461382081539952,-2.0980855252369134e-05,0.461382081539952,-6.210178677685347e-06
0.4621761987198831,-2.3509388985346905e-06,0.4621761987198831,-9.147821956141356e-05,0.4621761987198831,-1.762294131575928e-05,0.4621761987198831,-3.860488043858643e-06
0.4629703158998141,-6.542509129908139e-06,0.4629703158998141,-9.315485564507924e-05,0.4629703158998141,-1.2593033064762313e-05,0.4629703158998141,-3.692824435492077e-06
0.4637644330797452,-8.223411549145617e-06,0.4637644330797452,-8.745357468578055e-05,0.4637644330797452,-8.898646600447706e-06,0.4637644330797452,-1.8476582966538269e-06
0.4645585502596763,-1.4263777334530712e-05,0.4645585502596763,-8.006828326471876e-05,0.4645585502596763,-8.224990296792614e-06,0.4645585502596763,-1.6879973688372228e-07
0.4653526674396073,-1.9300590922094106e-05,0.4653526674396073,-8.543305031690038e-05,0.4653526674396073,-1.1580193952251152e-05,0.4653526674396073,-4.865661535245824e-06
0.4661467846195384,-2.4336734097259515e-05,0.4661467846195384,-9.617468604341085e-05,0.4661467846195384,-1.19172089380089e-05,0.4661467846195384,-9.062721730536462e-06
0.4669409017994695,-2.299546607515408e-05,0.4669409017994695,-9.919852633090332e-05,0.4669409017994695,-1.4938226330903333e-05,0.4669409017994695,-8.224713796971296e-06
0.4677350189794005,-2.249187623073841e-05,0.4677350189794005,-0.0001122915296065,0.4677350189794005,-1.527421173144532e-05,0.4677350189794005,-6.210504256108614e-06
0.4685291361593316,-2.5680095084262663e-05,0.4685291361593316,-0.0001344383183097,0.4685291361593316,-1.1581714990409184e-05,0.4685291361593316,-9.735806202730936e-06
0.4693232533392627,-2.098561393895228e-05,0.4693232533392627,-8.380440802780577e-05,0.4693232533392627,-1.2252369423875446e-05,0.4693232533392627,-1.2921404772800334e-05
0.4701173705191938,-1.6955993703374946e-05,0.4701173705191938,-1.633489429369122e-05,0.4701173705191938,-1.393016929026044e-05,0.4701173705191938,-1.627873858052088e-05
0.4709114876991248,-1.3597965987453316e-05,0.4709114876991248,2.8673175897168607e-05,0.4709114876991248,-1.2589566394981329e-05,0.4709114876991248,-1.963623401254669e-05
0.4717056048790559,-8.898348772621854e-06,0.4717056048790559,5.269275555357664e-05,0.4717056048790559,-1.3930831777829089e-05,0.4717056048790559,-2.2322563605421523e-05
0.472499722058987,-8.224845024680247e-06,0.472499722058987,6.15975859404893e-05,0.472499722058987,-1.2589170049360495e-05,0.472499722058987,-2.5176401127606365e-05
0.473293839238918,-5.875195781938105e-06,0.473293839238918,5.488805938275087e-05,0.473293839238918,-1.4938124216037196e-05,0.473293839238918,-2.702332617986701e-05
0.4740879564188491,-5.203366851320999e-06,0.4740879564188491,4.145953703190877e-05,0.4740879564188491,-1.812752495636248e-05,0.4740879564188491,-2.064585008727504e-05
0.4748820735987802,-5.539092233608345e-06,0.4748820735987802,2.6351553194845986e-05,0.4748820735987802,-1.829553776546472e-05,0.4748820735987802,-1.594573111726764e-05
0.4756761907787112,-6.210661677031602e-06,0.4756761907787112,1.8294149937810392e-05,0.4756761907787112,-1.762343467740127e-05,0.4756761907787112,-1.6281722236042137e-05
0.4764703079586423,-7.216643327231135e-06,0.4764703079586423,1.2258260036613189e-05,0.4764703079586423,-1.4437776173959353e-05,0.4764703079586423,-1.7623031102974848e-05
0.4772644251385734,-6.882063049094332e-06,0.4772644251385734,2.357059919322545e-06,0.4772644251385734,-1.628006319378083e-05,0.4772644251385734,-1.8630570852717e-05
0.4780585423185045,-6.2108070117835055e-06,0.4780585423185045,-5.534482628836569e-06,0.4780585423185045,-1.8294438964649485e-05,0.4780585423185045,-1.9637819482324744e-05
0.4788526594984356,-4.197093771846318e-06,0.4788526594984356,-9.733460474962803e-06,0.4788526594984356,-1.628226377613475e-05,0.4788526594984356,-1.863173188806737e-05
0.4796467766783666,-2.518212094620108e-06,0.4796467766783666,-1.2252291856663527e-05,0.4796467766783666,-1.5274583258459633e-05,0.4796467766783666,-1.963811674154037e-05
0.4804408938582977,-1.1751195051358568e-06,0.4804408938582977,-9.064286323360864e-06,0.4804408938582977,-1.5609955123716038e-05,0.4804408938582977,-2.131667561858018e-05
0.4812350110382288,-2.5177540006168986e-06,0.4812350110382288,-1.544208599924408e-05,0.4812350110382288,-1.5442041664212105e-05,0.4812350110382288,-1.829560933383728e-05
0.4820291282181598,-3.524884141932412e-06,0.4820291282181598,-1.443854628850894e-05,0.4820291282181598,-1.1245683432270352e-05,0.4820291282181598,-1.8967216567729648e-05
0.4828232453980909,-3.860211358665566e-06,0.4828232453980909,-3.640242904005383e-05,0.4828232453980909,-9.904374565337734e-06,0.4828232453980909,-2.0308525434662264e-05
0.483617362578022,-2.8542484903020173e-06,0.483617362578022,-4.79956023093449e-05,0.483617362578022,-1.0238530500556664e-05,0.483617362578022,-1.762635599554667e-05
0.484411479757953,-4.195350181589152e-06,0.484411479757953,5.168467079988221e-06,0.484411479757953,-1.5271000656388697e-05,0.484411479757953,-1.6617759868722263e-05
0.4852055969378841,-8.390329847175533e-06,0.4852055969378841,5.620359733495371e-05,0.4852055969378841,-1.4435426057977178e-05,0.4852055969378841,-1.6281570413038173e-05
0.4859997141178152,-6.21120565033067e-06,0.4859997141178152,6.663245303509736e-05,0.4859997141178152,-1.3596102156586269e-05,0.4859997141178152,-1.3764506541769424e-05
0.4867938312977463,-5.539172651141218e-06,0.4867938312977463,4.4149178863161546e-05,0.4867938312977463,-1.4938314693468138e-05,0.4867938312977463,-1.4434857346734067e-05
0.4875879484776773,-8.224435733854712e-06,0.4875879484776773,-1.8291548294926305e-05,0.4875879484776773,-1.225317426744308e-05,0.4875879484776773,-1.3260176238761867e-05
0.4883820656576084,-5.538807922649171e-06,0.4883820656576084,-4.649292305874715e-05,0.4883820656576084,-9.231959837123048e-06,0.4883820656576084,-1.4099397163337376e-05
0.4891761828375395,-2.852088904178098e-06,0.4891761828375395,-3.104970664510876e-05,0.4891761828375395,-1.225408088033727e-05,0.4891761828375395,-1.527414558852325e-05
0.4899703000174705,3.016117410861416e-06,0.4899703000174705,-2.0654662815334423e-05,0.4899703000174705,-1.6948661914601435e-05,0.4899703000174705,-1.460349115505694e-05
0.4907644171974016,5.704898761961939e-06,0.4907644171974016,-2.1651860780230663e-05,0.4907644171974016,-1.6617346406589777e-05,0.4907644171974016,-1.493835359341022e-05
0.4915585343773327,4.532619015990845e-06,0.4915585343773327,-2.567853769799656e-05,0.4915585343773327,-1.6281596863387174e-05,0.4915585343773327,-1.3093282777950786e-05
0.4923526515572637,2.8541765965344053e-06,0.4923526515572637,-2.735866339907715e-05,0.4923526515572637,-1.4268083921107422e-05,0.4923526515572637,-1.091115755925747e-05
0.4931467687371948,1.6788322194369657e-06,0.4931467687371948,-1.7627035503351418e-05,0.4931467687371948,-1.661641556112607e-05,0.4931467687371948,-9.56780110501533e-06
0.4939408859171259,-1.5101817819694549e-06,0.4939408859171259,-1.326072703913202e-05,0.4939408859171259,-1.829535883110307e-05,0.4939408859171259,-6.882205868798277e-06
0.494735003097057,-1.8463530941931709e-06,0.494735003097057,-1.5945690834037474e-05,0.494735003097057,-1.8631297381153565e-05,0.494735003097057,-5.539035237653865e-06
0.495529120276988,-5.203482364467775e-06,0.495529120276988,-1.35956222321246e-05,0.495529120276988,-1.7959290536077227e-05,0.495529120276988,-6.882023153128005e-06
0.4963232374569191,-6.209454025771965e-06,0.4963232374569191,-1.2421927029081752e-05,0.4963232374569191,-1.3935363935279094e-05,0.4963232374569191,-8.223322031165373e-06
0.4971173546368502,-4.868721419627119e-06,0.4971173546368502,-5.544623502220987e-06,0.4971173546368502,-1.359607285693878e-05,0.4971173546368502,-8.89546428612244e-06
0.4979114718167812,-6.880480124234986e-06,0.4979114718167812,4.995283673832139e-07,0.4979114718167812,-1.42667533725276e-05,0.4979114718167812,-9.734701715659502e-06
0.4987055889967123,-8.223914923041983e-06,0.4987055889967123,-1.3924027893972496e-05,0.4987055889967123,-1.628035737679843e-05,0.4987055889967123,-1.22516967261744e-05
0.4994997061766434,-8.895761545338016e-06,0.4994997061766434,-3.859616934668032e-05,0.4994997061766434,-1.4435683268823183e-05,0.4994997061766434,-1.661548504469711e-05
0.5002938233565745,-1.3594754424426976e-05,0.5002938233565745,-5.8071468342799445e-05,0.5002938233565745,-1.4602862646812153e-05,0.5002938233565745,-1.6281474684128412e-05
0.5010879405365055,-1.35958e-05,0.5010879405365055,-2.031262833543053e-05,0.5010879405365055,-1.258885084555484e-05,0.5010879405365055,-1.762409943629677e-05
0.5018820577164366,-1.1749046172075476e-05,0.5018820577164366,2.4675349540939084e-05,0.5018820577164366,-1.0238653587066408e-05,0.5018820577164366,-1.829567320683025e-05
0.5026761748963677,-6.8816722950675616e-06,0.5026761748963677,4.598911218297606e-05,0.5026761748963677,-8.22505311259736e-06,0.5026761748963677,-1.9302330737668907e-05
0.5034702920762988,-6.211017861601253e-06,0.5034702920762988,3.877962696768996e-05,0.5034702920762988,-1.0237006424100942e-05,0.5034702920762988,-1.762569465400313e-05
0.5042644092562298,-5.539529520730256e-06,0.5042644092562298,2.1833013049100943e-05,0.5042644092562298,-1.0574250235914823e-05,0.5042644092562298,-2.164960283097788e-05
0.5050585264361609,-2.8550417610966795e-06,0.5050585264361609,-3.571756226773768e-05,0.5050585264361609,-1.090999977911738e-05,0.5050585264361609,-2.33299989552297e-05
0.505852643616092,-1.5112427107200644e-06,0.505852643616092,-0.0001753393185788,0.505852643616092,-1.2923495933919904e-05,0.505852643616092,-1.829786012031562e-05
0.506646760796023,-5.038514010221208e-07,0.506646760796023,-0.0001962097294816,0.506646760796023,-1.3595597731045176e-05,0.506646760796023,-1.9302396596567764e-05
0.507440877975954,-5.03548e-07,0.507440877975954,-2.6378405108235396e-05,0.507440877975954,-1.4434871029496996e-05,0.507440877975954,-2.165223886107601e-05
0.5082349951558852,-6.2103851829433504e-06,0.5082349951558852,0.0001190041131896,0.5082349951558852,-1.4938596927586648e-05,0.5082349951558852,-2.16526e-05
0.5090291123358163,-1.0910105129223803e-05,0.5090291123358163,0.0001522351578324,0.5090291123358163,-1.728904549989797e-05,0.5090291123358163,-1.5105807064713932e-05
0.5098232295157473,-1.023945069575759e-05,0.5098232295157473,0.0001250743524997,0.5098232295157473,-2.1145258547851983e-05,0.5098232295157473,-1.0914266800026812e-05
0.5106173466956784,-1.1580495142263098e-05,0.5106173466956784,6.400087102702897e-05,0.5106173466956784,-2.0981338066077043e-05,0.5106173466956784,-4.872601835132011e-06
0.5114114638756094,-1.0910653342463242e-05,0.5114114638756094,-4.821162579826948e-06,0.5114114638756094,-1.896836002738973e-05,0.5114114638756094,-3.861210013694864e-06
0.5122055810555405,-1.2252291487883742e-05,0.5122055810555405,-6.257733410035764e-05,0.5122055810555405,-1.9302522871970936e-05,0.5122055810555405,-4.196052871970936e-06
0.5129996982354716,-1.0910710339305652e-05,0.5129996982354716,-0.0001043861158601,0.5129996982354716,-1.2926824111701855e-05,0.5129996982354716,-1.6938001069589573e-07
0.5137938154154027,-8.560856289041924e-06,0.5137938154154027,-0.0001169880733809,0.5137938154154027,-1.0910668249742856e-05,0.5137938154154027,1.1746278360619792e-06
0.5145879325953338,-6.881962491257337e-06,0.5145879325953338,-9.584369540053892e-05,0.5145879325953338,-1.2924229009472485e-05,0.5145879325953338,-2.3495907682746986e-06
0.5153820497752648,-4.196251044781351e-06,0.5153820497752648,-6.361344791635569e-05,0.5153820497752648,-1.3931478955218648e-05,0.5153820497752648,-3.1895398489649974e-06
0.5161761669551959,-4.5314365077417975e-06,0.5161761669551959,-4.04517e-05,0.5161761669551959,-1.3596716489522495e-05,0.5161761669551959,-9.568678983392624e-06
0.5169702841351269,-2.1841559795050606e-06,0.5169702841351269,-4.04517e-05,0.5169702841351269,-1.795597030705351e-05,0.5169702841351269,-1.5604558895694063e-05
0.5177644013150581,-5.871935677693379e-06,0.5177644013150581,-6.192020029424129e-05,0.5177644013150581,-1.8966240635258133e-05,0.5177644013150581,-1.4268212486322487e-05
0.5185585184949891,-9.56517064390609e-06,0.5185585184949891,-6.763973922821664e-05,0.5185585184949891,-1.4941042940536224e-05,0.5185585184949891,-9.570260091227964e-06
0.5193526356749202,-1.0238491934237648e-05,0.5193526356749202,-0.0001186455869286,0.5193526356749202,-1.0576502457280393e-05,0.5193526356749202,-5.540878412928022e-06
0.5201467528548512,-1.1245586524081427e-05,0.5201467528548512,-0.0001263875967157,0.5201467528548512,-1.0238904491972855e-05,0.5201467528548512,-4.867838983945716e-06
0.5209408700347823,-1.2420607687488318e-05,0.5209408700347823,-1.0593457162053424e-05,0.5209408700347823,-1.0910090102459492e-05,0.5209408700347823,-4.196339897540508e-06
0.5217349872147133,-1.0238835135384605e-05,0.5217349872147133,5.13609026767942e-05,0.5217349872147133,-9.90311621670295e-06,0.5217349872147133,-8.89593432237495e-06
0.5225291043946444,-7.5524706066565e-06,0.5225291043946444,1.946501180940276e-05,0.5225291043946444,-1.292431183576826e-05,0.5225291043946444,-1.225361714962217e-05
0.5233232215745756,-1.8519278999827665e-06,0.5233232215745756,-2.228297695149719e-05,0.5233232215745756,-1.2253657402301856e-05,0.5233232215745756,-1.6948198183886993e-05
0.5241173387545066,2.51410558157095e-06,0.5241173387545066,1.8262109543155557e-06,0.5241173387545066,-1.3594681712281505e-05,0.5241173387545066,-1.7288220428070376e-05
0.5249114559344377,6.207889697706689e-06,0.5249114559344377,8.839725282139197e-05,0.5249114559344377,-1.4266739942545868e-05,0.5249114559344377,-1.8630379885091733e-05
0.5257055731143687,6.545939514475536e-06,0.5257055731143687,0.0001870989374708,0.5257055731143687,-1.292512194209785e-05,0.5257055731143687,-2.2321914712994844e-05
0.5264996902942998,6.3783354711609295e-06,0.5264996902942998,0.0002039304528839,0.5264996902942998,-1.5776687009767078e-05,0.5264996902942998,-2.433731434606885e-05
0.5272938074742308,2.518676085022457e-06,0.5272938074742308,0.0001639986864224,0.5272938074742308,-1.6616896490077958e-05,0.5272938074742308,-2.165325116870684e-05
0.528087924654162,1.1750674236666046e-06,0.528087924654162,4.616968140776577e-05,0.528087924654162,-1.2589082270999816e-05,0.528087924654162,-1.9974259279583256e-05
0.528882041834093,1.676898150059909e-07,0.528882041834093,-0.0001030577707626,0.528882041834093,-1.4267235374571903e-05,0.528882041834093,-2.5345253061857855e-05
0.5296761590140241,-2.854245747061937e-06,0.5296761590140241,-7.97095320759651e-05,0.5296761590140241,-1.4939002875531145e-05,0.5296761590140241,-2.63523e-05
0.5304702761939551,-6.8781523700691e-06,0.5304702761939551,1.4517016270237514e-05,0.5304702761939551,-1.6950966175930072e-05,0.5304702761939551,-2.63523e-05
0.5312643933738862,-9.900791703595645e-06,0.5312643933738862,5.28432615381308e-05,0.5312643933738862,-1.829457408369573e-05,0.5312643933738862,-2.5681412958152137e-05
0.5320585105538173,-9.567616929709157e-06,0.5320585105538173,2.871709932124632e-05,0.5320585105538173,-1.762461387174693e-05,0.5320585105538173,-2.5345406935873465e-05
0.5328526277337483,-9.902942612017584e-06,0.5328526277337483,-6.865136461276692e-06,0.5328526277337483,-1.527540174869635e-05,0.5328526277337483,-2.433857217801272e-05
0.5336467449136795,-8.560741394660351e-06,0.5336467449136795,-4.6145881682892846e-05,0.5336467449136795,-1.3596339247341282e-05,0.5336467449136795,-2.333132354840477e-05
0.5344408620936105,-9.567235081202902e-06,0.5344408620936105,-8.777797004042185e-05,0.5344408620936105,-1.4938366774937202e-05,0.5344408620936105,-1.846424543216836e-05
0.5352349792735416,-9.56741e-06,0.5352349792735416,-0.0001075904829923,0.5352349792735416,-1.695274742162143e-05,0.5352349792735416,-1.3595927063109693e-05
0.5360290964534726,-6.881005426643719e-06,0.5360290964534726,-0.0001102781404561,0.5360290964534726,-1.6280911253875173e-05,0.5360290964534726,-6.880761054915882e-06
0.5368232136334037,-1.7449005977712925e-07,0.5368232136334037,-0.0001196677020804,0.5368232136334037,-1.225698465307732e-05,0.5368232136334037,1.8377066245647549e-06
0.5376173308133347,2.515476573869919e-06,0.5376173308133347,-0.0001089430542472,0.5376173308133347,-9.737381962260329e-06,0.5376173308133347,5.200500714176883e-06
0.5384114479932659,-1.5078393792348678e-06,0.5384114479932659,-7.87423045514551e-05,0.5384114479932659,-8.561126851778628e-06,0.5384114479932659,5.20333e-06
0.539205565173197,-3.859243104337378e-06,0.539205565173197,-5.741607400437916e-05,0.539205565173197,-1.040568884148513e-05,0.539205565173197,1.8481784247222055e-06
0.539999682353128,-4.196095700182696e-06,0.539999682353128,-4.582743332369405e-05,0.539999682353128,-1.1245564270459691e-05,0.539999682353128,-8.381716070623909e-07
0.5407937995330591,-2.182548537163431e-06,0.5407937995330591,-3.390850884719801e-05,0.5407937995330591,-1.2252745730155896e-05,0.5407937995330591,-1.174855244900163e-06
0.5415879167129901,-3.5246891474005683e-06,0.5415879167129901,-5.253484566087341e-05,0.5415879167129901,-1.1078223241697565e-05,0.5415879167129901,-2.181934359763709e-06
0.5423820338929212,-2.1822262864222577e-06,0.5423820338929212,-6.39489520783657e-05,0.5423820338929212,-9.903257627695064e-06,0.5423820338929212,-3.5252025732713784e-06
0.5431761510728523,-6.547204471244725e-06,0.5431761510728523,-2.533913973248144e-05,0.5431761510728523,-1.3595672414700552e-05,0.5431761510728523,-1.2254148267695024e-05
0.5439702682527834,-1.224774717791766e-05,0.5439702682527834,6.516766057052035e-06,0.5439702682527834,-1.2925017981234244e-05,0.5439702682527834,-1.8290038168891807e-05
0.5447643854327144,-1.024035901942908e-05,0.5447643854327144,2.8685050879161816e-05,0.5447643854327144,-1.694968196114184e-05,0.5447643854327144,-1.628295901942908e-05
0.5455585026126455,-5.206484381740671e-06,0.5455585026126455,4.346374709176798e-05,0.5455585026126455,-1.963671765304873e-05,0.5455585026126455,-1.695237941326218e-05
0.5463526197925765,-8.558702507913956e-06,0.5463526197925765,4.682829254622201e-05,0.5463526197925765,-2.0980556999334777e-05,0.5463526197925765,-2.064373174817064e-05
0.5471467369725076,-8.56031e-06,0.5471467369725076,3.3406448245423064e-05,0.5471467369725076,-2.09812e-05,0.5471467369725076,-2.2658932791344395e-05
0.5479408541524387,-5.539584970176562e-06,0.5479408541524387,1.7962736514643956e-05,0.5479408541524387,-1.980641583234836e-05,0.5479408541524387,-2.2323961663761145e-05
0.5487349713323698,-8.224513036254153e-06,0.5487349713323698,1.3260269687818916e-05,0.5487349713323698,-1.9302718179032475e-05,0.5487349713323698,-2.5345090914973556e-05
0.5495290885123009,-7.721013936642667e-06,0.5495290885123009,1.930359700258369e-05,0.5495290885123009,-1.7960012126714666e-05,0.5495290885123009,-2.265933838213274e-05
0.5503232056922319,-7.218023111542936e-06,0.5503232056922319,2.7351350315225948e-05,0.5503232056922319,-1.896599377691413e-05,0.5503232056922319,-2.031214775395411e-05
0.551117322872163,-8.391458004306257e-06,0.551117322872163,3.121670765777379e-05,0.551117322872163,-1.762534514768206e-05,0.551117322872163,-2.2322182363757495e-05
0.551911440052094,-7.72154348038358e-06,0.551911440052094,2.8368512356863445e-05,0.551911440052094,-1.5611420462307465e-05,0.551911440052094,-2.098214690434924e-05
0.5527055572320251,-4.53370839931944e-06,0.5527055572320251,1.9307754358150327e-05,0.5527055572320251,-1.711975762556302e-05,0.5527055572320251,-1.8968123203092123e-05
0.5534996744119562,-6.20973171753709e-06,0.5534996744119562,1.853498163858137e-06,0.5534996744119562,-1.628174412277873e-05,0.5534996744119562,-2.1148105247970456e-05
0.5542937915918873,-1.0573354521818286e-05,0.5542937915918873,-9.900016021895252e-06,0.5542937915918873,-1.56101762282202e-05,0.5542937915918873,-2.064563215804121e-05
0.5550879087718184,-8.89620285338874e-06,0.5550879087718184,-7.889141424296284e-06,0.5550879087718184,-1.3596031425445252e-05,0.5550879087718184,-1.8967192854537712e-05
0.5558820259517494,-7.888833194588266e-06,0.5558820259517494,-7.553263888853398e-06,0.5558820259517494,-1.35958e-05,0.5558820259517494,-1.82956e-05
0.5566761431316805,-5.5386371440459726e-06,0.5566761431316805,-8.905982459486183e-06,0.5566761431316805,-1.3595679121244916e-05,0.5566761431316805,-1.829553956062246e-05
0.5574702603116115,-3.3590102352807727e-06,0.5574702603116115,-6.42347634536467e-05,0.5574702603116115,-1.2925024687778698e-05,0.5574702603116115,-1.796021234388935e-05
0.5582643774915427,-4.531008820765808e-06,0.5582643774915427,-8.156114562315637e-05,0.5582643774915427,-1.3595273611866175e-05,0.5582643774915427,-1.5611842358468385e-05
0.5590584946714737,-2.8545082479572018e-06,0.5590584946714737,-2.001330471084869e-05,0.5590584946714737,-1.5273231745678458e-05,0.5590584946714737,-1.6616459047407076e-05
0.5598526118514048,-3.524501789565019e-06,0.5598526118514048,-9.908023229852536e-06,0.5598526118514048,-1.292554875363226e-05,0.5598526118514048,-1.7959243569352996e-05
0.5606467290313358,-6.880674358821229e-06,0.5606467290313358,2.3319658186798488e-05,0.5606467290313358,-1.4434484476997356e-05,0.5606467290313358,-1.7624314564459146e-05
0.5614408462112669,-6.210550042513087e-06,0.5614408462112669,9.11289657642848e-05,0.5614408462112669,-1.4267232500943842e-05,0.5614408462112669,-1.6281660085026174e-05
0.5622349633911979,-2.8535947796177283e-06,0.5622349633911979,0.000103562427312,0.5622349633911979,-1.42672e-05,0.5622349633911979,-1.62814e-05
0.563029080571129,-3.358170772370299e-07,0.563029080571129,7.469011018158608e-05,0.563029080571129,-1.3595731955401252e-05,0.563029080571129,-1.6617134022299376e-05
0.5638231977510602,-1.5094543446869586e-06,0.5638231977510602,4.719337829841701e-05,0.5638231977510602,-1.292507752193485e-05,0.5638231977510602,-1.6952461239032576e-05
0.5646173149309912,-1.007534457995797e-06,0.5646173149309912,3.190457869150296e-05,0.5646173149309912,-1.29244e-05,0.5646173149309912,-1.7623620711168175e-05
0.5654114321109223,3.018408792591979e-06,0.5654114321109223,1.545386495945446e-05,0.5654114321109223,-1.29244e-05,0.5654114321109223,-1.6282360404853426e-05
0.5662055492908533,1.1759880690591384e-06,0.5662055492908533,7.054433910533747e-06,0.5662055492908533,-1.426643776795699e-05,0.5662055492908533,-1.5778085865398315e-05
0.5669996664707844,-4.193973775671482e-06,0.5669996664707844,-1.291600965252012e-05,0.5669996664707844,-1.2253846088848893e-05,0.5669996664707844,-1.628118845678468e-05
0.5677937836507154,-1.4264455860006658e-05,0.5677937836507154,-3.574567995806779e-05,0.5677937836507154,-1.5273476755549675e-05,0.5677937836507154,-1.62814e-05
0.5685879008306466,-1.98055081875964e-05,0.5685879008306466,-3.91084807159706e-05,0.5685879008306466,-1.7791685543222863e-05,0.5685879008306466,-1.158218699764117e-05
0.5693820180105776,-2.534516192600192e-05,0.5693820180105776,-4.2466543447165066e-05,0.5693820180105776,-1.7288484770400767e-05,0.5693820180105776,-7.888811008058658e-06
