X [s].2,L DELTOID ANTERIOR: EMG 3 [V],X [s].3,L BICEPS BRACHII: EMG 4 [V],X [s].4,L DELTOID POSTERIOR: EMG 5 [V],X [s].7,L DELTOID MEDIUS: EMG 8 [V]
0.0,-9.28206e-05,0.0,2.51774e-06,0.0,-2.03098e-05,0.0,-1.29244e-05
0.000794117179931,-5.85794353601659e-05,0.000794117179931,-1.091018613324924e-05,0.000794117179931,-2.0813299480046155e-05,0.000794117179931,-1.1917301040010954e-05
0.0015882343598621,-1.460321233679782e-05,0.0015882343598621,-1.8966942777731e-05,0.0015882343598621,-2.0645501191775486e-05,0.0015882343598621,-1.2252997615738791e-05
0.0023823515397932,1.8463482341087684e-05,0.0023823515397932,-2.3331007160119876e-05,0.0023823515397932,-1.8966997396320046e-05,0.0023823515397932,-1.1581606509199885e-05
0.0031764687197242,6.092923153671916e-05,0.0031764687197242,-2.70236940466502e-05,0.0031764687197242,-1.762420216485447e-05,0.0031764687197242,-1.493859458786382e-05
0.0039705858996553,5.354393813363894e-05,0.0039705858996553,-2.903788959991665e-05,0.0039705858996553,-1.76242e-05,0.0039705858996553,-1.4602901733347226e-05
0.0047647030795864,4.4815776062501605e-05,0.0047647030795864,-2.9205798536823856e-05,0.0047647030795864,-1.76242e-05,0.0047647030795864,-1.3931505850961665e-05
0.0055588202595174,6.546119473412691e-05,0.0055588202595174,-3.5751901535889186e-05,0.0055588202595174,-1.762420010970637e-05,0.0055588202595174,-1.292440021941274e-05
0.0063529374394485,4.9347751956184894e-05,0.0063529374394485,-4.045168484601869e-05,0.0063529374394485,-1.7959898917572765e-05,0.0063529374394485,-1.3595797835145527e-05
0.0071470546193796,-3.1722950695927905e-05,0.0071470546193796,-3.675902502016927e-05,0.0071470546193796,-1.79599e-05,0.0071470546193796,-1.779197156832824e-05
0.0079411717993107,-3.608755493297216e-05,0.0079411717993107,-2.2995442134472425e-05,0.0079411717993107,-1.5610024266861146e-05,0.0079411717993107,-1.6617112132914235e-05
0.0087352889792417,-1.8967022007018207e-05,0.0087352889792417,-4.531953733030368e-06,0.0087352889792417,-1.561e-05,0.0087352889792417,-1.695279956848732e-05
0.0095294061591728,-1.7624206494563418e-05,0.0095294061591728,8.560246678296878e-06,0.0095294061591728,-1.561e-05,0.0095294061591728,-1.5106408930266528e-05
0.0103235233391039,-3.440963278462928e-05,0.0103235233391039,1.1245673072843354e-05,0.0103235233391039,-1.1245850668111654e-05,0.0103235233391039,-1.5609940801381297e-05
0.0111176405190349,-5.253637183083702e-05,0.0111176405190349,3.5245045890892784e-06,0.0111176405190349,-9.567461380401596e-06,0.0111176405190349,-1.3595714365147033e-05
0.011911757698966,-4.4144846999744704e-05,0.011911757698966,-2.853100277743948e-06,0.011911757698966,-1.057444635992411e-05,0.011911757698966,-1.1917389401014192e-05
0.0127058748788971,-3.3234545140733574e-05,0.0127058748788971,-8.224440084732275e-06,0.0127058748788971,-1.3931393802364522e-05,0.0127058748788971,-1.2924368140709356e-05
0.0134999920588282,-2.702376210634361e-05,0.0134999920588282,-9.903083214736866e-06,0.0134999920588282,-1.258871342829051e-05,0.0134999920588282,-1.4938579857564235e-05
0.0142941092387592,-2.232383751127073e-05,0.0142941092387592,-1.4938607811236588e-05,0.0142941092387592,-9.56743343359342e-06,0.0142941092387592,-1.4938588283145118e-05
0.0150882264186903,-1.695269949787317e-05,0.0150882264186903,-1.560998883309702e-05,0.0150882264186903,-1.1581689335223847e-05,0.0150882264186903,-1.393148883309702e-05
0.0158823435986214,-1.393171456243406e-05,0.0158823435986214,-1.5274323840270453e-05,0.0158823435986214,-1.4267009277836392e-05,0.0158823435986214,-1.359582384027045e-05
0.0166764607785524,-8.224891869395063e-06,0.0166764607785524,-1.695271709709148e-05,0.0166764607785524,-1.4602883419418297e-05,0.0166764607785524,-1.2588749741745111e-05
0.0174705779584835,-6.881857271285565e-06,0.0174705779584835,-1.795987204632765e-05,0.0174705779584835,-1.6281353410546086e-05,0.0174705779584835,-1.6281297503201387e-05
0.0182646951384146,-6.210424110399724e-06,0.0182646951384146,-1.6449209248705485e-05,0.0182646951384146,-1.4938608220799446e-05,0.0182646951384146,-1.4267212331199168e-05
0.0190588123183456,-4.867567510355496e-06,0.0190588123183456,-1.661706875505365e-05,0.0190588123183456,-1.5274318225443087e-05,0.0190588123183456,-1.2924433847916263e-05
0.0198529294982767,-8.391961257755587e-07,0.0198529294982767,-1.4602943638284276e-05,0.0198529294982767,-1.6449193767551196e-05,0.0198529294982767,-1.5106418704774842e-05
0.0206470466782078,5.03457846156397e-07,0.0206470466782078,-1.5777721118391317e-05,0.0206470466782078,-1.6281411265923856e-05,0.0206470466782078,-1.5609966188800637e-05
0.0214411638581389,3.357056393544701e-07,0.0214411638581389,-1.896685484998942e-05,0.0214411638581389,-1.62814e-05,0.0214411638581389,-1.493863055741788e-05
0.0222352810380699,3.1890718640378697e-06,0.0222352810380699,-1.628146412814415e-05,0.0222352810380699,-1.7624167935927926e-05,0.0222352810380699,-1.5609983967963965e-05
0.023029398218001,5.035475856723405e-06,0.023029398218001,-1.62814e-05,0.023029398218001,-1.76242e-05,0.023029398218001,-1.4938601506654196e-05
0.0238235153979321,-1.6783598133052581e-07,0.0238235153979321,-1.7624134906361773e-05,0.0238235153979321,-1.6952790234984745e-05,0.0238235153979321,-1.3260106509363824e-05
0.0246176325778631,5.036443919164989e-07,0.0246176325778631,-1.4267117378076008e-05,0.0246176325778631,-1.6449138035607993e-05,0.0246176325778631,-1.3595758689038004e-05
0.0254117497577942,2.853291342536729e-06,0.0254117497577942,-1.2253127421116596e-05,0.0254117497577942,-1.4938695562674376e-05,0.0254117497577942,-1.2588763710558298e-05
0.0262058669377253,1.6785389189266151e-06,0.0262058669377253,-1.4267116138982945e-05,0.0262058669377253,-1.326016988418088e-05,0.0262058669377253,-1.2420806990499831e-05
0.0269999841176564,-1.6781207242110546e-07,0.0269999841176564,-1.4602893285854746e-05,0.0269999841176564,-1.3595793285854745e-05,0.0269999841176564,-1.4267163071201078e-05
0.0277941012975874,-2.182041097091334e-06,0.0277941012975874,-1.4938597805817332e-05,0.0277941012975874,-1.5609992320360664e-05,0.0277941012975874,-1.2420799177263202e-05
0.0285882184775185,-2.8534243794938965e-06,0.0285882184775185,-1.359571018232256e-05,0.0285882184775185,-1.0910278102530515e-05,0.0285882184775185,-1.1917276569240845e-05
0.0293823356574496,-2.1820943938407587e-06,0.0293823356574496,-9.735572763774208e-06,0.0293823356574496,-1.4266928030796204e-05,0.0293823356574496,-1.0910281590761138e-05
0.0301764528373806,-2.18204e-06,0.0301764528373806,-1.0910130218803751e-05,0.0301764528373806,-1.4434990034142398e-05,0.0301764528373806,-1.1581560124691336e-05
0.0309705700173117,-8.392966996271052e-07,0.0309705700173117,-1.2588636625182942e-05,0.0309705700173117,-1.493858098566704e-05,0.0309705700173117,-9.231798724366312e-06
0.0317646871972428,-4.867565052988094e-06,0.0317646871972428,-1.25887e-05,0.0317646871972428,-1.8295545877275114e-05,0.0317646871972428,-9.903089175616246e-06
0.0325588043771738,-4.531951279701718e-06,0.0325588043771738,-1.158161480334745e-05,0.0325588043771738,-1.4267198149581567e-05,0.0325588043771738,-1.4938603700836862e-05
0.0333529215571049,-8.392510115519e-06,0.0333529215571049,-1.426717266411431e-05,0.0333529215571049,-1.393152733588569e-05,0.0333529215571049,-1.5609936216266725e-05
0.034147038737036,-1.023865757710792e-05,0.034147038737036,-1.3260177685634611e-05,0.034147038737036,-1.4938522314365388e-05,0.034147038737036,-1.3260281266480764e-05
0.0349411559169671,-4.196565442402788e-06,0.0349411559169671,-1.4099253413321746e-05,0.0349411559169671,-1.3595874543126262e-05,0.0349411559169671,-1.3931462728436867e-05
0.0357352730968981,2.5175125392034445e-06,0.0357352730968981,-1.3260128431032678e-05,0.0357352730968981,-1.4267177253818708e-05,0.0357352730968981,-1.39315e-05
0.0365293902768292,1.779181297791459e-05,0.0365293902768292,-1.1078126716985986e-05,0.0365293902768292,-1.661707122720194e-05,0.0365293902768292,-1.2253020551998616e-05
0.0373235074567603,2.93735464110497e-05,0.0373235074567603,-1.2588673205618752e-05,0.0373235074567603,-1.6449176358285558e-05,0.0373235074567603,-1.4938618913747163e-05
0.0381176246366913,2.3666127252142183e-05,0.0381176246366913,-9.735275620195896e-06,0.0381176246366913,-1.3931583309365896e-05,0.0381176246366913,-1.6952768758987793e-05
0.0389117418166224,5.204682633124516e-06,0.0389117418166224,-1.0238763110478556e-05,0.0389117418166224,-1.661690325197842e-05,0.0389117418166224,-1.5945773780508093e-05
0.0397058589965535,-6.881195981864847e-06,0.0397058589965535,-1.02388e-05,0.0397058589965535,-1.7624147998273592e-05,0.0397058589965535,-1.393160400345282e-05
0.0404999761764846,-9.567329430556942e-06,0.0404999761764846,-9.56743014213576e-06,0.0404999761764846,-1.4938680569743065e-05,0.0404999761764846,-1.5609949643910586e-05
0.0412940933564156,-1.023879438302974e-05,0.0412940933564156,-1.292437191481406e-05,0.0412940933564156,-1.49386e-05,0.0412940933564156,-1.577779859615483e-05
0.0420882105363467,-1.4602986844597572e-05,0.0420882105363467,-1.057447773211705e-05,0.0420882105363467,-1.0910208907206244e-05,0.0420882105363467,-1.628140222613823e-05
0.0428823277162778,-2.114840420992972e-05,0.0428823277162778,-8.896162766941395e-06,0.0428823277162778,-1.1581538892859384e-05,0.0428823277162778,-1.6449184727765573e-05
0.0436764448962088,-2.299517188247129e-05,0.0436764448962088,-9.56736341054608e-06,0.0436764448962088,-1.32599835263652e-05,0.0436764448962088,-1.1917614475344388e-05
0.0444705620761399,-1.6617404603909005e-05,0.0444705620761399,-1.2252871744189271e-05,0.0444705620761399,-1.1917364128144149e-05,0.0444705620761399,-1.1581616032036036e-05
0.045264679256071,-9.903275386902348e-06,0.045264679256071,-1.1581617538690236e-05,0.045264679256071,-1.8295433382442773e-05,0.045264679256071,-1.3595747383929296e-05
0.046058796436002,-4.867652599678274e-06,0.046058796436002,-1.15816e-05,0.046058796436002,-2.1652584933458056e-05,0.046058796436002,-1.2253006026616778e-05
0.0468529136159331,-6.210396978923588e-06,0.0468529136159331,-1.0238823021247853e-05,0.0468529136159331,-1.5945659712816253e-05,0.0468529136159331,-1.1581588489376072e-05
0.0476470307958642,-4.86774700657449e-06,0.0476470307958642,-1.158148299255414e-05,0.0476470307958642,-1.3596004763030251e-05,0.0476470307958642,-1.091025850372293e-05
0.0484411479757953,-3.1892499636158382e-06,0.0484411479757953,-1.0238887971416777e-05,0.0484411479757953,-1.426715601429161e-05,0.0484411479757953,-1.5274014092895474e-05
0.0492352651557263,-4.196185809948966e-06,0.0492352651557263,-1.4938393777714156e-05,0.0492352651557263,-1.8295423238040708e-05,0.0492352651557263,-1.7624096888857078e-05
0.0500293823356574,-1.8463922720840368e-06,0.0500293823356574,-1.5609985065055292e-05,0.0500293823356574,-2.19882178578041e-05,0.0500293823356574,-1.4938659739778836e-05
0.0508234995155885,-3.189139180874273e-06,0.0508234995155885,-1.6449199488076924e-05,0.0508234995155885,-1.846340215023553e-05,0.0508234995155885,-1.3092201126328377e-05
0.0516176166955195,-3.52483e-06,0.0516176166955195,-1.6952771771916763e-05,0.0516176166955195,-1.4602942342124858e-05,0.0516176166955195,-1.2252992942979187e-05
0.0524117338754506,-3.52483e-06,0.0524117338754506,-1.56101118006105e-05,0.0524117338754506,-1.661693229908425e-05,0.0524117338754506,-1.1917327950152625e-05
0.0532058510553817,-4.867547236074285e-06,0.0532058510553817,-1.091048967374e-05,0.0532058510553817,-1.728845861803714e-05,0.0532058510553817,-1.5274093090185713e-05
0.0539999682353128,-1.896643601299866e-05,0.0539999682353128,-1.057451342829051e-05,0.0539999682353128,-1.72885e-05,0.0539999682353128,-1.292449399803356e-05
0.0547940854152438,-2.7359245861846995e-05,0.0547940854152438,-1.0910193834400412e-05,0.0547940854152438,-1.7624193834400414e-05,0.0547940854152438,-1.5106359924521011e-05
0.0555882025951749,-2.433805721915212e-05,0.0555882025951749,-1.0574501096953197e-05,0.0555882025951749,-1.7959897806093608e-05,0.0555882025951749,-1.5609991224374433e-05
0.056382319775106,-1.1247222488487822e-05,0.056382319775106,-1.0910166089779764e-05,0.056382319775106,-1.728856782044047e-05,0.056382319775106,-1.292467128176188e-05
0.057176436955037,4.530677370976881e-06,0.057176436955037,-1.023885330359917e-05,0.057176436955037,-1.2589073125194204e-05,0.057176436955037,-1.4938440089202483e-05
0.0579705541349681,1.9637527491842885e-05,0.0579705541349681,-9.567448777639752e-06,0.0579705541349681,-9.064063585063387e-06,0.0579705541349681,-1.6281322443565347e-05
0.0587646713148992,2.0645463620746763e-05,0.0587646713148992,-1.0910151494690244e-05,0.0587646713148992,-1.3595636293721655e-05,0.0587646713148992,-1.7120569685761772e-05
0.0595587884948302,1.3260207001990109e-05,0.0595587884948302,-1.1581590272546353e-05,0.0595587884948302,-1.4267190272546351e-05,0.0595587884948302,-1.426724134095358e-05
0.0603529056747613,1.4435014391972218e-05,0.0603529056747613,-1.02388e-05,0.0603529056747613,-1.3092184409054026e-05,0.0603529056747613,-1.258871918929629e-05
0.0611470228546924,1.6449004348931633e-05,0.0611470228546924,-1.02388e-05,0.0611470228546924,-1.0910411950467273e-05,0.0611470228546924,-1.527403913190884e-05
0.0619411400346235,1.4938714070895024e-05,0.0619411400346235,-1.225284790043906e-05,0.0619411400346235,-8.224812798659449e-06,0.0619411400346235,-1.52743e-05
0.0627352572145545,2.518409225573144e-06,0.0627352572145545,-9.9032266106513e-06,0.0627352572145545,-8.895973825528199e-06,0.0627352572145545,-1.29245266106513e-05
0.0635293743944856,-2.198750981015133e-05,0.0635293743944856,-1.0238789175455022e-05,0.0635293743944856,-1.2252891754872672e-05,0.0635293743944856,-1.3595778350910044e-05
0.0643234915744167,-3.172339670729327e-05,0.0643234915744167,-1.2252978628875637e-05,0.0643234915744167,-1.158160712370812e-05,0.0643234915744167,-1.1749419590727843e-05
0.0651176087543477,-2.500942599368469e-05,0.0651176087543477,-1.2252987049253064e-05,0.0651176087543477,-1.2924411101112638e-05,0.0651176087543477,-1.2253014801483518e-05
0.0659117259342788,-1.8296226126725325e-05,0.0659117259342788,-1.1078209569146038e-05,0.0659117259342788,-1.3931406079592328e-05,0.0659117259342788,-1.3595674772789767e-05
0.0667058431142099,-1.2924784768864872e-05,0.0667058431142099,-1.2924267739284475e-05,0.0667058431142099,-9.567722623986352e-06,0.0667058431142099,-1.493850380778378e-05
0.067499960294141,-1.5274182502458038e-05,0.067499960294141,-1.56098657170949e-05,0.067499960294141,-6.210587853131365e-06,0.067499960294141,-1.49386e-05
0.068294077474072,-1.4602919045344427e-05,0.068294077474072,-1.628138095465557e-05,0.068294077474072,-7.049646193319463e-06,0.068294077474072,-1.6281361909311143e-05
0.0690881946540031,-1.191731807985038e-05,0.0690881946540031,-1.6952795480037408e-05,0.0690881946540031,-9.56739305020759e-06,0.0690881946540031,-1.6617097740018702e-05
0.0698823118339342,-7.218041733962023e-06,0.0698823118339342,-1.4603160868091137e-05,0.0698823118339342,-1.2252701866148826e-05,0.0698823118339342,-1.4267460868091134e-05
0.0706764290138652,8.385257901061759e-07,0.0706764290138652,-1.22532100621055e-05,0.0706764290138652,-1.3931349955638928e-05,0.0706764290138652,-1.5609879964511142e-05
0.0714705461937963,-8.391322696356013e-07,0.0714705461937963,-1.3260031761456124e-05,0.0714705461937963,-1.3595822746181293e-05,0.0714705461937963,-1.5274322746181292e-05
0.0722646633737274,-1.7623425827602926e-05,0.0722646633737274,-1.6281260648586626e-05,0.0722646633737274,-1.6281276132077e-05,0.0722646633737274,-1.2253139351413371e-05
0.0730587805536585,-2.500931914486104e-05,0.0730587805536585,-1.2924482207994458e-05,0.0730587805536585,-1.62814e-05,0.0730587805536585,-1.393145889600277e-05
0.0738528977335895,-2.4506001437020088e-05,0.0738528977335895,-1.4938594251348826e-05,0.0738528977335895,-1.2588710539193818e-05,0.0738528977335895,-1.4938597125674414e-05
0.0746470149135206,-2.198856973335317e-05,0.0746470149135206,-1.4267271930322644e-05,0.0746470149135206,-1.4938348243870743e-05,0.0746470149135206,-1.5274264034838677e-05
0.0754411320934517,-9.56847215812458e-06,0.0754411320934517,-1.4434985650775966e-05,0.0754411320934517,-1.628128517200219e-05,0.0754411320934517,-1.2253258362995063e-05
0.0762352492733827,2.1812894523954577e-06,0.0762352492733827,-1.4267210718960295e-05,0.0762352492733827,-1.4267328665851171e-05,0.0762352492733827,-1.2924357111382942e-05
0.0770293664533138,1.1581202916396828e-05,0.0770293664533138,-1.3595828363235212e-05,0.0770293664533138,-1.661700072867676e-05,0.0770293664533138,-1.4267143273529577e-05
0.0778234836332449,1.46028377296598e-05,0.0778234836332449,-1.3763596541567178e-05,0.0778234836332449,-1.66171e-05,0.0778234836332449,-1.51063827037138e-05
0.078617600813176,2.098120618687481e-05,0.078617600813176,-1.4938599312558088e-05,0.078617600813176,-1.628139931255809e-05,0.078617600813176,-1.644919931255809e-05
0.079411717993107,2.7023076068181053e-05,0.079411717993107,-1.4267269326904965e-05,0.079411717993107,-1.5610069326904966e-05,0.079411717993107,-1.5777869326904965e-05
0.0802058351730381,2.4673991835886783e-05,0.0802058351730381,-1.2420950732278545e-05,0.0802058351730381,-1.6281345189746635e-05,0.0802058351730381,-1.292463293949502e-05
0.0809999523529692,-7.215606479402449e-06,0.0809999523529692,-1.426708921360322e-05,0.0809999523529692,-1.7624119430256936e-05,0.0809999523529692,-1.560983886051387e-05
0.0817940695329002,-3.70935537073135e-05,0.0817940695329002,-1.4938574240510325e-05,0.0817940695329002,-1.896694848102065e-05,0.0817940695329002,-1.5106419321535598e-05
0.0825881867128313,5.0856828338565805e-05,0.0825881867128313,-1.3260128085269604e-05,0.0825881867128313,-1.8967e-05,0.0825881867128313,-1.3931519658852104e-05
0.0833823038927624,7.469001574217459e-05,0.0833823038927624,-1.3595759376479908e-05,0.0833823038927624,-1.8295681247040184e-05,0.0833823038927624,-1.644889532964988e-05
0.0841764210726934,-1.5768807922591203e-05,0.0841764210726934,-1.6281133072441252e-05,0.0841764210726934,-1.4938933659448432e-05,0.0841764210726934,-1.661708331205797e-05
0.0849705382526245,-6.059011522726607e-05,0.0849705382526245,-1.3931682722777402e-05,0.0849705382526245,-2.0309382347937367e-05,0.0849705382526245,-1.42673827227774e-05
0.0857646554325556,-8.140573189070647e-05,0.0857646554325556,-1.3595818840562997e-05,0.0857646554325556,-2.0981162318874007e-05,0.0857646554325556,-1.42672e-05
0.0865587726124866,-8.308534211063959e-05,0.0865587726124866,-1.292442315574416e-05,0.0865587726124866,-2.09812e-05,0.0865587726124866,-1.359582315574416e-05
0.0873528897924177,-8.207831294554347e-05,0.0873528897924177,-9.903138836630418e-06,0.0873528897924177,-1.8967025891086943e-05,0.0873528897924177,-1.577777195196519e-05
0.0881470069723488,-6.328140200971674e-05,0.0881470069723488,-1.0238760678188749e-05,0.0881470069723488,-2.1652285425509984e-05,0.0881470069723488,-1.493869829867144e-05
0.0889411241522799,-2.2327811807241708e-05,0.0889411241522799,-1.15814717437117e-05,0.0889411241522799,-1.963859238443245e-05,0.0889411241522799,-1.3595928256288298e-05
0.0897352413322109,-2.3513656718357324e-06,0.0897352413322109,-1.17493876030034e-05,0.0897352413322109,-1.6281648013811575e-05,0.0897352413322109,-1.4938500794475369e-05
0.090529358512142,7.217020149418116e-06,0.090529358512142,-1.2252973689352393e-05,0.090529358512142,-1.5274352616070704e-05,0.090529358512142,-1.4602917538690236e-05
0.0913234756920731,2.534464509971044e-05,0.0913234756920731,-1.1245930827997936e-05,0.0913234756920731,-1.6281369172002066e-05,0.0913234756920731,-1.4938589724000688e-05
0.0921175928720041,4.2801443307963776e-05,0.0921175928720041,-9.903112053233555e-06,0.0921175928720041,-1.4938612053233557e-05,0.0921175928720041,-1.6617084933458057e-05
0.0929117100519352,6.562651464436162e-05,0.0929117100519352,-9.9031e-06,0.0929117100519352,-1.1581980201024116e-05,0.0929117100519352,-1.5945776040204822e-05
0.0937058272318663,8.492993118728497e-05,0.0937058272318663,-1.0574438475601375e-05,0.0937058272318663,-1.3595615426804129e-05,0.0937058272318663,-1.6449153861282833e-05
0.0944999444117974,4.817527318566836e-05,0.0944999444117974,-9.567480497825153e-06,0.0944999444117974,-1.35958e-05,0.0944999444117974,-1.7791906001966442e-05
0.0952940615917284,1.1772131428379798e-06,0.0952940615917284,-1.1078026932386696e-05,0.0952940615917284,-1.2253064947269887e-05,0.0952940615917284,-2.0309678221450607e-05
0.0960881787716595,1.3259776932513538e-05,0.0960881787716595,-1.1245895514273357e-05,0.0960881787716595,-9.567481792745068e-06,0.0960881787716595,-1.561012563777169e-05
0.0968822959515906,3.4741985282219614e-05,0.0968822959515906,-1.0238931940510066e-05,0.0968822959515906,-9.56741e-06,0.0968822959515906,-1.25890958215302e-05
0.0976764131315216,-6.205939811559764e-06,0.0976764131315216,-9.567483444941008e-06,0.0976764131315216,-1.0238726555058991e-05,0.0976764131315216,-1.35956898309476e-05
0.0984705303114527,-5.018304071652881e-05,0.0984705303114527,-1.2252764318265188e-05,0.0984705303114527,-1.6280869714122118e-05,0.0984705303114527,-1.4602811619020352e-05
0.0992646474913838,-6.394968989693932e-05,0.0992646474913838,-1.1917322197635626e-05,0.0992646474913838,-1.62814e-05,0.0992646474913838,-1.2253155383449384e-05
0.1000587646713148,-6.39506e-05,0.1000587646713148,-1.292410162467736e-05,0.1000587646713148,-1.393219620908616e-05,0.1000587646713148,-1.0239396750645278e-05
0.1008528818512459,-5.253849839577928e-05,0.1008528818512459,-1.4434775219763428e-05,0.1008528818512459,-1.4938450141548886e-05,0.1008528818512459,-1.1749175219763428e-05
0.101646999031177,-2.3666735226720305e-05,0.101646999031177,-1.2253002662432887e-05,0.101646999031177,-1.426720081922889e-05,0.101646999031177,-1.1917299795131768e-05
0.1024411162111081,3.187567731033773e-06,0.1024411162111081,-1.1581501732823706e-05,0.1024411162111081,-1.561019653435259e-05,0.1024411162111081,-1.4938796534352584e-05
0.1032352333910391,-7.569797636178538e-06,0.1032352333910391,-1.091029867679075e-05,0.1032352333910391,-1.695270132320925e-05,0.1032352333910391,-1.6280413232092496e-05
0.1040293505709702,-6.392247373471258e-05,0.1040293505709702,-1.1246640167765498e-05,0.1040293505709702,-1.6616359832234503e-05,0.1040293505709702,-1.2923659832234502e-05
0.1048234677509013,-2.105512789073161e-07,0.1048234677509013,-1.292327625143127e-05,0.1048234677509013,-1.493972374856873e-05,0.1048234677509013,-1.124702374856873e-05
0.1056175849308323,9.109436707238436e-05,0.1056175849308323,-1.2253350979142493e-05,0.1056175849308323,-1.49386e-05,0.1056175849308323,-1.2923522552143766e-05
0.1064117021107634,6.630971999376246e-05,0.1064117021107634,-1.2253e-05,0.1064117021107634,-1.3596303785474594e-05,0.1064117021107634,-1.4937844321788106e-05
0.1072058192906945,1.595716040662953e-05,0.1072058192906945,-1.007149660919965e-05,0.1072058192906945,-1.5945165177837646e-05,0.1072058192906945,-1.5945470790501846e-05
0.1079999364706256,-2.634891566060657e-05,0.1079999364706256,-1.0910132854091944e-05,0.1079999364706256,-1.5274353719926918e-05,0.1079999364706256,-1.2253295459598044e-05
0.1087940536505566,-2.0477906220349803e-05,0.1087940536505566,-8.89619146523737e-06,0.1087940536505566,-1.661721341619567e-05,0.1087940536505566,-1.4267245366478269e-05
0.1095881708304877,-2.500762213403015e-05,0.1095881708304877,-1.158203335865039e-05,0.1095881708304877,-1.829545554711654e-05,0.1095881708304877,-1.493762495379421e-05
0.1103822880104188,-1.6272876153915606e-05,0.1103822880104188,-1.359537378810817e-05,0.1103822880104188,-1.76242e-05,0.1103822880104188,-1.0406152022091176e-05
0.1111764051903498,7.217006707922807e-06,0.1111764051903498,-1.2421741060958522e-05,0.1111764051903498,-1.76242e-05,0.1111764051903498,-8.89703657905765e-06
0.1119705223702809,6.211025057723345e-06,0.1119705223702809,-1.4266090697467596e-05,0.1119705223702809,-1.76242e-05,0.1119705223702809,-1.0908989890561232e-05
0.112764639550212,-1.4257903836539996e-05,0.112764639550212,-1.42672e-05,0.112764639550212,-1.76242e-05,0.112764639550212,-1.3930128429541044e-05
0.1135587567301431,-2.70197915970661e-05,0.1135587567301431,-1.4938394292969871e-05,0.1135587567301431,-1.930218573242468e-05,0.1135587567301431,-1.2253514267575318e-05
0.1143528739100741,-2.6520279957528538e-05,0.1143528739100741,-1.3763786594033822e-05,0.1143528739100741,-2.0309640069062583e-05,0.1143528739100741,-1.1581706620624945e-05
0.1151469910900052,-3.5416100172149283e-05,0.1151469910900052,-9.567457088200192e-06,0.1151469910900052,-1.7288533903988912e-05,0.1151469910900052,-1.5945651027571568e-05
0.1159411082699363,-3.60878288804636e-05,0.1159411082699363,-9.903420432649033e-06,0.1159411082699363,-1.2924674656556312e-05,0.1159411082699363,-1.6616802448579323e-05
0.1167352254498673,-3.7764384252684406e-05,0.1167352254498673,-1.2253190638590622e-05,0.1167352254498673,-1.4938409361409376e-05,0.1167352254498673,-1.4434761715958818e-05
0.1175293426297984,-3.1717278791018084e-05,0.1175293426297984,-1.2925123401404652e-05,0.1175293426297984,-1.42672e-05,0.1175293426297984,-1.3595365959157209e-05
0.1183234598097295,-1.7298308360445887e-05,0.1183234598097295,-1.4601759485070423e-05,0.1183234598097295,-1.42672e-05,0.1183234598097295,-1.2589384308957746e-05
0.1191175769896605,-6.216321942545093e-06,0.1191175769896605,-1.4435089450171267e-05,0.1191175769896605,-1.5105952908971243e-05,0.1191175769896605,-1.3595263458799975e-05
0.1199116941695916,-1.2250672538150051e-05,0.1199116941695916,-1.3596123240401364e-05,0.1199116941695916,-1.1750693038640825e-05,0.1199116941695916,-1.1917946519320412e-05
0.1207058113495227,-9.903658324630391e-06,0.1207058113495227,-1.309231965287198e-05,0.1207058113495227,-1.1581639868450988e-05,0.1207058113495227,-1.4937882154046638e-05
0.1214999285294538,-8.400618672494813e-07,0.1214999285294538,-1.023905684389992e-05,0.1214999285294538,-1.1245930217458893e-05,0.1214999285294538,-1.4267260434917785e-05
0.1222940457093848,1.0240249425021077e-05,0.1222940457093848,-1.1581715954462231e-05,0.1222940457093848,-1.191739662871853e-05,0.1222940457093848,-1.4267354605949645e-05
0.1230881628893159,3.541850709944347e-05,0.1230881628893159,-1.3596075475785191e-05,0.1230881628893159,-1.35958e-05,0.1230881628893159,-1.695252452421481e-05
0.123882280069247,4.6652153414766445e-05,0.123882280069247,-1.493812635140444e-05,0.123882280069247,-1.35946158785111e-05,0.123882280069247,-1.560964476355333e-05
0.124676397249178,1.8443019218363384e-05,0.124676397249178,-1.3595967744086895e-05,0.124676397249178,-1.024047744086895e-05,0.124676397249178,-1.460155804730484e-05
0.1254705144291091,-2.2298987892331265e-05,0.1254705144291091,-1.393129496082005e-05,0.1254705144291091,-1.3593749608200494e-05,0.1254705144291091,-1.1918940313439604e-05
0.1262646316090402,-2.5679342457869102e-05,0.1262646316090402,-1.2253778771065448e-05,0.1262646316090402,-1.426688849157382e-05,0.1262646316090402,-1.2420566391878788e-05
0.1270587487889713,-1.7962342821602773e-05,0.1270587487889713,-1.5944531678884528e-05,0.1270587487889713,-1.158244968808398e-05,0.1270587487889713,-1.3931022034633428e-05
0.1278528659689023,-2.7693456650451235e-05,0.1278528659689023,-1.59457e-05,0.1278528659689023,-9.567750005159384e-06,0.1278528659689023,-1.2924570003423717e-05
0.1286469831488334,-2.7359407124605316e-05,0.1286469831488334,-1.6281392875394688e-05,0.1286469831488334,-1.0910171501790978e-05,0.1286469831488334,-1.2588707124605314e-05
0.1294411003287645,-1.644663369002695e-05,0.1294411003287645,-1.3595672744208127e-05,0.1294411003287645,-1.3931669674389163e-05,0.1294411003287645,-1.4267327255791872e-05
0.1302352175086955,3.865128081775933e-06,0.1302352175086955,-1.25893896998021e-05,0.1302352175086955,-1.5273196458401404e-05,0.1302352175086955,-1.5273840191000585e-05
0.1310293346886266,2.064239080580725e-05,0.1310293346886266,-1.5106329357545218e-05,0.1310293346886266,-1.1245476018973716e-05,0.1310293346886266,-1.3596365308035044e-05
0.1318234518685577,1.3265192037677853e-05,0.1318234518685577,-1.4938715693655366e-05,0.1318234518685577,-1.0239494368774252e-05,0.1318234518685577,-1.4937674174967662e-05
0.1326175690484888,1.9970455908757717e-05,0.1326175690484888,-1.49386e-05,0.1326175690484888,-1.2922942363503084e-05,0.1326175690484888,-1.4603082204562114e-05
0.1334116862284198,4.681928717027482e-05,0.1334116862284198,-1.1582926613595104e-05,0.1334116862284198,-1.1246563306797552e-05,0.1334116862284198,-1.2757229657236225e-05
0.1342058034083509,4.280259739312337e-05,0.1342058034083509,-1.1749358453301367e-05,0.1342058034083509,-1.174927533514445e-05,0.1342058034083509,-1.5777051936587736e-05
0.134999920588282,-5.152026547784027e-05,0.134999920588282,-1.292428248265912e-05,0.134999920588282,-8.392795743542375e-06,0.134999920588282,-1.4938683932385078e-05
0.135794037768213,-0.0001250480638349,0.135794037768213,-1.2252984031751722e-05,0.135794037768213,-1.2924575650731056e-05,0.135794037768213,-1.6952752095255167e-05
0.1365881549481441,-0.0001263686434621,0.1365881549481441,-1.19173e-05,0.1365881549481441,-1.661677244274565e-05,0.1365881549481441,-1.59457e-05
0.1373822721280752,-1.6934161214685255e-05,0.1373822721280752,-1.1917645163960388e-05,0.1373822721280752,-1.4938197291576354e-05,0.1373822721280752,-1.594558494534654e-05
0.1381763893080062,3.741198830269474e-05,0.1381763893080062,-1.2926043908147258e-05,0.1381763893080062,-1.376417539233632e-05,0.1381763893080062,-1.5609753389293133e-05
0.1389705064879373,-1.445091390988592e-07,0.1389705064879373,-1.6279316075478803e-05,0.1389705064879373,-1.4937870595379089e-05,0.1389705064879373,-1.5106712619716674e-05
0.1397646236678684,1.929347154507811e-05,0.1397646236678684,-1.426815467025114e-05,0.1397646236678684,-1.2254272893668188e-05,0.1397646236678684,-1.0912188872658046e-05
0.1405587408477994,2.6685589525508328e-05,0.1405587408477994,-1.460279043149407e-05,0.1405587408477994,-1.6615675609422895e-05,0.1405587408477994,-1.09102e-05
0.1413528580277305,1.561198081712955e-05,0.1413528580277305,-1.3092470122805346e-05,0.1413528580277305,-1.8966579822876623e-05,0.1413528580277305,-1.2924039848179966e-05
0.1421469752076616,4.347212998876144e-05,0.1421469752076616,-1.0574578614194283e-05,0.1421469752076616,-1.7959931446302208e-05,0.1421469752076616,-1.4602847589496324e-05
0.1429410923875927,8.896129135778842e-05,0.1429410923875927,-9.567117042899732e-06,0.1429410923875927,-1.7120502353063246e-05,0.1429410923875927,-1.6952819524733065e-05
0.1437352095675237,9.919509004130258e-05,0.1437352095675237,-7.050423131309039e-06,0.1437352095675237,-1.62814e-05,0.1437352095675237,-1.712064431534917e-05
0.1445293267474548,8.474444578534112e-05,0.1445293267474548,-9.903927842419553e-06,0.1445293267474548,-1.6280986078790223e-05,0.1445293267474548,-1.7289465816156145e-05
0.1453234439273859,3.746350800387324e-05,0.1453234439273859,-1.191589114281848e-05,0.1453234439273859,-1.527500442859076e-05,0.1453234439273859,-1.9636756333288228e-05
0.146117561107317,-5.012006493691116e-06,0.146117561107317,-1.5272444379424638e-05,0.146117561107317,-1.4267756686172607e-05,0.146117561107317,-1.7793020618954525e-05
0.146911678287248,-4.31218619126372e-05,0.146911678287248,-1.376421210510624e-05,0.146911678287248,-1.42672e-05,0.146911678287248,-1.6282012064588258e-05
0.1477057954671791,-5.555490042662277e-05,0.1477057954671791,-1.1414305329566465e-05,0.1477057954671791,-1.42672e-05,0.1477057954671791,-2.030876229217177e-05
0.1484999126471102,-6.529232895895731e-05,0.1484999126471102,-9.56761312187264e-06,0.1484999126471102,-1.560985227020101e-05,0.1484999126471102,-1.9302810797349245e-05
0.1492940298270412,-5.622855419729413e-05,0.1492940298270412,-1.1246038718281155e-05,0.1492940298270412,-1.0910250443011328e-05,0.1492940298270412,-1.5945624335483005e-05
0.1500881470069723,-3.1050919074846714e-05,0.1500881470069723,-1.4938537846044564e-05,0.1500881470069723,-1.2253745847465231e-05,0.1500881470069723,-1.393181076977718e-05
0.1508822641869034,-2.467245966737657e-05,0.1508822641869034,-1.4601671331261687e-05,0.1508822641869034,-1.6281846788632112e-05,0.1508822641869034,-1.560938564899439e-05
0.1516763813668344,-2.0646949289912345e-05,0.1516763813668344,-1.0911488300340454e-05,0.1516763813668344,-1.7623555849829774e-05,0.1516763813668344,-1.376190912978849e-05
0.1524704985467655,-2.3664794351557387e-05,0.1524704985467655,-1.3594106034205785e-05,0.1524704985467655,-1.6282246982897107e-05,0.1524704985467655,-1.0241023298566968e-05
0.1532646157266966,-3.5074976047065053e-05,0.1532646157266966,-1.0911499753631752e-05,0.1532646157266966,-1.930123777716428e-05,0.1532646157266966,-1.0909875061592062e-05
0.1540587329066277,-2.383838300422625e-05,0.1540587329066277,-1.023902585200273e-05,0.1540587329066277,-1.7624764630006825e-05,0.1540587329066277,-1.225254829599454e-05
0.1548528500865587,2.0637101807485323e-05,0.1548528500865587,-1.3930802789213627e-05,0.1548528500865587,-1.76242e-05,0.1548528500865587,-1.0910453531195044e-05
0.1556469672664898,1.7960010716769446e-05,0.1556469672664898,-1.292444151878854e-05,0.1556469672664898,-1.829557232080764e-05,0.1556469672664898,-8.224720716357184e-06
0.1564410844464209,-9.736099033687388e-06,0.1564410844464209,-1.258891422163854e-05,0.1564410844464209,-1.896678577836146e-05,0.1564410844464209,-1.023901422163854e-05
0.157235201626352,-1.7624114753190985e-05,0.157235201626352,-1.4602814753190984e-05,0.157235201626352,-1.69528e-05,0.157235201626352,-1.2252914753190984e-05
0.158029318806283,-1.7289307722786536e-05,0.158029318806283,-1.4266661518142309e-05,0.158029318806283,-1.6952126897677885e-05,0.158029318806283,-1.1916223040294756e-05
0.1588234359862141,-1.9301271023185536e-05,0.1588234359862141,-1.2925352651209642e-05,0.1588234359862141,-1.5275490814012055e-05,0.1588234359862141,-9.233615295324771e-06
0.1596175531661451,-1.9134894487914643e-05,0.1596175531661451,-1.4266444321788072e-05,0.1596175531661451,-1.560981108044702e-05,0.1596175531661451,-1.1580277568756756e-05
0.1604116703460762,-1.9638190914715373e-05,0.1604116703460762,-1.5273881870948866e-05,0.1604116703460762,-1.561e-05,0.1604116703460762,-1.2923842494598487e-05
0.1612057875260073,-1.8631569499443323e-05,0.1612057875260073,-1.443522459624941e-05,0.1612057875260073,-1.5945610166852225e-05,0.1612057875260073,-1.3260010166852229e-05
0.1619999047059384,-1.82956402899452e-05,0.1619999047059384,-1.158194245853326e-05,0.1619999047059384,-1.695267913016442e-05,0.1619999047059384,-1.510617841130232e-05
0.1627940218858694,-1.7288416720683308e-05,0.1627940218858694,-1.292442775977223e-05,0.1627940218858694,-1.6952781493485182e-05,0.1627940218858694,-1.628138149348518e-05
0.1635881390658005,-1.4266494442479973e-05,0.1635881390658005,-1.3930794442479972e-05,0.1635881390658005,-1.6280841424872686e-05,0.1635881390658005,-1.5609647221239987e-05
0.1643822562457316,-1.0237933289153796e-05,0.1643822562457316,-9.90304583339598e-06,0.1643822562457316,-1.309257920495546e-05,0.1643822562457316,-1.359536664134962e-05
0.1651763734256627,-7.554166100925218e-06,0.1651763734256627,-9.73581189024922e-06,0.1651763734256627,-1.42670423157296e-05,0.1651763734256627,-1.2253788421351996e-05
0.1659704906055937,-9.56611941242873e-06,0.1659704906055937,-1.0909447159919874e-05,0.1659704906055937,-1.3931715098996456e-05,0.1659704906055937,-1.3930424505017711e-05
0.1667646077855248,-7.554214955256617e-06,0.1667646077855248,-1.0406948715350442e-05,0.1667646077855248,-1.4267034173300609e-05,0.1667646077855248,-1.4267034173300609e-05
0.1675587249654559,-2.8550679620273613e-06,0.1675587249654559,-1.0238858159067954e-05,0.1675587249654559,-1.2924865133987197e-05,0.1675587249654559,-1.1918113984477591e-05
0.1683528421453869,-2.85344e-06,0.1683528421453869,-9.903166740294206e-06,0.1683528421453869,-1.1246233701471034e-05,0.1683528421453869,-1.2588566519411586e-05
0.169146959325318,-2.349915795637404e-06,0.169146959325318,-8.896061590762532e-06,0.169146959325318,-1.3259996817450383e-05,0.169146959325318,-1.22530171970916e-05
0.1699410765052491,-1.8460974054201845e-06,0.1699410765052491,-1.0239026422776923e-05,0.1699410765052491,-1.1917397038332968e-05,0.1699410765052491,-1.5609935307778024e-05
0.1707351936851801,6.720930550185313e-07,0.1707351936851801,-1.2588290553432092e-05,0.1707351936851801,-1.2924768489714315e-05,0.1707351936851801,-1.493851811068642e-05
0.1715293108651112,3.5246987367179874e-06,0.1715293108651112,-1.0910725068769062e-05,0.1715293108651112,-1.4434803118762868e-05,0.1715293108651112,-1.4603031267192266e-05
0.1723234280450423,3.1893815088801894e-06,0.1723234280450423,-1.2252033935701634e-05,0.1723234280450423,-1.3931862238139878e-05,0.1723234280450423,-1.4938358483925407e-05
0.1731175452249733,-3.185486747535615e-06,0.1731175452249733,-1.2588507722951596e-05,0.1731175452249733,-1.0911930493435637e-05,0.1731175452249733,-1.6951646337709578e-05
0.1739116624049044,-3.860244536560204e-06,0.1739116624049044,-1.3259814532308375e-05,0.1739116624049044,-1.1581314532308376e-05,0.1739116624049044,-1.896614359692513e-05
0.1747057795848355,-2.1825059504400883e-06,0.1747057795848355,-1.0910852334502536e-05,0.1747057795848355,-1.15816e-05,0.1747057795848355,-1.863139319064322e-05
0.1754998967647666,-5.538593526894035e-06,0.1754998967647666,-1.0406765464659963e-05,0.1754998967647666,-1.3931194467915693e-05,0.1754998967647666,-1.712079641998373e-05
0.1762940139446976,-5.874637459683582e-06,0.1762940139446976,-1.2253029478809882e-05,0.1762940139446976,-1.292436462542814e-05,0.1762940139446976,-1.4938605895761977e-05
0.1770881311246287,-1.174330174692633e-06,0.1770881311246287,-1.3931666316893704e-05,0.1770881311246287,-1.09102e-05,0.1770881311246287,-1.527416139433136e-05
0.1778822483045598,2.5176350178328398e-06,0.1778822483045598,-1.493823254677863e-05,0.1778822483045598,-1.0910619928668642e-05,0.1778822483045598,-1.4433687738546798e-05
0.1786763654844909,2.1809596880694057e-06,0.1786763654844909,-1.3762596871497947e-05,0.1786763654844909,-1.225361732399292e-05,0.1786763654844909,-1.023980312850205e-05
0.1794704826644219,-1.663198412777966e-07,0.1794704826644219,-1.1583019907209167e-05,0.1794704826644219,-1.3594926190925538e-05,0.1794704826644219,-1.241938009279083e-05
0.180264599844353,-2.8520865309771718e-06,0.180264599844353,-1.29237232632207e-05,0.180264599844353,-1.426686163161035e-05,0.180264599844353,-1.594392354075562e-05
0.181058717024284,-4.866912157610531e-06,0.181058717024284,-1.4602301795038838e-05,0.181058717024284,-1.7623003590077675e-05,0.181058717024284,-1.6281280359007767e-05
0.1818528342042151,-4.5320000977896285e-06,0.1818528342042151,-1.22534906845274e-05,0.1818528342042151,-1.8295459804420745e-05,0.1818528342042151,-1.8295179413262228e-05
0.1826469513841462,-1.6786647133775204e-06,0.1826469513841462,-1.2253e-05,0.1826469513841462,-1.5610164436696293e-05,0.1826469513841462,-1.795992055458704e-05
0.1834410685640773,-5.539667746951642e-06,0.1834410685640773,-1.1749588430318749e-05,0.1834410685640773,-1.376384640754986e-05,0.1834410685640773,-1.1917213034153331e-05
0.1842351857440083,-1.2924321468181852e-05,0.1842351857440083,-1.3931421468181852e-05,0.1842351857440083,-1.6616864404545556e-05,0.1842351857440083,-1.0910906786363329e-05
0.1850293029239394,-1.2588827913920098e-05,0.1850293029239394,-1.35958e-05,0.1850293029239394,-1.5609872086079904e-05,0.1850293029239394,-1.3930604602559324e-05
0.1858234201038705,-1.292415513065325e-05,0.1858234201038705,-1.35958e-05,0.1858234201038705,-1.527454486934675e-05,0.1858234201038705,-1.1583314085427242e-05
0.1866175372838016,-9.7371185223388e-06,0.1866175372838016,-1.1247269441806864e-05,0.1866175372838016,-1.4938795634543838e-05,0.1866175372838016,-1.2252608730912323e-05
0.1874116544637326,1.002425094487512e-06,0.1874116544637326,-1.0910346091341243e-05,0.1874116544637326,-1.5274153908658756e-05,0.1874116544637326,-1.3930769543293772e-05
0.1882057716436637,1.0236144940567152e-05,0.1882057716436637,-1.0238993096277306e-05,0.1882057716436637,-1.4938696548138651e-05,0.1882057716436637,-1.191787928883192e-05
0.1889998888235948,2.2657860831368238e-05,0.1889998888235948,-1.02388e-05,0.1889998888235948,-1.3595988019744198e-05,0.1889998888235948,-1.3259911980255802e-05
0.1897940060035258,2.6016539082359088e-05,0.1897940060035258,-1.2253002538266544e-05,0.1897940060035258,-1.5106419037377125e-05,0.1897940060035258,-1.4938584770400744e-05
0.1905881231834569,1.795828547755968e-05,0.1905881231834569,-1.2588673951508288e-05,0.1905881231834569,-1.7624356244407403e-05,0.1905881231834569,-1.2924426032977424e-05
0.191382240363388,7.550882641934475e-06,0.191382240363388,-1.2420749202800364e-05,0.191382240363388,-1.8631604874015216e-05,0.191382240363388,-1.3091336205426457e-05
0.192176357543319,-1.7003816848265785e-07,0.192176357543319,-1.2253905866356296e-05,0.192176357543319,-1.96380980445479e-05,0.192176357543319,-1.0238347071319253e-05
0.1929704747232501,-5.032263832212412e-06,0.1929704747232501,-1.4265869166755294e-05,0.1929704747232501,-1.8967443611081567e-05,0.1929704747232501,-9.2323754100151e-06
0.1937645919031812,-4.86771627084513e-06,0.1937645919031812,-1.2925090166761031e-05,0.1937645919031812,-1.6282780333522067e-05,0.1937645919031812,-1.1580392213307948e-05
0.1945587090831123,-9.062322526232053e-06,0.1945587090831123,-1.3931131004537e-05,0.1945587090831123,-1.3596783987901332e-05,0.1945587090831123,-1.2588331004537e-05
0.1953528262630433,-1.4266061445269654e-05,0.1953528262630433,-1.5609632723574688e-05,0.1953528262630433,-1.2253293821140249e-05,0.1953528262630433,-1.4602459268289625e-05
0.1961469434429744,-1.393152391208247e-05,0.1961469434429744,-1.426729564832988e-05,0.1961469434429744,-1.4602732615422709e-05,0.1961469434429744,-1.493857608791753e-05
0.1969410606229055,-9.902613011008224e-06,0.1969410606229055,-1.325997184439939e-05,0.1969410606229055,-1.5609948737759757e-05,0.1969410606229055,-1.4267251262240242e-05
0.1977351778028366,-3.5243037819802504e-06,0.1977351778028366,-1.1581825522968175e-05,0.1977351778028366,-1.4938750348645453e-05,0.1977351778028366,-1.4938900697290902e-05
0.1985292949827676,-1.182538184680965e-06,0.1985292949827676,-1.2589073681943748e-05,0.1985292949827676,-1.561e-05,0.1985292949827676,-1.6281524560647915e-05
0.1993234121626987,-2.1637458449822724e-05,0.1993234121626987,-1.3595055332143243e-05,0.1993234121626987,-1.561e-05,0.1993234121626987,-1.6616851777381082e-05
0.2001175293426297,-3.440153836178443e-05,0.2001175293426297,-1.5273305039803642e-05,0.2001175293426297,-1.4267995968157086e-05,0.2001175293426297,-1.695260100796073e-05
0.2009116465225608,-3.77646055116332e-05,0.2009116465225608,-1.493874944883668e-05,0.2009116465225608,-1.359609889767336e-05,0.2009116465225608,-1.628169889767336e-05
0.2017057637024919,-3.038289792394966e-05,0.2017057637024919,-1.2253799245072603e-05,0.2017057637024919,-1.3931400094365923e-05,0.2017057637024919,-1.62814e-05
0.202499880882423,-1.5276566294415062e-05,0.202499880882423,-1.3259948912705515e-05,0.202499880882423,-1.191760217458897e-05,0.202499880882423,-1.493880144972598e-05
0.203293998062354,-5.539053757564634e-06,0.203293998062354,-1.32601e-05,0.203293998062354,-1.2924397542313323e-05,0.203293998062354,-1.49386e-05
0.2040881152422851,-5.53903e-06,0.2040881152422851,-1.4602753828078862e-05,0.2040881152422851,-1.3595605104105148e-05,0.2040881152422851,-1.258884617192114e-05
0.2048822324222162,-5.536278530772719e-06,0.2048822324222162,-1.3595996534352584e-05,0.2048822324222162,-1.2253786137410345e-05,0.2048822324222162,-1.3596193068705171e-05
0.2056763496021472,3.865844467147584e-06,0.2056763496021472,-1.4267052375546107e-05,0.2056763496021472,-1.4938895248907784e-05,0.2056763496021472,-1.4936533257645508e-05
0.2064704667820783,1.593759430285553e-05,0.2064704667820783,-1.3931725158812942e-05,0.2064704667820783,-1.5609549682374117e-05,0.2064704667820783,-1.0241952223381182e-05
0.2072645839620094,1.3261507193485538e-05,0.2072645839620094,-1.4267024100814308e-05,0.2072645839620094,-1.8294192806514465e-05,0.2072645839620094,-1.1245372302442923e-05
0.2080587011419405,1.011711974562952e-06,0.2080587011419405,-1.3596052711966177e-05,0.2080587011419405,-1.5611010847864707e-05,0.2080587011419405,-1.4937210084186026e-05
0.2088528183218715,-1.1075334739901713e-05,0.2088528183218715,-1.2253307251122032e-05,0.2088528183218715,-1.3764022481733484e-05,0.2088528183218715,-1.2253614502244063e-05
0.2096469355018026,-8.896187255505656e-06,0.2096469355018026,-1.2420786369272648e-05,0.2096469355018026,-1.4938504552415735e-05,0.2096469355018026,-1.2420786369272648e-05
0.2104410526817337,-6.21042e-06,0.2104410526817337,-1.05745222736247e-05,0.2104410526817337,-1.82955777263753e-05,0.2104410526817337,-1.460295568074426e-05
0.2112351698616647,-6.211281797648732e-06,0.2112351698616647,-1.091048726730912e-05,0.2112351698616647,-1.795968454951816e-05,0.2112351698616647,-1.5441992285455657e-05
0.2120292870415958,-1.0238315174107552e-05,0.2120292870415958,-1.2253363622127274e-05,0.2120292870415958,-1.6952315170496966e-05,0.2120292870415958,-1.4938115170496966e-05
0.2128234042215269,-8.897016296070279e-06,0.2128234042215269,-1.325934527232674e-05,0.2128234042215269,-1.561100630356435e-05,0.2128234042215269,-1.3596806303564348e-05
0.2136175214014579,-2.8570822735416277e-06,0.2136175214014579,-9.569635838854068e-06,0.2136175214014579,-1.1584028194416463e-05,0.2136175214014579,-1.5944283553257062e-05
0.214411638581389,-3.1889871936678985e-06,0.214411638581389,-1.1077412353298057e-05,0.214411638581389,-1.5272619130346884e-05,0.214411638581389,-1.59457e-05
0.2152057557613201,-5.538307161169408e-06,0.2152057557613201,-1.1581445120685988e-05,0.2152057557613201,-1.6952283684352396e-05,0.2152057557613201,-1.2925329368165688e-05
0.2159998729412512,-5.035560579890376e-06,0.2159998729412512,-1.2252892560146163e-05,0.2159998729412512,-1.225375207897684e-05,0.2159998729412512,-1.4099111988256972e-05
0.2167939901211822,-3.8605446185350965e-06,0.2167939901211822,-1.3092189558811308e-05,0.2167939901211822,-1.3595783293102747e-05,0.2167939901211822,-1.510638746982706e-05
0.2175881073011133,-7.553174633521732e-06,0.2175881073011133,-1.1749286590561328e-05,0.2175881073011133,-1.4938418534086932e-05,0.2175881073011133,-1.393118243465213e-05
0.2183822244810444,-7.21761490968087e-06,0.2183822244810444,-1.0910769458085226e-05,0.2183822244810444,-1.3595420361276516e-05,0.2183822244810444,-1.1581505090319128e-05
0.2191763416609755,-7.550911669687675e-06,0.2191763416609755,-1.2924183571739304e-05,0.2191763416609755,-1.2254298440635508e-05,0.2191763416609755,-1.1246044271181724e-05
0.2199704588409065,-2.1856961797478927e-06,0.2199704588409065,-1.2421142802162846e-05,0.2199704588409065,-1.52722433912339e-05,0.2199704588409065,-1.1581371487914875e-05
0.2207645760208376,-2.853081486637771e-06,0.2207645760208376,-1.0239965141728303e-05,0.2207645760208376,-1.76229452032322e-05,0.2207645760208376,-1.5943369663145512e-05
0.2215586932007686,-6.2091228729426015e-06,0.2215586932007686,-1.2587792005650262e-05,0.2215586932007686,-1.695305942695707e-05,0.2215586932007686,-1.59457e-05
0.2223528103806997,-3.189861527707066e-06,0.2223528103806997,-1.4434559075423146e-05,0.2223528103806997,-1.158288272441488e-05,0.2223528103806997,-1.2421641799838028e-05
0.2231469275606308,-1.5107931353666896e-06,0.2231469275606308,-1.2924537817268348e-05,0.2231469275606308,-9.90325313536669e-06,0.2231469275606308,-1.4938370292388293e-05
0.2239410447405619,-3.189215663953534e-06,0.2239410447405619,-1.2253151329034034e-05,0.2239410447405619,-1.1078241868151992e-05,0.2239410447405619,-1.4938618916129254e-05
0.2247351619204929,-4.53158770538001e-06,0.2247351619204929,-1.4938360382141992e-05,0.2247351619204929,-1.3595936918663716e-05,0.2247351619204929,-1.5273991922810133e-05
0.225529279100424,-2.855443509228928e-06,0.225529279100424,-1.3763305382294512e-05,0.225529279100424,-1.426696429179282e-05,0.225529279100424,-1.3764483923330406e-05
0.2263233962803551,-8.55597622700652e-06,0.2263233962803551,-1.292503728493835e-05,0.2263233962803551,-1.3596309858326512e-05,0.2263233962803551,-1.627948799330579e-05
0.2271175134602862,-1.828963450225401e-05,0.2271175134602862,-1.1246928535150638e-05,0.2271175134602862,-1.493777717187949e-05,0.2271175134602862,-1.846206293494269e-05
0.2279116306402172,-1.6617880819137734e-05,0.2279116306402172,-1.325916301703472e-05,0.2279116306402172,-1.5945231508517357e-05,0.2279116306402172,-1.3765786293585656e-05
0.2287057478201483,-1.8295066896875287e-05,0.2287057478201483,-1.4938066896875284e-05,0.2287057478201483,-1.4938919861874829e-05,0.2287057478201483,-1.1582293018181786e-05
0.2294998650000794,-3.390284592536445e-05,0.2294998650000794,-1.4602957077422352e-05,0.2294998650000794,-1.443508562463478e-05,0.2294998650000794,-1.15816e-05
0.2302939821800104,-4.397627397340724e-05,0.2302939821800104,-1.3595822602659276e-05,0.2302939821800104,-1.3931511300207473e-05,0.2302939821800104,-1.2588677397340724e-05
0.2310880993599415,-5.7236200920919895e-05,0.2310880993599415,-1.35958e-05,0.2310880993599415,-1.560991598203431e-05,0.2310880993599415,-1.225308401796569e-05
0.2318822165398726,-5.404141179330443e-05,0.2318822165398726,-1.3595250686887376e-05,0.2318822165398726,-1.4938325343443688e-05,0.2318822165398726,-1.2924583104370876e-05
0.2326763337198036,-3.171405854623495e-05,0.2326763337198036,-1.1582022753728662e-05,0.2326763337198036,-1.393248642536688e-05,0.2326763337198036,-1.35958e-05
0.2334704508997347,-9.247244902962393e-06,0.2334704508997347,-1.2588004403928123e-05,0.2334704508997347,-1.6279776942498958e-05,0.2334704508997347,-1.35958e-05
0.2342645680796658,1.39188996707764e-05,0.2342645680796658,-1.7285943401528326e-05,0.2342645680796658,-1.829450431494071e-05,0.2342645680796658,-1.4937869543293809e-05
0.2350586852595969,1.8629437006364612e-05,0.2350586852595969,-1.4939531496817691e-05,0.2350586852595969,-1.661776535486978e-05,0.2350586852595969,-1.6952001574156265e-05
0.2358528024395279,3.071339302511258e-05,0.2358528024395279,-1.49386e-05,0.2358528024395279,-1.8630798833371816e-05,0.2358528024395279,-1.930211530560045e-05
0.236646919619459,5.790524726005299e-05,0.236646919619459,-1.2421054889327536e-05,0.236646919619459,-1.4938973830256487e-05,0.236646919619459,-2.0477481059071044e-05
0.2374410367993901,0.0001297444950923,0.2374410367993901,-1.1917191090026726e-05,0.2374410367993901,-1.6281407776999567e-05,0.2374410367993901,-2.064540664819708e-05
0.2382351539793211,7.569934898163575e-05,0.2382351539793211,-9.567149592654302e-06,0.2382351539793211,-1.6448972153268946e-05,0.2382351539793211,-1.863110469449073e-05
0.2390292711592522,7.233693149004281e-05,0.2390292711592522,-8.224438252163678e-06,0.2390292711592522,-1.5273383993348638e-05,0.2390292711592522,-1.76247725041571e-05
0.2398233883391833,5.456468889213907e-05,0.2398233883391833,-7.721457415959291e-06,0.2398233883391833,-1.2590766259483402e-05,0.2398233883391833,-1.9301408587822878e-05
0.2406175055191144,5.018961783883229e-05,0.2406175055191144,-1.0908213899462608e-05,0.2406175055191144,-1.0408058888277553e-05,0.2406175055191144,-1.695426345167893e-05
0.2414116226990454,6.327297866840421e-05,0.2414116226990454,-1.0239119042645936e-05,0.2414116226990454,-8.225646907606903e-06,0.2414116226990454,-1.2255233298521566e-05
0.2422057398789765,1.6967976915090335e-05,0.2422057398789765,-5.540569683857026e-06,0.2422057398789765,-9.566970087518491e-06,0.2422057398789765,-1.2253e-05
0.2429998570589076,-1.8960533481799692e-05,0.2429998570589076,-7.049398044670235e-06,0.2429998570589076,-1.292379565262242e-05,0.2429998570589076,-1.091044173967114e-05
0.2437939742388386,-2.769481681864947e-05,0.2437939742388386,-8.224571879321274e-06,0.2437939742388386,-1.426715643313923e-05,0.2437939742388386,-8.224697133397092e-06
0.2445880914187697,-5.1534608715873854e-05,0.2445880914187697,-7.888987302974823e-06,0.2445880914187697,-1.4267354605949645e-05,0.2445880914187697,-9.90364112082376e-06
0.2453822085987008,-9.416057779619176e-05,0.2453822085987008,-8.560398194690004e-06,0.2453822085987008,-1.5609118053099965e-05,0.2453822085987008,-1.460263541592999e-05
0.2461763257786318,-8.339963999852484e-05,0.2461763257786318,-8.896147564637385e-06,0.2461763257786318,-1.2253137564637385e-05,0.2461763257786318,-1.3595662435362614e-05
0.2469704429585629,-3.1088793966057814e-05,0.2469704429585629,-9.231474781370552e-06,0.2469704429585629,-1.2588464781370551e-05,0.2469704429585629,-1.326033521862945e-05
0.247764560138494,-6.895209893905737e-06,0.247764560138494,-1.3257868345475892e-05,0.247764560138494,-1.3595242084984018e-05,0.247764560138494,-1.86283244532481e-05
0.2485586773184251,-1.35930714387402e-05,0.2485586773184251,-1.393122714306122e-05,0.2485586773184251,-1.2589109285408167e-05,0.2485586773184251,-1.829573642846939e-05
0.2493527944983561,-2.114704509443796e-05,0.2493527944983561,-1.5609565573666014e-05,0.2493527944983561,-1.3259926229466403e-05,0.2493527944983561,-1.259017704953556e-05
0.2501469116782872,-3.843557688925524e-05,0.2501469116782872,-1.7120431966272897e-05,0.2501469116782872,-1.4602750631743178e-05,0.2501469116782872,-1.0574724052385232e-05
0.2509410288582183,-6.160028516129526e-05,0.2509410288582183,-1.6952696288506547e-05,0.2509410288582183,-1.577784270580158e-05,0.2509410288582183,-1.1581612201138374e-05
0.2517351460381494,-5.018220744847654e-05,0.2517351460381494,-1.4099454370048864e-05,0.2517351460381494,-1.6952676511317997e-05,0.2517351460381494,-1.1917176511317996e-05
0.2525292632180804,-2.4667742497751843e-05,0.2525292632180804,-1.4937933114644491e-05,0.2525292632180804,-1.6281900147462033e-05,0.2525292632180804,-1.1246233442677754e-05
0.2533233803980115,-6.392529052539061e-06,0.2533233803980115,-1.2925969814245564e-05,0.2533233803980115,-1.7790822678284502e-05,0.2533233803980115,-1.2252215092877216e-05
0.2541174975779426,5.196001471914345e-06,0.2541174975779426,-1.359537515595801e-05,0.2541174975779426,-1.6617843445434813e-05,0.2541174975779426,-1.2588487577979006e-05
0.2549116147578736,-5.007790707611684e-07,0.2549116147578736,-1.2253651515273656e-05,0.2549116147578736,-1.42683401517289e-05,0.2549116147578736,-1.3930848484726342e-05
0.2557057319378047,-2.181473324621825e-06,0.2557057319378047,-1.2924173328768378e-05,0.2557057319378047,-1.42672e-05,0.2557057319378047,-1.292474000684743e-05
0.2564998491177358,-1.3090126763673306e-05,0.2564998491177358,-1.560948966069435e-05,0.2564998491177358,-1.5609744830347175e-05,0.2564998491177358,-1.091058275447924e-05
0.2572939662976669,-2.635173715830257e-05,0.2572939662976669,-1.561e-05,0.2572939662976669,-1.6617057252368123e-05,0.2572939662976669,-1.292431450473624e-05
0.2580880834775979,-3.642580586291686e-05,0.2580880834775979,-1.3260276469959888e-05,0.2580880834775979,-1.3931782351935822e-05,0.2580880834775979,-1.2924258824032089e-05
0.258882200657529,-6.025501553538423e-05,0.258882200657529,-1.4938090976832513e-05,0.258882200657529,-1.6616760651221675e-05,0.258882200657529,-1.1582024185972906e-05
0.2596763178374601,-4.8833094748011416e-05,0.2596763178374601,-1.2924668422730431e-05,0.2596763178374601,-1.52743e-05,0.2596763178374601,-1.3260032874327614e-05
0.2604704350173911,-2.1336462753799645e-05,0.2604704350173911,-1.359532285619674e-05,0.2604704350173911,-1.52743e-05,0.2604704350173911,-1.3092319321484312e-05
0.2612645521973222,-8.903015173555418e-06,0.2612645521973222,-1.4937842683330243e-05,0.2612645521973222,-1.4267767987502317e-05,0.2612645521973222,-1.2924494636384556e-05
0.2620586693772533,-7.553779139695233e-06,0.2620586693772533,-1.4267479571929624e-05,0.2620586693772533,-1.225383871578887e-05,0.2620586693772533,-1.4266640856140751e-05
0.2628527865571843,-3.5259129104585803e-06,0.2628527865571843,-1.2253541456573387e-05,0.2628527865571843,-1.3595439028951071e-05,0.2628527865571843,-1.4434954892059868e-05
0.2636469037371154,3.352299577312477e-07,0.2636469037371154,-1.258865930044035e-05,0.2636469037371154,-1.1581844197357906e-05,0.2636469037371154,-1.3260242442396884e-05
0.2644410209170465,-1.6783573461456715e-07,0.2644410209170465,-1.3260082312714048e-05,0.2644410209170465,-1.3763635374571904e-05,0.2644410209170465,-1.527432653092893e-05
0.2652351380969776,3.358439657224867e-07,0.2652351380969776,-1.2589108707918898e-05,0.2652351380969776,-1.510675032107334e-05,0.2652351380969776,-1.6281049678926658e-05
0.2660292552769086,1.176125733946744e-06,0.2660292552769086,-1.49386e-05,0.2660292552769086,-1.7120330530337477e-05,0.2660292552769086,-1.4267523382861213e-05
0.2668233724568397,4.864715129116357e-06,0.2668233724568397,-1.49386e-05,0.2668233724568397,-1.6282062432981254e-05,0.2668233724568397,-1.5273505033060745e-05
0.2676174896367708,5.20311422048356e-06,0.2676174896367708,-1.2254726236131524e-05,0.2676174896367708,-1.62814e-05,0.2676174896367708,-1.7287205322901356e-05
0.2684116068167018,3.861194945255347e-06,0.2684116068167018,-1.3762851961347388e-05,0.2684116068167018,-1.5610332472627674e-05,0.2684116068167018,-1.5610831181569184e-05
0.2692057239966329,4.531696613777534e-06,0.2692057239966329,-1.258910840850875e-05,0.2692057239966329,-1.561e-05,0.2692057239966329,-1.3596500158667395e-05
0.269999841176564,5.203195700182695e-06,0.269999841176564,-1.0239270049360564e-05,0.269999841176564,-1.4938734299817304e-05,0.269999841176564,-1.2924534299817304e-05
0.270793958356495,3.860600426824193e-06,0.270793958356495,-1.0910164786587905e-05,0.270793958356495,-1.7624059146351614e-05,0.270793958356495,-1.6281223932939515e-05
0.2715880755364261,4.364143872993111e-06,0.2715880755364261,-1.3931340317517223e-05,0.2715880755364261,-1.9302795809489663e-05,0.2715880755364261,-1.7624008381020666e-05
0.2723821927163572,5.034868904683638e-06,0.2723821927163572,-1.2253e-05,0.2723821927163572,-2.03098e-05,0.2723821927163572,-1.5609674081203456e-05
0.2731763098962882,2.518197999427638e-06,0.2731763098962882,-1.225378514855835e-05,0.2731763098962882,-2.030875313525553e-05,0.2731763098962882,-1.4266938283813882e-05
0.2739704270762193,3.691833269098252e-06,0.2739704270762193,-1.4265748448957136e-05,0.2739704270762193,-1.7626135401390482e-05,0.2739704270762193,-1.359628385034762e-05
0.2747645442561504,5.2024629100172304e-06,0.2747645442561504,-1.4938214626674324e-05,0.2747645442561504,-1.896622925334865e-05,0.2747645442561504,-1.4937829253348648e-05
0.2755586614360815,2.518885143418029e-06,0.2755586614360815,-1.0240804008443603e-05,0.2755586614360815,-1.829588628692052e-05,0.2755586614360815,-1.2421873597272076e-05
0.2763527786160125,-1.6710020100561739e-07,0.2763527786160125,-1.0910012799484646e-05,0.2763527786160125,-1.628196160154606e-05,0.2763527786160125,-1.1581833986703134e-05
0.2771468957959436,5.034598862836189e-07,0.2771468957959436,-1.4938071315339405e-05,0.2771468957959436,-1.728836782883485e-05,0.2771468957959436,-1.3595535657669702e-05
0.2779410129758747,1.510601597196078e-06,0.2779410129758747,-1.2253013714551704e-05,0.2779410129758747,-1.4938621944590123e-05,0.2779410129758747,-1.393148902770494e-05
0.2787351301558057,-8.393010283665662e-07,0.2787351301558057,-1.309206243482093e-05,0.2787351301558057,-1.6280794677148776e-05,0.2787351301558057,-1.3260430176100668e-05
0.2795292473357368,-1.17494e-06,0.2795292473357368,-1.2253626646089478e-05,0.2795292473357368,-1.2589222205074566e-05,0.2795292473357368,-1.527461332304474e-05
0.2803233645156679,-1.17494e-06,0.2803233645156679,-1.4265589946488404e-05,0.2803233645156679,-1.4265858288740337e-05,0.2803233645156679,-1.6280594973244202e-05
0.2811174816955989,-1.5104208629881377e-06,0.2811174816955989,-1.560912345195255e-05,0.2811174816955989,-1.69510469039051e-05,0.2811174816955989,-1.4603995685059312e-05
0.2819115988755301,-3.523812442196394e-06,0.2819115988755301,-1.3596817562855552e-05,0.2819115988755301,-1.5610678375237035e-05,0.2819115988755301,-1.46029e-05
0.2827057160554611,-2.8536800976372284e-06,0.2827057160554611,-7.555380903767952e-06,0.2827057160554611,-1.2925360404853425e-05,0.2827057160554611,-1.5609639848179966e-05
0.2834998332353922,-3.3622680385030904e-07,0.2834998332353922,-5.539453042324136e-06,0.2834998332353922,-1.4266917970383705e-05,0.2834998332353922,-1.4267482029616296e-05
0.2842939504153233,-3.1889618047870954e-06,0.2842939504153233,-9.56715843083134e-06,0.2842939504153233,-1.493855807159706e-05,0.2842939504153233,-1.493855807159706e-05
0.2850880675952543,-1.678775789159775e-07,0.2850880675952543,-1.4435757339272788e-05,0.2850880675952543,-1.225272850034078e-05,0.2850880675952543,-1.5609942841997783e-05
0.2858821847751854,-5.051104375578078e-07,0.2858821847751854,-2.333420301035131e-05,0.2858821847751854,-9.064289669793155e-06,0.2858821847751854,-1.4938053144574169e-05
0.2866763019551165,-7.2192412884949215e-06,0.2866763019551165,-3.710005516449607e-05,0.2866763019551165,-1.0910710019283604e-05,0.2866763019551165,-1.2589465028925407e-05
0.2874704191350475,-1.1746088792125092e-05,0.2874704191350475,-5.11836983783351e-05,0.2874704191350475,-1.2252018886216222e-05,0.2874704191350475,-1.4601428329324332e-05
0.2882645363149786,-1.2588209860404984e-05,0.2882645363149786,-4.34775089572419e-05,0.2882645363149786,-1.1749694095436734e-05,0.2882645363149786,-1.359638813247485e-05
0.2890586534949096,-1.4602020994265784e-05,0.2890586534949096,-1.1595517547151336e-05,0.2890586534949096,-1.0071732461138075e-05,0.2890586534949096,-1.0911372007645625e-05
0.2898527706748408,-1.8965739549209712e-05,0.2898527706748408,2.264971036694843e-05,0.2898527706748408,-8.3929448003184e-06,0.2898527706748408,-9.73559934924762e-06
0.2906468878547718,-1.292525346190891e-05,0.2906468878547718,3.9442229272475245e-05,0.2906468878547718,-7.888981121825743e-06,0.2906468878547718,-9.567433707275248e-06
0.2914410050347029,-1.007198982004921e-06,0.2914410050347029,3.4744697825334e-05,0.2914410050347029,-8.896031286457445e-06,0.2914410050347029,-9.567412128588675e-06
0.292235122214634,-1.662221548282969e-05,0.292235122214634,1.862879392120448e-05,0.292235122214634,-1.2253310031128136e-05,0.292235122214634,-9.903410031128135e-06
0.293029239394565,-4.9853828281311646e-05,0.293029239394565,2.346907923633718e-06,0.293029239394565,-1.4268210877427556e-05,0.293029239394565,-1.1917603263228267e-05
0.2938233565744961,-5.8572335916373664e-05,0.2938233565744961,-7.545205014412957e-06,0.2938233565744961,-1.7621483044759102e-05,0.2938233565744961,-1.292358491342773e-05
0.2946174737544272,-3.5096074549232134e-05,0.2946174737544272,-1.3591795112124432e-05,0.2946174737544272,-1.846284379687068e-05,0.2946174737544272,-1.5272742538449007e-05
0.2954115909343582,-1.7297666367629717e-05,0.2954115909343582,-1.762212458434355e-05,0.2954115909343582,-1.6282524157720775e-05,0.2954115909343582,-1.6448594696193338e-05
0.2962057081142893,1.8282518777936308e-05,0.2962057081142893,-1.8630929775693628e-05,0.2962057081142893,-1.1247751121531856e-05,0.2962057081142893,-1.896607442085336e-05
0.2969998252942204,1.930247840530151e-05,0.2969998252942204,-1.9638178405301512e-05,0.2969998252942204,-1.0910273864899495e-05,0.2969998252942204,-1.8295747729798997e-05
0.2977939424741515,9.885743578681122e-05,0.2977939424741515,-2.131677839151542e-05,0.2977939424741515,-1.258857839151542e-05,0.2977939424741515,-1.846338784277408e-05
0.2985880596540825,0.0001372974311456,0.2985880596540825,-2.265939823546779e-05,0.2985880596540825,-1.3596001772045316e-05,0.2985880596540825,-1.728853782850194e-05
0.2993821768340136,8.978718818407058e-05,0.2993821768340136,-1.9973950470583417e-05,0.2993821768340136,-1.6280801882333663e-05,0.2993821768340136,-1.779256074644783e-05
0.3001762940139447,3.539230091932857e-05,0.3001762940139447,-1.930232754535384e-05,0.3001762940139447,-1.3595055090707676e-05,0.3001762940139447,-2.030831018141536e-05
0.3009704111938757,-2.915793857942007e-05,0.3009704111938757,-1.8296345895154376e-05,0.3009704111938757,-1.1583091790308751e-05,0.3009704111938757,-1.6284383580617504e-05
0.3017645283738068,-4.866473476348249e-05,0.3017645283738068,-1.9973102991731358e-05,0.3017645283738068,-1.0575098204961186e-05,0.3017645283738068,-1.4268396409922372e-05
0.3025586455537379,-2.2335663866093017e-05,0.3025586455537379,-1.99741e-05,0.3025586455537379,-9.23230942934044e-06,0.3025586455537379,-1.2589449292255626e-05
0.3033527627336689,9.8934697959068e-06,0.3033527627336689,-1.628250346773373e-05,0.3033527627336689,-8.560510630497043e-06,0.3033527627336689,-1.3931098739005917e-05
0.3041468799136,-3.341494604634119e-07,0.3041468799136,-1.5274452316137822e-05,0.3041468799136,-8.22466077204594e-06,0.3041468799136,-1.426714922795406e-05
0.3049409970935311,-2.5680807222869838e-05,0.3049409970935311,-1.6952793855783318e-05,0.3049409970935311,-9.903093855819922e-06,0.3049409970935311,-1.1581609830746691e-05
0.3057351142734621,-3.205973145795194e-05,0.3057351142734621,-1.661729325743707e-05,0.3057351142734621,-1.2252685963860825e-05,0.3057351142734621,-1.0910586514874136e-05
0.3065292314533932,-3.575297507917632e-05,0.3065292314533932,-1.79595090621177e-05,0.3065292314533932,-1.0071293203411724e-05,0.3065292314533932,-1.35954090621177e-05
0.3073233486333243,-3.944157446324128e-05,0.3073233486333243,-1.661820019518499e-05,0.3073233486333243,-1.1077274853611258e-05,0.3073233486333243,-1.2254100195184989e-05
0.3081174658132554,-3.776722926001365e-05,0.3081174658132554,-1.762352244399181e-05,0.3081174658132554,-1.560695103160211e-05,0.3081174658132554,-1.2420687107637598e-05
0.3089115829931864,-3.3068768323202094e-05,0.3089115829931864,-1.56110578528009e-05,0.3089115829931864,-1.6952094764799404e-05,0.3089115829931864,-1.4601753966539151e-05
0.3097057001731175,-2.6019262077547966e-05,0.3097057001731175,-1.25898408903777e-05,0.3097057001731175,-1.7959519703207432e-05,0.3097057001731175,-1.292503382798761e-05
0.3104998173530486,-2.400286333436965e-05,0.3104998173530486,-1.25887e-05,0.3104998173530486,-2.0309259443235407e-05,0.3104998173530486,-1.1078524711670484e-05
0.3112939345329796,-2.299538303757709e-05,0.3112939345329796,-1.3595716962422916e-05,0.3112939345329796,-2.098114464161528e-05,0.3112939345329796,-1.0910213843718788e-05
0.3120880517129107,-1.8966868815938404e-05,0.3120880517129107,-1.2252825088569167e-05,0.3120880517129107,-1.86313e-05,0.3120880517129107,-1.3931478135989734e-05
0.3128821688928418,-1.6952371556722923e-05,0.3128821688928418,-9.566910151637187e-06,0.3128821688928418,-1.863108577836146e-05,0.3128821688928418,-1.3595514371148616e-05
0.3136762860727728,-1.4937633613787685e-05,0.3136762860727728,-7.218607177292055e-06,0.3136762860727728,-1.762474357425243e-05,0.3136762860727728,-1.225324159655308e-05
0.314470403252704,-1.225501587992226e-05,0.314470403252704,-1.0236532150099966e-05,0.314470403252704,-1.9133666105075003e-05,0.314470403252704,-1.2923896030019436e-05
0.315264520432635,-1.2588497240850849e-05,0.315264520432635,-9.56781551225841e-06,0.315264520432635,-1.91348e-05,0.315264520432635,-1.3595394481701698e-05
0.3160586376125661,-1.1246512863786188e-05,0.3160586376125661,-8.392996255812915e-06,0.3160586376125661,-1.527606196056492e-05,0.3160586376125661,-1.560908070432072e-05
0.3168527547924971,-6.883167739495053e-06,0.3168527547924971,-7.55347917877166e-06,0.3168527547924971,-1.3931914690975866e-05,0.3168527547924971,-1.5274403672743967e-05
0.3176468719724282,-3.1897354217301134e-06,0.3176468719724282,-1.0909658707811248e-05,0.3176468719724282,-1.6952312834127736e-05,0.3176468719724282,-1.3596070647706813e-05
0.3184409891523593,-1.510662931693794e-06,0.3184409891523593,-8.22464669057345e-06,0.3184409891523593,-1.661710458633876e-05,0.3184409891523593,-1.2253018345355037e-05
0.3192351063322903,-3.52509974118293e-06,0.3192351063322903,-1.1581779827455286e-05,0.3192351063322903,-1.426713255800828e-05,0.3192351063322903,-1.3931320172544714e-05
0.3200292235122214,-5.538180572025718e-06,0.3200292235122214,-1.2923928094007913e-05,0.3200292235122214,-1.3764307873045504e-05,0.3200292235122214,-1.2588888762396835e-05
0.3208233406921525,-2.520245610322672e-06,0.3208233406921525,-1.124729201034214e-05,0.3208233406921525,-1.6279311943020888e-05,0.3208233406921525,-1.3259543195863143e-05
0.3216174578720835,-1.679063023745439e-06,0.3216174578720835,-1.3594195533512773e-05,0.3216174578720835,-1.5274987628494527e-05,0.3216174578720835,-1.4937453952509122e-05
0.3224115750520147,-2.3495306674089035e-06,0.3224115750520147,-1.4937881334817809e-05,0.3224115750520147,-1.6280861001113356e-05,0.3224115750520147,-1.7622762669635614e-05
0.3232056922319457,-2.182105061546484e-06,0.3232056922319457,-1.225404098474374e-05,0.3232056922319457,-1.7288109630721095e-05,0.3232056922319457,-1.7959769876907032e-05
0.3239998094118768,-1.683324771820055e-07,0.3239998094118768,-1.3763237402495029e-05,0.3239998094118768,-1.4939164059232712e-05,0.3239998094118768,-1.7624280579890386e-05
0.3247939265918079,3.356514452456858e-07,0.3247939265918079,-1.3092262073375568e-05,0.3247939265918079,-1.49386e-05,0.3247939265918079,-1.661719311006335e-05
0.3255880437717389,-8.392089871357436e-07,0.3255880437717389,-1.5274170454396257e-05,0.3255880437717389,-1.4267385065148205e-05,0.3255880437717389,-1.4434953736469357e-05
0.32638216095167,-1.68189246762615e-07,0.32638216095167,-1.29244e-05,0.32638216095167,-1.7624370114158006e-05,0.32638216095167,-1.3596344397739204e-05
0.3271762781316011,-1.8468097800175284e-06,0.3271762781316011,-1.2924165109991236e-05,0.3271762781316011,-1.846275406996845e-05,0.3271762781316011,-1.6281282554995618e-05
0.3279703953115321,-3.1881186469501466e-06,0.3279703953115321,-1.2253510676524926e-05,0.3279703953115321,-1.6618504322412827e-05,0.3279703953115321,-1.594595533826246e-05
0.3287645124914632,-5.873071079123228e-06,0.3287645124914632,-1.2253e-05,0.3287645124914632,-1.4939630583222864e-05,0.3287645124914632,-1.393273669986744e-05
0.3295586296713942,-3.5259260094298597e-06,0.3295586296713942,-1.2253e-05,0.3295586296713942,-1.5609686853116015e-05,0.3295586296713942,-1.2924869720325976e-05
0.3303527468513254,-1.511282178248061e-06,0.3303527468513254,-1.52733367278455e-05,0.3303527468513254,-1.6281185939521222e-05,0.3303527468513254,-1.3595585939521222e-05
0.3311468640312564,-4.867055131344372e-06,0.3311468640312564,-1.3931729948147233e-05,0.3311468640312564,-1.4267544922220847e-05,0.3311468640312564,-1.4267085025926384e-05
0.3319409812111875,-5.035476028082898e-06,0.3319409812111875,-9.56751326960802e-06,0.3319409812111875,-1.3595815887668408e-05,0.3319409812111875,-1.5609968224663184e-05
0.3327350983911186,-3.1890984006316005e-06,0.3327350983911186,-1.0742587190961884e-05,0.3327350983911186,-1.42672415993684e-05,0.3327350983911186,-1.39314168012632e-05
0.3335292155710496,-2.8535310279262368e-06,0.3335292155710496,-1.2253455139631183e-05,0.3335292155710496,-1.4603264111704948e-05,0.3335292155710496,-1.3259917944147527e-05
0.3343233327509807,-3.1888582446593912e-06,0.3343233327509807,-1.3930091223296956e-05,0.3343233327509807,-1.5944572978637564e-05,0.3343233327509807,-1.2589263510681218e-05
0.3351174499309118,-5.537402037972639e-06,0.3351174499309118,-1.2589630267974391e-05,0.3351174499309118,-1.829397203104482e-05,0.3351174499309118,-1.25887e-05
0.3359115671108428,-4.196962095163976e-06,0.3359115671108428,-1.3595250928627018e-05,0.3359115671108428,-1.8631116976209005e-05,0.3359115671108428,-1.3595250928627018e-05
0.3367056842907739,-3.860663480588413e-06,0.3367056842907739,-1.4938066077646349e-05,0.3367056842907739,-1.5107801566059272e-05,0.3367056842907739,-1.35958e-05
0.337499801470705,-5.043873693574306e-07,0.337499801470705,-1.3260519686929048e-05,0.337499801470705,-1.5274258018805252e-05,0.337499801470705,-1.5273880313070955e-05
0.338293918650636,1.8460992419470227e-06,0.338293918650636,-1.4267096817450384e-05,0.338293918650636,-1.6616962423267178e-05,0.338293918650636,-1.1246312730198466e-05
0.3390880358305671,-3.189200595626233e-06,0.3390880358305671,-1.3931515149019375e-05,0.3390880358305671,-1.5945684850980624e-05,0.3390880358305671,-1.1581721192154998e-05
0.3398821530104982,-4.531994692221979e-06,0.3398821530104982,-1.4267070615556042e-05,0.3398821530104982,-1.561e-05,0.3398821530104982,-1.4266747154446148e-05
0.3406762701904293,-4.867173633071101e-06,0.3406762701904293,-1.3595400661944104e-05,0.3406762701904293,-1.5608402715748854e-05,0.3406762701904293,-1.19173e-05
0.3414703873703603,-3.525864766138577e-06,0.3414703873703603,-1.242170545890142e-05,0.3414703873703603,-1.0913821681485018e-05,0.3414703873703603,-1.19173e-05
0.3422645045502914,3.855921593879793e-06,0.3422645045502914,-1.510472420688004e-05,0.3422645045502914,-1.09102e-05,0.3422645045502914,-1.17495047682696e-05
0.3430586217302225,6.880380626327372e-06,0.3430586217302225,-1.359651966539785e-05,0.3430586217302225,-1.158128013812517e-05,0.3430586217302225,-1.1581679941648192e-05
0.3438527389101535,7.552999224530332e-06,0.3438527389101535,-1.1582262326409003e-05,0.3438527389101535,-1.0910420775469667e-05,0.3438527389101535,-1.2252779224530331e-05
0.3446468560900846,5.707204644927266e-06,0.3446468560900846,-1.359543493280662e-05,0.3446468560900846,-1.124583915546777e-05,0.3446468560900846,-1.359555662187108e-05
0.3454409732700157,8.394098684042928e-07,0.3454409732700157,-1.2924422602659252e-05,0.3454409732700157,-1.12459e-05,0.3454409732700157,-1.5609932192022242e-05
0.3462350904499467,-2.85458725163195e-06,0.3462350904499467,-1.2252885274381136e-05,0.3462350904499467,-9.90355890247545e-06,0.3462350904499467,-1.3595570548762276e-05
0.3470292076298778,-1.2928082309354364e-05,0.3470292076298778,-1.1245198605379062e-05,0.3470292076298778,-1.393233289615527e-05,0.3470292076298778,-1.1581950698616315e-05
0.3478233248098089,-2.701172552319341e-05,0.3478233248098089,-8.562590860409172e-06,0.3478233248098089,-1.7117891510643512e-05,0.3478233248098089,-1.2923259565548937e-05
0.34861744198974,-2.836555630204392e-05,0.34861744198974,-7.88938184897804e-06,0.34861744198974,-1.577874369795608e-05,0.34861744198974,-1.7285432981642742e-05
0.349411559169671,-2.903752723742712e-05,0.349411559169671,-1.0237495336546943e-05,0.349411559169671,-1.4939065925456e-05,0.349411559169671,-1.6281959143859316e-05
0.3502056763496021,-4.850046343189956e-05,0.3502056763496021,-8.560994186342976e-06,0.3502056763496021,-1.2254094704670682e-05,0.3502056763496021,-1.4435752629842102e-05
0.3509997935295332,-5.5556266807494136e-05,0.3509997935295332,-6.8822564718057735e-06,0.3509997935295332,-1.4937901640950149e-05,0.3509997935295332,-1.2253567403726085e-05
0.3517939107094642,-4.179604780757903e-05,0.3517939107094642,-1.2923720472033412e-05,0.3517939107094642,-1.6616911241606746e-05,0.3517939107094642,-1.5945284731534835e-05
0.3525880278893953,-1.1580491600260953e-05,0.3525880278893953,-1.460281745933233e-05,0.3525880278893953,-1.930257029323652e-05,0.3525880278893953,-1.4938635374571858e-05
0.3533821450693264,1.9978393412588277e-05,0.3533821450693264,-1.2252877330546886e-05,0.3533821450693264,-1.5609754661093774e-05,0.3533821450693264,-1.5945761334726556e-05
0.3541762622492574,4.347311073846004e-05,0.3541762622492574,-1.1582264430760265e-05,0.3541762622492574,-1.42672e-05,0.3541762622492574,-1.6281621476920086e-05
0.3549703794291886,4.380843795519322e-05,0.3549703794291886,-1.3594227731159331e-05,0.3549703794291886,-1.42672e-05,0.3549703794291886,-1.6952275910386446e-05
0.3557644966091196,3.206664910724042e-05,0.3557644966091196,-1.4266774336729118e-05,0.3557644966091196,-1.1583302653083524e-05,0.3557644966091196,-1.795926150509368e-05
0.3565586137890507,1.5282464373001827e-05,0.3565586137890507,-1.292505315373144e-05,0.3565586137890507,-1.091052657686572e-05,0.3565586137890507,-1.863097342313428e-05
0.3573527309689818,-5.196391564673903e-06,0.3573527309689818,-1.1414211870477549e-05,0.3573527309689818,-1.3594890038158138e-05,0.3573527309689818,-1.6282196216611628e-05
0.3581468481489128,5.201339744792708e-06,0.3581468481489128,-1.0910296293479066e-05,0.3581468481489128,-1.2253256808110607e-05,0.3581468481489128,-1.5610128404055307e-05
0.3589409653288439,1.3931118871858125e-05,0.3589409653288439,-1.1581570682349856e-05,0.3589409653288439,-1.2253e-05,0.3589409653288439,-1.4267258635300287e-05
0.3597350825087749,1.677391147304247e-06,0.3597350825087749,-1.2253104653132524e-05,0.3597350825087749,-1.4267130231244982e-05,0.3597350825087749,-1.0574709306265052e-05
0.360529199688706,-8.897443460980864e-06,0.360529199688706,-1.3260184321381922e-05,0.360529199688706,-1.359588432138192e-05,0.360529199688706,-1.258912160690961e-05
0.3613233168686371,-1.4597996156549148e-05,0.3613233168686371,-1.3595511538115075e-05,0.3613233168686371,-1.3931211538115076e-05,0.3613233168686371,-1.426575769057538e-05
0.3621174340485681,-3.439498243419507e-05,0.3621174340485681,-1.5105323266709166e-05,0.3621174340485681,-1.6950646462139813e-05,0.3621174340485681,-1.0912592819844653e-05
0.3629115512284993,-3.138950764903675e-05,0.3629115512284993,-1.493869484113076e-05,0.3629115512284993,-1.7623820522436278e-05,0.3629115512284993,-1.2923261567308831e-05
0.3637056684084303,-2.66899627381096e-05,0.3637056684084303,-1.2925241173475544e-05,0.3637056684084303,-1.2926362738109604e-05,0.3637056684084303,-1.29244e-05
0.3644997855883614,-2.467434391426006e-05,0.3644997855883614,-1.3595618695246644e-05,0.3644997855883614,-1.2253181304753352e-05,0.3644997855883614,-8.561488478196404e-06
0.3652939027682925,1.963297361351397e-05,0.3652939027682925,-1.35958e-05,0.3652939027682925,-1.3595635563303706e-05,0.3652939027682925,-1.2588206691135704e-05
0.3660880199482235,1.846267889433118e-05,0.3660880199482235,-1.2924416868057016e-05,0.3660880199482235,-1.1581591565971493e-05,0.3660880199482235,-1.6281349395828956e-05
0.3668821371281546,-1.0239553704004443e-05,0.3668821371281546,-1.359533618215111e-05,0.3668821371281546,-1.1246537749542224e-05,0.3668821371281546,-1.4266446295995554e-05
0.3676762543080857,-1.4602148303684796e-05,0.3676762543080857,-1.090982415504124e-05,0.3676762543080857,-1.4938170459248452e-05,0.3676762543080857,-9.90342215556366e-06
0.3684703714880167,-1.2254857786552712e-05,0.3684703714880167,-9.736188885370543e-06,0.3684703714880167,-1.3596861592315836e-05,0.3684703714880167,-1.0909403805763124e-05
0.3692644886679478,-1.0240097134785316e-05,0.3692644886679478,-1.1244927155350964e-05,0.3692644886679478,-1.024096189130886e-05,0.3692644886679478,-1.4600521919560254e-05
0.3700586058478789,-8.896676578748997e-06,0.3700586058478789,-1.091036664592828e-05,0.3700586058478789,-1.4600733602932334e-05,0.3700586058478789,-1.4938433354071718e-05
0.3708527230278099,-7.721479856051557e-06,0.3708527230278099,-1.09102e-05,0.3708527230278099,-1.6280814486371607e-05,0.3708527230278099,-1.527418289727432e-05
0.371646840207741,-8.895773543681655e-06,0.371646840207741,-1.4937789285722824e-05,0.371646840207741,-1.7959562202384512e-05,0.371646840207741,-1.3596137797615488e-05
0.3724409573876721,-7.217610081065907e-06,0.3724409573876721,-1.225314413056414e-05,0.3724409573876721,-2.1988083804153792e-05,0.3724409573876721,-1.2924436032641034e-05
0.3732350745676032,-6.21051458064633e-06,0.3732350745676032,-1.057478374193899e-05,0.3732350745676032,-2.11488581337262e-05,0.3732350745676032,-1.661719458064633e-05
0.3740291917475342,-7.217600968109741e-06,0.3740291917475342,-1.3595557095670775e-05,0.3740291917475342,-1.963823806378052e-05,0.3740291917475342,-1.7623552255122072e-05
0.3748233089274653,-7.552928184842895e-06,0.3748233089274653,-1.2589575445471314e-05,0.3748233089274653,-1.896758363031421e-05,0.3748233089274653,-1.4940934521256836e-05
0.3756174261073964,-4.869571108611232e-06,0.3756174261073964,-1.25887e-05,0.3756174261073964,-1.4941511673758644e-05,0.3756174261073964,-1.6615886802600563e-05
0.3764115432873274,-7.551675235533594e-06,0.3764115432873274,-1.1917686192554614e-05,0.3764115432873274,-1.4267586192554611e-05,0.3764115432873274,-1.359753786649576e-05
0.3772056604672585,-3.862109079545501e-06,0.3772056604672585,-1.1749471797918506e-05,0.3772056604672585,-1.7958320916178268e-05,0.3772056604672585,-1.4266912893850593e-05
0.3779997776471896,-4.363938985191851e-06,0.3779997776471896,-1.1581646990933982e-05,0.3779997776471896,-1.6281870049360495e-05,0.3779997776471896,-1.6448588949833424e-05
0.3787938948271206,-4.196252233334759e-06,0.3787938948271206,-1.0238977866678074e-05,0.3787938948271206,-1.5610088933339037e-05,0.3787938948271206,-1.6952733293372746e-05
0.3795880120070517,-2.1820298469338293e-06,0.3795880120070517,-1.2252982232890311e-05,0.3795880120070517,-1.426720253751043e-05,0.3795880120070517,-1.5274322843642773e-05
0.3803821291869828,-1.5107492394713785e-06,0.3803821291869828,-1.1078181921468334e-05,0.3803821291869828,-1.4435245796945802e-05,0.3803821291869828,-1.678438112064615e-05
0.3811762463669139,-2.182872252226691e-06,0.3811762463669139,-1.1581391936168589e-05,0.3811762463669139,-1.594497177659006e-05,0.3811762463669139,-1.3595383872337176e-05
0.3819703635468449,-4.865479997196582e-06,0.3819703635468449,-1.091073750270228e-05,0.3819703635468449,-1.3597681259457976e-05,0.3819703635468449,-1.2254075005404558e-05
0.382764480726776,-5.538590906747384e-06,0.382764480726776,-1.2923082720242151e-05,0.382764480726776,-1.4937721813494768e-05,0.382764480726776,-1.1078868380492252e-05
0.3835585979067071,-6.210079998216739e-06,0.3835585979067071,-1.2588870003423704e-05,0.3835585979067071,-1.4267540006847407e-05,0.3835585979067071,-1.225240501333777e-05
0.3843527150866381,-9.566205401377093e-06,0.3843527150866381,-1.426659769889438e-05,0.3843527150866381,-1.3596040920442246e-05,0.3843527150866381,-1.1581840920442248e-05
0.3851468322665692,-6.211129168072688e-06,0.3851468322665692,-1.3092448220127378e-05,0.3851468322665692,-1.5609574497888883e-05,0.3851468322665692,-1.258848724894444e-05
0.3859409494465003,-1.84661785833352e-06,0.3859409494465003,-1.225305343135632e-05,0.3859409494465003,-1.4938642747631831e-05,0.3859409494465003,-1.6281164888024925e-05
0.3867350666264313,8.388234612139303e-07,0.3867350666264313,-1.1245928169386664e-05,0.3867350666264313,-1.77918169031823e-05,0.3867350666264313,-1.4602942249884378e-05
0.3875291838063624,-4.197859904652677e-06,0.3875291838063624,-1.15816e-05,0.3875291838063624,-1.560937908129952e-05,0.3875291838063624,-1.510624477032488e-05
0.3883233009862935,-1.1239701489363378e-05,0.3883233009862935,-1.15816e-05,0.3883233009862935,-1.2926761347434094e-05,0.3883233009862935,-1.4435590336858524e-05
0.3891174181662246,-1.12459e-05,0.3891174181662246,-1.2923416012098667e-05,0.3891174181662246,-1.560803202419734e-05,0.3891174181662246,-1.3596414955798926e-05
0.3899115353461556,-1.1078198197626047e-05,0.3899115353461556,-1.3595407092454542e-05,0.3899115353461556,-1.561e-05,0.3899115353461556,-1.7118537264646666e-05
0.3907056525260867,-1.0574720387736416e-05,0.3907056525260867,-1.6280224715439e-05,0.3907056525260867,-1.4938893821140247e-05,0.3907056525260867,-1.4939554896824582e-05
0.3914997697060178,-1.5608539489486833e-05,0.3914997697060178,-1.8295015795794733e-05,0.3914997697060178,-1.5609805265264913e-05,0.3914997697060178,-1.2421530269758725e-05
0.3922938868859488,-2.030913046169083e-05,0.3922938868859488,-1.6952991296659765e-05,0.3922938868859488,-1.6952608703340238e-05,0.3922938868859488,-1.3931284784134716e-05
0.3930880040658799,-2.83665e-05,0.3930880040658799,-1.7288487966736355e-05,0.3930880040658799,-1.6952805157112992e-05,0.3930880040658799,-1.1581605157112988e-05
0.393882121245811,-2.8366294951039025e-05,0.393882121245811,-1.4938189902078053e-05,0.393882121245811,-1.795948990207805e-05,0.393882121245811,-1.25890844591667e-05
0.394676238425742,-2.702229049899065e-05,0.394676238425742,-1.2252899321356477e-05,0.394676238425742,-1.5274048288395858e-05,0.394676238425742,-1.5106047639742991e-05
0.3954703556056732,-2.232770946472616e-05,0.3954703556056732,-1.1917572104623298e-05,0.3954703556056732,-1.4435680302086188e-05,0.3954703556056732,-1.3932452325653597e-05
0.3962644727856042,-5.5501751197667705e-06,0.3962644727856042,-1.023991452060865e-05,0.3962644727856042,-1.2254448843591346e-05,0.3962644727856042,-1.292506871236519e-05
0.3970585899655353,4.6802855836045015e-05,0.3970585899655353,-7.554606877024873e-06,0.3970585899655353,-1.3930633195404252e-05,0.3970585899655353,-1.3763166623522936e-05
0.3978527071454664,6.327313293188927e-05,0.3978527071454664,-5.53977290261093e-06,0.3978527071454664,-1.493822854685036e-05,0.3978527071454664,-1.4602590437266914e-05
0.3986468243253974,4.683353945118315e-05,0.3986468243253974,-5.53903e-06,0.3986468243253974,-1.4267348549027884e-05,0.3986468243253974,-1.309253424637537e-05
0.3994409415053285,3.373866451377601e-05,0.3994409415053285,-6.881721075491262e-06,0.3994409415053285,-1.2588823656556808e-05,0.3994409415053285,-1.628116504885852e-05
0.4002350586852595,-2.182933225127445e-06,0.4002350586852595,-8.896072029728047e-06,0.4002350586852595,-1.7959800752435126e-05,0.4002350586852595,-1.9638375188108785e-05
0.4010291758651906,-1.4260887789062158e-05,0.4010291758651906,-9.735445651701368e-06,0.4010291758651906,-1.6616505907476777e-05,0.4010291758651906,-1.9302737119722e-05
0.4018232930451217,1.424182574430252e-05,0.4018232930451217,-1.0573753704638908e-05,0.4018232930451217,-1.3933888173611542e-05,0.4018232930451217,-1.947035078361185e-05
0.4026174102250527,-4.1081956660883366e-05,0.4026174102250527,-1.3593555809763206e-05,0.4026174102250527,-1.460240129105849e-05,0.4026174102250527,-1.9135049354470752e-05
0.4034115274049838,-8.876392691896413e-05,0.4034115274049838,-1.5944301321122942e-05,0.4034115274049838,-1.426739981126815e-05,0.4034115274049838,-1.8967099875873685e-05
0.4042056445849149,-1.8327156159481995e-05,0.4042056445849149,-1.3932401608393424e-05,0.4042056445849149,-1.661604812354101e-05,0.4042056445849149,-1.8295900536131143e-05
0.404999761764846,-8.444836790734478e-07,0.404999761764846,-1.258910289945196e-05,0.404999761764846,-1.896629492595907e-05,0.404999761764846,-1.796000072486299e-05
0.4057938789447771,-3.138314249116651e-05,0.4057938789447771,-1.52738905467171e-05,0.4057938789447771,-1.9806072053472218e-05,0.4057938789447771,-1.326081654324508e-05
0.4065879961247081,-3.306629180771109e-05,0.4065879961247081,-1.7624188530795524e-05,0.4065879961247081,-1.8295607372815986e-05,0.4065879961247081,-1.292440163845778e-05
0.4073821133046392,-2.6347988597227345e-05,0.4073821133046392,-1.7287781428828026e-05,0.4073821133046392,-1.7288476040492545e-05,0.4073821133046392,-1.5273677238317625e-05
0.4081762304845703,3.868072693089387e-06,0.4081762304845703,-1.2253681277599736e-05,0.4081762304845703,-1.7120259375696016e-05,0.4081762304845703,-1.0910005349257218e-05
0.4089703476645013,2.98558520787461e-05,0.4089703476645013,-1.460097179473182e-05,0.4089703476645013,-1.59466640616067e-05,0.4089703476645013,-1.0239350915790908e-05
0.4097644648444324,4.279288896143871e-05,0.4097644648444324,-1.829311112221107e-05,0.4097644648444324,-1.59457e-05,0.4097644648444324,-1.0909747476765647e-05
0.4105585820243635,4.414369312634171e-05,0.4105585820243635,-2.735462865544833e-05,0.4105585820243635,-1.426808359207286e-05,0.4105585820243635,-1.0239153436829145e-05
0.4113526992042945,2.098997505174381e-05,0.4113526992042945,-3.92721852989161e-05,0.4113526992042945,-1.2253763051271948e-05,0.4113526992042945,-1.3930101072668097e-05
0.4121468163842256,-2.5670109196945977e-05,0.4121468163842256,-5.051999933924823e-05,0.4121468163842256,-1.2253e-05,0.4121468163842256,-1.6280856575934287e-05
0.4129409335641567,-4.5821114679960224e-05,0.4129409335641567,-5.354364720073895e-05,0.4129409335641567,-1.1245984266420353e-05,0.4129409335641567,-1.2253337065681404e-05
0.4137350507440878,-3.4741249313472975e-05,0.4137350507440878,-3.188904002413147e-05,0.4137350507440878,-1.0238971635166374e-05,0.4137350507440878,-1.1581857452749562e-05
0.4145291679240188,2.081836991128328e-05,0.4145291679240188,5.041046273560503e-06,0.4145291679240188,-1.2924258183413508e-05,0.4145291679240188,-1.5609929091706757e-05
0.4153232851039499,4.479411607427198e-05,0.4153232851039499,3.1364102931471804e-05,0.4153232851039499,-1.2253603749947246e-05,0.4153232851039499,-1.5274601874973624e-05
0.416117402283881,1.0600276469991825e-05,0.416117402283881,3.7090403896575e-05,0.416117402283881,-7.221310664436831e-06,0.416117402283881,-1.0913485255560298e-05
0.416911519463812,-7.206752103946132e-06,0.416911519463812,2.8036285556617103e-05,0.416911519463812,-9.230490993470516e-06,0.416911519463812,-9.568222669002291e-06
0.4177056366437431,-1.2921788374615275e-05,0.4177056366437431,1.1924673981166012e-05,0.4177056366437431,-1.0238339127893228e-05,0.4177056366437431,-1.0238492753454243e-05
0.4184997538236742,-2.030751018811545e-05,0.4184997538236742,3.392888264822144e-07,0.4184997538236742,-7.889638573408265e-06,0.4184997538236742,-9.56761816161632e-06
0.4192938710036052,-2.5680027389753465e-05,0.4192938710036052,-9.565801101727144e-06,0.4192938710036052,-1.0909709149222365e-05,0.4192938710036052,-8.224828156623232e-06
0.4200879881835363,-2.3666729975719367e-05,0.4200879881835363,-1.7624080097271354e-05,0.4200879881835363,-1.2924370024280632e-05,0.4200879881835363,-1.2420737551477584e-05
0.4208821053634674,-2.4337609993526564e-05,0.4208821053634674,-1.96384890944988e-05,0.4208821053634674,-1.225293317249092e-05,0.4208821053634674,-1.443471044951388e-05
0.4216762225433985,-2.0644654251107108e-05,0.4216762225433985,-2.031017588839684e-05,0.4216762225433985,-1.174902413959604e-05,0.4216762225433985,-1.225346986049605e-05
0.4224703397233295,-1.762670930050872e-05,0.4224703397233295,-2.1651484755329454e-05,0.4224703397233295,-1.0407815161616871e-05,0.4224703397233295,-1.3930105944161823e-05
0.4232644569032606,-1.645000370109414e-05,0.4232644569032606,-2.0646188857337797e-05,0.4232644569032606,-1.0909855605531147e-05,0.4232644569032606,-1.5608851904437012e-05
0.4240585740831917,-1.3261810694324206e-05,0.4240585740831917,-1.963894022773005e-05,0.4240585740831917,-1.1245719924089982e-05,0.4240585740831917,-1.3932400379550087e-05
0.4248526912631227,-1.527351680375552e-05,0.4248526912631227,-2.165181680375552e-05,0.4248526912631227,-1.225260840187776e-05,0.4248526912631227,-1.2589222130829654e-05
0.4256468084430538,-1.6952395052475955e-05,0.4256468084430538,-1.997450494752405e-05,0.4256468084430538,-1.3595476041980762e-05,0.4256468084430538,-1.2253080989504809e-05
0.4264409256229849,-1.577791006674149e-05,0.4264409256229849,-1.846354151304372e-05,0.4264409256229849,-1.35958e-05,0.4264409256229849,-1.3931342768488854e-05
0.4272350428029159,-1.930289906051333e-05,0.4272350428029159,-1.560996380619925e-05,0.4272350428029159,-1.2588718096900376e-05,0.4272350428029159,-1.1917245709298876e-05
0.428029159982847,-2.2995637775105323e-05,0.428029159982847,-1.4938397334936805e-05,0.428029159982847,-1.29244e-05,0.428029159982847,-1.0911010660252775e-05
0.4288232771627781,-2.467227385877121e-05,0.4288232771627781,-1.3932415684737272e-05,0.4288232771627781,-1.29244e-05,0.4288232771627781,-1.4934937261050912e-05
0.4296173943427092,-2.5009243930538377e-05,0.4296173943427092,-1.1583392486231355e-05,0.4296173943427092,-1.5272507513768643e-05,0.4296173943427092,-1.3932268208384868e-05
0.4304115115226402,-2.601598042122288e-05,0.4304115115226402,-1.5272028211150537e-05,0.4304115115226402,-1.5945286947481913e-05,0.4304115115226402,-1.1583045683813294e-05
0.4312056287025713,-2.4338884915282076e-05,0.4312056287025713,-1.4938756983056414e-05,0.4312056287025713,-1.527461396611283e-05,0.4312056287025713,-1.225268603388717e-05
0.4319997458825024,-2.8029618161607824e-05,0.4319997458825024,-1.2925044639123004e-05,0.4319997458825024,-1.7120009096806274e-05,0.4319997458825024,-1.4937740481169326e-05
0.4327938630624334,-2.1318057915778528e-05,0.4327938630624334,-1.29244e-05,0.4327938630624334,-1.7624113146399848e-05,0.4327938630624334,-1.963758944688245e-05
0.4335879802423645,-1.292460883621566e-05,0.4335879802423645,-1.309219582451987e-05,0.4335879802423645,-1.561005012069176e-05,0.4335879802423645,-1.7959941767243134e-05
0.4343820974222956,8.565417503723698e-06,0.4343820974222956,-1.3092344170273743e-05,0.4343820974222956,-1.3595408703472342e-05,0.4343820974222956,-1.980626179076584e-05
0.4351762146022266,5.021499159343319e-05,0.4351762146022266,-1.426710938117297e-05,0.4351762146022266,-1.0407923340667902e-05,0.4351762146022266,-2.0309165668210797e-05
0.4359703317821577,0.0001541655297801,0.4359703317821577,-1.3931782164439792e-05,0.4359703317821577,-1.4934790822089078e-05,0.4359703317821577,-1.7961875151078548e-05
0.4367644489620888,0.0001425121538342,0.4367644489620888,-1.0241362742688476e-05,0.4367644489620888,-1.6951402140351744e-05,0.4367644489620888,-1.779211652300414e-05
0.4375585661420199,3.279058245036836e-05,0.4375585661420199,-1.090983313318912e-05,0.4375585661420199,-1.8965899399567364e-05,0.4375585661420199,-1.2256026623868718e-05
0.438352683321951,-2.028864542771978e-05,0.438352683321951,-1.1916898329391496e-05,0.438352683321951,-2.0309264439188657e-05,0.438352683321951,-1.3595264439188658e-05
0.439146800501882,-2.601516612612137e-05,0.439146800501882,-1.1581684347000256e-05,0.439146800501882,-1.628241216400306e-05,0.439146800501882,-1.493826261199898e-05
0.4399409176818131,-2.5201762513226797e-06,0.4399409176818131,-1.225293039240465e-05,0.4399409176818131,-1.8295391177213956e-05,0.4399409176818131,-1.35959392151907e-05
0.4407350348617442,-2.7024525402286708e-05,0.4407350348617442,-1.1078166325126963e-05,0.4407350348617442,-1.7624170521190094e-05,0.4407350348617442,-1.5610058957619814e-05
0.4415291520416752,-4.5819461528181554e-05,0.4415291520416752,-1.2588282698194473e-05,0.4415291520416752,-1.6952157982510926e-05,0.4415291520416752,-1.6952478991255466e-05
0.4423232692216063,-2.838254614701097e-05,0.4423232692216063,-1.0408705733905691e-05,0.4423232692216063,-1.359888581517938e-05,0.4423232692216063,-1.5275842907589693e-05
0.4431173864015373,1.3898812357968256e-05,0.4431173864015373,-1.09098108982041e-05,0.4431173864015373,-1.6279324584343457e-05,0.4431173864015373,-1.4938859426957069e-05
0.4439115035814684,7.197099029804545e-05,0.4439115035814684,-1.09102e-05,0.4439115035814684,-1.8965320929964477e-05,0.4439115035814684,-1.6280560464982238e-05
0.4447056207613995,6.697430506051485e-05,0.4447056207613995,-1.191681897834442e-05,0.4447056207613995,-1.762484136220744e-05,0.4447056207613995,-1.29260034055186e-05
0.4454997379413306,7.908410264163e-06,0.4454997379413306,-1.0910532392047838e-05,0.4454997379413306,-1.7959789202650722e-05,0.4454997379413306,-1.325998920265072e-05
0.4462938551212617,-1.6444759099911375e-05,0.4462938551212617,-9.232016268908711e-06,0.4462938551212617,-2.030937122097327e-05,0.4462938551212617,-1.493829372926662e-05
0.4470879723011927,3.0714754621079184e-05,0.4470879723011927,-1.1581518023740348e-05,0.4470879723011927,-1.8295670265664436e-05,0.4470879723011927,-1.795979460150335e-05
0.4478820894811238,5.28633824707781e-05,0.4478820894811238,-1.2924475664517017e-05,0.4478820894811238,-1.5609697341931933e-05,0.4478820894811238,-1.4267010838707457e-05
0.4486762066610549,-2.8049998214111032e-05,0.4486762066610549,-1.359536367222564e-05,0.4486762066610549,-1.2924050937780512e-05,0.4486762066610549,-1.2588612734445128e-05
0.4494703238409859,-0.0001018211867837,0.4494703238409859,-1.1918727588559868e-05,0.4494703238409859,-1.1582742070847894e-05,0.4494703238409859,-1.2253285517711973e-05
0.450264441020917,-9.215605333699924e-05,0.450264441020917,-1.0910909002310466e-05,0.450264441020917,-1.4936236658965112e-05,0.450264441020917,-1.2253e-05
0.4510585582008481,-7.067645456201291e-05,0.4510585582008481,-1.09102e-05,0.4510585582008481,-1.577733305056895e-05,0.4510585582008481,-1.66146717182888e-05
0.4518526753807791,-9.415379270200436e-05,0.4518526753807791,-1.560807853222407e-05,0.4518526753807791,-1.1583315575786496e-05,0.4518526753807791,-1.628153724769828e-05
0.4526467925607102,-9.48346245910086e-05,0.4526467925607102,-1.3596326226974205e-05,0.4526467925607102,-1.22528245910086e-05,0.4526467925607102,-1.4267726226974205e-05
0.4534409097406413,1.0562517410813425e-05,0.4534409097406413,-1.258881448387922e-05,0.4534409097406413,-1.3931309193534634e-05,0.4534409097406413,-1.3092333570209594e-05
0.4542350269205724,2.467209272374541e-05,0.4542350269205724,-1.225295447236197e-05,0.4542350269205724,-1.6281491055276058e-05,0.4542350269205724,-1.4938565854271478e-05
0.4550291441005034,-2.5681143393906907e-05,0.4550291441005034,-1.0910504242383632e-05,0.4550291441005034,-1.8966148121325827e-05,0.4550291441005034,-1.3931560848476726e-05
0.4558232612804345,-2.7022452260839523e-05,0.4558232612804345,-1.2587140326049403e-05,0.4558232612804345,-1.4271567087061664e-05,0.4558232612804345,-1.426688806520988e-05
0.4566173784603656,-2.232757898233486e-05,0.4566173784603656,-1.158238835335747e-05,0.4566173784603656,-1.124826506007241e-05,0.4566173784603656,-1.309311978472349e-05
0.4574114956402966,-1.662072503772669e-05,0.4574114956402966,-8.897715923646951e-06,0.4574114956402966,-1.392979407000091e-05,0.4574114956402966,-1.3595480106364484e-05
0.4582056128202277,-1.05774465648515e-05,0.4582056128202277,-1.225136302440326e-05,0.4582056128202277,-1.2421536665594471e-05,0.4582056128202277,-1.124704588633114e-05
0.4589997300001588,-1.0071171215264543e-05,0.4589997300001588,-1.426651507093179e-05,0.4589997300001588,-1.2924228750730438e-05,0.4589997300001588,-8.89680908051241e-06
0.4597938471800898,-6.54679842801608e-06,0.4597938471800898,-1.258902305821049e-05,0.4597938471800898,-1.3763438480518176e-05,0.4597938471800898,-8.89601e-06
0.4605879643600209,-7.553174794681447e-06,0.4605879643600209,-1.124596027375807e-05,0.4605879643600209,-1.7120449315604825e-05,0.4605879643600209,-1.091010958981176e-05
0.461382081539952,-4.531688677685347e-06,0.461382081539952,-1.3091803546386216e-05,0.461382081539952,-1.9638262100947656e-05,0.461382081539952,-1.2588837899052346e-05
0.4621761987198831,-2.182081956141357e-06,0.4621761987198831,-9.231793912282715e-06,0.4621761987198831,-1.829492870173829e-05,0.4621761987198831,-1.3931583912282717e-05
0.4629703158998141,-2.3497455645079227e-06,0.4629703158998141,-9.567121129015846e-06,0.4629703158998141,-1.5612310967873236e-05,0.4629703158998141,-1.4266911129015846e-05
0.4637644330797452,-1.6940698896671993e-07,0.4637644330797452,-1.0909241240744503e-05,0.4637644330797452,-1.4939079383197776e-05,0.4637644330797452,-1.2757578647895262e-05
0.4645585502596763,-8.38865704906657e-07,0.4645585502596763,-1.2252239406414773e-05,0.4645585502596763,-1.2590031038774147e-05,0.4645585502596763,-1.3930834452291748e-05
0.4653526674396073,5.029855817381448e-07,0.4653526674396073,-1.124632181558118e-05,0.4653526674396073,-1.2253140605193723e-05,0.4653526674396073,-1.5609296974031367e-05
0.4661467846195384,2.5171936302234856e-06,0.4661467846195384,-1.15815089380089e-05,0.4661467846195384,-1.661591619411571e-05,0.4661467846195384,-1.6616826814026704e-05
0.4669409017994695,3.356876204265486e-06,0.4669409017994695,-1.3595550887268888e-05,0.4669409017994695,-1.6952758481211482e-05,0.4669409017994695,-1.4938807593942592e-05
0.4677350189794005,1.8462677807515148e-06,0.4677350189794005,-1.3763563891331898e-05,0.4677350189794005,-1.4267232097656248e-05,0.4677350189794005,-1.3260144133082163e-05
0.4685291361593316,-1.1759749102572758e-06,0.4685291361593316,-1.2252712523977036e-05,0.4685291361593316,-1.560994250479541e-05,0.4685291361593316,-1.5106285009590814e-05
0.4693232533392627,-7.211844833662945e-06,0.4693232533392627,-1.0576076440311382e-05,0.4693232533392627,-1.5274615288062277e-05,0.4693232533392627,-1.4435630576124551e-05
0.4701173705191938,-9.565547014292584e-06,0.4701173705191938,-1.225166929026044e-05,0.4701173705191938,-1.443566539450963e-05,0.4701173705191938,-1.4938200747438282e-05
0.4709114876991248,-8.393218095608661e-06,0.4709114876991248,-1.3930417006273342e-05,0.4709114876991248,-1.6615692075894585e-05,0.4709114876991248,-1.4267633197490662e-05
0.4717056048790559,-1.514064623696914e-06,0.4717056048790559,-1.4602565888914545e-05,0.4717056048790559,-1.7791415330482123e-05,0.4717056048790559,-1.3931667055542727e-05
0.472499722058987,8.221202159638992e-06,0.472499722058987,-1.1582657611061114e-05,0.472499722058987,-1.3932851374408842e-05,0.472499722058987,-1.4267082487659877e-05
0.473293839238918,1.1916552341511722e-05,0.473293839238918,-9.56781781280056e-06,0.473293839238918,-1.091081172223789e-05,0.473293839238918,-1.3595935938275086e-05
0.4740879564188491,9.231857406930636e-06,0.4740879564188491,-1.2252852593069364e-05,0.4740879564188491,-1.09102e-05,0.4740879564188491,-1.5441998660102236e-05
0.4748820735987802,8.895854414588733e-06,0.4748820735987802,-1.2588606648197075e-05,0.4748820735987802,-1.4938475530929436e-05,0.4748820735987802,-1.426723111726764e-05
0.4756761907787112,7.215586591906277e-06,0.4756761907787112,-1.1581761118021068e-05,0.4756761907787112,-1.3595840267506604e-05,0.4756761907787112,-1.4602980559010536e-05
0.4764703079586423,-8.322326474458195e-07,0.4764703079586423,-1.2252415551487423e-05,0.4764703079586423,-1.376345393139647e-05,0.4764703079586423,-1.4938307775743712e-05
0.4772644251385734,-1.660567672587067e-05,0.4772644251385734,-1.3930284754528336e-05,0.4772644251385734,-1.5944120144686492e-05,0.4772644251385734,-1.49386e-05
0.4780585423185045,-2.768871436321468e-05,0.4780585423185045,-1.560903247054124e-05,0.4780585423185045,-1.7623232470541237e-05,0.4780585423185045,-1.49386e-05
0.4788526594984356,-2.3836255549482773e-05,0.4788526594984356,-1.6281112074621748e-05,0.4788526594984356,-1.89664241492435e-05,0.4788526594984356,-1.426748792537825e-05
0.4796467766783666,9.893610883791494e-06,0.4796467766783666,-1.2254133033838536e-05,0.4796467766783666,-1.561094419486545e-05,0.4796467766783666,-2.0308100449242195e-05
0.4804408938582977,1.863013321661693e-05,0.4804408938582977,-1.0239069257703784e-05,0.4804408938582977,-1.09108282679755e-05,0.4804408938582977,-1.7624559010271713e-05
0.4812350110382288,7.553493013767279e-06,0.4812350110382288,-1.3763569665723944e-05,0.4812350110382288,-8.392488002067921e-06,0.4812350110382288,-1.225298133232544e-05
0.4820291282181598,2.7193251320874524e-05,0.4820291282181598,-1.15816e-05,0.4820291282181598,-1.040699777256423e-05,0.4820291282181598,-1.0910470709662058e-05
0.4828232453980909,3.742068148675901e-05,0.4828232453980909,-1.15816e-05,0.4828232453980909,-1.2251247520119854e-05,0.4828232453980909,-1.2587106793327833e-05
0.483617362578022,2.401317997773336e-05,0.483617362578022,-1.2923322002226664e-05,0.483617362578022,-1.1582138998886669e-05,0.483617362578022,-1.3594991501669998e-05
0.484411479757953,7.89946782748234e-06,0.484411479757953,-1.3595360087518493e-05,0.484411479757953,-1.15816e-05,0.484411479757953,-1.627964035007397e-05
0.4852055969378841,-2.847986808160202e-06,0.4852055969378841,-9.904974543419906e-06,0.4852055969378841,-7.890784538343557e-06,0.4852055969378841,-1.426822247822904e-05
0.4859997141178152,-3.439773828586392e-05,0.4859997141178152,-7.889635215412885e-06,0.4859997141178152,-8.224489130164431e-06,0.4859997141178152,-1.3931620869835567e-05
0.4867938312977463,-4.5149117568992245e-05,0.4867938312977463,-1.2252072755896162e-05,0.4867938312977463,-9.902743368959886e-06,0.4867938312977463,-1.5106150367408187e-05
0.4875879484776773,-3.1053014897587215e-05,0.4875879484776773,-1.2253e-05,0.4875879484776773,-1.443470592693428e-05,0.4875879484776773,-1.2253185155913794e-05
0.4883820656576084,-2.4337447649487463e-05,0.4883820656576084,-1.1749219566442107e-05,0.4883820656576084,-1.527432775977222e-05,0.4883820656576084,-1.3931583279316655e-05
0.4891761828375395,-1.644653642042476e-05,0.4891761828375395,-9.567873232130416e-06,0.4891761828375395,-1.560984558852325e-05,0.4891761828375395,-1.493848417989322e-05
0.4899703000174705,-4.877827354293688e-06,0.4899703000174705,-1.1579826543633996e-05,0.4899703000174705,-1.4939191155056938e-05,0.4899703000174705,-1.443544341031676e-05
0.4907644171974016,-7.215795161211635e-06,0.4907644171974016,-1.4265228747281774e-05,0.4907644171974016,-1.5609507186820444e-05,0.4907644171974016,-1.644772156046133e-05
0.4915585343773327,-2.8018594540366363e-05,0.4915585343773327,-1.3931696863387176e-05,0.4915585343773327,-1.7623018819676954e-05,0.4915585343773327,-1.6617001538985086e-05
0.4923526515572637,-3.70907223550166e-05,0.4923526515572637,-1.560926339907715e-05,0.4923526515572637,-1.4268673201845706e-05,0.4923526515572637,-1.3932678561476565e-05
0.4931467687371948,-2.8369042201531744e-05,0.4931467687371948,-1.561e-05,0.4931467687371948,-1.963683556828816e-05,0.4931467687371948,-1.426710222301801e-05
0.4939408859171259,-2.131791289499899e-05,0.4939408859171259,-1.628130353244123e-05,0.4939408859171259,-1.8463568825411916e-05,0.4939408859171259,-1.4434975890294369e-05
0.494735003097057,-1.3595737147919588e-05,0.494735003097057,-1.3595798690576782e-05,0.494735003097057,-1.561001309423218e-05,0.494735003097057,-1.3260101309423216e-05
0.495529120276988,2.5207872984330087e-06,0.495529120276988,-1.3259846056698844e-05,0.495529120276988,-1.8967253943301157e-05,0.495529120276988,-1.3595926964085986e-05
0.4963232374569191,2.2640280457888853e-05,0.4963232374569191,-1.1583209973032956e-05,0.4963232374569191,-2.064389002696705e-05,0.4963232374569191,-1.4434195061442208e-05
0.4971173546368502,-1.6920603043783994e-05,0.4971173546368502,-1.4935871430612204e-05,0.4971173546368502,-1.7626655712449016e-05,0.4971173546368502,-1.3261054958645732e-05
0.4979114718167812,-3.9094161359932674e-05,0.4979114718167812,-1.3596693254944797e-05,0.4979114718167812,-1.8295153372527603e-05,0.4979114718167812,-1.4937483431319005e-05
0.4987055889967123,-1.880063047692327e-07,0.4987055889967123,-1.1582642623201572e-05,0.4987055889967123,-1.896665245893281e-05,0.4987055889967123,-1.5274126229466404e-05
0.4994997061766434,4.597361881636966e-05,0.4994997061766434,-1.4937357726690088e-05,0.4994997061766434,-1.628239381864793e-05,0.4994997061766434,-1.4603148454661984e-05
0.5002938233565745,7.200151201341908e-05,0.5002938233565745,-1.5274225315871588e-05,0.5002938233565745,-1.292514684128411e-05,0.5002938233565745,-1.5609775947614768e-05
0.5010879405365055,4.7167460421020616e-05,0.5010879405365055,-1.4938625140925806e-05,0.5010879405365055,-1.3260074859074194e-05,0.5010879405365055,-1.4938650281851614e-05
0.5018820577164366,-1.8471940767786172e-06,0.5018820577164366,-1.5274275597723252e-05,0.5018820577164366,-1.22532440227675e-05,0.5018820577164366,-1.49384535863395e-05
0.5026761748963677,-1.3592772060104783e-05,0.5026761748963677,-1.4938156885202685e-05,0.5026761748963677,-1.5609852295067562e-05,0.5026761748963677,-1.2923735327804028e-05
0.5034702920762988,1.555928825882907e-07,0.5034702920762988,-1.2926193584803757e-05,0.5034702920762988,-1.4939197861601253e-05,0.5034702920762988,-9.905790377205635e-06
0.5042644092562298,-5.030484740616755e-07,0.5042644092562298,-1.3595300471829646e-05,0.5042644092562298,-1.695130141548894e-05,0.5042644092562298,-1.225125165140376e-05
0.5050585264361609,-1.6271989647145406e-05,0.5050585264361609,-1.225380088353048e-05,0.5050585264361609,-1.69528e-05,0.5050585264361609,-1.292399955823476e-05
0.505852643616092,-1.695249864463997e-05,0.505852643616092,-1.0910802710720063e-05,0.505852643616092,-1.5610602710720065e-05,0.505852643616092,-1.29244e-05
0.506646760796023,-1.896639319313553e-05,0.506646760796023,-1.225259546209035e-05,0.506646760796023,-1.3596406806864472e-05,0.506646760796023,-1.2253202268954825e-05
0.507440877975954,-1.5946164321473698e-05,0.507440877975954,-1.3931242043625723e-05,0.507440877975954,-1.225320636509942e-05,0.507440877975954,-1.0239109547649131e-05
0.5082349951558852,-1.1581626624938658e-05,0.5082349951558852,-1.2253010240361022e-05,0.5082349951558852,-1.644917439940249e-05,0.5082349951558852,-1.2252987711566774e-05
0.5090291123358163,-1.0238325648945089e-05,0.5090291123358163,-1.0574737176940483e-05,0.5090291123358163,-1.594517821073093e-05,0.5090291123358163,-1.0910579483104777e-05
0.5098232295157473,-6.8850734594047e-06,0.5098232295157473,-1.2251373260606024e-05,0.5098232295157473,-1.2256578826666748e-05,0.5098232295157473,-1.3593197216969638e-05
0.5106173466956784,-1.7337326482326216e-07,0.5106173466956784,-1.292384757113155e-05,0.5106173466956784,-1.2253e-05,0.5106173466956784,-1.560834271339465e-05
0.5114114638756094,1.123819321256108e-05,0.5114114638756094,-1.1582506684926484e-05,0.5114114638756094,-1.2420686698145171e-05,0.5114114638756094,-1.527452667123162e-05
0.5122055810555405,1.59432202075931e-05,0.5122055810555405,-1.0910554256058129e-05,0.5122055810555405,-1.1246519921719832e-05,0.5122055810555405,-1.5609822871970937e-05
0.5129996982354716,3.5295506271756143e-06,0.5129996982354716,-1.275579830245753e-05,0.5129996982354716,-1.2252617245520758e-05,0.5129996982354716,-1.4267710339305654e-05
0.5137938154154027,-2.332475670961587e-05,0.5137938154154027,-1.309212195837619e-05,0.5137938154154027,-1.4937975667009525e-05,0.5137938154154027,-1.1917846291366668e-05
0.5145879325953338,-3.507950255525616e-05,0.5145879325953338,-1.023904223233602e-05,0.5145879325953338,-1.5609943003157497e-05,0.5145879325953338,-1.4267000511051233e-05
0.5153820497752648,-2.450573694336757e-05,0.5153820497752648,-1.1581726268688108e-05,0.5153820497752648,-1.493845268653054e-05,0.5153820497752648,-1.7624126340130807e-05
0.5161761669551959,-2.0311350961268188e-05,0.5161761669551959,-1.3596293494358269e-05,0.5161761669551959,-1.2588770499194038e-05,0.5161761669551959,-1.644842450886558e-05
0.5169702841351269,-2.7688449840444137e-05,0.5169702841351269,-1.5943584011490348e-05,0.5169702841351269,-1.2924097715927193e-05,0.5169702841351269,-1.275982512480088e-05
0.5177644013150581,-2.870144063525813e-05,0.5177644013150581,-1.5274806243161246e-05,0.5177644013150581,-1.7620656297871284e-05,0.5177644013150581,-1.2924273401509123e-05
0.5185585184949891,-2.4676242940536224e-05,0.5185585184949891,-1.292582504864613e-05,0.5185585184949891,-1.7959696421621982e-05,0.5185585184949891,-1.2253407156756037e-05
0.5193526356749202,-1.091651539630723e-05,0.5193526356749202,-1.3931037894473755e-05,0.5193526356749202,-1.6282170175877073e-05,0.5193526356749202,-1.4937367718596684e-05
0.5201467528548512,5.198314407091443e-06,0.5201467528548512,-1.4267095508027142e-05,0.5201467528548512,-1.493901796789143e-05,0.5201467528548512,-1.2925026951837144e-05
0.5209408700347823,-8.382569260638509e-07,0.5209408700347823,-1.158203959016203e-05,0.5209408700347823,-1.3596019795081015e-05,0.5209408700347823,-1.2253109897540506e-05
0.5217349872147133,-2.7358972962506605e-05,0.5217349872147133,-1.35957675665941e-05,0.5217349872147133,-1.49385783777294e-05,0.5217349872147133,-1.1749408109156594e-05
0.5225291043946444,-2.5679665713887057e-05,0.5225291043946444,-1.1581357549675858e-05,0.5225291043946444,-1.6281664492695215e-05,0.5225291043946444,-1.2588920410579349e-05
0.5233232215745756,-1.6290603534310868e-05,0.5233232215745756,-9.737067846538595e-06,0.5233232215745756,-1.8293627793094426e-05,0.5233232215745756,-1.4265556494245352e-05
0.5241173387545066,-1.7119901111816085e-05,0.5241173387545066,-6.884196353073772e-06,0.5241173387545066,-1.3599714007014732e-05,0.5241173387545066,-1.3260938715788873e-05
0.5249114559344377,-1.4436840229816534e-05,0.5249114559344377,-6.210880057454133e-06,0.5249114559344377,-1.1918450143635334e-05,0.5249114559344377,-1.4601979885091733e-05
0.5257055731143687,-1.628040730273349e-05,0.5257055731143687,-6.881459028951074e-06,0.5257055731143687,-1.2923858543426612e-05,0.5257055731143687,-1.4267380485524464e-05
0.5264996902942998,-1.2590140365540447e-05,0.5264996902942998,-9.90192152690442e-06,0.5264996902942998,-1.29244e-05,0.5264996902942998,-1.4938338115356282e-05
0.5272938074742308,-5.540739374231068e-06,0.5272938074742308,-9.735300697134892e-06,0.5272938074742308,-1.3931255802642095e-05,0.5272938074742308,-1.2924888394715811e-05
0.528087924654162,-1.1916694740430448e-05,0.528087924654162,-1.091008850524066e-05,0.528087924654162,-1.7288181440833486e-05,0.528087924654162,-1.628108144083349e-05
0.528882041834093,-1.5095610787181497e-06,0.528882041834093,-1.1581529250856189e-05,0.528882041834093,-1.5945549655435012e-05,0.528882041834093,-1.863124693814214e-05
0.5296761590140241,1.89721701959795e-05,0.5296761590140241,-1.0239202875531144e-05,0.5296761590140241,-1.3092905042180386e-05,0.5296761590140241,-1.7624401437765573e-05
0.5304702761939551,4.479216610652549e-05,0.5304702761939551,-1.225116617593007e-05,0.5304702761939551,-1.6613890762355233e-05,0.5304702761939551,-1.863038308796504e-05
0.5312643933738862,5.689166675326155e-05,0.5312643933738862,-1.4265661125543593e-05,0.5312643933738862,-1.5610769437228204e-05,0.5312643933738862,-1.6283195353532477e-05
0.5320585105538173,5.019103871746928e-05,0.5320585105538173,-1.5609172256506143e-05,0.5320585105538173,-1.4268027743493856e-05,0.5320585105538173,-1.2255483230481568e-05
0.5328526277337483,7.904346427718691e-05,0.5328526277337483,-1.862988346596184e-05,0.5328526277337483,-1.4938285214658186e-05,0.5328526277337483,-1.4937340858632745e-05
0.5336467449136795,8.476206655903964e-05,0.5336467449136795,-2.030926075265872e-05,0.5336467449136795,-1.3931823548404769e-05,0.5336467449136795,-1.4267415698936512e-05
0.5344408620936105,3.206835404897767e-05,0.5344408620936105,-1.96385166125314e-05,0.5344408620936105,-1.4602783387468602e-05,0.5344408620936105,-1.42672e-05
0.5352349792735416,-1.0909078333144557e-05,0.5352349792735416,-1.6952870104504766e-05,0.5352349792735416,-1.7959812369369045e-05,0.5352349792735416,-1.5106378093647454e-05
0.5360290964534726,-2.2660455305718444e-05,0.5360290964534726,-1.561e-05,0.5360290964534726,-1.7624220358355613e-05,0.5360290964534726,-1.4434572353207034e-05
0.5368232136334037,-2.970232685711469e-05,0.5368232136334037,-1.561e-05,0.5368232136334037,-1.779183402224546e-05,0.5368232136334037,-1.0913686521985636e-05
0.5376173308133347,-3.708847555264745e-05,0.5376173308133347,-1.4268331717700464e-05,0.5376173308133347,-1.9636843846021643e-05,0.5376173308133347,-1.359353656459907e-05
0.5384114479932659,-4.514579880018309e-05,0.5384114479932659,-1.3596266772444933e-05,0.5384114479932659,-1.96384e-05,0.5384114479932659,-1.426673322755507e-05
0.539205565173197,-3.307291829395093e-05,0.539205565173197,-1.560889694188083e-05,0.539205565173197,-1.5612206116238337e-05,0.539205565173197,-1.2589619215099308e-05
0.539999682353128,4.516888488471932e-06,0.539999682353128,-1.493886859963461e-05,0.539999682353128,-1.5945565700182696e-05,0.539999682353128,-1.1749735769546212e-05
0.5407937995330591,8.401783187220705e-07,0.5407937995330591,-1.2924908539688202e-05,0.5407937995330591,-1.5610084756614702e-05,0.5407937995330591,-1.2252872852454086e-05
0.5415879167129901,-1.5776056947010346e-05,0.5415879167129901,-1.1246076067060484e-05,0.5415879167129901,-1.6952659146351615e-05,0.5415879167129901,-1.0910340853648384e-05
0.5423820338929212,-2.3666757319161843e-05,0.5423820338929212,-1.2253e-05,0.5423820338929212,-1.896688536167632e-05,0.5423820338929212,-1.158165731916184e-05
0.5431761510728523,-2.5010137926497232e-05,0.5431761510728523,-1.2252872414700552e-05,0.5431761510728523,-1.6281272414700554e-05,0.5431761510728523,-1.2924910341197788e-05
0.5439702682527834,-2.836341009382878e-05,0.5439702682527834,-1.1582217981234242e-05,0.5439702682527834,-1.5610617981234244e-05,0.5439702682527834,-1.5607528075063026e-05
0.5447643854327144,-2.5012098365715133e-05,0.5447643854327144,-9.904399182857568e-06,0.5447643854327144,-1.762264098057092e-05,0.5447643854327144,-1.661632049028546e-05
0.5455585026126455,-2.433852058673782e-05,0.5455585026126455,-1.174824341779262e-05,0.5455585026126455,-1.76242e-05,0.5455585026126455,-1.628161029336891e-05
0.5463526197925765,-2.2324864500997835e-05,0.5463526197925765,-1.0575062601639538e-05,0.5463526197925765,-1.309437015118766e-05,0.5463526197925765,-1.644911964885938e-05
0.5471467369725076,-2.3666255172145007e-05,0.5471467369725076,-1.1581266379108753e-05,0.5471467369725076,-1.3260044379954684e-05,0.5471467369725076,-1.4939100414773424e-05
0.5479408541524387,-2.635180668991084e-05,0.5479408541524387,-1.292415334495542e-05,0.5479408541524387,-1.4267015008716564e-05,0.5479408541524387,-1.426732332752229e-05
0.5487349713323698,-1.963864240755935e-05,0.5487349713323698,-1.0910272723350965e-05,0.5487349713323698,-1.3595824241116988e-05,0.5487349713323698,-1.3595824241116988e-05
0.5495290885123009,-1.4938712126714665e-05,0.5495290885123009,-8.224927696811665e-06,0.5495290885123009,-1.1581375747684032e-05,0.5495290885123009,-1.4938300995427562e-05
0.5503232056922319,-1.5944693776914128e-05,0.5503232056922319,-1.1075248994624855e-05,0.5503232056922319,-9.569422436180452e-06,0.5503232056922319,-1.2255683261562326e-05
0.551117322872163,-1.3597804008443602e-05,0.551117322872163,-1.2419654937598525e-05,0.551117322872163,-7.55493771299503e-06,0.551117322872163,-1.158217257384103e-05
0.551911440052094,-8.899324404998511e-06,0.551911440052094,-1.1246728567751484e-05,0.551911440052094,-1.2249685602053727e-05,0.551911440052094,-1.6278085587949246e-05
0.5527055572320251,4.983064089910661e-07,0.5527055572320251,-1.2252438398453938e-05,0.5527055572320251,-1.2588512799484649e-05,0.5527055572320251,-1.7623451197938583e-05
0.5534996744119562,1.627493012598586e-05,0.5534996744119562,-6.884022508802038e-06,0.5534996744119562,-9.568648911713725e-06,0.5534996744119562,-1.1919640174315951e-05
0.5542937915918873,2.6014044717055e-05,0.5542937915918873,-9.566705089743994e-06,0.5542937915918873,-1.2252295089743994e-05,0.5542937915918873,-1.1581688114110098e-05
0.5550879087718184,3.191762805627295e-06,0.5550879087718184,-1.258835286298109e-05,0.5550879087718184,-1.359564571636983e-05,0.5550879087718184,-1.4938214290924576e-05
0.5558820259517494,-4.78385580593618e-05,0.5558820259517494,-1.0574521944590124e-05,0.5558820259517494,-1.359581097229506e-05,0.5558820259517494,-1.4267156110819752e-05
0.5566761431316805,-9.550172750406584e-05,0.5566761431316805,-1.1245960439377544e-05,0.5566761431316805,-1.39315e-05,0.5566761431316805,-1.2924641757510173e-05
0.5574702603116115,-7.06876133547693e-05,0.5574702603116115,-1.158128765611065e-05,0.5574702603116115,-1.39315e-05,0.5574702603116115,-1.42659506244426e-05
0.5582643774915427,4.640234574105709e-05,0.5582643774915427,-1.0239852776267648e-05,0.5582643774915427,-1.39315e-05,0.5582643774915427,-1.42672e-05
0.5590584946714737,5.622330412493506e-05,0.5590584946714737,-9.567837295364278e-06,0.5590584946714737,-9.570187454871668e-06,0.5590584946714737,-1.762206349135692e-05
0.5598526118514048,2.6702441425348893e-05,0.5598526118514048,-1.1245079466579764e-05,0.5598526118514048,-1.309047689888274e-05,0.5598526118514048,-1.6282056430647004e-05
0.5606467290313358,2.9708268919867675e-05,0.5606467290313358,-1.12459e-05,0.5606467290313358,-1.6615897056115434e-05,0.5606467290313358,-1.2254374773509769e-05
0.5614408462112669,2.400350536136124e-05,0.5614408462112669,-1.2252804936230368e-05,0.5614408462112669,-1.4267655148795804e-05,0.5614408462112669,-1.0910460085026174e-05
0.5622349633911979,8.561021985411631e-06,0.5622349633911979,-1.2253e-05,0.5622349633911979,-9.064099909375723e-06,0.5622349633911979,-1.292430713167608e-05
0.563029080571129,3.188493578338843e-06,0.563029080571129,-1.4267404133796244e-05,0.563029080571129,-1.1246206200694364e-05,0.563029080571129,-1.3595663910802503e-05
0.5638231977510602,-3.182703561801293e-06,0.5638231977510602,-1.627936743419545e-05,0.5638231977510602,-1.4264151151293177e-05,0.5638231977510602,-1.22543550438697e-05
0.5646173149309912,-1.2245179635282634e-05,0.5646173149309912,-1.426893786649548e-05,0.5646173149309912,-1.42672e-05,0.5646173149309912,-1.3594641422336346e-05
0.5654114321109223,-1.1582080202426713e-05,0.5654114321109223,-1.4938119797573286e-05,0.5654114321109223,-1.2925360404853425e-05,0.5654114321109223,-1.2253960404853425e-05
