X [s],R BICEPS BRACHII: EMG 1 [V],X [s].1,R DELTOID ANTERIOR: EMG 2 [V],X [s].5,R DELTOID MEDIUS: EMG 6 [V],X [s].6,R DELTOID POSTERIOR: EMG 7 [V]
0.0,-0.0007231423523195,0.0,-0.0030625969045666,0.0,-4.715706373711377e-05,0.0,-0.0010057490747422
0.000794117179931,-0.0007151264761979,0.000794117179931,-0.0030271687094863,0.000794117179931,-4.658450115699595e-05,0.000794117179931,-0.0009942978231399
0.0015882343598621,-0.0007071106000762,0.0015882343598621,-0.002991740514406,0.0015882343598621,-4.60119385768781e-05,0.0015882343598621,-0.0009828465715375
0.0023823515397932,-0.0006990947239546,0.0023823515397932,-0.0029563123193257,0.0023823515397932,-4.543937599676028e-05,0.0023823515397932,-0.0009713953199352
0.0031764687197242,-0.0006910788478329,0.0031764687197242,-0.0029208841242454,0.0031764687197242,-4.4866813416642447e-05,0.0031764687197242,-0.0009599440683328
0.0039705858996553,-0.0006830629717113,0.0039705858996553,-0.0028854559291651,0.0039705858996553,-4.429425083652461e-05,0.0039705858996553,-0.0009484928167304
0.0047647030795864,-0.0006750470955896,0.0047647030795864,-0.0028500277340848,0.0047647030795864,-4.372168825640678e-05,0.0047647030795864,-0.0009370415651281
0.0055588202595174,-0.000667031219468,0.0055588202595174,-0.0028145995390045,0.0055588202595174,-4.314912567628895e-05,0.0055588202595174,-0.0009255903135257
0.0063529374394485,-0.0006590153433463,0.0063529374394485,-0.0027791713439242,0.0063529374394485,-4.2576563096171125e-05,0.0063529374394485,-0.0009141390619234
0.0071470546193796,-0.0006509994672247,0.0071470546193796,-0.0027437431488439,0.0071470546193796,-4.200400051605329e-05,0.0071470546193796,-0.000902687810321
0.0079411717993107,-0.000642983591103,0.0079411717993107,-0.0027083149537635,0.0079411717993107,-4.143143793593546e-05,0.0079411717993107,-0.0008912365587187
0.0087352889792417,-0.0006349677149814,0.0087352889792417,-0.0026728867586832,0.0087352889792417,-4.085887535581762e-05,0.0087352889792417,-0.0008797853071163
0.0095294061591728,-0.0006269518388597,0.0095294061591728,-0.0026374585636029,0.0095294061591728,-4.028631277569979e-05,0.0095294061591728,-0.0008683340555139
0.0103235233391039,-0.0006189359627381,0.0103235233391039,-0.0026020303685226,0.0103235233391039,-3.971375019558196e-05,0.0103235233391039,-0.0008568828039116
0.0111176405190349,-0.0006109200866164,0.0111176405190349,-0.0025666021734423,0.0111176405190349,-3.9141187615464136e-05,0.0111176405190349,-0.0008454315523092
0.011911757698966,-0.0006029042104948,0.011911757698966,-0.002531173978362,0.011911757698966,-3.85686250353463e-05,0.011911757698966,-0.0008339803007069
0.0127058748788971,-0.0005948883343731,0.0127058748788971,-0.0024957457832817,0.0127058748788971,-3.799606245522847e-05,0.0127058748788971,-0.0008225290491045
0.0134999920588282,-0.0005868724582515,0.0134999920588282,-0.0024603175882014,0.0134999920588282,-3.742349987511064e-05,0.0134999920588282,-0.0008110777975022
0.0142941092387592,-0.0005788565821298,0.0142941092387592,-0.0024248893931211,0.0142941092387592,-3.68509372949928e-05,0.0142941092387592,-0.0007996265458998
0.0150882264186903,-0.0005708407060082,0.0150882264186903,-0.0023894611980408,0.0150882264186903,-3.627837471487497e-05,0.0150882264186903,-0.0007881752942974
0.0158823435986214,-0.0005628248298865,0.0158823435986214,-0.0023540330029605,0.0158823435986214,-3.570581213475715e-05,0.0158823435986214,-0.0007767240426951
0.0166764607785524,-0.0005548089537649,0.0166764607785524,-0.0023186048078802,0.0166764607785524,-3.5133249554639314e-05,0.0166764607785524,-0.0007652727910927
0.0174705779584835,-0.0005467930776433,0.0174705779584835,-0.0022831766127999,0.0174705779584835,-3.456068697452148e-05,0.0174705779584835,-0.0007538215394904
0.0182646951384146,-0.0005387772015216,0.0182646951384146,-0.0022477484177196,0.0182646951384146,-3.3988124394403646e-05,0.0182646951384146,-0.000742370287888
0.0190588123183456,-0.0005307613254,0.0190588123183456,-0.0022123202226393,0.0190588123183456,-3.341556181428581e-05,0.0190588123183456,-0.0007309190362857
0.0198529294982767,-0.0005227454492783,0.0198529294982767,-0.002176892027559,0.0198529294982767,-3.284299923416798e-05,0.0198529294982767,-0.0007194677846833
0.0206470466782078,-0.0005147295731567,0.0206470466782078,-0.0021414638324787,0.0206470466782078,-3.2270436654050145e-05,0.0206470466782078,-0.000708016533081
0.0214411638581389,-0.000506713697035,0.0214411638581389,-0.0021060356373983,0.0214411638581389,-3.1697874073932325e-05,0.0214411638581389,-0.0006965652814786
0.0222352810380699,-0.0004986978209134,0.0222352810380699,-0.002070607442318,0.0222352810380699,-3.112531149381449e-05,0.0222352810380699,-0.0006851140298762
0.023029398218001,-0.0004906819447917,0.023029398218001,-0.0020351792472377,0.023029398218001,-3.055274891369666e-05,0.023029398218001,-0.0006736627782739
0.0238235153979321,-0.0004826660686701,0.0238235153979321,-0.0019997510521574,0.0238235153979321,-2.9980186333578827e-05,0.0238235153979321,-0.0006622115266715
0.0246176325778631,-0.0004746501925484,0.0246176325778631,-0.0019643228570771,0.0246176325778631,-2.9407623753460996e-05,0.0246176325778631,-0.0006507602750692
0.0254117497577942,-0.0004666343164268,0.0254117497577942,-0.0019288946619968,0.0254117497577942,-2.883506117334317e-05,0.0254117497577942,-0.0006393090234668
0.0262058669377253,-0.0004586184403051,0.0262058669377253,-0.0018934664669165,0.0262058669377253,-2.826249859322533e-05,0.0262058669377253,-0.0006278577718645
0.0269999841176564,-0.0004506025641835,0.0269999841176564,-0.0018580382718362,0.0269999841176564,-2.76899360131075e-05,0.0269999841176564,-0.0006164065202621
0.0277941012975874,-0.0004425866880618,0.0277941012975874,-0.0018226100767559,0.0277941012975874,-2.7117373432989668e-05,0.0277941012975874,-0.0006049552686597
0.0285882184775185,-0.0004345708119402,0.0285882184775185,-0.0017871818816756,0.0285882184775185,-2.654481085287184e-05,0.0285882184775185,-0.0005935040170574
0.0293823356574496,-0.0004265549358185,0.0293823356574496,-0.0017517536865953,0.0293823356574496,-2.5972248272754007e-05,0.0293823356574496,-0.000582052765455
0.0301764528373806,-0.0004185390596969,0.0301764528373806,-0.001716325491515,0.0301764528373806,-2.539968569263617e-05,0.0301764528373806,-0.0005706015138527
0.0309705700173117,-0.0004105231835752,0.0309705700173117,-0.0016808972964347,0.0309705700173117,-2.4827123112518343e-05,0.0309705700173117,-0.0005591502622503
0.0317646871972428,-0.0004025073074536,0.0317646871972428,-0.0016454691013544,0.0317646871972428,-2.425456053240051e-05,0.0317646871972428,-0.000547699010648
0.0325588043771738,-0.0003944914313319,0.0325588043771738,-0.0016100409062741,0.0325588043771738,-2.368199795228268e-05,0.0325588043771738,-0.0005362477590456
0.0333529215571049,-0.0003864755552103,0.0333529215571049,-0.0015746127111938,0.0333529215571049,-2.3109435372164845e-05,0.0333529215571049,-0.0005247965074432
0.034147038737036,-0.0003784596790886,0.034147038737036,-0.0015391845161134,0.034147038737036,-2.2536872792047012e-05,0.034147038737036,-0.0005133452558409
0.0349411559169671,-0.000370443802967,0.0349411559169671,-0.0015037563210331,0.0349411559169671,-2.196431021192918e-05,0.0349411559169671,-0.0005018940042385
0.0357352730968981,-0.0003624279268453,0.0357352730968981,-0.0014683281259528,0.0357352730968981,-2.1391747631811354e-05,0.0357352730968981,-0.0004904427526362
0.0365293902768292,-0.0003544120507237,0.0365293902768292,-0.0014328999308725,0.0365293902768292,-2.081918505169352e-05,0.0365293902768292,-0.0004789915010338
0.0373235074567603,-0.000346396174602,0.0373235074567603,-0.0013974717357922,0.0373235074567603,-2.024662247157569e-05,0.0373235074567603,-0.0004675402494315
0.0381176246366913,-0.0003383802984804,0.0381176246366913,-0.0013620435407119,0.0381176246366913,-1.9674059891457857e-05,0.0381176246366913,-0.0004560889978291
0.0389117418166224,-0.0003303644223587,0.0389117418166224,-0.0013266153456316,0.0389117418166224,-1.9101497311340023e-05,0.0389117418166224,-0.0004446377462268
0.0397058589965535,-0.0003223485462371,0.0397058589965535,-0.0012911871505513,0.0397058589965535,-1.8528934731222192e-05,0.0397058589965535,-0.0004331864946244
0.0404999761764846,-0.0003143326701154,0.0404999761764846,-0.001255758955471,0.0404999761764846,-1.7956372151104365e-05,0.0404999761764846,-0.000421735243022
0.0412940933564156,-0.0003063167939938,0.0412940933564156,-0.0012203307603907,0.0412940933564156,-1.7383809570986532e-05,0.0412940933564156,-0.0004102839914197
0.0420882105363467,-0.0002983009178721,0.0420882105363467,-0.0011849025653104,0.0420882105363467,-1.68112469908687e-05,0.0420882105363467,-0.0003988327398173
0.0428823277162778,-0.0002902850417505,0.0428823277162778,-0.0011494743702301,0.0428823277162778,-1.6238684410750868e-05,0.0428823277162778,-0.000387381488215
0.0436764448962088,-0.0002822691656288,0.0436764448962088,-0.0011140461751498,0.0436764448962088,-1.5666121830633037e-05,0.0436764448962088,-0.0003759302366126
0.0444705620761399,-0.0002742532895072,0.0444705620761399,-0.0010786179800695,0.0444705620761399,-1.5093559250515204e-05,0.0444705620761399,-0.0003644789850103
0.045264679256071,-0.0002662374133855,0.045264679256071,-0.0010431897849892,0.045264679256071,-1.4520996670397377e-05,0.045264679256071,-0.0003530277334079
0.046058796436002,-0.0002582215372639,0.046058796436002,-0.0010077615899089,0.046058796436002,-1.3948434090279545e-05,0.046058796436002,-0.0003415764818055
0.0468529136159331,-0.0002502056611422,0.0468529136159331,-0.0009723333948286,0.0468529136159331,-1.3375871510161712e-05,0.0468529136159331,-0.0003301252302032
0.0476470307958642,-0.0002421897850206,0.0476470307958642,-0.0009369051997482,0.0476470307958642,-1.280330893004388e-05,0.0476470307958642,-0.0003186739786008
0.0484411479757953,-0.0002341739088989,0.0484411479757953,-0.0009014770046679,0.0484411479757953,-1.223074634992605e-05,0.0484411479757953,-0.0003072227269985
0.0492352651557263,-0.0002261580327773,0.0492352651557263,-0.0008660488095876,0.0492352651557263,-1.1658183769808216e-05,0.0492352651557263,-0.0002957714753961
0.0500293823356574,-0.0002181421566556,0.0500293823356574,-0.0008306206145073,0.0500293823356574,-1.1085621189690388e-05,0.0500293823356574,-0.0002843202237938
0.0508234995155885,-0.000210126280534,0.0508234995155885,-0.000795192419427,0.0508234995155885,-1.0513058609572552e-05,0.0508234995155885,-0.0002728689721914
0.0516176166955195,-0.0002021104044123,0.0516176166955195,-0.0007597642243467,0.0516176166955195,-9.940496029454718e-06,0.0516176166955195,-0.000261417720589
0.0524117338754506,-0.0001940945282907,0.0524117338754506,-0.0007243360292664,0.0524117338754506,-9.36793344933689e-06,0.0524117338754506,-0.0002499664689867
0.0532058510553817,-0.000186078652169,0.0532058510553817,-0.0006889078341861,0.0532058510553817,-8.795370869219056e-06,0.0532058510553817,-0.0002385152173843
0.0539999682353128,-0.0001780627760474,0.0539999682353128,-0.0006534796391058,0.0539999682353128,-8.222808289101227e-06,0.0539999682353128,-0.000227063965782
0.0547940854152438,-0.0001700468999257,0.0547940854152438,-0.0006180514440255,0.0547940854152438,-7.650245708983394e-06,0.0547940854152438,-0.0002156127141796
0.0555882025951749,-0.0001620310238041,0.0555882025951749,-0.0005826232489452,0.0555882025951749,-7.077683128865563e-06,0.0555882025951749,-0.0002041614625773
0.056382319775106,-0.0001540151476824,0.056382319775106,-0.0005471950538649,0.056382319775106,-6.5051205487477295e-06,0.056382319775106,-0.0001927102109749
0.057176436955037,-0.0001459992715608,0.057176436955037,-0.0005117668587846,0.057176436955037,-5.932557968629901e-06,0.057176436955037,-0.0001812589593725
0.0579705541349681,-0.0001379833954391,0.0579705541349681,-0.0004763386637043,0.0579705541349681,-5.359995388512067e-06,0.0579705541349681,-0.0001698077077702
0.0587646713148992,-0.0001299675193175,0.0587646713148992,-0.000440910468624,0.0587646713148992,-4.787432808394238e-06,0.0587646713148992,-0.0001583564561678
0.0595587884948302,-0.0001219516431958,0.0595587884948302,-0.0004054822735437,0.0595587884948302,-4.214870228276404e-06,0.0595587884948302,-0.0001469052045655
0.0603529056747613,-0.0001139357670742,0.0603529056747613,-0.0003700540784634,0.0603529056747613,-3.642307648158575e-06,0.0603529056747613,-0.0001354539529631
0.0611470228546924,-0.0001059198909525,0.0611470228546924,-0.000334625883383,0.0611470228546924,-3.069745068040741e-06,0.0611470228546924,-0.0001240027013608
0.0619411400346235,-9.790401483092074e-05,0.0619411400346235,-0.0002991976883027,0.0619411400346235,-2.497182487922912e-06,0.0619411400346235,-0.0001125514497584
0.0627352572145545,-8.988813870927114e-05,0.0627352572145545,-0.0002637694932224,0.0627352572145545,-1.9246199078050837e-06,0.0627352572145545,-0.0001011001981561
0.0635293743944856,-8.187226258762138e-05,0.0635293743944856,-0.0002283412981421,0.0635293743944856,-1.352057327687244e-06,0.0635293743944856,-8.964894655374487e-05
0.0643234915744167,-7.385638646597179e-05,0.0643234915744167,-0.0001929131030618,0.0643234915744167,-7.79494747569415e-07,0.0643234915744167,-7.81976949513883e-05
0.0651176087543477,-6.584051034432219e-05,0.0651176087543477,-0.0001574849079815,0.0651176087543477,-2.0693216745158629e-07,0.0651176087543477,-6.674644334903172e-05
0.0659117259342788,-5.782463422267258e-05,0.0659117259342788,-0.0001220567129012,0.0659117259342788,3.65630412666243e-07,0.0659117259342788,-5.529519174667514e-05
0.0667058431142099,-4.980875810102284e-05,0.0667058431142099,-8.662851782095395e-05,0.0667058431142099,9.381929927840818e-07,0.0667058431142099,-4.384394014431836e-05
0.067499960294141,-4.179288197937324e-05,0.067499960294141,-5.120032274064814e-05,0.067499960294141,1.510755572901911e-06,0.067499960294141,-3.239268854196178e-05
0.068294077474072,-3.3777005857723634e-05,0.068294077474072,-1.577212766034232e-05,0.068294077474072,2.08331815301974e-06,0.068294077474072,-2.09414369396052e-05
0.0690881946540031,-2.70042479554366e-05,0.0690881946540031,1.894625442420404e-05,0.0690881946540031,1.8959772757823925e-06,0.0690881946540031,-1.1216726049044353e-05
0.0698823118339342,-2.6056055988510668e-05,0.0698823118339342,2.93736e-05,0.0698823118339342,-2.942964968507696e-08,0.0698823118339342,-8.856554011489333e-06
0.0706764290138652,-2.4831912549302972e-05,0.0706764290138652,2.305538063172485e-05,0.0706764290138652,-2.2017439202716127e-06,0.0706764290138652,-9.389634704325936e-06
0.0714705461937963,-1.9875710239316245e-05,0.0714705461937963,1.2253074165299762e-05,0.0714705461937963,-5.4794034436637785e-06,0.0714705461937963,-1.260837795213675e-05
0.0722646633737274,-1.7782081222600616e-05,0.0722646633737274,2.7558686088716653e-06,0.0722646633737274,-8.974950611300308e-06,0.0722646633737274,-1.0673378166099077e-05
0.0730587805536585,-2.0507083336288068e-05,0.0730587805536585,-1.2173775026486536e-05,0.0730587805536585,-9.23171e-06,0.0730587805536585,-9.745146315518707e-06
0.0738528977335895,-2.3844382393473925e-05,0.0738528977335895,-1.9994020268366584e-05,0.0738528977335895,-1.134462354099255e-05,0.0738528977335895,-1.0456011770496276e-05
0.0746470149135206,-2.552332336137028e-05,0.0746470149135206,-1.691341130248262e-05,0.0746470149135206,-1.339810093635984e-05,0.0746470149135206,-1.138390093635984e-05
0.0754411320934517,-2.019153511787238e-05,0.0754411320934517,-8.936457133143454e-06,0.0754411320934517,-1.3793524304184446e-05,0.0754411320934517,-1.639966488212762e-05
0.0762352492733827,-1.62420288537126e-05,0.0762352492733827,-4.9631184637117816e-08,0.0762352492733827,-8.501258573770758e-06,0.0762352492733827,-1.803890360671408e-05
0.0770293664533138,-1.1937103915904384e-05,0.0770293664533138,2.871632844563682e-07,0.0770293664533138,-1.984967762408805e-06,0.0770293664533138,-1.578775195795219e-05
0.0778234836332449,-1.2766286309432764e-05,0.0778234836332449,-1.1186069738103344e-05,0.0778234836332449,6.94023432990987e-06,0.0778234836332449,-1.6834409127044826e-05
0.078617600813176,-1.4336208426245526e-05,0.078617600813176,-2.437715378483462e-05,0.078617600813176,1.6063834225058063e-05,0.078617600813176,-1.5096675935697695e-05
0.079411717993107,-1.6123399574041333e-05,0.079411717993107,-3.792339007595745e-05,0.079411717993107,1.7841433617305776e-05,0.079411717993107,-1.62814e-05
0.0802058351730381,-1.699245982219828e-05,0.0802058351730381,-4.349280045218988e-05,0.0802058351730381,1.3813459525862084e-05,0.0802058351730381,-1.3319554430952958e-05
0.0809999523529692,-1.6952731277730434e-05,0.0809999523529692,-3.608824695160455e-05,0.0809999523529692,9.56765052691992e-06,0.0809999523529692,-1.4434776657741738e-05
0.0817940695329002,-1.6380148781536793e-05,0.0817940695329002,-1.375556038690332e-05,0.0817940695329002,9.982010252357476e-06,0.0817940695329002,-1.5768043907683972e-05
0.0825881867128313,-1.6913373555508953e-05,0.0825881867128313,7.888320176662079e-06,0.0825881867128313,1.2213573555508953e-05,0.0825881867128313,-1.4148458728227564e-05
0.0833823038927624,-1.5077048691725664e-05,0.0833823038927624,1.3753639277500904e-05,0.0833823038927624,9.034459866889848e-06,0.0833823038927624,-1.6301119255006513e-05
0.0841764210726934,-1.3042928317494308e-05,0.0841764210726934,5.955649119085331e-06,0.0841764210726934,8.658955130401874e-06,0.0841764210726934,-1.6311023252421127e-05
0.0849705382526245,-7.948594830967196e-06,0.0849705382526245,-2.246156041752748e-05,0.0849705382526245,1.38718157548684e-05,0.0849705382526245,-1.592603349911484e-05
0.0857646554325556,-2.3798321041440456e-06,0.0857646554325556,-5.770716553608414e-05,0.0857646554325556,1.854189315898261e-05,0.0857646554325556,-1.4287160462221924e-05
0.0865587726124866,4.244302096916293e-07,0.0865587726124866,-9.459686251592256e-05,0.0865587726124866,2.287662867628237e-05,0.0865587726124866,-1.32601e-05
0.0873528897924177,1.964833956359524e-06,0.0873528897924177,-0.0001065658530788,0.0873528897924177,2.125771635330206e-05,0.0873528897924177,-1.2598558583326353e-05
0.0881470069723488,-3.156050567403166e-07,0.0881470069723488,-7.832780025288303e-05,0.0881470069723488,1.4722387884253268e-05,0.0881470069723488,-1.1779321971063316e-05
0.0889411241522799,-2.0630953681686103e-06,0.0889411241522799,-1.944727943032552e-05,0.0889411241522799,4.157535111144234e-06,0.0889411241522799,-9.488589652671413e-06
0.0897352413322109,-9.77444128895776e-06,0.0897352413322109,3.13465077432807e-05,0.0897352413322109,-4.413239017870927e-06,0.0897352413322109,-7.967919333569875e-06
0.090529358512142,-1.1660861468624004e-05,0.090529358512142,5.2831402832685526e-05,0.090529358512142,-8.145353826511043e-06,0.090529358512142,-9.261138035456044e-06
0.0913234756920731,-9.132767075314434e-06,0.0913234756920731,7.609337958880931e-05,0.0913234756920731,-8.797508069874667e-06,0.0913234756920731,-1.07918205807564e-05
0.0921175928720041,-8.461757087299427e-06,0.0921175928720041,9.280141377313194e-05,0.0921175928720041,-9.034087623480796e-06,0.0921175928720041,-9.05410766573898e-06
0.0929117100519352,-3.011470669156876e-06,0.0929117100519352,5.402126076199312e-05,0.0929117100519352,-1.4306626081724296e-05,0.0929117100519352,-7.434772406792388e-06
0.0937058272318663,-1.3132930987934267e-06,0.0937058272318663,-8.942004868875436e-06,0.0937058272318663,-1.6715774332411442e-05,0.0937058272318663,-5.499350057873809e-06
0.0944999444117974,-1.846219736744778e-06,0.0944999444117974,-4.8841835680091074e-05,0.0944999444117974,-1.5274500439952864e-05,0.0944999444117974,-9.231349209279009e-06
0.0952940615917284,1.1353434397644558e-06,0.0952940615917284,-4.995089624063555e-05,0.0952940615917284,-9.646606650569693e-06,0.0952940615917284,-1.1502528437762692e-05
0.0960881787716595,3.18914e-06,0.0960881787716595,-3.17839978714326e-05,0.0960881787716595,-7.493833794853912e-06,0.0960881787716595,-1.2450541044798911e-05
0.0968822959515906,2.3599618608037254e-06,0.0968822959515906,-2.0211498943692057e-05,0.0968822959515906,-7.612800606393698e-06,0.0968822959515906,-1.2114522673995344e-05
0.0976764131315216,-4.83629158167861e-07,0.0976764131315216,-1.951927930318268e-05,0.0976764131315216,-4.986169771205886e-06,0.0976764131315216,-1.5807240915176456e-05
0.0984705303114527,-4.719043425081629e-06,0.0984705303114527,-2.8010760306420996e-05,0.0984705303114527,-5.736357281703077e-06,0.0984705303114527,-1.9677710099267088e-05
0.0992646474913838,-1.4818699782129229e-05,0.0992646474913838,-3.5317268049749986e-05,0.0992646474913838,-6.131490842411283e-06,0.0992646474913838,-1.6677050108935386e-05
0.1000587646713148,-2.603791428347177e-05,0.1000587646713148,-4.3288042867394126e-05,0.1000587646713148,-6.19077052688676e-06,0.1000587646713148,-1.4385879243858708e-05
0.1008528818512459,-3.0104238278938012e-05,0.1008528818512459,-7.152399101066986e-05,0.1008528818512459,-4.4331954302654965e-06,0.1008528818512459,-1.881886271388265e-05
0.101646999031177,-3.602767375941729e-05,0.101646999031177,-9.309874266850048e-05,0.101646999031177,-4.19623e-06,0.101646999031177,-1.952000328007284e-05
0.1024411162111081,-3.804307153503879e-05,0.1024411162111081,-8.31393302553029e-05,0.1024411162111081,-1.7876118849253805e-06,0.1024411162111081,-1.9677552309974145e-05
0.1032352333910391,-3.465671817445891e-05,0.1032352333910391,-5.515043200704442e-05,0.1032352333910391,-1.6091183405905802e-06,0.1032352333910391,-1.928329743028453e-05
0.1040293505709702,-2.749706005698284e-05,0.1040293505709702,-2.808722588272089e-05,0.1040293505709702,-1.194608546682399e-06,0.1040293505709702,-1.466189716727836e-05
0.1048234677509013,-1.651334271534409e-05,0.1048234677509013,-2.473143339969806e-05,0.1048234677509013,1.3932543587483048e-06,0.1048234677509013,-1.335816545941998e-05
0.1056175849308323,7.498911097961883e-08,0.1056175849308323,-2.508958351073981e-05,0.1056175849308323,5.856864816828519e-06,0.1056175849308323,-1.0474505015736374e-05
0.1064117021107634,1.7193911972978156e-05,0.1064117021107634,-2.3272208084296515e-05,0.1064117021107634,7.493725354525844e-06,0.1064117021107634,-7.710444291443737e-06
0.1072058192906945,2.90379e-05,0.1072058192906945,-4.456775604894661e-05,0.1072058192906945,2.6752397689704326e-06,0.1072058192906945,-5.736576459310542e-06
0.1079999364706256,2.2660469548087413e-05,0.1079999364706256,-5.69002836181796e-05,0.1079999364706256,-3.5243723457021404e-06,0.1079999364706256,-7.553036937244754e-06
0.1087940536505566,8.316477252564479e-06,0.1087940536505566,-4.935140897713537e-05,0.1087940536505566,-7.207187498325918e-06,0.1087940536505566,-1.1560934996651837e-05
0.1095881708304877,-2.051818377005704e-07,0.1095881708304877,-2.8948216094582564e-05,0.1095881708304877,-1.652334237438956e-06,0.1095881708304877,-1.2450686993989812e-05
0.1103822880104188,-3.742953844273792e-06,0.1103822880104188,-1.720949991385894e-05,0.1103822880104188,5.73499103786641e-06,0.1103822880104188,-1.2706277323210305e-05
0.1111764051903498,-2.2955145505998994e-07,0.1111764051903498,-4.5282952481157366e-05,0.1111764051903498,8.598510939807671e-06,0.1111764051903498,-1.35958e-05
0.1119705223702809,6.1302466783393175e-06,0.1119705223702809,-7.350612851066115e-05,0.1119705223702809,1.5272052607202437e-05,0.1119705223702809,-1.221403468065825e-05
0.112764639550212,8.145627173806488e-06,0.112764639550212,-4.281753172680499e-05,0.112764639550212,2.2876779783354583e-05,0.112764639550212,-1.2253e-05
0.1135587567301431,5.360671893897466e-06,0.1135587567301431,1.5410002615162254e-05,0.1135587567301431,2.277760729923825e-05,0.1135587567301431,-1.2253e-05
0.1143528739100741,-4.275085435476615e-06,0.1143528739100741,6.767331138597835e-05,0.1143528739100741,1.286531120366142e-05,0.1143528739100741,-1.3121846207414174e-05
0.1151469910900052,-2.018826730124288e-05,0.1151469910900052,7.94904506265769e-05,0.1151469910900052,-2.061321188633238e-06,0.1151469910900052,-1.5194854934567268e-05
0.1159411082699363,-4.0364404003013066e-05,0.1159411082699363,5.488122798793923e-05,0.1159411082699363,-1.1542459156053252e-05,0.1159411082699363,-1.6529030186252085e-05
0.1167352254498673,-7.113275870327174e-05,0.1167352254498673,3.0366375995334203e-05,0.1167352254498673,-9.370488114016378e-06,0.1167352254498673,-1.3951648573884858e-05
0.1175293426297984,-0.0001090154733614,0.1175293426297984,1.3988985498162682e-05,0.1175293426297984,-8.540632836151662e-06,0.1175293426297984,-9.468424780392569e-06
0.1183234598097295,-0.0001376908224809,0.1183234598097295,8.48285275728334e-06,0.1183234598097295,-1.0081308743301704e-05,0.1183234598097295,-7.948312914433901e-06
0.1191175769896605,-0.0001453470659782,0.1191175769896605,-9.16568480291985e-07,0.1191175769896605,-1.2392250488484527e-05,0.1191175769896605,-8.817430195393811e-06
0.1199116941695916,-0.000109988399878,0.1199116941695916,-1.118955291678874e-05,0.1199116941695916,-1.0474700091084754e-05,0.1199116941695916,-1.0633979065513636e-05
0.1207058113495227,-3.104636079436292e-05,0.1207058113495227,-3.2902456139561246e-05,0.1207058113495227,-3.958732105073464e-06,0.1207058113495227,-1.0041265006546097e-05
0.1214999285294538,6.629164735955918e-05,0.1214999285294538,-5.924858103921724e-05,0.1214999285294538,3.859912166421793e-06,0.1214999285294538,-1.023869702873387e-05
0.1222940457093848,0.0001462792615917,0.1222940457093848,-6.877101046457629e-05,0.1222940457093848,1.1155059540587302e-05,0.1222940457093848,-1.2253e-05
0.1230881628893159,0.0001777110920212,0.1230881628893159,-7.753654791362771e-05,0.1230881628893159,1.6162029091985896e-05,0.1230881628893159,-1.09102e-05
0.123882280069247,0.0001755253627409,0.123882280069247,-7.066480895111467e-05,0.123882280069247,1.819502024833836e-05,0.123882280069247,-1.155085931476396e-05
0.124676397249178,0.0001655736768096,0.124676397249178,-4.798828938830424e-05,0.124676397249178,1.9421711774467463e-05,0.124676397249178,-1.2864894112766268e-05
0.1254705144291091,0.0001449693360078,0.1254705144291091,-2.4090649776981835e-05,0.1254705144291091,1.5433563163364872e-05,0.1254705144291091,-1.2430585609124332e-05
0.1262646316090402,0.0001065060630328,0.1262646316090402,-7.197606376468756e-06,0.1262646316090402,1.2391245473245784e-05,0.1262646316090402,-1.3891999684210612e-05
0.1270587487889713,5.661797236689111e-05,0.1270587487889713,-8.380190550992782e-06,0.1270587487889713,8.747205837805418e-06,0.1270587487889713,-1.2341528342752592e-05
0.1278528659689023,2.052757376036716e-05,0.1278528659689023,-2.545382864122297e-05,0.1278528659689023,4.689985738357046e-06,0.1278528659689023,-1.1344611637679667e-05
0.1286469831488334,4.197058868371499e-06,0.1286469831488334,-5.7043195128352735e-05,0.1286469831488334,2.063654746100255e-06,0.1286469831488334,-1.19173e-05
0.1294411003287645,1.8659046889596748e-06,0.1294411003287645,-8.08667693950418e-05,0.1294411003287645,6.225333091825841e-06,0.1294411003287645,-1.4107582200637071e-05
0.1302352175086955,1.1555877824648597e-06,0.1302352175086955,-9.107142352598914e-05,0.1302352175086955,2.2301249588674546e-05,0.1302352175086955,-1.69528e-05
0.1310293346886266,-9.114081103318303e-06,0.1310293346886266,-7.729309974997081e-05,0.1310293346886266,2.0960464751858325e-05,0.1310293346886266,-1.3042531631623216e-05
0.1318234518685577,-2.775980178029789e-05,0.1318234518685577,-4.082561026928009e-05,0.1318234518685577,-2.2467421104662155e-06,0.1318234518685577,-9.133597005537785e-06
0.1326175690484888,-4.780446446949256e-05,0.1326175690484888,-6.333779042506187e-06,0.1326175690484888,-1.69561741996142e-05,0.1326175690484888,-1.2610034917465505e-05
0.1334116862284198,-6.241214079588985e-05,0.1334116862284198,1.5279044091236556e-05,0.1334116862284198,-1.946093007073108e-05,0.1334116862284198,-1.52743e-05
0.1342058034083509,-6.466141029559093e-05,0.1342058034083509,1.3483468104044596e-05,0.1342058034083509,-1.841383088677277e-05,0.1342058034083509,-1.4168436765196974e-05
0.134999920588282,-6.361495720711102e-05,0.134999920588282,2.5188186635955336e-06,0.134999920588282,-1.292497207111019e-05,0.134999920588282,-1.39315e-05
0.135794037768213,-5.946930105569421e-05,0.135794037768213,-3.783136066906583e-06,0.135794037768213,-8.383299475385673e-06,0.135794037768213,-1.4740844209845731e-05
0.1365881549481441,-5.7581583295661415e-05,0.1365881549481441,-6.608753290580367e-06,0.1365881549481441,-3.349617171048661e-06,0.1365881549481441,-1.52743e-05
0.1373822721280752,-5.850103804991463e-05,0.1373822721280752,6.111092035175404e-06,0.1373822721280752,4.167221795078466e-07,0.1373822721280752,-1.5165177298276724e-05
0.1381763893080062,-5.652705803972418e-05,0.1381763893080062,3.020586193202283e-05,0.1381763893080062,-1.51064e-06,0.1381763893080062,-1.4781434823834506e-05
0.1389705064879373,-4.849138212014846e-05,0.1389705064879373,3.4904211953749565e-05,0.1389705064879373,6.9778920661285325e-06,0.1389705064879373,-1.3279559776826478e-05
0.1397646236678684,-4.109348330026784e-05,0.1397646236678684,3.146655905003017e-05,0.1397646236678684,1.2845428615228684e-05,0.1397646236678684,-1.5491531160646907e-05
0.1405587408477994,-4.171578260306487e-05,0.1405587408477994,2.065244997205978e-05,0.1405587408477994,1.06925760954027e-05,0.1405587408477994,-1.3052312838927957e-05
0.1413528580277305,-4.090589991417388e-05,0.1413528580277305,-1.896183166533546e-06,0.1413528580277305,7.494115783456101e-06,0.1413528580277305,-1.1818599828347746e-05
0.1421469752076616,-4.15868664339579e-05,0.1421469752076616,-3.117408936565713e-05,0.1421469752076616,-1.5380491200045564e-06,0.1421469752076616,-8.30411592191827e-06
0.1429410923875927,-4.092751044054054e-05,0.1429410923875927,-5.461229116310055e-05,0.1429410923875927,-1.073097164756757e-05,0.1429410923875927,-8.361522108989631e-06
0.1437352095675237,-3.417358127586211e-05,0.1437352095675237,-5.8204859809077737e-05,0.1437352095675237,-1.6596010243842323e-05,0.1437352095675237,-1.0959450940354024e-05
0.1445293267474548,-2.4851147486060328e-05,0.1445293267474548,-5.091676355883487e-05,0.1445293267474548,-1.9322400046692745e-05,0.1445293267474548,-1.2213599906614512e-05
0.1453234439273859,-1.1814061117198188e-05,0.1453234439273859,-5.4507094760811934e-05,0.1453234439273859,-1.8967e-05,0.1453234439273859,-1.3872108526988308e-05
0.146117561107317,2.9959045796444457e-06,0.146117561107317,-6.746497346097718e-05,0.146117561107317,-1.659581094664402e-05,0.146117561107317,-1.478139452667799e-05
0.146911678287248,8.284066133458792e-06,0.146911678287248,-5.790342646018657e-05,0.146911678287248,-9.091762703438798e-06,0.146911678287248,-1.6350440394408127e-05
0.1477057954671791,7.928340436470051e-06,0.1477057954671791,-6.999353959299579e-06,0.1477057954671791,-3.801202934680735e-06,0.1477057954671791,-1.4741084996421365e-05
0.1484999126471102,5.707153175199464e-06,0.1484999126471102,6.46140050393859e-05,0.1484999126471102,-5.039884932551012e-07,0.1484999126471102,-1.2589014639110515e-05
0.1492940298270412,-3.6602481357019984e-06,0.1492940298270412,9.588208006117728e-05,0.1492940298270412,4.511147548959118e-06,0.1492940298270412,-1.2825516371909145e-05
0.1500881470069723,-1.0790783227876268e-05,0.1500881470069723,7.349582600743255e-05,0.1500881470069723,7.493507503249812e-06,0.1500881470069723,-1.329921426389521e-05
0.1508822641869034,-1.2213824757971025e-05,0.1508822641869034,4.27728009731568e-05,0.1508822641869034,7.928085242028975e-06,0.1508822641869034,-1.5095300968115898e-05
0.1516763813668344,-1.0122120863331564e-05,0.1516763813668344,2.2930250470957603e-05,0.1516763813668344,9.605515129652347e-06,0.1516763813668344,-1.586708485764412e-05
0.1524704985467655,-7.987425961884832e-06,0.1524704985467655,-1.381235244459501e-06,0.1524704985467655,1.0713177496893562e-05,0.1524704985467655,-1.3556903329191415e-05
0.1532646157266966,-1.124551628902324e-05,0.1532646157266966,-2.86438479240898e-05,0.1532646157266966,8.718241328120382e-06,0.1532646157266966,-1.3329096992180572e-05
0.1540587329066277,-2.3194263889951244e-05,0.1540587329066277,-5.122573862815649e-05,0.1540587329066277,1.175981992840917e-05,0.1540587329066277,-1.4889384362435748e-05
0.1548528500865587,-2.6628945177500496e-05,0.1548528500865587,-5.67228303431899e-05,0.1548528500865587,1.2717081768497232e-05,0.1548528500865587,-1.49386e-05
0.1556469672664898,-1.543521125362492e-05,0.1556469672664898,-6.404087900326314e-05,0.1556469672664898,6.755581715022928e-06,0.1556469672664898,-1.345800484851069e-05
0.1564410844464209,2.818733218121685e-07,0.1564410844464209,-8.701965985525033e-05,0.1564410844464209,-1.5888528917290314e-06,0.1564410844464209,-1.1985733367956836e-05
0.157235201626352,9.606026789052263e-06,0.157235201626352,-0.0001155806943947,0.157235201626352,-3.366637875357204e-06,0.157235201626352,-1.3990347877604246e-05
0.158029318806283,7.335788341514014e-06,0.158029318806283,-0.0001376466673594,0.158029318806283,-3.031145744057476e-06,0.158029318806283,-1.3279811488114951e-05
0.1588234359862141,-1.4743304204769156e-06,0.1588234359862141,-0.000122434546498,0.1588234359862141,-1.7081828761503045e-06,0.1588234359862141,-1.4385971504601218e-05
0.1596175531661451,-1.5259417706849362e-05,0.1596175531661451,-7.859322722449863e-05,0.1596175531661451,-1.5499471013442283e-06,0.1596175531661451,-1.3456635506721143e-05
0.1604116703460762,-1.264469120648142e-05,0.1604116703460762,-2.568733283954011e-05,0.1604116703460762,2.479260743466174e-06,0.1604116703460762,-1.27862723337157e-05
0.1612057875260073,1.7289590860070106e-05,0.1612057875260073,9.003208160394586e-06,0.1612057875260073,6.684316462448754e-06,0.1612057875260073,-1.3200792924897509e-05
0.1619999047059384,5.2197255702588655e-05,0.1619999047059384,1.72882534472718e-05,0.1619999047059384,2.518495129775623e-06,0.1619999047059384,-1.1246105945599682e-05
0.1627940218858694,6.017983616662731e-05,0.1627940218858694,9.386692780121e-06,0.1627940218858694,1.599119543004517e-06,0.1627940218858694,-1.1383821277790896e-05
0.1635881390658005,3.979244733345155e-05,0.1635881390658005,-4.462300522583474e-07,0.1635881390658005,3.3662610743708817e-06,0.1635881390658005,-1.177930992604463e-05
0.1643822562457316,8.655203392659715e-06,0.1643822562457316,-1.9785301140535578e-05,0.1643822562457316,3.642338527045805e-06,0.1643822562457316,-1.0773107885247544e-05
0.1651763734256627,-1.4436189015827192e-05,0.1651763734256627,-3.729280633649e-05,0.1651763734256627,5.636629575634362e-06,0.1651763734256627,-9.597171524683511e-06
0.1659704906055937,-2.00434208820236e-05,0.1659704906055937,-3.6386174644940254e-05,0.1659704906055937,7.128735776504489e-06,0.1659704906055937,-1.0593936893982044e-05
0.1667646077855248,-1.849324033990536e-05,0.1667646077855248,-2.597675681379321e-05,0.1667646077855248,8.007349915023661e-06,0.1667646077855248,-9.705702493725637e-06
0.1675587249654559,-1.69528e-05,0.1675587249654559,-1.488216072741136e-05,0.1675587249654559,8.2344554076306e-06,0.1675587249654559,-9.5378737771082e-06
0.1683528421453869,-2.4653507698738623e-05,0.1683528421453869,-1.6199560561276364e-05,0.1683528421453869,5.2429947509312994e-06,0.1683528421453869,-1.2766220338590966e-05
0.169146959325318,-4.0270244152870805e-05,0.169146959325318,-2.1080084656122903e-05,0.169146959325318,5.913534803144841e-06,0.169146959325318,-1.183872943802974e-05
0.1699410765052491,-5.900943895530373e-05,0.1699410765052491,-1.537163745193443e-05,0.1699410765052491,1.0750427409266944e-05,0.1699410765052491,-1.189775251008145e-05
0.1707351936851801,-6.750428223324014e-05,0.1707351936851801,-9.923701640167553e-06,0.1707351936851801,1.410899407774671e-05,0.1707351936851801,-9.52883133265447e-06
0.1715293108651112,-5.8223566872594216e-05,0.1715293108651112,-5.87324280004341e-06,0.1715293108651112,1.2223286587435832e-05,0.1715293108651112,-7.197797070462861e-06
0.1723234280450423,-2.7763278762126184e-05,0.1723234280450423,2.8490931873279368e-06,0.1723234280450423,1.0633880031589486e-05,0.1723234280450423,-9.469228357515772e-06
0.1731175452249733,2.016787882141293e-05,0.1731175452249733,7.670343208866772e-06,0.1731175452249733,9.131885835077086e-06,0.1731175452249733,-1.2649210159494564e-05
0.1739116624049044,6.670210319700983e-05,0.1739116624049044,2.5726479442686585e-05,0.1739116624049044,6.150986798596003e-06,0.1739116624049044,-1.473137932711804e-05
0.1747057795848355,9.01843877253632e-05,0.1747057795848355,4.189618291658414e-05,0.1747057795848355,2.675583747999736e-06,0.1747057795848355,-1.3003323785428598e-05
0.1754998967647666,7.738136320482923e-05,0.1754998967647666,1.5950507758307508e-05,0.1754998967647666,-3.859711942521742e-06,0.1754998967647666,-1.2924102523022756e-05
0.1762940139446976,4.269267618772885e-05,0.1762940139446976,-2.332054618557964e-05,0.1762940139446976,-5.34123981176348e-06,0.1762940139446976,-1.7702229435290442e-05
0.1770881311246287,1.3309654352432643e-05,0.1770881311246287,-4.133747801696355e-05,0.1770881311246287,-7.847706276244785e-06,0.1770881311246287,-1.67962939543501e-05
0.1778822483045598,-8.095894722787947e-06,0.1778822483045598,-4.856707815216535e-05,0.1778822483045598,-1.390911020801248e-05,0.1778822483045598,-1.4958176054849752e-05
0.1786763654844909,-2.3364184791009855e-05,0.1786763654844909,-5.919447557480353e-05,0.1786763654844909,-1.5176715080312507e-05,0.1786763654844909,-1.4968355518674736e-05
0.1794704826644219,-3.097166453651944e-05,0.1794704826644219,-7.346130656017875e-05,0.1794704826644219,-8.68098732723815e-06,0.1794704826644219,-1.622173326233766e-05
0.180264599844353,-3.202001199625798e-05,0.180264599844353,-9.78072029799132e-05,0.180264599844353,-1.5305249909903816e-06,0.180264599844353,-1.4464874664171985e-05
0.181058717024284,-2.6549265482749085e-05,0.181058717024284,-0.0001296053267048,0.181058717024284,-3.3475621216410105e-06,0.181058717024284,-1.29244e-05
0.1818528342042151,-2.5246534226429985e-05,0.1818528342042151,-0.0001406566303947,0.1818528342042151,-1.4236803248561002e-05,0.1818528342042151,-1.2904548660355023e-05
0.1826469513841462,-2.3074923649137527e-05,0.1826469513841462,-8.852866497680259e-05,0.1826469513841462,-1.8138463747085483e-05,0.1826469513841462,-1.5648773931069588e-05
0.1834410685640773,-1.979822418785643e-05,0.1834410685640773,3.5171008895313386e-06,0.1834410685640773,-1.2510532972380636e-05,0.1834410685640773,-1.6519391215475795e-05
0.1842351857440083,-1.6439617363675487e-05,0.1842351857440083,6.379870984463857e-05,0.1842351857440083,-9.96295105265962e-06,0.1842351857440083,-1.3527309532753085e-05
0.1850293029239394,-1.685405069142386e-05,0.1850293029239394,7.616873000007332e-05,0.1850293029239394,1.165235760503595e-06,0.1850293029239394,-1.2016002247862849e-05
0.1858234201038705,-1.642982693383721e-05,0.1858234201038705,2.675882349942475e-05,0.1858234201038705,1.3853843108783976e-05,0.1858234201038705,-1.249049724351359e-05
0.1866175372838016,-1.875074202325001e-05,0.1866175372838016,1.2939905761021192e-05,0.1866175372838016,1.513519283685814e-05,0.1866175372838016,-1.3743946572520228e-05
0.1874116544637326,-1.9045717396935156e-05,0.1874116544637326,4.35605697567853e-05,0.1874116544637326,-3.884428718365361e-06,0.1874116544637326,-1.3398239132311718e-05
0.1882057716436637,-1.5540833022760103e-05,0.1882057716436637,9.109617387094608e-05,0.1882057716436637,-2.1178680605496413e-05,0.1882057716436637,-1.2529438789007177e-05
0.1889998888235948,-1.2253360392870568e-05,0.1889998888235948,0.0001240372604884,0.1889998888235948,-1.7625161079464977e-05,0.1889998888235948,-1.225283982008917e-05
0.1897940060035258,-1.05745e-05,0.1897940060035258,0.0001005858227864,0.1897940060035258,1.0885104557061368e-06,0.1897940060035258,-1.1305803308527873e-05
0.1905881231834569,-1.4699628863423532e-05,0.1905881231834569,4.653603024849942e-05,0.1905881231834569,4.297796196418721e-05,0.1905881231834569,-1.0652735823783824e-05
0.191382240363388,-1.935856876528444e-05,0.191382240363388,4.179281541580165e-06,0.191382240363388,7.370823565609702e-05,0.191382240363388,-1.0003852908532196e-05
0.192176357543319,-2.2876231018421504e-05,0.192176357543319,-3.593510585957617e-05,0.192176357543319,5.918469986029412e-05,0.192176357543319,-7.396121698924465e-06
0.1929704747232501,-2.023214395544933e-05,0.1929704747232501,-5.332307251160168e-05,0.1929704747232501,2.7940836544993487e-05,0.1929704747232501,-6.88182e-06
0.1937645919031812,-1.6163314980731013e-05,0.1937645919031812,-5.834240479409603e-05,0.1937645919031812,3.664173704834729e-06,0.1937645919031812,-1.1857582023122784e-05
0.1945587090831123,-1.2331809125154463e-05,0.1945587090831123,-6.266410598001992e-05,0.1945587090831123,-9.844756134931992e-06,0.1945587090831123,-1.49386e-05
0.1953528262630433,-1.1729958001167784e-05,0.1953528262630433,-8.40418624876489e-05,0.1953528262630433,-1.66760172301705e-05,0.1953528262630433,-1.4030154307542626e-05
0.1961469434429744,-3.2515193818813734e-06,0.1961469434429744,-0.0001071584955787,0.1961469434429744,-2.0348539532987293e-05,0.1961469434429744,-1.7899652710649726e-05
0.1969410606229055,1.005938819112906e-05,0.1969410606229055,-0.0001052196199954,0.1969410606229055,-2.4435780119455663e-05,0.1969410606229055,-1.7508730563322974e-05
0.1977351778028366,1.4128213584707006e-05,0.1977351778028366,-9.069284255990092e-05,0.1977351778028366,-2.5503428805097664e-05,0.1977351778028366,-1.087171522039066e-05
0.1985292949827676,1.59457e-05,0.1985292949827676,-7.251888378196071e-05,0.1985292949827676,-2.356796034333544e-05,0.1985292949827676,-7.800047955427134e-06
0.1993234121626987,1.6991657049163514e-05,0.1993234121626987,-6.449611109987985e-05,0.1993234121626987,-1.5804287014318914e-05,0.1993234121626987,-6.566629772502438e-06
0.2001175293426297,8.793367737450747e-06,0.2001175293426297,-5.372619111207577e-05,0.2001175293426297,1.1807196439584995e-06,0.2001175293426297,-9.410112798458656e-06
0.2009116465225608,-2.4597660734014083e-06,0.2009116465225608,-2.622675632366923e-05,0.2009116465225608,2.0134384922173533e-05,0.2009116465225608,-8.89601e-06
0.2017057637024919,-6.704099005929238e-06,0.2017057637024919,-4.875406247386968e-06,0.2017057637024919,2.5345241726062363e-05,0.2017057637024919,-8.955245337783122e-06
0.202499880882423,-1.847369722886123e-06,0.202499880882423,9.229514149403924e-06,0.202499880882423,1.2926545266663469e-05,0.202499880882423,-1.0909942568000384e-05
0.203293998062354,-1.5886032907763455e-06,0.203293998062354,1.3002029776897208e-05,0.203293998062354,5.086386095032861e-06,0.203293998062354,-9.726239854450156e-06
0.2040881152422851,-9.381119185407892e-07,0.2040881152422851,3.704697257170321e-06,0.2040881152422851,1.97508068762862e-06,0.2040881152422851,-8.97422862474276e-06
0.2048822324222162,-4.920550067098947e-06,0.2048822324222162,-1.3916471081797183e-06,0.2048822324222162,1.6897316931343474e-06,0.2048822324222162,-1.0395409239896571e-05
0.2056763496021472,-1.6896413897810572e-05,0.2056763496021472,-9.045955962072937e-06,0.2056763496021472,-1.153400859334417e-06,0.2056763496021472,-1.379087830799732e-05
0.2064704667820783,-2.83233261795077e-05,0.2064704667820783,-1.6752329640979123e-05,0.2064704667820783,-3.95900692728661e-06,0.2064704667820783,-1.5965102569715478e-05
0.2072645839620094,-3.6956743312705234e-05,0.2072645839620094,-1.884852317515775e-05,0.2072645839620094,-1.6489853985476805e-06,0.2072645839620094,-1.723902592975953e-05
0.2080587011419405,-2.751640035755764e-05,0.2080587011419405,-2.1846536404090732e-05,0.2080587011419405,-1.481078565618758e-06,0.2080587011419405,-1.699221602860461e-05
0.2088528183218715,-7.229040439950399e-06,0.2088528183218715,-3.037740863408242e-05,0.2088528183218715,-2.379325683030365e-06,0.2088528183218715,-1.5629885737727225e-05
0.2096469355018026,1.5110502401024e-05,0.2096469355018026,-4.0393215134900045e-05,0.2096469355018026,-5.449704469866637e-06,0.2096469355018026,-1.6122108558175144e-05
0.2104410526817337,3.713983776321963e-05,0.2104410526817337,-4.989170191079252e-05,0.2104410526817337,-6.88182e-06,0.2104410526817337,-2.125830912736767e-05
0.2112351698616647,4.292026840054033e-05,0.2112351698616647,-5.597122355608605e-05,0.2112351698616647,-6.88182e-06,0.2112351698616647,-1.877032073955974e-05
0.2120292870415958,3.500164429944866e-05,0.2120292870415958,-4.660914168693237e-05,0.2120292870415958,-7.632205686549064e-06,0.2120292870415958,-1.69528e-05
0.2128234042215269,1.7521815684645137e-05,0.2128234042215269,-1.740400656941036e-05,0.2128234042215269,-5.1828527832628406e-06,0.2128234042215269,-1.6745021115248655e-05
0.2136175214014579,1.8224926172781645e-06,0.2136175214014579,1.076602194186913e-05,0.2136175214014579,-4.265754916502388e-06,0.2136175214014579,-1.444417929238188e-05
0.214411638581389,-5.974168730247292e-06,0.214411638581389,2.886300751873205e-05,0.214411638581389,-5.222678876396249e-06,0.214411638581389,-1.3418244080648838e-05
0.2152057557613201,-1.0554695426223635e-05,0.2152057557613201,1.6197974569307722e-05,0.2152057557613201,3.031029388839432e-06,0.2152057557613201,-1.5659349713439817e-05
0.2159998729412512,-1.560926774897902e-05,0.2159998729412512,-1.1241338794114151e-05,0.2159998729412512,1.4936677843796506e-05,0.2159998729412512,-1.443536612551049e-05
0.2167939901211822,-2.2183045067099383e-05,0.2167939901211822,-3.710208298403338e-05,0.2167939901211822,1.9461561465796896e-05,0.2167939901211822,-1.406937541368124e-05
0.2175881073011133,-2.9194302851403147e-05,0.2175881073011133,-6.109991894960937e-05,0.2175881073011133,7.403472018643362e-06,0.2175881073011133,-1.677350285140315e-05
0.2183822244810444,-3.195837946176273e-05,0.2183822244810444,-7.011140218332646e-05,0.2183822244810444,-7.726423168250167e-06,0.2183822244810444,-1.7232734230395453e-05
0.2191763416609755,-3.221889375824239e-05,0.2191763416609755,-5.521516006554232e-05,0.2191763416609755,-1.2962370338942823e-05,0.2191763416609755,-1.205796745769148e-05
0.2199704588409065,-2.2386687943222437e-05,0.2199704588409065,-2.054278678631589e-05,0.2199704588409065,-1.1720363307560122e-05,0.2199704588409065,-7.514433032229824e-06
0.2207645760208376,-1.3319955273943525e-05,0.2207645760208376,-5.716590224707439e-06,0.2207645760208376,-9.09378998838852e-06,0.2207645760208376,-8.9350411931256e-06
0.2215586932007686,-7.394942551358318e-06,0.2215586932007686,-2.0596647137524717e-05,0.2215586932007686,-5.3413256439692445e-06,0.2215586932007686,-1.2509845010735865e-05
0.2223528103806997,9.369951290531312e-07,0.2223528103806997,-3.1154810219618244e-05,0.2223528103806997,-3.52483e-06,0.2223528103806997,-9.60721234257707e-06
0.2231469275606308,1.1994641473645826e-05,0.2231469275606308,-1.1639195440261836e-05,0.2231469275606308,-5.222661843087572e-06,0.2231469275606308,-8.13527440448948e-06
0.2239410447405619,1.66171e-05,0.2239410447405619,1.810137605086701e-05,0.2239410447405619,-5.697108302675466e-06,0.2239410447405619,-1.175732102077344e-05
0.2247351619204929,1.507765506382624e-05,0.2247351619204929,3.64785407153883e-05,0.2247351619204929,-6.052170669098253e-06,0.2247351619204929,-1.537262246808688e-05
0.225529279100424,5.8157833787397485e-06,0.225529279100424,4.000739202497341e-05,0.225529279100424,-1.925506146734285e-06,0.225529279100424,-1.659733130477405e-05
0.2263233962803551,-1.241457161109777e-05,0.2263233962803551,3.863634969889222e-05,0.2263233962803551,9.510022611760909e-06,0.2263233962803551,-1.5569114215058926e-05
0.2271175134602862,-2.7501124856454907e-05,0.2271175134602862,1.4868408672604454e-05,0.2271175134602862,1.45242284671745e-05,0.2271175134602862,-8.103918386271427e-06
0.2279116306402172,-3.743164236700167e-05,0.2279116306402172,-1.907226052594191e-05,0.2279116306402172,1.2469925325411374e-05,0.2279116306402172,-8.343388790058729e-06
0.2287057478201483,-3.910910723697952e-05,0.2287057478201483,-4.856852277195696e-05,0.2287057478201483,1.089054121486373e-05,0.2287057478201483,-8.708394655560631e-06
0.2294998650000794,-2.299880107519416e-05,0.2294998650000794,-7.569572130887477e-05,0.2294998650000794,9.902905498719542e-06,0.2294998650000794,-1.1748622000672153e-05
0.2302939821800104,5.430786211957413e-06,0.2302939821800104,-8.108883705695052e-05,0.2302939821800104,1.0475581973826906e-05,0.2302939821800104,-1.1701544209384747e-05
0.2310880993599415,3.3411294946586295e-05,0.2310880993599415,-6.282140424339596e-05,0.2310880993599415,1.1107938591113172e-05,0.2310880993599415,-7.829138708110001e-06
0.2318822165398726,4.411117646842951e-05,0.2318822165398726,-3.579356079865796e-05,0.2318822165398726,1.0378796946213364e-05,0.2318822165398726,-1.0868050499865128e-05
0.2326763337198036,2.993645289352136e-05,0.2326763337198036,-2.3351660707005515e-05,0.2326763337198036,5.720320460700218e-06,0.2326763337198036,-1.4611057039153463e-05
0.2334704508997347,1.1645994961096949e-05,0.2334704508997347,-2.9488225958873404e-05,0.2334704508997347,1.8075806262578731e-06,0.2334704508997347,-1.4583520313128936e-05
0.2342645680796658,-8.877325940589506e-07,0.2342645680796658,-3.0914126878464247e-05,0.2342645680796658,-1.7274570273089045e-06,0.2342645680796658,-1.35958e-05
0.2350586852595969,-1.2451134234327977e-05,0.2350586852595969,-2.232807030871637e-05,0.2350586852595969,-5.420713118021665e-06,0.2350586852595969,-1.35958e-05
0.2358528024395279,-1.9598559728381124e-05,0.2358528024395279,-2.4627564074542704e-05,0.2358528024395279,-5.598296491504574e-06,0.2358528024395279,-1.4464439818920749e-05
0.236646919619459,-2.133621816937029e-05,0.236646919619459,-4.568577495240491e-05,0.236646919619459,-4.541589084685146e-06,0.236646919619459,-1.7662836338740586e-05
0.2374410367993901,-2.218727404041528e-05,0.2374410367993901,-7.24449453555259e-05,0.2374410367993901,-3.604845869611429e-06,0.2374410367993901,-1.713234940119979e-05
0.2382351539793211,-1.8434689388092863e-05,0.2382351539793211,-9.802550844739895e-05,0.2382351539793211,-2.310324217658928e-06,0.2382351539793211,-1.332005782341072e-05
0.2390292711592522,-1.5916143902730855e-05,0.2390292711592522,-0.0001121927607637,0.2390292711592522,-4.19623e-06,0.2390292711592522,-9.073890059858122e-06
0.2398233883391833,-1.4178164017998463e-05,0.2398233883391833,-0.0001095902826716,0.2398233883391833,-5.461140744359632e-06,0.2398233883391833,-6.842875372179816e-06
0.2406175055191144,-1.361546489009162e-05,0.2406175055191144,-5.3151655824693895e-05,0.2406175055191144,-1.000275217536567e-05,0.2406175055191144,-1.0595469176512788e-05
0.2414116226990454,-1.49386e-05,0.2414116226990454,4.013441034386942e-05,0.2414116226990454,-9.172334128733089e-06,0.2414116226990454,-1.0376962064366544e-05
0.2422057398789765,-1.49386e-05,0.2422057398789765,0.0001143079959996,0.2422057398789765,-5.104914973189844e-06,0.2422057398789765,-8.22461e-06
0.2429998570589076,-1.426740594559966e-05,0.2429998570589076,0.0001559261752193,0.2429998570589076,9.899804886969411e-06,0.2429998570589076,-1.023818216626842e-05
0.2437939742388386,-1.4118799627266991e-05,0.2437939742388386,0.0001266720456361,0.2437939742388386,2.577664932091689e-05,0.2437939742388386,-1.051614218238777e-05
0.2445880914187697,-1.458452162063436e-05,0.2445880914187697,6.594003338343174e-05,0.2445880914187697,2.93828097371472e-05,0.2445880914187697,-8.638477027619384e-06
0.2453822085987008,-9.86396605484328e-06,0.2453822085987008,2.485193241143587e-06,0.2453822085987008,2.966195106098672e-05,0.2453822085987008,-1.0691905332799106e-05
0.2461763257786318,-1.1224257532323042e-05,0.2461763257786318,-4.949980131392764e-05,0.2461763257786318,2.582165898906917e-05,0.2461763257786318,-1.116742718982586e-05
0.2469704429585629,-1.0674566429404438e-05,0.2469704429585629,-6.150245702817116e-05,0.2469704429585629,2.46738e-05,0.2469704429585629,-1.0169427626464186e-05
0.247764560138494,-8.382461238164997e-06,0.247764560138494,-5.393932760872502e-05,0.247764560138494,2.3489395231343423e-05,0.247764560138494,-1.3891504952659989e-05
0.2485586773184251,-1.031793418961636e-05,0.2485586773184251,-4.479848636495915e-05,0.2485586773184251,1.8818686588839844e-05,0.2485586773184251,-1.5313750426686863e-05
0.2493527944983561,-1.0535182102214355e-05,0.2493527944983561,-6.476176832387261e-05,0.2493527944983561,1.5097020447984648e-05,0.2493527944983561,-1.2944337334850564e-05
0.2501469116782872,-1.1146867313552776e-05,0.2501469116782872,-9.969352943830846e-05,0.2501469116782872,9.352568541542436e-06,0.2501469116782872,-1.2489667313552776e-05
0.2509410288582183,-1.0812635122084374e-05,0.2509410288582183,-8.809587468101741e-05,0.2509410288582183,-3.2395321155103817e-07,0.2509410288582183,-1.424768690816372e-05
0.2517351460381494,-8.590303213483082e-06,0.2517351460381494,-2.900190918670652e-05,0.2517351460381494,-4.9059340742352935e-06,0.2517351460381494,-1.2905249141572931e-05
0.2525292632180804,-7.997579177807203e-06,0.2525292632180804,4.547484496056539e-05,0.2525292632180804,-1.3437467375437236e-05,0.2525292632180804,-1.2331953579386051e-05
0.2533233803980115,-5.854347523882432e-06,0.2533233803980115,9.033678142506272e-05,0.2533233803980115,-1.807859141464576e-05,0.2533233803980115,-1.3200754292677122e-05
0.2541174975779426,-3.89987723244015e-06,0.2541174975779426,6.540474157941602e-05,0.2541174975779426,-1.774224169732045e-05,0.2541174975779426,-1.41098110702394e-05
0.2549116147578736,-7.059907331530197e-06,0.2549116147578736,1.0800831692149908e-05,0.2549116147578736,-1.4523543464649634e-05,0.2549116147578736,-1.8611861013098786e-05
0.2557057319378047,-7.829766389753101e-06,0.2557057319378047,-4.097852417820643e-05,0.2557057319378047,-1.446462327535934e-05,0.2557057319378047,-1.8967e-05
0.2564998491177358,-4.86828215782767e-06,0.2564998491177358,-7.166681793344896e-05,0.2564998491177358,-1.3763980443477284e-05,0.2564998491177358,-1.8967e-05
0.2572939662976669,-4.551385761699234e-06,0.2572939662976669,-7.822775392317298e-05,0.2572939662976669,-1.268762949220051e-05,0.2572939662976669,-1.953947050779949e-05
0.2580880834775979,-4.393980057140581e-06,0.2580880834775979,-7.703789652852326e-05,0.2580880834775979,-1.0478004566446742e-05,0.2580880834775979,-1.6994250399984066e-05
0.258882200657529,-5.24245937791935e-06,0.258882200657529,-8.932329596449273e-05,0.258882200657529,-6.311344898089442e-06,0.258882200657529,-1.2393053110403252e-05
0.2596763178374601,-6.3674324912610924e-06,0.2596763178374601,-8.70473638784801e-05,0.2596763178374601,-3.1512536974284008e-06,0.2596763178374601,-9.253386791773148e-06
0.2604704350173911,-6.704291597986675e-06,0.2604704350173911,-4.149467978371515e-05,0.2604704350173911,3.521516026972261e-06,0.2604704350173911,-8.5990236080533e-06
0.2612645521973222,-5.894742757420067e-06,0.2612645521973222,6.584140884546307e-06,0.2612645521973222,1.0219362808234385e-05,0.2612645521973222,-1.0110448194658072e-05
0.2620586693772533,-4.86763e-06,0.2620586693772533,2.684295946024469e-05,0.2620586693772533,1.638615476126322e-06,0.2620586693772533,-1.150267621457152e-05
0.2628527865571843,-5.99327151129723e-06,0.2628527865571843,2.556455920526411e-05,0.2628527865571843,-1.0464724783898932e-05,0.2628527865571843,-1.1384406045188917e-05
0.2636469037371154,-7.265725903408401e-06,0.2636469037371154,1.9144492528186785e-05,0.2636469037371154,-1.2096104533661376e-05,0.2636469037371154,-1.138351169505064e-05
0.2644410209170465,-1.0832171145804469e-05,0.2644410209170465,1.8828873545586588e-05,0.2644410209170465,-8.384744932786309e-06,0.2644410209170465,-1.4009529435290524e-05
0.2652351380969776,-9.56741e-06,0.2652351380969776,8.804007697220764e-06,0.2652351380969776,-1.9472443133783547e-06,0.2652351380969776,-1.5787413987791303e-05
0.2660292552769086,-1.09102e-05,0.2660292552769086,-2.1220830995679905e-05,0.2660292552769086,1.0514625865737457e-05,0.2660292552769086,-1.62814e-05
0.2668233724568397,-9.478400020082298e-06,0.2668233724568397,-4.190395508960425e-05,0.2668233724568397,1.5451438911881535e-05,0.2668233724568397,-1.63407399866118e-05
0.2676174896367708,-8.915686482726936e-06,0.2676174896367708,-4.02969405886879e-05,0.2676174896367708,1.156072372363099e-05,0.2676174896367708,-1.66171e-05
0.2684116068167018,-1.142395881763631e-05,0.2684116068167018,-2.6270668302496904e-05,0.2684116068167018,7.039457066381255e-06,0.2684116068167018,-1.409885442843638e-05
0.2692057239966329,-1.5510794474655702e-05,0.2692057239966329,-1.8788945752735417e-05,0.2692057239966329,3.0904340953340183e-06,0.2692057239966329,-1.100890590466598e-05
0.269999841176564,-3.0376924364755016e-05,0.269999841176564,-2.098058361817954e-05,0.269999841176564,3.189025585777961e-06,0.269999841176564,-1.2923827928889808e-05
0.270793958356495,-4.798920794010942e-05,0.270793958356495,-2.16125578318576e-05,0.270793958356495,-2.277575237969174e-06,0.270793958356495,-1.1305940900856794e-05
0.2715880755364261,-6.105321470685223e-05,0.2715880755364261,-1.4568984406104985e-05,0.2715880755364261,-1.3384014706852228e-05,0.2715880755364261,-1.0988332629537193e-05
0.2723821927163572,-5.623199296001034e-05,0.2723821927163572,-9.152524999312806e-06,0.2723821927163572,-1.888875271018876e-05,0.2723821927163572,-1.3556676355094378e-05
0.2731763098962882,-1.1376750807417427e-05,0.2731763098962882,-1.8436315581433836e-05,0.2731763098962882,-1.4982025780670055e-05,0.2731763098962882,-1.1465288425534222e-05
0.2739704270762193,5.105402113664186e-05,0.2739704270762193,-3.0169669901565994e-05,0.2739704270762193,-8.718487318697799e-06,0.2739704270762193,-9.725582606832482e-06
0.2747645442561504,9.635293017777884e-05,0.2747645442561504,-3.7844387877701744e-05,0.2747645442561504,-1.300331417766031e-05,0.2747645442561504,-7.908955640093867e-06
0.2755586614360815,9.698697442563928e-05,0.2755586614360815,-4.874074691089607e-05,0.2755586614360815,-9.78451288515322e-06,0.2755586614360815,-7.197783320629152e-06
0.2763527786160125,6.038151454102943e-05,0.2763527786160125,-4.555272411829431e-05,0.2763527786160125,-2.7554875336223923e-06,0.2763527786160125,-9.86316006577692e-06
0.2771468957959436,2.4918647899706143e-05,0.2771468957959436,-3.2325627888397606e-05,0.2771468957959436,5.772941050308909e-06,0.2771468957959436,-1.3317899716741108e-05
0.2779410129758747,5.164326748382196e-06,0.2779410129758747,-3.0538908230780213e-05,0.2779410129758747,1.5430313006471216e-05,0.2779410129758747,-1.76242e-05
0.2787351301558057,4.018827453630943e-06,0.2787351301558057,-3.227605334606549e-05,0.2787351301558057,1.821645127318453e-05,0.2787351301558057,-1.557178981452377e-05
0.2795292473357368,-2.465355161266769e-07,0.2795292473357368,-2.9896677301147245e-05,0.2795292473357368,1.5837243382744284e-05,0.2795292473357368,-1.327991446091476e-05
0.2803233645156679,-6.251037655850373e-06,0.2803233645156679,-2.781447133898237e-05,0.2803233645156679,1.2904094404595935e-05,0.2803233645156679,-1.5235271329503386e-05
0.2811174816955989,-1.2530814187760984e-05,0.2811174816955989,-2.6036884022487845e-05,0.2811174816955989,9.467861018368748e-06,0.2811174816955989,-1.57280760954027e-05
0.2819115988755301,-1.6192793470491924e-05,0.2819115988755301,-2.5661235920068285e-05,0.2819115988755301,9.350387062522669e-06,0.2819115988755301,-1.0949198517923156e-05
0.2827057160554611,-1.6804735041870496e-05,0.2827057160554611,-2.2090340796575117e-05,0.2827057160554611,1.12459e-05,0.2827057160554611,-7.612317746478787e-06
0.2834998332353922,-1.7623779509840872e-05,0.2834998332353922,-1.829624720091139e-05,0.2834998332353922,9.232430806020097e-06,0.2834998332353922,-1.0238199328913028e-05
0.2842939504153233,-1.9104818083544225e-05,0.2842939504153233,-1.833557460057051e-05,0.2842939504153233,9.684037270554807e-06,0.2842939504153233,-9.39071184383654e-06
0.2850880675952543,-1.970734869351329e-05,0.2850880675952543,-2.3467138424062107e-05,0.2850880675952543,2.108178756797736e-05,0.2850880675952543,-8.026848476832002e-06
0.2858821847751854,-1.9873107471351355e-05,0.2858821847751854,-2.548350013674425e-05,0.2858821847751854,3.263281104659018e-05,0.2858821847751854,-9.208952129871155e-06
0.2866763019551165,-2.3033145067526955e-05,0.2866763019551165,-2.9237152806379663e-05,0.2866763019551165,2.485015953523729e-05,0.2866763019551165,-1.2409976392699236e-05
0.2874704191350475,-2.335211331633626e-05,0.2874704191350475,-4.139269335762733e-05,0.2874704191350475,7.0856953735318704e-06,0.2874704191350475,-1.2144881158700804e-05
0.2882645363149786,-1.7664332344406507e-05,0.2882645363149786,-5.4244079789527454e-05,0.2882645363149786,-8.58838020937974e-06,0.2882645363149786,-1.1068016913898372e-05
0.2890586534949096,-1.4978084824769151e-05,0.2890586534949096,-6.69952860692168e-05,0.2890586534949096,-1.770324863900051e-05,0.2890586534949096,-1.2213515175230848e-05
0.2898527706748408,-1.2905078716218256e-05,0.2898527706748408,-6.123889507596312e-05,0.2898527706748408,-1.6321377863947795e-05,0.2898527706748408,-1.2470137022675367e-05
0.2906468878547718,-1.1975048119617552e-05,0.2906468878547718,-2.3232004483706223e-05,0.2906468878547718,-1.6358397492823404e-05,0.2906468878547718,-1.452308228867642e-05
0.2914410050347029,-1.916195312041739e-05,0.2914410050347029,2.036264828278682e-05,0.2914410050347029,-2.2936818129148824e-05,0.2914410050347029,-1.6933304107204827e-05
0.292235122214634,-2.3093536657420336e-05,0.292235122214634,6.783212290125582e-05,0.292235122214634,-1.993593558021244e-05,0.292235122214634,-1.5334372237632776e-05
0.293029239394565,-2.169219885175432e-05,0.293029239394565,9.280040253811488e-05,0.293029239394565,-1.5373429511684855e-05,0.293029239394565,-1.572828524415757e-05
0.2938233565744961,-2.0428457090379173e-05,0.2938233565744961,7.950243248596035e-05,0.2938233565744961,-7.78904244715231e-06,0.2938233565744961,-1.8058987289895463e-05
0.2946174737544272,-2.038852886296251e-05,0.2946174737544272,6.98981594669462e-05,0.2946174737544272,-1.2328884386406617e-06,0.2946174737544272,-1.871002886296251e-05
0.2954115909343582,-1.7850981895118913e-05,0.2954115909343582,3.84112083223724e-05,0.2954115909343582,4.176709134217165e-06,0.2954115909343582,-1.2459908800973733e-05
0.2962057081142893,-1.4701594438638524e-05,0.2962057081142893,-2.6291309738367004e-05,0.2962057081142893,8.54987434190395e-06,0.2962057081142893,-1.1304977754554097e-05
0.2969998252942204,-1.762319315484635e-05,0.2969998252942204,-6.965005481697028e-05,0.2969998252942204,1.5608552641346375e-05,0.2969998252942204,-1.2420737090923152e-05
0.2977939424741515,-1.6578240073724846e-05,0.2977939424741515,-7.327019189098037e-05,0.2977939424741515,2.028857316130869e-05,0.2977939424741515,-1.039783345620808e-05
0.2985880596540825,-1.5729669024726902e-05,0.2985880596540825,-6.875268727448809e-05,0.2985880596540825,2.0962936280908628e-05,0.2985880596540825,-1.031689823145482e-05
0.2993821768340136,-1.053863663084309e-05,0.2993821768340136,-6.27863580058531e-05,0.2993821768340136,1.847485128448702e-05,0.2993821768340136,-1.0613612178878245e-05
0.3001762940139447,-6.064351538868232e-06,0.3001762940139447,-6.140477912531625e-05,0.3001762940139447,1.715039900227186e-05,0.3001762940139447,-1.09102e-05
0.3009704111938757,-1.327073750752688e-08,0.3009704111938757,-7.47432241718833e-05,0.3009704111938757,1.539384380059994e-05,0.3009704111938757,-1.085045166073073e-05
0.3017645283738068,1.0217265110605227e-05,0.3017645283738068,-9.325390897549663e-05,0.3017645283738068,1.0713672251775494e-05,0.3017645283738068,-1.371342736238072e-05
0.3025586455537379,2.4140605956923533e-05,0.3025586455537379,-0.0001138570092039,0.3025586455537379,4.0975065682438255e-06,0.3025586455537379,-1.62814e-05
0.3033527627336689,3.83960196622183e-05,0.3033527627336689,-0.0001344888367964,0.3033527627336689,-3.089106762091845e-06,0.3033527627336689,-1.530352515864666e-05
0.3041468799136,4.51514e-05,0.3041468799136,-0.0001103560768677,0.3041468799136,-1.0731275073050886e-05,0.3041468799136,-1.8206105158021527e-05
0.3049409970935311,4.331707872174812e-05,0.3049409970935311,-3.795748249445044e-05,0.3049409970935311,-1.367376063912594e-05,0.3049409970935311,-1.885980121828855e-05
0.3057351142734621,3.616968302827768e-05,0.3057351142734621,3.776077449082133e-05,0.3057351142734621,-1.673437882233646e-05,0.3057351142734621,-1.5068281345901189e-05
0.3065292314533932,2.1752501186125724e-05,0.3065292314533932,6.075122083036408e-05,0.3065292314533932,-2.1948578267105296e-05,0.3065292314533932,-1.408943132812039e-05
0.3073233486333243,6.346524338966378e-06,0.3073233486333243,5.118191749004937e-05,0.3073233486333243,-1.9953863053128987e-05,0.3073233486333243,-1.4997922824478502e-05
0.3081174658132554,-7.358470603111912e-06,0.3081174658132554,6.076429472323904e-05,0.3081174658132554,-1.82956e-05,0.3081174658132554,-1.52743e-05
0.3089115829931864,-1.590659270564906e-05,0.3089115829931864,7.961216081204251e-05,0.3089115829931864,-2.0033418541129813e-05,0.3089115829931864,-1.4405390729435094e-05
0.3097057001731175,-1.8433922588750247e-05,0.3097057001731175,6.604371739389314e-05,0.3097057001731175,-1.8513190355000992e-05,0.3097057001731175,-1.4661954822499504e-05
0.3104998173530486,-1.829546842364467e-05,0.3104998173530486,4.1463879978311e-05,0.3104998173530486,-1.1919142068974622e-05,0.3104998173530486,-1.561e-05
0.3112939345329796,-2.063485177688404e-05,0.3112939345329796,1.6134137240250616e-05,0.3112939345329796,-1.2775891517784017e-06,0.3112939345329796,-9.21413129490899e-06
0.3120880517129107,-2.3547008043218503e-05,0.3120880517129107,-4.120820033191683e-05,0.3120880517129107,6.702277956188768e-06,0.3120880517129107,-9.190094966993393e-06
0.3128821688928418,-2.305726652817266e-05,0.3128821688928418,-8.730634080893825e-05,0.3128821688928418,6.529863152141786e-06,0.3128821688928418,-1.0675562489735332e-05
0.3136762860727728,-1.9600629885945813e-05,0.3136762860727728,-0.0001094109606456,0.3136762860727728,3.86053e-06,0.3136762860727728,-8.067667931567488e-06
0.314470403252704,-1.825697792332429e-05,0.314470403252704,-0.0001273719160667,0.314470403252704,7.61114782739012e-06,0.314470403252704,-1.0987448865727976e-05
0.315264520432635,-1.636029701552699e-05,0.315264520432635,-0.0001001233596417,0.315264520432635,1.1284573139742894e-05,0.315264520432635,-1.546144832099083e-05
0.3160586376125661,-1.66171e-05,0.3160586376125661,-2.7073809307372213e-05,0.3160586376125661,1.454363836476414e-05,0.3160586376125661,-1.5037369392059763e-05
0.3168527547924971,-1.649852555664794e-05,0.3168527547924971,2.6100156212340885e-05,0.3168527547924971,8.38399914687198e-06,0.3168527547924971,-1.0061727571309445e-05
0.3176468719724282,-1.5689875041460666e-05,0.3176468719724282,5.383984069749818e-05,0.3176468719724282,1.6097300165842669e-06,0.3176468719724282,-1.0158931434410896e-05
0.3184409891523593,-1.1503662292928822e-05,0.3184409891523593,4.7578552245068025e-05,0.3184409891523593,3.6222521338389712e-06,0.3184409891523593,-1.339649098737456e-05
0.3192351063322903,-9.725739419664331e-06,0.3192351063322903,2.1641725437166296e-05,0.3192351063322903,7.768655826978703e-06,0.3192351063322903,-1.561e-05
0.3200292235122214,-6.092196667320576e-06,0.3200292235122214,1.5214784975964062e-05,0.3200292235122214,1.5786909718549244e-05,0.3200292235122214,-1.217446953331605e-05
0.3208233406921525,-8.817779270706141e-06,0.3208233406921525,7.934022500794113e-06,0.3208233406921525,2.757775655651068e-05,0.3208233406921525,-9.962417103767378e-06
0.3216174578720835,-1.3359544614947726e-05,0.3216174578720835,1.3274960190758989e-05,0.3216174578720835,2.9352907180069695e-05,0.3216174578720835,-1.1127772307473863e-05
0.3224115750520147,-1.366487764789663e-05,0.3224115750520147,2.2146790456930096e-05,0.3224115750520147,1.764322217387233e-05,0.3224115750520147,-1.1462985849794968e-05
0.3232056922319457,-1.4187897835666883e-05,0.3232056922319457,4.313409517508906e-06,0.3232056922319457,8.106549158728711e-06,0.3232056922319457,-1.0100465945222296e-05
0.3239998094118768,-1.7623376217601276e-05,0.3239998094118768,-2.8693509064069837e-05,0.3239998094118768,4.532616481242396e-06,0.3239998094118768,-1.1581188108800636e-05
0.3247939265918079,-1.936090303136556e-05,0.3247939265918079,-5.72800731426909e-05,0.3247939265918079,3.18914e-06,0.3247939265918079,-1.201625815726902e-05
0.3255880437717389,-2.5597597889072563e-05,0.3255880437717389,-7.330327111921243e-05,0.3255880437717389,4.412215111163589e-06,0.3255880437717389,-1.0151637080618274e-05
0.32638216095167,-3.50347114056126e-05,0.32638216095167,-8.191980672226147e-05,0.32638216095167,7.5141192871492124e-06,0.32638216095167,-8.400563207828542e-06
0.3271762781316011,-4.336970792729679e-05,0.3271762781316011,-7.88388635328867e-05,0.3271762781316011,3.3520202203086685e-06,0.3271762781316011,-1.0425522530396775e-05
0.3279703953115321,-4.953292144654198e-05,0.3279703953115321,-7.46929e-05,0.3279703953115321,-3.4052337048360896e-06,0.3279703953115321,-9.824004611775876e-06
0.3287645124914632,-5.439321741036821e-05,0.3287645124914632,-6.35589569513278e-05,0.3287645124914632,-2.143420931715757e-06,0.3287645124914632,-1.2311756474079474e-05
0.3295586296713942,-4.582316714830879e-05,0.3295586296713942,-2.625519156352121e-05,0.3295586296713942,4.275056169823652e-06,0.3295586296713942,-1.2963919222851365e-05
0.3303527468513254,-1.7116414905955814e-05,0.3303527468513254,-7.196811241794231e-06,0.3303527468513254,1.0425894900685254e-05,0.3303527468513254,-1.2253e-05
0.3311468640312564,1.4948431205949184e-05,0.3311468640312564,-1.0278201664165697e-05,0.3311468640312564,8.493121307669211e-06,0.3311468640312564,-7.949619454404556e-06
0.3319409812111875,4.2636640235194765e-05,0.3319409812111875,-6.960429359591478e-06,0.3319409812111875,2.9748750649945715e-06,0.3319409812111875,-8.41939635729958e-06
0.3327350983911186,5.08583e-05,0.3327350983911186,6.189872168130904e-07,0.3327350983911186,-3.325346538868208e-06,0.3327350983911186,-1.312077034204092e-05
0.3335292155710496,4.201290953460755e-05,0.3335292155710496,6.54612e-06,0.3335292155710496,-8.658649798493819e-06,0.3335292155710496,-1.3674736422365085e-05
0.3343233327509807,2.595491926100316e-05,0.3343233327509807,4.770794531350341e-06,0.3343233327509807,-1.1266068298337568e-05,0.3343233327509807,-1.4385822766112524e-05
0.3351174499309118,5.169487625230549e-06,0.3351174499309118,6.1886880591261975e-06,0.3351174499309118,-1.3813355108432812e-05,0.3351174499309118,-1.6123873477910415e-05
0.3359115671108428,-9.725684083585474e-06,0.3359115671108428,1.0456392830421073e-05,0.3359115671108428,-1.2124582709012076e-05,0.3359115671108428,-1.722920439092494e-05
0.3367056842907739,-4.494237330268459e-06,0.3367056842907739,3.257564585036599e-08,0.3367056842907739,-1.2727045520805162e-05,0.3367056842907739,-1.4306868281207745e-05
0.337499801470705,1.728235025260701e-05,0.337499801470705,-1.7619898176195452e-05,0.337499801470705,-9.568554137960018e-06,0.337499801470705,-1.2589129053332612e-05
0.338293918650636,4.538716606121807e-05,0.338293918650636,-2.5563785419687037e-05,0.338293918650636,-9.743983496572402e-06,0.338293918650636,-1.1306055561130884e-05
0.3390880358305671,6.392704545435171e-05,0.3390880358305671,-3.5162494811402775e-05,0.3390880358305671,-1.4855217626880364e-05,0.3390880358305671,-9.291578910445665e-06
0.3398821530104982,5.711674257330217e-05,0.3398821530104982,-4.551512770951165e-05,0.3398821530104982,-2.4729049798370983e-05,0.3398821530104982,-8.755783734604623e-06
0.3406762701904293,3.0772281256121525e-05,0.3406762701904293,-5.370262687130646e-05,0.3406762701904293,-2.76951e-05,0.3406762701904293,-1.0791005162777324e-05
0.3414703873703603,7.503158039262446e-06,0.3414703873703603,-5.989919090946641e-05,0.3414703873703603,-2.68462059222533e-05,0.3414703873703603,-1.2646564466480207e-05
0.3422645045502914,-1.1302890280422787e-05,0.3422645045502914,-6.331896476365282e-05,0.3422645045502914,-2.509015431315356e-05,0.3422645045502914,-1.5353185574104813e-05
0.3430586217302225,-2.421920296569444e-05,0.3430586217302225,-6.075298735734913e-05,0.3430586217302225,-8.027897944454177e-06,0.3430586217302225,-1.434626137775748e-05
0.3438527389101535,-3.233472681558468e-05,0.3438527389101535,-5.2741999026168224e-05,0.3438527389101535,1.5359253125745387e-05,0.3438527389101535,-1.218362818124104e-05
0.3446468560900846,-3.2692238845917306e-05,0.3446468560900846,-2.9117904203467267e-05,0.3446468560900846,3.23725093595263e-05,0.3446468560900846,-1.5757032010176893e-05
0.3454409732700157,-2.840782285483592e-05,0.3454409732700157,7.771689011011473e-06,0.3454409732700157,3.600970815703848e-05,0.3454409732700157,-1.6962533580018576e-05
0.3462350904499467,-2.63523e-05,0.3462350904499467,2.889449247039169e-05,0.3462350904499467,3.115348262519359e-05,0.3462350904499467,-1.8018467550831424e-05
0.3470292076298778,-2.566158144121582e-05,0.3470292076298778,2.066404716101125e-05,0.3470292076298778,1.928434061943514e-05,0.3470292076298778,-1.8828957502038702e-05
0.3478233248098089,-2.122793267334813e-05,0.3478233248098089,-1.8089071558073105e-05,0.3478233248098089,5.419317538659402e-06,0.3478233248098089,-1.6596966025928936e-05
0.34861744198974,-1.9479937269459684e-05,0.34861744198974,-3.94446e-05,0.34861744198974,-2.498955018794796e-06,0.34861744198974,-1.4049662090608268e-05
0.349411559169671,-1.4958239642380995e-05,0.349411559169671,-4.197268189993951e-05,0.349411559169671,-9.46899799919244e-06,0.349411559169671,-1.6123552429142807e-05
0.3502056763496021,-1.5767657532918653e-05,0.3502056763496021,-5.375677920373279e-05,0.3502056763496021,-1.541265698683254e-05,0.3502056763496021,-1.5393356440746422e-05
0.3509997935295332,-1.5946146215465865e-05,0.3509997935295332,-5.455153419757763e-05,0.3509997935295332,-1.0240882338840704e-05,0.3509997935295332,-1.1246792430931732e-05
0.3517939107094642,-1.2648878493185796e-05,0.3517939107094642,-5.8067487481067975e-05,0.3517939107094642,-2.7080437486573374e-07,0.3517939107094642,-1.1028600447567849e-05
0.3525880278893953,-1.2597753988775432e-05,0.3525880278893953,-6.955757643015536e-05,0.3525880278893953,1.0095462880089033e-05,0.3525880278893953,-1.2546968682344365e-05
0.3533821450693264,-1.4579913974587244e-05,0.3533821450693264,-6.079584976081522e-05,0.3533821450693264,1.858531630507356e-05,0.3533821450693264,-1.4032664519059566e-05
0.3541762622492574,-1.805718744271016e-05,0.3541762622492574,-1.6690562343561624e-05,0.3541762622492574,2.6091968606775385e-05,0.3541762622492574,-9.4920396177364e-06
0.3549703794291886,-1.6381781500750545e-05,0.3549703794291886,3.038719976987108e-05,0.3549703794291886,2.5129158214821814e-05,0.3549703794291886,-8.934563428142545e-06
0.3557644966091196,-1.5254119413574748e-05,0.3557644966091196,5.218170853547452e-05,0.3557644966091196,2.704203809411793e-05,0.3557644966091196,-1.0159920146606311e-05
0.3565586137890507,-1.6439317406027317e-05,0.3565586137890507,4.484241285722161e-05,0.3565586137890507,3.1960344612734506e-05,0.3565586137890507,-8.32346479831472e-06
0.3573527309689818,-1.7051316715213744e-05,0.3573527309689818,2.857399850021129e-05,0.3573527309689818,2.195183066033426e-05,0.3573527309689818,-8.875935072820615e-06
0.3581468481489128,-1.900532675600057e-05,0.3581468481489128,7.771347665227049e-06,0.3581468481489128,5.2865919510724514e-06,0.3581468481489128,-8.56031e-06
0.3589409653288439,-2.1730463111911155e-05,0.3589409653288439,-6.11193535639705e-06,0.3589409653288439,-2.863173613863325e-06,0.3589409653288439,-9.606343875553755e-06
0.3597350825087749,-2.530395254026115e-05,0.3597350825087749,-1.4599279517009075e-05,0.3597350825087749,-2.123480678787332e-06,0.3597350825087749,-9.212739845583932e-06
0.360529199688706,-2.7310296922254044e-05,0.360529199688706,-2.1968727894049868e-05,0.360529199688706,-3.0902979640580413e-06,0.360529199688706,-8.945139558466053e-06
0.3613233168686371,-2.0189660437344657e-05,0.3613233168686371,-2.915180311388588e-05,0.3613233168686371,-3.4263380000799382e-06,0.3613233168686371,-1.243089982490226e-05
0.3621174340485681,-3.995835106099424e-06,0.3621174340485681,-3.381616075204817e-05,0.3621174340485681,-4.976390355175273e-06,0.3621174340485681,-1.251928860868115e-05
0.3629115512284993,1.18782393741288e-05,0.3629115512284993,-3.804311159464643e-05,0.3629115512284993,-3.801257322979775e-06,0.3629115512284993,-1.2450486338510113e-05
0.3637056684084303,2.4357360414990212e-05,0.3637056684084303,-4.376769223891984e-05,0.3637056684084303,-2.9424755660749237e-06,0.3637056684084303,-1.3398468452859938e-05
0.3644997855883614,2.1654607923585613e-05,0.3644997855883614,-4.179560944596433e-05,0.3644997855883614,-4.195380479002506e-06,0.3644997855883614,-1.3595491081600507e-05
0.3652939027682925,6.197155775391032e-06,0.3652939027682925,-3.7192810182638594e-05,0.3652939027682925,-7.828711523087011e-06,0.3652939027682925,-1.5648773931069584e-05
0.3660880199482235,-8.177315566126986e-06,0.3660880199482235,-3.70947e-05,0.3660880199482235,-7.268345753581886e-06,0.3660880199482235,-1.6548127420845734e-05
0.3668821371281546,-1.966242161523413e-05,0.3668821371281546,-3.541703372795917e-05,0.3668821371281546,-4.336513595190906e-06,0.3668821371281546,-1.4220046495243324e-05
0.3676762543080857,-2.5599337979765235e-05,0.3676762543080857,-3.225650060275025e-05,0.3676762543080857,-3.405614055591548e-06,0.3676762543080857,-1.3416973419899384e-05
0.3684703714880167,-2.7872582636324512e-05,0.3684703714880167,-3.132843031924704e-05,0.3684703714880167,-7.80775843997881e-06,0.3684703714880167,-1.6852378454271587e-05
0.3692644886679478,-2.0234728851532265e-05,0.3692644886679478,-3.125008580608731e-05,0.3692644886679478,-1.09102e-05,0.3692644886679478,-1.9766774681369868e-05
0.3700586058478789,2.970577652845554e-06,0.3700586058478789,-2.6671177247443183e-05,0.3700586058478789,-1.09102e-05,0.3700586058478789,-1.7111014483734276e-05
0.3708527230278099,2.919085081047941e-05,0.3708527230278099,-2.157594834684236e-05,0.3708527230278099,-9.133204750813716e-06,0.3708527230278099,-1.3063089501627428e-05
0.371646840207741,5.002351561063189e-05,0.371646840207741,-1.6054585948239167e-05,0.371646840207741,-5.264167046221065e-06,0.371646840207741,-1.2825264119306068e-05
0.3724409573876721,5.8209631600454464e-05,0.3724409573876721,-1.0001673727852836e-05,0.3724409573876721,-1.3938717273969842e-06,0.3724409573876721,-1.35958e-05
0.3732350745676032,4.091468236974993e-05,0.3732350745676032,-5.105465359090815e-06,0.3732350745676032,2.0426092563729984e-06,0.3732350745676032,-1.3082777543586296e-05
0.3740291917475342,1.4487303149339568e-05,0.3740291917475342,-9.271332690679525e-06,0.3740291917475342,5.163536194574079e-06,0.3740291917475342,-1.1087997275435089e-05
0.3748233089274653,-2.637224898678301e-06,0.3748233089274653,-1.7006885909947682e-05,0.3748233089274653,6.1214786686155565e-06,0.3748233089274653,-1.1285620941800385e-05
0.3756174261073964,-1.1888922842685263e-05,0.3756174261073964,-2.518523292250992e-05,0.3756174261073964,5.1142764854949125e-06,0.3756174261073964,-1.2253e-05
0.3764115432873274,-1.57285224219856e-05,0.3764115432873274,-3.0203399680158844e-05,0.3764115432873274,5.28228406616214e-06,0.3764115432873274,-1.07127193945036e-05
0.3772056604672585,-1.6597204755508373e-05,0.3772056604672585,-3.423100466061402e-05,0.3772056604672585,1.2543829894903747e-06,0.3772056604672585,-1.1304840162225254e-05
0.3779997776471896,-1.8462679214258866e-05,0.3779997776471896,-3.172465057939802e-05,0.3779997776471896,-2.1810789248293896e-06,0.3779997776471896,-1.4266238920535022e-05
0.3787938948271206,-2.2203480770392485e-05,0.3787938948271206,-3.211894616721864e-05,0.3787938948271206,-3.02129e-06,0.3787938948271206,-1.5728324197829775e-05
0.3795880120070517,-2.4457906617055745e-05,0.3795880120070517,-3.581293474254415e-05,0.3795880120070517,-2.786048605006849e-07,0.3795880120070517,-1.4327103308527874e-05
0.3803821291869828,-1.9997177753632053e-05,0.3803821291869828,-3.150766920055529e-05,0.3803821291869828,4.016841123183974e-06,0.3803821291869828,-1.46029e-05
0.3811762463669139,-1.66578599117515e-05,0.3811762463669139,-2.603598607118467e-05,0.3811762463669139,4.651159161489324e-06,0.3811762463669139,-1.4326814580744662e-05
0.3819703635468449,-1.4662734144823432e-05,0.3819703635468449,-2.540206096610168e-05,0.3819703635468449,1.807832337546361e-06,0.3819703635468449,-1.4840211060436843e-05
0.382764480726776,-1.39315e-05,0.382764480726776,-3.816822223350967e-05,0.382764480726776,-1.0849436848598672e-06,0.382764480726776,-1.3438063176057024e-05
0.3835585979067071,-1.4879252369558576e-05,0.3835585979067071,-5.755128282339187e-05,0.3835585979067071,-9.211325395936105e-06,0.3835585979067071,-1.3714146587760455e-05
0.3843527150866381,-1.3280209325261756e-05,0.3843527150866381,-6.175658792673545e-05,0.3843527150866381,-1.2253e-05,0.3843527150866381,-1.42672e-05
0.3851468322665692,-1.2489552653278687e-05,0.3851468322665692,-3.672168090408465e-05,0.3851468322665692,-8.582941996872826e-06,0.3851468322665692,-1.4148923673360656e-05
0.3859409494465003,-1.3162821191503629e-05,0.3859409494465003,6.299729872593178e-06,0.3859409494465003,2.765710532746276e-06,0.3859409494465003,-1.308499814470653e-05
0.3867350666264313,-1.1196879943330045e-05,0.3867350666264313,4.145598689183337e-05,0.3867350666264313,1.917864870238491e-05,0.3867350666264313,-7.930265714367823e-06
0.3875291838063624,-1.0594405992292423e-05,0.3875291838063624,5.464972580425488e-05,0.3875291838063624,2.360837999275991e-05,0.3875291838063624,-8.322794323461359e-06
0.3883233009862935,-1.2510185002118788e-05,0.3883233009862935,4.11971723495268e-05,0.3883233009862935,5.83265086737729e-06,0.3883233009862935,-1.3161554000847514e-05
0.3891174181662246,-1.9126140686495957e-05,0.3891174181662246,1.4053890469300062e-05,0.3891174181662246,-2.2564907595856095e-05,0.3891174181662246,-1.2489427375463403e-05
0.3899115353461556,-2.3528474872482695e-05,0.3899115353461556,9.271119757118644e-06,0.3899115353461556,-3.151618289632123e-05,0.3899115353461556,-1.02388e-05
0.3907056525260867,-2.197862461742082e-05,0.3907056525260867,2.5997385018626112e-06,0.3907056525260867,-2.6492097544330137e-05,0.3907056525260867,-1.2410571537713129e-05
0.3914997697060178,-1.8968078329333043e-05,0.3914997697060178,-5.7038163594802246e-06,0.3914997697060178,-1.3264413416170794e-05,0.3914997697060178,-1.4937936397512186e-05
0.3922938868859488,-1.4150981401037991e-05,0.3922938868859488,-3.804740563259956e-05,0.3922938868859488,-4.828890467012665e-06,0.3922938868859488,-1.561e-05
0.3930880040658799,-1.0556441044002443e-05,0.3930880040658799,-5.8662805695748266e-05,0.3930880040658799,-3.983220556198951e-06,0.3930880040658799,-1.5963763063611876e-05
0.393882121245811,-7.5372638977551346e-06,0.393882121245811,-4.626199040257586e-05,0.393882121245811,7.003414617231924e-06,0.393882121245811,-1.881071180887094e-05
0.394676238425742,-3.2111600327352684e-06,0.394676238425742,-2.2914883655893305e-05,0.394676238425742,1.188748096927487e-05,0.394676238425742,-1.56916421101905e-05
0.3954703556056732,-7.024042432982863e-07,0.3954703556056732,-8.023170730317383e-06,0.3954703556056732,6.0757238445694e-06,0.3954703556056732,-1.3773271194902323e-05
0.3962644727856042,5.440431683196532e-07,0.3962644727856042,-1.140091741044996e-05,0.3962644727856042,1.7690667415088017e-07,0.3962644727856042,-1.62814e-05
0.3970585899655353,-9.09249313252843e-06,0.3970585899655353,-3.368367705509468e-05,0.3970585899655353,9.428183721991535e-06,0.3970585899655353,-1.5017753105976814e-05
0.3978527071454664,-2.2952931978808377e-05,0.3978527071454664,-4.111575587718767e-05,0.3978527071454664,3.1777428659760497e-05,0.3978527071454664,-8.759427872286225e-06
0.3986468243253974,-3.703016484064105e-05,0.3986468243253974,-2.9053136916789017e-07,0.3986468243253974,5.0736429498010274e-05,0.3986468243253974,-4.631088812748716e-06
0.3994409415053285,-4.460680499067683e-05,0.3994409415053285,5.8362169076147845e-05,0.3994409415053285,4.972010510541901e-05,0.3994409415053285,-3.879980028685546e-06
0.4002350586852595,-2.036198920036637e-05,0.4002350586852595,7.830501311077348e-05,0.4002350586852595,3.443520639646159e-05,0.4002350586852595,-4.452729786784613e-06
0.4010291758651906,1.992843064948249e-05,0.4010291758651906,5.674298819219397e-05,0.4010291758651906,2.044916906944961e-05,0.4010291758651906,-6.3483938494281126e-06
0.4018232930451217,5.59744763000795e-05,0.4018232930451217,1.4119944292864498e-05,0.4018232930451217,1.4800037763993905e-05,0.4018232930451217,-8.461741118003048e-06
0.4026174102250527,6.819636911322723e-05,0.4026174102250527,-2.1366729429553436e-05,0.4026174102250527,1.0662861051472724e-05,0.4026174102250527,-9.271120295590924e-06
0.4034115274049838,5.107557270017773e-05,0.4034115274049838,-4.369159352867565e-05,0.4034115274049838,4.986132951522476e-06,0.4034115274049838,-6.565874302654964e-06
0.4042056445849149,3.0719348466017504e-05,0.4042056445849149,-5.616796632550226e-05,0.4042056445849149,-2.69441995575354e-06,0.4042056445849149,-8.342402719044728e-06
0.404999761764846,1.3264905346202748e-05,0.404999761764846,-5.388114095455133e-05,0.404999761764846,-6.210076762446188e-06,0.404999761764846,-1.2251970272001534e-05
0.4057938789447771,9.666399606511344e-06,0.4057938789447771,-4.8873340663310384e-05,0.4057938789447771,-5.03548e-06,0.4057938789447771,-1.2351992555351242e-05
0.4065879961247081,8.48234936087406e-06,0.4065879961247081,-4.56287846030196e-05,0.4065879961247081,-7.019706879708646e-06,0.4065879961247081,-1.199526063912594e-05
0.4073821133046392,4.508086845333323e-06,0.4073821133046392,-4.305796090385764e-05,0.4073821133046392,-6.971537370462927e-06,0.4073821133046392,-1.4345332629537072e-05
0.4081762304845703,-1.152885998402808e-06,0.4081762304845703,-5.0898421780893184e-05,0.4081762304845703,-6.792380966749744e-06,0.4081762304845703,-1.3834304088667348e-05
0.4089703476645013,-3.0693620845255347e-06,0.4089703476645013,-5.839859847732366e-05,0.4089703476645013,-7.375754525808779e-06,0.4089703476645013,-1.260793094838244e-05
0.4097644648444324,-8.341785007430721e-06,0.4097644648444324,-5.877750908245153e-05,0.4097644648444324,-4.651333555186097e-06,0.4097644648444324,-1.4859743029450728e-05
0.4105585820243635,-1.4701071885905291e-05,0.4105585820243635,-5.5263622323880135e-05,0.4105585820243635,-1.5898160380315689e-06,0.4105585820243635,-1.302337004753946e-05
0.4113526992042945,-1.892671255331207e-05,0.4113526992042945,-5.413658242219329e-05,0.4113526992042945,-4.29358050164657e-06,0.4113526992042945,-1.2707314574447988e-05
0.4121468163842256,-2.0626405418164215e-05,0.4121468163842256,-5.208291633662468e-05,0.4121468163842256,-6.527025418164217e-06,0.4121468163842256,-1.318002430305964e-05
0.4129409335641567,-1.869935213876933e-05,0.4129409335641567,-4.8784878480866026e-05,0.4129409335641567,-6.268752887015573e-06,0.4129409335641567,-1.4919155704328144e-05
0.4137350507440878,-2.1986361358755465e-05,0.4137350507440878,-4.8665675923643176e-05,0.4137350507440878,-5.93505731020626e-06,0.4137350507440878,-1.408991186785294e-05
0.4145291679240188,-2.31531855624316e-05,0.4145291679240188,-5.09570463503155e-05,0.4145291679240188,-5.005586687294798e-06,0.4145291679240188,-1.663623263993372e-05
0.4153232851039499,-2.269893236379944e-05,0.4153232851039499,-4.667644226510056e-05,0.4153232851039499,-6.091867648195487e-06,0.4153232851039499,-1.9184145882420725e-05
0.416117402283881,-2.161318397139539e-05,0.416117402283881,-3.776943835475816e-05,0.416117402283881,-5.835305145539822e-06,0.416117402283881,-1.833501602860461e-05
0.416911519463812,-2.2600373187089443e-05,0.416911519463812,-3.0301300786084265e-05,0.416911519463812,-6.44738829677236e-06,0.416911519463812,-1.7900673187089445e-05
0.4177056366437431,-1.981658579242416e-05,0.4177056366437431,-2.3789875930654397e-05,0.4177056366437431,-3.6441473647859295e-06,0.4177056366437431,-1.5412714316969664e-05
0.4184997538236742,-1.7960254684088242e-05,0.4184997538236742,-1.6955029247583525e-05,0.4184997538236742,-1.51064e-06,0.4184997538236742,-1.4267554684088245e-05
0.4192938710036052,-1.7051798288364973e-05,0.4192938710036052,-8.874957177504034e-06,0.4192938710036052,-1.9453382883649715e-06,0.4192938710036052,-1.2076591441824858e-05
0.4200879881835363,-1.4782713119830492e-05,0.4200879881835363,-2.3372152713359217e-06,0.4200879881835363,-7.703058373798174e-07,0.4200879881835363,-1.1443718853305082e-05
0.4208821053634674,-1.4423442327019553e-05,0.4208821053634674,-8.419885329725135e-06,0.4208821053634674,2.459698144429153e-07,0.4208821053634674,-1.09102e-05
0.4216762225433985,-1.561e-05,0.4216762225433985,-1.4533815539758336e-05,0.4216762225433985,8.39246e-07,0.4216762225433985,-1.2014473028488184e-05
0.4224703397233295,-1.5067960986079612e-05,0.4224703397233295,-1.429819649319082e-05,0.4224703397233295,1.3716220886841962e-06,0.4224703397233295,-1.4818798767400484e-05
0.4232644569032606,-1.0121692199339295e-05,0.4232644569032606,-1.3970655609501412e-05,0.4232644569032606,2.51774e-06,0.4232644569032606,-1.69528e-05
0.4240585740831917,-7.55322e-06,0.4240585740831917,-1.5411903537413296e-05,0.4240585740831917,1.570039227564862e-06,0.4240585740831917,-1.5373298712608102e-05
0.4248526912631227,-6.191438157518076e-06,0.4248526912631227,-1.7304661736789777e-05,0.4248526912631227,-1.648251089887248e-06,0.4248526912631227,-1.2608860922385072e-05
0.4256468084430538,-1.5907471802185768e-06,0.4256468084430538,-2.5522038750454828e-05,0.4256468084430538,2.2488137942570794e-06,0.4256468084430538,-1.1383236510392957e-05
0.4264409256229849,5.13267223424499e-07,0.4264409256229849,-2.89688753057902e-05,0.4264409256229849,1.379816812387525e-06,0.4264409256229849,-1.422832287468374e-05
0.4272350428029159,-4.827952058485162e-07,0.4272350428029159,-2.1529127627924867e-05,0.4272350428029159,-1.082719493571686e-05,0.4272350428029159,-1.2569846618550254e-05
0.428029159982847,-1.5995500791397623e-06,0.428029159982847,-1.1305230022477608e-05,0.428029159982847,-1.6419339525161427e-05,0.428029159982847,-1.256875968344095e-05
0.4288232771627781,2.2712016151815198e-07,0.4288232771627781,-1.6224053236776955e-05,0.4288232771627781,-1.3832372604978368e-05,0.4288232771627781,-1.3181115835139638e-05
0.4296173943427092,-6.815596581157675e-07,0.4296173943427092,-3.069080914176616e-05,0.4296173943427092,-5.498374662947803e-06,0.4296173943427092,-1.35958e-05
0.4304115115226402,-3.643264811797972e-06,0.4304115115226402,-3.958309418401405e-05,0.4304115115226402,4.3342510111283446e-06,0.4304115115226402,-1.4454731266886569e-05
0.4312056287025713,-5.499238387252893e-06,0.4312056287025713,-2.443361413070518e-05,0.4312056287025713,9.18239144574924e-06,0.4312056287025713,-1.50960855425076e-05
0.4319997458825024,-7.049212343111887e-06,0.4319997458825024,-1.5182009307451644e-06,0.4319997458825024,6.547492965211175e-06,0.4319997458825024,-1.863001856071328e-05
0.4327938630624334,-8.1256059786213e-06,0.4327938630624334,1.1285648593903e-05,0.4327938630624334,3.7336591684013975e-06,0.4327938630624334,-2.01117919572426e-05
0.4335879802423645,-8.362485413681253e-06,0.4335879802423645,-2.0791049056484246e-07,0.4335879802423645,-1.2708486130582393e-06,0.4335879802423645,-2.023187375895624e-05
0.4343820974222956,-1.02388e-05,0.4343820974222956,-2.7944982740170303e-05,0.4343820974222956,-4.984793382838054e-06,0.4343820974222956,-1.7272706361329562e-05
0.4351762146022266,-9.410620614256552e-06,0.4351762146022266,-4.979213114187017e-05,0.4351762146022266,-7.531086994976215e-06,0.4351762146022266,-1.21183371723017e-05
0.4359703317821577,-1.0967824196614078e-05,0.4359703317821577,-4.297258204834902e-05,0.4359703317821577,-1.2329832262152102e-05,0.4359703317821577,-7.514799155013694e-06
0.4367644489620888,-1.1800247057419445e-05,0.4367644489620888,-1.5318847853172583e-05,0.4367644489620888,-1.5767691058254146e-05,0.4367644489620888,-7.118354238691045e-06
0.4375585661420199,-5.756889050937519e-06,0.4375585661420199,1.1645141351810534e-05,0.4375585661420199,-1.5333716426605927e-05,0.4375585661420199,-7.573024885559868e-06
0.438352683321951,-1.8866962428522744e-06,0.438352683321951,2.778990226686964e-05,0.438352683321951,-8.956540830586411e-06,0.438352683321951,-5.53903e-06
0.439146800501882,3.423693597954486e-06,0.439146800501882,3.344107057390054e-05,0.439146800501882,-1.3962794652531218e-06,0.439146800501882,-7.286176789169021e-06
0.4399409176818131,4.850868697253072e-06,0.4399409176818131,2.7419125611977965e-05,0.4399409176818131,8.900381045527745e-06,0.4399409176818131,-7.21752e-06
0.4407350348617442,-2.055103008845005e-07,0.4407350348617442,1.3404424128732027e-05,0.4407350348617442,1.9051687243724342e-05,0.4407350348617442,-8.75640810767503e-06
0.4415291520416752,-3.622854144232375e-06,0.4415291520416752,1.3970899310871428e-05,0.4415291520416752,2.706186357312236e-05,0.4415291520416752,-1.1068074121009413e-05
0.4423232692216063,-7.178146321403376e-06,0.4423232692216063,7.286420707051557e-06,0.4423232692216063,3.436972808683732e-05,0.4423232692216063,-1.0673139295964087e-05
0.4431173864015373,-9.152855010735863e-06,0.4431173864015373,-2.404627542945736e-05,0.4431173864015373,3.367799246242448e-05,0.4431173864015373,-8.53045623121224e-06
0.4439115035814684,-9.172506119144244e-06,0.4439115035814684,-5.488779425219463e-05,0.4439115035814684,2.7458284476576973e-05,0.4439115035814684,-7.158316119144243e-06
0.4447056207613995,-8.323241375487792e-06,0.4447056207613995,-4.72921459882821e-05,0.4447056207613995,2.254197837690657e-05,0.4447056207613995,-7.236536690333651e-06
0.4454997379413306,-8.89582121653363e-06,0.4454997379413306,-1.7970663491800644e-05,0.4454997379413306,1.9806671986783807e-05,0.4454997379413306,-1.2251112170959883e-05
0.4462938551212617,-1.031614442299797e-05,0.4462938551212617,2.3503846282894592e-06,0.4462938551212617,1.8790648771961885e-05,0.4462938551212617,-1.6358741473645742e-05
0.4470879723011927,-1.0565546332987188e-05,0.4470879723011927,-7.502193504598705e-06,0.4470879723011927,1.2750633512657043e-05,0.4470879723011927,-1.8415521277329836e-05
0.4478820894811238,-1.02388e-05,0.4478820894811238,-2.166960422196092e-05,0.4478820894811238,9.629758516337275e-06,0.4478820894811238,-1.3677674931698458e-05
0.4486762066610549,-9.68669459191923e-06,0.4486762066610549,-3.235604906121617e-05,0.4486762066610549,3.964497842539916e-06,0.4486762066610549,-1.1059299077344938e-05
0.4494703238409859,-9.56741e-06,0.4494703238409859,-5.2649483337658136e-05,0.4494703238409859,-5.2274403834002e-07,0.4494703238409859,-1.193649662411582e-05
0.450264441020917,-9.56741e-06,0.450264441020917,-6.954951414573646e-05,0.450264441020917,-1.2830369809360594e-06,0.450264441020917,-1.5411638850495693e-05
0.4510585582008481,-1.0515066964499226e-05,0.4510585582008481,-6.262428417962196e-05,0.4510585582008481,-4.077363338852234e-06,0.4510585582008481,-1.7584577582902004e-05
0.4518526753807791,-1.2015736453021785e-05,0.4518526753807791,-5.1439856228099096e-05,0.4518526753807791,-5.1831346795326775e-06,0.4518526753807791,-1.3893649508380184e-05
0.4526467925607102,-1.1898257015287654e-05,0.4526467925607102,-3.500342838766064e-05,0.4526467925607102,-6.919902447004033e-06,0.4526467925607102,-1.0139595323141563e-05
0.4534409097406413,-1.0949054193261505e-05,0.4534409097406413,-2.2926697206002767e-05,0.4534409097406413,-9.725546451684623e-06,0.4534409097406413,-1.3002108386523008e-05
0.4542350269205724,-1.3120461423641429e-05,0.4542350269205724,-9.801087061381763e-06,0.4542350269205724,-8.54150238423905e-06,0.4542350269205724,-1.4523676903940238e-05
0.4550291441005034,-1.29244e-05,0.4550291441005034,-8.777195587171676e-06,0.4550291441005034,-8.540346800596578e-06,0.4550291441005034,-1.3951463199403422e-05
0.4558232612804345,-1.3319359896656346e-05,0.4558232612804345,-1.8317735537873343e-05,0.4558232612804345,-7.1582601033436535e-06,0.4558232612804345,-1.5234899483281732e-05
0.4566173784603656,-1.2706999682937255e-05,0.4566173784603656,-3.086950545342745e-05,0.4566173784603656,-6.88182e-06,0.4566173784603656,-1.632083322764575e-05
0.4574114956402966,-9.913060954957874e-06,0.4574114956402966,-4.0787675471308025e-05,0.4574114956402966,-3.6632969111920254e-06,0.4574114956402966,-1.266776137775748e-05
0.4582056128202277,-1.1304702569896251e-05,0.4582056128202277,-4.672713841523005e-05,0.4582056128202277,-1.67849e-07,0.4582056128202277,-1.29244e-05
0.4589997300001588,-1.124648351253236e-05,0.4589997300001588,-4.716629856606314e-05,0.4589997300001588,-1.5098619885047765e-06,0.4589997300001588,-1.191788351253236e-05
0.4597938471800898,-9.094040974812154e-06,0.4597938471800898,-4.305783795350421e-05,0.4597938471800898,-2.4573780503756923e-06,0.4597938471800898,-1.2054969025187843e-05
0.4605879643600209,-4.744937024886761e-06,0.4605879643600209,-4.04517e-05,0.4605879643600209,-3.3269998408933825e-06,0.4605879643600209,-1.3200127895307625e-05
0.461382081539952,5.765624313284475e-06,0.461382081539952,-4.242503088558559e-05,0.461382081539952,-4.001014249475156e-06,0.461382081539952,-1.3673886765427484e-05
0.4621761987198831,1.7005517519819957e-05,0.4621761987198831,-4.568452620001802e-05,0.4621761987198831,-1.6895867150337582e-06,0.4621761987198831,-1.3715097810022504e-05
0.4629703158998141,1.752827408653214e-05,0.4629703158998141,-4.540698025181428e-05,0.4629703158998141,-2.18204e-06,0.4629703158998141,-1.0950934767684077e-05
0.4637644330797452,1.108823182459021e-05,0.4637644330797452,-5.294907964718972e-05,0.4637644330797452,1.5487490319851004e-06,0.4637644330797452,-9.004076958617783e-06
0.4645585502596763,1.1206266116874548e-05,0.4645585502596763,-6.739543033979597e-05,0.4645585502596763,3.86053e-06,0.4645585502596763,-1.1166632233749096e-05
0.4653526674396073,1.543072493497164e-05,0.4653526674396073,-8.562459344622203e-05,0.4653526674396073,-5.211219770274087e-07,0.4653526674396073,-1.1305201083083636e-05
0.4661467846195384,1.8286054718413717e-05,0.4661467846195384,-8.922759676985562e-05,0.4661467846195384,-9.702612973464878e-06,0.4661467846195384,-1.2054567714228536e-05
0.4669409017994695,1.5712643636595713e-05,0.4669409017994695,-5.380351372869829e-05,0.4669409017994695,-1.3892657272765952e-05,0.4669409017994695,-1.4067449545319169e-05
0.4677350189794005,8.839653441142895e-06,0.4677350189794005,8.88275448212782e-06,0.4677350189794005,-1.0951859350937972e-05,0.4677350189794005,-1.576845763354177e-05
0.4685291361593316,2.953307906620643e-06,0.4685291361593316,6.0631572604200433e-05,0.4685291361593316,-3.013236061340836e-06,0.4685291361593316,-1.3714657108981336e-05
0.4693232533392627,-2.6856987304416127e-06,0.4693232533392627,7.242272443849807e-05,0.4693232533392627,4.235769615808418e-06,0.4693232533392627,-1.4622725055671574e-05
0.4701173705191938,-6.961167930541152e-06,0.4701173705191938,5.773635022694802e-05,0.4701173705191938,2.8332505104480155e-06,0.4701173705191938,-1.6577661039340556e-05
0.4709114876991248,-1.061378743934722e-05,0.4709114876991248,4.714567585830605e-05,0.4709114876991248,-1.023778848524744e-05,0.4709114876991248,-1.815734047440045e-05
0.4717056048790559,-1.3645095266033517e-05,0.4717056048790559,3.1127651799685326e-05,0.4717056048790559,-2.138702554882311e-05,0.4717056048790559,-1.6804855447112768e-05
0.472499722058987,-1.4937899183068122e-05,0.472499722058987,1.1252731511622572e-05,0.472499722058987,-8.23111727309106e-06,0.472499722058987,-1.628150008262227e-05
0.473293839238918,-1.541195755916039e-05,0.473293839238918,2.3197145342992466e-06,0.473293839238918,8.770381288280011e-06,0.473293839238918,-1.513664244083961e-05
0.4740879564188491,-1.6892816429280247e-05,0.4740879564188491,-7.049906157747534e-06,0.4740879564188491,1.963204858298559e-05,0.4740879564188491,-1.2175125356079628e-05
0.4748820735987802,-1.92793011976004e-05,0.4748820735987802,-1.951682157841232e-05,0.4748820735987802,2.579801294910015e-05,0.4748820735987802,-1.25887e-05
0.4756761907787112,-2.2756699267329652e-05,0.4756761907787112,-2.421958993607672e-05,0.4756761907787112,2.475568238005664e-05,0.4756761907787112,-1.2312654625722377e-05
0.4764703079586423,-2.196907911451368e-05,0.4764703079586423,-2.539143187225863e-05,0.4764703079586423,1.752833129364279e-05,0.4764703079586423,-1.241126312936428e-05
0.4772644251385734,-1.8968347139658245e-05,0.4772644251385734,-2.8564814543058284e-05,0.4772644251385734,1.440718796306851e-05,0.4772644251385734,-1.3753456733987543e-05
0.4780585423185045,-1.567937640857872e-05,0.4780585423185045,-2.8245350097260703e-05,0.4780585423185045,6.211704286824177e-06,0.4780585423185045,-1.3635445349152908e-05
0.4788526594984356,-1.517588647903302e-05,0.4788526594984356,-2.8969307108056125e-05,0.4788526594984356,7.610620167986503e-07,0.4788526594984356,-1.29244e-05
0.4796467766783666,-1.2687927608913188e-05,0.4796467766783666,-6.115386321719569e-06,0.4796467766783666,6.423698562457174e-06,0.4796467766783666,-1.1997519022282972e-05
0.4804408938582977,-1.1523353108190114e-05,0.4804408938582977,-5.852583190316187e-06,0.4804408938582977,1.2627531261206593e-05,0.4804408938582977,-7.63369966228517e-06
0.4812350110382288,-9.80511125216776e-06,0.4812350110382288,-6.314402394178763e-05,0.4812350110382288,1.300363453748197e-05,0.4812350110382288,-6.21042e-06
0.4820291282181598,-7.41534382569398e-06,0.4820291282181598,-0.0001072556759275,0.4820291282181598,9.78521990794178e-06,0.4820291282181598,-7.55322e-06
0.4828232453980909,-6.427683194099408e-06,0.4828232453980909,-7.759595452306534e-05,0.4828232453980909,5.953638977503698e-06,0.4828232453980909,-6.328916910468343e-06
0.483617362578022,-1.0002133012959522e-05,0.483617362578022,1.886198598825156e-05,0.483617362578022,-3.659113209200512e-07,0.483617362578022,-9.251853625613256e-06
0.484411479757953,-7.849672691577823e-06,0.484411479757953,0.000106979860254,0.484411479757953,-2.0241531465331087e-06,0.484411479757953,-1.12459e-05
0.4852055969378841,-4.325254967111846e-06,0.4852055969378841,0.0001232054491755,0.4852055969378841,-9.5779173674924e-07,0.4852055969378841,-1.0041574584675206e-05
0.4859997141178152,-1.511566755198475e-06,0.4859997141178152,9.48471894398406e-05,0.4859997141178152,-2.85220433008292e-06,0.4859997141178152,-1.0909376223736166e-05
0.4867938312977463,2.064683196453444e-07,0.4867938312977463,6.181515700185736e-05,0.4867938312977463,-6.249042089564083e-06,0.4867938312977463,-1.582488437253205e-05
0.4875879484776773,2.278442686728704e-07,0.4875879484776773,2.947664323917213e-05,0.4875879484776773,-7.22645120406599e-06,0.4875879484776773,-1.6401390073494417e-05
0.4883820656576084,8.97855154380424e-08,0.4883820656576084,-3.4955293102556443e-06,0.4883820656576084,-1.1066327666745305e-05,0.4883820656576084,-1.3755850561399964e-05
0.4891761828375395,-2.435818996719688e-06,0.4891761828375395,-3.51399801423047e-05,0.4891761828375395,-1.2805079307133093e-05,0.4891761828375395,-1.1730741980121996e-05
0.4899703000174705,-6.21042e-06,0.4899703000174705,-7.034157865765506e-05,0.4899703000174705,-1.2905237700150806e-05,0.4899703000174705,-1.0377906550226208e-05
0.4907644171974016,-5.104095590839444e-06,0.4907644171974016,-0.0001126000233709,0.4907644171974016,-1.248946793884797e-05,0.4907644171974016,-9.8826982371221e-06
0.4915585343773327,-8.085811737527569e-06,0.4915585343773327,-0.0001392120454208,0.4915585343773327,-1.4839457962049298e-05,0.4915585343773327,-1.2805429554459157e-05
0.4923526515572637,-8.777361027469787e-06,0.4923526515572637,-0.0001524124185787,0.4923526515572637,-1.0655494135987443e-05,0.4923526515572637,-1.2707348972530212e-05
0.4931467687371948,-9.449179537470323e-06,0.4931467687371948,-0.0001554981616216,0.4931467687371948,-3.30950505293575e-06,0.4931467687371948,-1.2253e-05
0.4939408859171259,-8.482670987833339e-06,0.4939408859171259,-0.0001314493890981,0.4939408859171259,1.4078581928835164e-06,0.4939408859171259,-1.3605502057835971e-05
0.494735003097057,-6.191681032772254e-06,0.494735003097057,-7.413382350925635e-05,0.494735003097057,9.050203208449731e-06,0.494735003097057,-1.41483278104676e-05
0.495529120276988,-6.979673965003111e-06,0.495529120276988,-1.0025288702417592e-05,0.495529120276988,1.5056456190824983e-05,0.495529120276988,-1.5422102476329992e-05
0.4963232374569191,-1.1364385469046177e-05,0.4963232374569191,2.789189836114e-05,0.4963232374569191,1.3911743592861474e-05,0.4963232374569191,-1.7485984610707788e-05
0.4971173546368502,-1.2806048719939416e-05,0.4971173546368502,3.0996266717034464e-05,0.4971173546368502,1.047550256012117e-05,0.4971173546368502,-2.1010929382441483e-05
0.4979114718167812,-1.8788819092103307e-05,0.4979114718167812,2.487126264174439e-05,0.4979114718167812,7.099199847622228e-06,0.4979114718167812,-1.8927796941388803e-05
0.4987055889967123,-2.074410844343296e-05,0.4987055889967123,1.6548980768585356e-05,0.4987055889967123,5.933460836334053e-06,0.4987055889967123,-1.304402400910338e-05
0.4994997061766434,-2.500696006732328e-05,0.4994997061766434,-2.845077787271459e-06,0.4994997061766434,9.90119501581374e-06,0.4994997061766434,-1.1581176667378507e-05
0.5002938233565745,-2.988553656776403e-05,0.5002938233565745,-1.653845319309899e-05,0.5002938233565745,1.2963001940658418e-05,0.5002938233565745,-9.963537795753434e-06
0.5010879405365055,-2.5729619095776557e-05,0.5010879405365055,-1.955445433778429e-05,0.5010879405365055,8.368964340941348e-06,0.5010879405365055,-9.447392888202638e-06
0.5018820577164366,-6.979756536450456e-06,0.5018820577164366,-2.8796959654338244e-05,0.5018820577164366,1.7182683382106622e-07,0.5018820577164366,-1.29244e-05
0.5026761748963677,1.6766897478446776e-05,0.5026761748963677,-4.080713791229951e-05,0.5026761748963677,-4.972204139489947e-06,0.5026761748963677,-1.099216247001153e-05
0.5034702920762988,3.2332379721348875e-05,0.5034702920762988,-4.238863053936905e-05,0.5034702920762988,-6.704394570786465e-06,0.5034702920762988,-1.0790227146067672e-05
0.5042644092562298,2.9415932467259625e-05,0.5042644092562298,-3.340593609102842e-05,0.5042644092562298,-8.79676077671472e-06,0.5042644092562298,-1.2845583074428426e-05
0.5050585264361609,1.8386331068836533e-05,0.5050585264361609,-1.6667219210477117e-05,0.5050585264361609,-7.672224252793883e-06,0.5050585264361609,-1.2272834140603868e-05
0.505852643616092,7.457758801697707e-06,0.505852643616092,-5.460348377799505e-06,0.505852643616092,-3.0126194042618804e-06,0.505852643616092,-1.2015690588912064e-05
0.506646760796023,-4.348022943170456e-06,0.506646760796023,-1.1105869266568766e-05,0.506646760796023,6.859940251066051e-08,0.506646760796023,-1.5567672024675588e-05
0.507440877975954,-2.1699148309096226e-05,0.507440877975954,-3.4782306279876705e-05,0.507440877975954,-9.023297751972452e-08,0.507440877975954,-2.03098e-05
0.5082349951558852,-4.135207465397078e-05,0.5082349951558852,-4.864420417047408e-05,0.5082349951558852,2.71366412657499e-06,0.5082349951558852,-1.877107587342501e-05
0.5090291123358163,-5.4508755866532566e-05,0.5090291123358163,-3.042280138912369e-05,0.5090291123358163,2.8334310349078634e-06,0.5090291123358163,-1.399152689527641e-05
0.5098232295157473,-6.766285131767532e-05,0.5098232295157473,1.8318607685447728e-06,0.5098232295157473,4.926867013811971e-06,0.5098232295157473,-1.237147402762394e-05
0.5106173466956784,-7.639145072239531e-05,0.5106173466956784,2.387909762207006e-05,0.5106173466956784,4.610842319401172e-06,0.5106173466956784,-1.3516887680598827e-05
0.5114114638756094,-6.421874968018073e-05,0.5114114638756094,2.360751960965433e-05,0.5114114638756094,5.617752133532677e-06,0.5114114638756094,-1.328008362320342e-05
0.5122055810555405,-3.853346967870686e-05,0.5122055810555405,-2.811261806566384e-06,0.5122055810555405,5.905205319502086e-06,0.5122055810555405,-1.0001702710419218e-05
0.5129996982354716,-6.894102321403898e-06,0.5129996982354716,-2.1311629935436126e-05,0.5129996982354716,1.1770051702317404e-06,0.5129996982354716,-1.2251695677869026e-05
0.5137938154154027,3.2787186461954685e-05,0.5137938154154027,-2.919640127015631e-05,0.5137938154154027,3.068225594518929e-06,0.5137938154154027,-1.26877384194609e-05
0.5145879325953338,7.267675581277096e-05,0.5145879325953338,-4.101316397320522e-05,0.5145879325953338,1.1359339096709716e-05,0.5145879325953338,-1.3122258984400996e-05
0.5153820497752648,9.272707504275194e-05,0.5153820497752648,-5.3935838307459126e-05,0.5153820497752648,1.3798954592093036e-05,0.5153820497752648,-1.105079890906619e-05
0.5161761669551959,7.538624340530889e-05,0.5161761669551959,-5.581482405054133e-05,0.5161761669551959,7.202506111346336e-06,0.5161761669551959,-8.463297151422776e-06
0.5169702841351269,2.9835992519127677e-05,0.5169702841351269,-5.5656137511222e-05,0.5169702841351269,4.690210291497632e-06,0.5169702841351269,-9.111703257444564e-06
0.5177644013150581,-2.4045761484091855e-05,0.5177644013150581,-5.838096218057778e-05,0.5177644013150581,2.865166809533278e-06,0.5177644013150581,-1.2253e-05
0.5185585184949891,-6.738055399847967e-05,0.5185585184949891,-6.46159995138542e-05,0.5185585184949891,-2.6748817875424205e-06,0.5185585184949891,-1.0989559494470088e-05
0.5193526356749202,-5.751342219631287e-05,0.5193526356749202,-6.835128837116825e-05,0.5193526356749202,-3.840252219043822e-06,0.5193526356749202,-1.0533940903370976e-05
0.5201467528548512,-6.790478575932247e-06,0.5201467528548512,-7.54121562717796e-05,0.5201467528548512,-6.702249453949231e-06,0.5201467528548512,-1.5489524865933292e-05
0.5209408700347823,5.189395619897041e-05,0.5209408700347823,-5.51478501962852e-05,0.5209408700347823,-9.664401579960728e-06,0.5209408700347823,-1.7843509410626876e-05
0.5217349872147133,9.357653182866704e-05,0.5217349872147133,-2.5671445588952745e-06,0.5217349872147133,-1.5220810459909596e-05,0.5217349872147133,-1.2611872094999043e-05
0.5225291043946444,9.896422235986697e-05,0.5225291043946444,3.239331491250918e-05,0.5225291043946444,-2.2599591762345927e-05,0.5225291043946444,-6.921860813029089e-06
0.5233232215745756,8.377682379317446e-05,0.5233232215745756,4.569655736450556e-05,0.5233232215745756,-2.019150543108266e-05,0.5233232215745756,-8.579995994194004e-06
0.5241173387545066,6.72967199575169e-05,0.5241173387545066,4.567032635155015e-05,0.5241173387545066,-1.0198799107917236e-05,0.5241173387545066,-1.1423752429143028e-05
0.5249114559344377,3.9408141351681024e-05,0.5249114559344377,2.895932373979588e-05,0.5249114559344377,1.3314376625866365e-06,0.5249114559344377,-7.968510024570768e-06
0.5257055731143687,6.6916836939546085e-06,0.5257055731143687,1.135620909467384e-05,0.5257055731143687,1.850919204198257e-05,0.5257055731143687,-5.557805904782762e-06
0.5264996902942998,-2.0635683273042168e-05,0.5264996902942998,5.204131290399166e-06,0.5264996902942998,2.8028568922670472e-05,0.5264996902942998,-1.191417650503075e-05
0.5272938074742308,-3.908174034060837e-05,0.5272938074742308,1.3774021471651816e-05,0.5272938074742308,2.1855909393249384e-05,0.5272938074742308,-1.4385492675647163e-05
0.528087924654162,-4.5169176412926775e-05,0.528087924654162,2.2843483828619148e-05,0.528087924654162,1.269098245673181e-05,0.528087924654162,-1.29244e-05
0.528882041834093,-4.661124415293577e-05,0.528882041834093,2.456627247365232e-05,0.528882041834093,1.0102249650431584e-05,0.528882041834093,-1.35958e-05
0.5296761590140241,-4.7225277508566754e-05,0.5296761590140241,1.2510122173223145e-05,0.5296761590140241,7.821767010846823e-06,0.5296761590140241,-1.2767732525700256e-05
0.5304702761939551,-4.238938809766971e-05,0.5304702761939551,-6.394438765388899e-06,0.5304702761939551,7.730628702894421e-06,0.5304702761939551,-1.1936427975582572e-05
0.5312643933738862,-3.920818354755202e-05,0.5312643933738862,-3.076906946545171e-05,0.5312643933738862,3.2710478876042965e-06,0.5312643933738862,-1.2766789031701348e-05
0.5320585105538173,-3.748993681989376e-05,0.5320585105538173,-5.035683662338796e-05,0.5320585105538173,-3.997774879560913e-06,0.5320585105538173,-1.256885439336875e-05
0.5328526277337483,-3.488376468628549e-05,0.5328526277337483,-5.383486554379974e-05,0.5328526277337483,-2.765218065612357e-06,0.5328526277337483,-1.3358467656857256e-05
0.5336467449136795,-3.330272652697717e-05,0.5336467449136795,-6.436302199816545e-05,0.5336467449136795,-1.0756704141395755e-06,0.5336467449136795,-1.4148986736511414e-05
0.5344408620936105,-3.3937651110160224e-05,0.5344408620936105,-7.45439910224688e-05,0.5344408620936105,-2.5729048779493373e-06,0.5344408620936105,-1.3001970794194158e-05
0.5352349792735416,-3.018484452195813e-05,0.5352349792735416,-8.028908422913875e-05,0.5352349792735416,-1.0313485996697909e-05,0.5352349792735416,-1.529297031869458e-05
0.5360290964534726,-3.146550668428516e-05,0.5360290964534726,-7.59377410569146e-05,0.5360290964534726,-1.4701825377749312e-05,0.5360290964534726,-1.659706815206337e-05
0.5368232136334037,-3.660097671716917e-05,0.5368232136334037,-6.291698724837198e-05,0.5368232136334037,-1.3388501675430667e-05,0.5368232136334037,-1.7703344276102774e-05
0.5376173308133347,-3.53567733800963e-05,0.5376173308133347,-3.758070063826199e-05,0.5376173308133347,-1.1087798437369024e-05,0.5376173308133347,-1.3161205754368257e-05
0.5384114479932659,-3.180266457200418e-05,0.5384114479932659,-2.074455093513139e-05,0.5384114479932659,-8.639474572004183e-06,0.5384114479932659,-1.58269237389837e-05
0.539205565173197,-3.496072119952678e-05,0.539205565173197,-1.630938257379192e-05,0.539205565173197,-3.961575669812516e-06,0.539205565173197,-1.62814e-05
0.539999682353128,-3.642375765688816e-05,0.539999682353128,-2.188614714936795e-06,0.539999682353128,4.5287264160974855e-06,0.539999682353128,-1.5778143276748396e-05
0.5407937995330591,-2.817374828232534e-05,0.5407937995330591,1.5116729014379e-05,0.5407937995330591,2.6387361333591707e-06,0.5407937995330591,-1.7445340153529133e-05
0.5415879167129901,-2.0463221609462504e-05,0.5415879167129901,8.89350572455414e-06,0.5415879167129901,3.0690540925505514e-06,0.5415879167129901,-1.598799315299895e-05
0.5423820338929212,-1.1667867554566554e-05,0.5423820338929212,-1.4930028110826109e-05,0.5423820338929212,5.0626737611380814e-06,0.5423820338929212,-1.4540262892420196e-05
0.5431761510728523,-3.62931842486426e-06,0.5431761510728523,-4.52290382469289e-05,0.5431761510728523,9.8583048044136e-06,0.5431761510728523,-1.7031084045453072e-05
0.5439702682527834,3.690004985455608e-06,0.5439702682527834,-9.073438651373556e-05,0.5439702682527834,1.255046693167903e-05,0.5439702682527834,-1.1999125596277817e-05
0.5447643854327144,6.111119290314845e-06,0.5447643854327144,-0.0001224780371673,0.5447643854327144,6.92282423982063e-06,0.5447643854327144,-9.074110473123438e-06
0.5455585026126455,6.250122679289949e-06,0.5455585026126455,-0.0001116442401175,0.5455585026126455,6.920636883649332e-06,0.5455585026126455,-7.92861267928995e-06
0.5463526197925765,2.302319558499965e-06,0.5463526197925765,-3.064578907639486e-05,0.5463526197925765,1.4955693335808984e-05,0.5463526197925765,-7.55322e-06
0.5471467369725076,-1.7470550609496582e-06,0.5471467369725076,6.490291931266946e-05,0.5471467369725076,1.9539115060949657e-05,0.5471467369725076,-9.170266722573415e-06
0.5479408541524387,-6.45377153164763e-07,0.5479408541524387,0.0001080838229149,0.5479408541524387,1.925422969861989e-05,0.5479408541524387,-1.2185148508171698e-05
0.5487349713323698,5.851403888773431e-06,0.5487349713323698,0.0001061176420251,0.5487349713323698,1.6540161752129917e-05,0.5487349713323698,-1.0436969658244682e-05
0.5495290885123009,1.617990106608004e-05,0.5495290885123009,8.563486780892911e-05,0.5495290885123009,1.0220020391886309e-05,0.5495290885123009,-8.738181644679399e-06
0.5503232056922319,2.0991181995414025e-05,0.5503232056922319,6.93917104349601e-05,0.5503232056922319,8.718350444963964e-06,0.5503232056922319,-9.014449703357356e-06
0.551117322872163,1.5767711105010078e-05,0.551117322872163,4.850256742566562e-05,0.551117322872163,8.777589923774927e-06,0.551117322872163,-9.56741e-06
0.551911440052094,9.015332768725716e-06,0.551911440052094,1.784263634634344e-05,0.551911440052094,1.017968784736358e-05,0.551911440052094,-7.099291575158385e-06
0.5527055572320251,2.2806255113781123e-06,0.5527055572320251,6.685432109661223e-07,0.5527055572320251,5.877272180001424e-06,0.5527055572320251,-8.460455461906507e-06
0.5534996744119562,7.885157234478674e-06,0.5534996744119562,-5.536924035053986e-06,0.5534996744119562,-3.017889051224487e-06,0.5534996744119562,-1.02388e-05
0.5542937915918873,1.9533898866963925e-05,0.5542937915918873,-1.9362583847212647e-05,0.5542937915918873,-9.30876923970643e-06,0.5542937915918873,-1.285289761482724e-05
0.5550879087718184,2.46738e-05,0.5550879087718184,-3.953449778903605e-05,0.5550879087718184,-8.80938311449655e-06,0.5550879087718184,-1.5214247633115796e-05
0.5558820259517494,1.8288615457937223e-05,0.5558820259517494,-4.76779827977141e-05,0.5558820259517494,-5.383016993528804e-06,0.5558820259517494,-1.65780967483822e-05
0.5566761431316805,3.950267687558464e-06,0.5566761431316805,-4.807383556890542e-05,0.5566761431316805,-3.920218949989e-06,0.5566761431316805,-1.6005388949989e-05
0.5574702603116115,-7.823413800528125e-06,0.5574702603116115,-5.201973346065476e-05,0.5574702603116115,-5.26063999365819e-06,0.5574702603116115,-1.8352915278214232e-05
0.5582643774915427,-1.8312822555453844e-05,0.5582643774915427,-5.601200972605344e-05,0.5582643774915427,-7.138725957272781e-06,0.5582643774915427,-1.766524765818225e-05
0.5590584946714737,-2.4179249333855395e-05,0.5590584946714737,-5.7511602009336335e-05,0.5590584946714737,-8.145182300877933e-06,0.5590584946714737,-1.4030785363293136e-05
0.5598526118514048,-2.74577447248025e-05,0.5598526118514048,-5.842207784772027e-05,0.5598526118514048,-1.1303582434439008e-05,0.5598526118514048,-1.4246867087203752e-05
0.5606467290313358,-2.641378562031056e-05,0.5606467290313358,-5.713816222069685e-05,0.5606467290313358,-1.404970179746118e-05,0.5606467290313358,-1.561e-05
0.5614408462112669,-2.157507506991567e-05,0.5614408462112669,-5.395895607935815e-05,0.5614408462112669,-1.35958e-05,0.5614408462112669,-1.5648762465042167e-05
0.5622349633911979,-1.8258350893988823e-05,0.5622349633911979,-5.157025031152516e-05,0.5622349633911979,-1.2826506585245809e-05,0.5622349633911979,-1.6794262276502795e-05
0.563029080571129,-1.2727752003149054e-05,0.563029080571129,-5.008804064635072e-05,0.563029080571129,-6.844325152676951e-06,0.563029080571129,-1.6054666919975458e-05
0.5638231977510602,-1.406951304774044e-05,0.5638231977510602,-5.407222273148239e-05,0.5638231977510602,-9.185022181249252e-07,0.5638231977510602,-1.470174347612978e-05
0.5646173149309912,-1.5096516367021394e-05,0.5646173149309912,-5.526366424598022e-05,0.5646173149309912,3.3274357172462464e-06,0.5646173149309912,-1.35958e-05
0.5654114321109223,-1.345750034330453e-05,0.5654114321109223,-4.298012921800133e-05,0.5654114321109223,4.452731029913588e-06,0.5654114321109223,-1.320099931339094e-05
0.5662055492908533,-1.321079542809835e-05,0.5662055492908533,-2.6078503503590028e-05,0.5662055492908533,6.821876066095944e-06,0.5662055492908533,-1.3497220221635591e-05
0.5669996664707844,-1.2421280539732488e-05,0.5669996664707844,-3.406757519179751e-05,0.5669996664707844,8.559829460267512e-06,0.5669996664707844,-1.4266479190401266e-05
0.5677937836507154,-1.300143189090546e-05,0.5677937836507154,-3.168374855019583e-05,0.5677937836507154,7.88891e-06,0.5677937836507154,-1.780029324242122e-05
0.5685879008306466,-1.2648763832911596e-05,0.5685879008306466,-1.925159041047956e-05,0.5685879008306466,7.496646562356895e-06,0.5685879008306466,-1.8217845749367392e-05
0.5693820180105776,-1.0773709846563118e-05,0.5693820180105776,-1.5686487950120825e-05,0.5693820180105776,5.509831873665281e-07,0.5693820180105776,-1.598469751860415e-05
0.5701761351905087,-1.0149259772164727e-05,0.5701761351905087,-2.3232104809081807e-05,0.5701761351905087,-8.612298825228886e-06,0.5701761351905087,-1.7109415987899866e-05
0.5709702523704397,-1.2962587302631978e-05,0.5709702523704397,-2.4575803580899377e-05,0.5709702523704397,-1.892040532971873e-05,0.5709702523704397,-1.69528e-05
0.5717643695503708,-1.3123070067903797e-05,0.5717643695503708,-2.23239e-05,0.5717643695503708,-2.4350134353761944e-05,0.5717643695503708,-1.5137270067903798e-05
0.5725584867303019,-1.094992561134486e-05,0.5725584867303019,-2.8475379768116437e-05,0.5725584867303019,-1.4704181724793484e-05,0.5725584867303019,-1.2964125611344864e-05
0.573352603910233,-9.035039947050016e-06,0.573352603910233,-4.864876480010847e-05,0.573352603910233,-3.626583488387181e-06,0.573352603910233,-1.1147566741224898e-05
