X [s],R BICEPS BRACHII: EMG 1 [V],X [s].1,R DELTOID ANTERIOR: EMG 2 [V],X [s].5,R DELTOID MEDIUS: EMG 6 [V],X [s].6,R DELTOID POSTERIOR: EMG 7 [V]
0.0,-6.21042e-06,0.0,-2.06455e-05,0.0,-1.0071e-06,0.0,-3.70947e-05
0.000794117179931,-6.585613997874581e-06,0.000794117179931,-2.3034794735100395e-05,0.000794117179931,-4.492438603947725e-06,0.000794117179931,-4.744208739689866e-05
0.0015882343598621,-8.185116256640788e-06,0.0015882343598621,-2.268922490539178e-05,0.0015882343598621,-1.8068529070088305e-06,0.0015882343598621,-6.256825871735116e-05
0.0023823515397932,-5.87472e-06,0.0023823515397932,-2.3064434605991025e-05,0.0023823515397932,1.84634e-06,0.0023823515397932,-7.149386394413509e-05
0.0031764687197242,-5.87472e-06,0.0031764687197242,-2.184015347824071e-05,0.0031764687197242,1.7081108377605242e-06,0.0031764687197242,-7.212578335104209e-05
0.0039705858996553,-3.84079140009322e-06,0.0039705858996553,-2.263987571972525e-05,0.0039705858996553,-1.4316188761896846e-06,0.0039705858996553,-6.166005960130508e-05
0.0047647030795864,-5.183577593954833e-06,0.0047647030795864,-2.311377492562896e-05,0.0047647030795864,-5.124342513281573e-06,0.0047647030795864,-4.143901165342268e-05
0.0055588202595174,-6.21042e-06,0.0055588202595174,-2.3192777098318577e-05,0.0055588202595174,-4.235733075614269e-06,0.0055588202595174,-1.120670459837949e-05
0.0063529374394485,-7.632196774231015e-06,0.0063529374394485,-2.1415643683399168e-05,0.0063529374394485,-5.065096595831614e-06,0.0063529374394485,1.0752210163314172e-05
0.0071470546193796,-8.422103031541544e-06,0.0071470546193796,-2.06455e-05,0.0071470546193796,-7.454471719593773e-06,0.0071470546193796,2.0220773654508448e-05
0.0079411717993107,-6.269657433592138e-06,0.0079411717993107,-2.050726682983882e-05,0.0079411717993107,-6.012963064422465e-06,0.0079411717993107,3.204930294376612e-05
0.0087352889792417,-8.501046286448555e-06,0.0087352889792417,-2.0566472719322538e-05,0.0087352889792417,1.7672668662716518e-06,0.0087352889792417,3.982956786671818e-05
0.0095294061591728,-6.960819624180671e-06,0.0095294061591728,-2.0191318609028128e-05,0.0095294061591728,9.508155134783374e-06,0.0095294061591728,4.0747889090345374e-05
0.0103235233391039,-4.828048589586543e-06,0.0103235233391039,-2.0566522167625225e-05,0.0103235233391039,1.1601244424539448e-05,0.0103235233391039,3.2533574160329065e-05
0.0111176405190349,-6.80283930070911e-06,0.0111176405190349,-2.1790836592027817e-05,0.0111176405190349,1.622219650354555e-05,0.0111176405190349,2.001351453003456e-05
0.011911757698966,-4.551553850237316e-06,0.011911757698966,-2.3252014738832296e-05,0.011911757698966,2.3015383928560638e-05,0.011911757698966,1.329934770047463e-05
0.0127058748788971,-3.919664774184888e-06,0.0127058748788971,-2.256091896700853e-05,0.0127058748788971,2.4950365225815116e-05,0.0127058748788971,6.783562337320243e-06
0.0134999920588282,-6.546091365891611e-06,0.0134999920588282,-2.0309815403609628e-05,0.0134999920588282,1.997416872056361e-05,0.0134999920588282,-3.86042119025165e-06
0.0142941092387592,-4.689827795563807e-06,0.0142941092387592,-2.1830314291260327e-05,0.0142941092387592,9.369709268141956e-06,0.0142941092387592,-1.1700221615404936e-05
0.0150882264186903,-3.0509466836641297e-06,0.0150882264186903,-2.0596153268091677e-05,0.0150882264186903,7.2373933928244545e-06,0.0150882264186903,-1.888750642870218e-05
0.0158823435986214,-3.52483e-06,0.0158823435986214,-2.0497315402234085e-05,0.0158823435986214,4.7097144162645925e-06,0.0158823435986214,-2.2837396176436155e-05
0.0166764607785524,-4.630687902127339e-06,0.0166764607785524,-2.111949915870504e-05,0.0166764607785524,3.801294475531835e-06,0.0166764607785524,-2.0823206573404497e-05
0.0174705779584835,-6.921267514286334e-06,0.0174705779584835,-2.029010146762093e-05,0.0174705779584835,2.794264022341084e-06,0.0174705779584835,-2.220540645515206e-05
0.0182646951384146,-8.89601e-06,0.0182646951384146,-2.0803531541029725e-05,0.0182646951384146,4.444302881464235e-07,0.0182646951384146,-2.43381e-05
0.0190588123183456,-8.264111803357038e-06,0.0190588123183456,-1.985557646716055e-05,0.0190588123183456,-8.39246e-07,0.0190588123183456,-2.5601896393285924e-05
0.0198529294982767,-9.429242240582296e-06,0.0198529294982767,-2.03098e-05,0.0198529294982767,1.372481534801406e-06,0.0198529294982767,-2.5108142238045694e-05
0.0206470466782078,-1.0475696283026298e-05,0.0206470466782078,-2.0823238250671687e-05,0.0206470466782078,2.7546362830262977e-06,0.0206470466782078,-2.0744303716973703e-05
0.0214411638581389,-1.154213255777774e-05,0.0214411638581389,-2.0211091877547705e-05,0.0214411638581389,2.3993381436036097e-06,0.0214411638581389,-2.0991063921365647e-05
0.0222352810380699,-9.883330444446867e-06,0.0222352810380699,-2.080348533020084e-05,0.0222352810380699,5.03548e-07,0.0222352810380699,-2.1277397886771104e-05
0.023029398218001,-1.0149961943686804e-05,0.023029398218001,-2.0497538386180022e-05,0.023029398218001,5.430613980854594e-07,0.023029398218001,-2.2462165776475635e-05
0.0238235153979321,-6.40807501281951e-06,0.0238235153979321,-2.048751771252552e-05,0.0238235153979321,-2.418911611577377e-06,0.0238235153979321,-2.29953e-05
0.0246176325778631,-2.715219205977268e-06,0.0246176325778631,-2.220548465683979e-05,0.0246176325778631,-4.413441770496276e-06,0.0246176325778631,-2.181057254071557e-05
0.0254117497577942,-3.505181632567317e-06,0.0254117497577942,-2.204755287731353e-05,0.0254117497577942,-5.815446876722905e-06,0.0254117497577942,-1.991482099380652e-05
0.0262058669377253,-4.916981483345213e-06,0.0262058669377253,-2.226467479158981e-05,0.0262058669377253,-3.7124755499643607e-06,0.0262058669377253,-1.9006591099928723e-05
0.0269999841176564,-5.874691366062207e-06,0.0269999841176564,-2.4673758923707656e-05,0.0269999841176564,-3.5248242731442035e-06,0.0269999841176564,-1.6952845814846374e-05
0.0277941012975874,-5.736478807331362e-06,0.0277941012975874,-2.449609084228748e-05,0.0277941012975874,-4.433204125886388e-06,0.0277941012975874,-1.604442587411361e-05
0.0285882184775185,-6.832264152660325e-06,0.0285882184775185,-2.3350732382324683e-05,0.0285882184775185,-4.541698973700181e-06,0.0285882184775185,-1.5284048391694e-05
0.0293823356574496,-8.22461e-06,0.0293823356574496,-2.406159601465756e-05,0.0293823356574496,-5.914193169078056e-06,0.0293823356574496,-1.7466307323687778e-05
0.0301764528373806,-6.842324491911707e-06,0.0301764528373806,-2.3883974898832657e-05,0.0301764528373806,-6.90156687169009e-06,0.0301764528373806,-1.4346188759267747e-05
0.0309705700173117,-5.53903e-06,0.0309705700173117,-2.29953e-05,0.0309705700173117,-6.17100068181691e-06,0.0309705700173117,-1.173959384705422e-05
0.0317646871972428,-6.21042e-06,0.0317646871972428,-2.29953e-05,0.0317646871972428,-2.99174552033074e-06,0.0317646871972428,-1.29244e-05
0.0325588043771738,-6.21042e-06,0.0325588043771738,-2.263987828600336e-05,0.0325588043771738,-3.455682388650249e-06,0.0325588043771738,-1.181855114247192e-05
0.0333529215571049,-5.756252480138704e-06,0.0333529215571049,-2.4239281009553957e-05,0.0333529215571049,-5.302087902127337e-06,0.0333529215571049,-9.685877519861296e-06
0.034147038737036,-5.183702756027951e-06,0.034147038737036,-2.5651323212623927e-05,0.034147038737036,-3.8016517963059136e-06,0.034147038737036,-1.02388e-05
0.0349411559169671,-4.95640538648161e-06,0.0349411559169671,-2.485168506042124e-05,0.0349411559169671,9.880107887307335e-08,0.0349411559169671,-9.922827994255334e-06
0.0357352730968981,-7.405124295413244e-06,0.0357352730968981,-2.2699142928455964e-05,0.0357352730968981,-2.4190170090804963e-06,0.0357352730968981,-1.1008940721559934e-05
0.0365293902768292,-7.099088610921116e-06,0.0365293902768292,-2.143534563931352e-05,0.0365293902768292,-1.9846360014585087e-06,0.0365293902768292,-1.3556260875700852e-05
0.0373235074567603,-5.775878704324776e-06,0.0373235074567603,-2.4022106115427265e-05,0.0373235074567603,1.6882778511349368e-06,0.0373235074567603,-1.4444837851134935e-05
0.0381176246366913,-8.659000356557306e-06,0.0381176246366913,-2.378519470027114e-05,0.0381176246366913,3.7025239632713833e-06,0.0381176246366913,-1.8236281966429625e-05
0.0389117418166224,-8.45162133717968e-06,0.0389117418166224,-2.078380049942325e-05,0.0389117418166224,4.146803006915769e-06,0.0389117418166224,-2.503926646055997e-05
0.0397058589965535,-5.87472e-06,0.0397058589965535,-2.1455095523645418e-05,0.0397058589965535,-5.821181101294605e-07,0.0397058589965535,-2.3627768042744085e-05
0.0404999761764846,-7.217451277730432e-06,0.0404999761764846,-2.2995253793759608e-05,0.0404999761764846,-5.874582556484431e-06,0.0404999761764846,-1.2924777972482622e-05
0.0412940933564156,-7.178011861841769e-06,0.0412940933564156,-2.0764079879176376e-05,0.0412940933564156,-5.381037662326474e-06,0.0412940933564156,8.393086656529651e-07
0.0420882105363467,-4.9269662747514485e-06,0.0420882105363467,-1.85721182566356e-05,0.0420882105363467,-4.5912662747514485e-06,0.0420882105363467,9.384089991044148e-07
0.0428823277162778,-2.557207442222259e-06,0.0428823277162778,-1.801908574756196e-05,0.0428823277162778,-2.85344e-06,0.0428823277162778,-3.0113085932130686e-06
0.0436764448962088,-5.065055939440604e-06,0.0436764448962088,-2.0842837738437958e-05,0.0436764448962088,-2.300533956359525e-06,0.0436764448962088,-7.513649791600259e-06
0.0444705620761399,-7.642070213659989e-06,0.0444705620761399,-2.145507049377289e-05,0.0444705620761399,3.346740015517149e-06,0.0444705620761399,-1.833433613879203e-05
0.045264679256071,-8.10618425434586e-06,0.045264679256071,-1.951997489883266e-05,0.045264679256071,8.56031e-06,0.045264679256071,-3.705430162529762e-05
0.046058796436002,-7.247163533085167e-06,0.046058796436002,-1.8967e-05,0.046058796436002,8.56031e-06,0.046058796436002,-4.442071882073922e-05
0.0468529136159331,-7.424878060519665e-06,0.0468529136159331,-1.9223744798018563e-05,0.0468529136159331,1.1097795379371414e-05,0.0468529136159331,-2.712219177335327e-05
0.0476470307958642,-7.42497828049611e-06,0.0476470307958642,-1.948041771252552e-05,0.0476470307958642,1.224316260855501e-05,0.0476470307958642,-9.725840178087378e-06
0.0484411479757953,-7.197797732600466e-06,0.0484411479757953,-2.050719570675841e-05,0.0484411479757953,1.148298866300233e-05,0.0484411479757953,-1.1640345347990682e-05
0.0492352651557263,-6.368404306004966e-06,0.0492352651557263,-2.111938457844932e-05,0.0492352651557263,8.619568411954535e-06,0.0492352651557263,-2.463422755251424e-05
0.0500293823356574,-4.907192026802374e-06,0.0500293823356574,-2.177104050477697e-05,0.0500293823356574,4.926967745580185e-06,0.0500293823356574,-3.705513797319763e-05
0.0508234995155885,-3.18914e-06,0.0508234995155885,-2.287679424537295e-05,0.0508234995155885,2.06362621962163e-06,0.0508234995155885,-1.936416410711897e-05
0.0516176166955195,-4.373901056018801e-06,0.0516176166955195,-2.2797821191384416e-05,0.0516176166955195,1.806832469787168e-06,0.0516176166955195,1.6932254542328784e-05
0.0524117338754506,-5.736502166809949e-06,0.0524117338754506,-2.1731646871017715e-05,0.0524117338754506,-5.430921100907475e-07,0.0524117338754506,3.20592e-05
0.0532058510553817,-5.53903e-06,0.0532058510553817,-2.05763834654637e-05,0.0532058510553817,-4.294921512978836e-06,0.0532058510553817,1.1011889209524064e-05
0.0539999682353128,-5.874697093259192e-06,0.0539999682353128,-1.930276161443852e-05,0.0539999682353128,-3.1892316290103657e-06,0.0539999682353128,-2.36654171931725e-05
0.0547940854152438,-7.316257327825202e-06,0.0547940854152438,-1.861160221876615e-05,0.0547940854152438,-3.327358285586646e-06,0.0547940854152438,-2.295591714413354e-05
0.0555882025951749,-5.53903e-06,0.0555882025951749,-1.892755577349681e-05,0.0555882025951749,-3.9393584073054455e-06,0.0555882025951749,-5.935883808694932e-06
0.056382319775106,-6.645050883306583e-06,0.056382319775106,-1.8394289463244343e-05,0.056382319775106,-3.979191740989816e-06,0.056382319775106,1.2864099871883247e-05
0.057176436955037,-4.314735410071113e-06,0.057176436955037,-1.82956e-05,0.057176436955037,2.763477732312317e-07,0.057176436955037,2.9264717551875366e-05
0.0579705541349681,-5.775787618600347e-06,0.0579705541349681,-1.8838613694270564e-05,0.0579705541349681,7.691039943941782e-06,0.0579705541349681,3.476448940338836e-05
0.0587646713148992,-8.56031e-06,0.0587646713148992,-1.999364449628277e-05,0.0587646713148992,1.0081626630113262e-05,0.0587646713148992,3.1111843942126667e-05
0.0595587884948302,-8.244378082245906e-06,0.0595587884948302,-2.2600373694161472e-05,0.0595587884948302,-3.958657970314931e-06,0.0595587884948302,2.8662663835508188e-05
0.0603529056747613,-1.1976539978816576e-05,0.0603529056747613,-2.4417050067444894e-05,0.0603529056747613,-6.052447967646829e-06,0.0603529056747613,3.0400447507943784e-05
0.0611470228546924,-9.508628407249893e-06,0.0611470228546924,-2.390368883482136e-05,0.0611470228546924,3.000381215332321e-06,0.0611470228546924,2.397395197907049e-05
0.0619411400346235,-7.987492702718702e-06,0.0619411400346235,-2.025072912462936e-05,0.0619411400346235,1.697199185652532e-05,0.0619411400346235,1.128637305190512e-05
0.0627352572145545,-9.695761060070858e-06,0.0627352572145545,-1.9579146373123976e-05,0.0627352572145545,2.4199812720850288e-05,0.0627352572145545,-9.606503165322846e-06
0.0635293743944856,-8.757848696979162e-06,0.0635293743944856,-2.1218070740480865e-05,0.0635293743944856,2.0369293894762955e-05,0.0635293743944856,-2.883997535347225e-05
0.0643234915744167,-8.619511163333388e-06,0.0643234915744167,-2.224488981877108e-05,0.0643234915744167,1.1088487240360486e-05,0.0643234915744167,-3.196098487666597e-05
0.0651176087543477,-7.118898365371088e-06,0.0651176087543477,-2.414061605783661e-05,0.0651176087543477,2.774736501948083e-06,0.0651176087543477,-2.0073359427514555e-05
0.0659117259342788,-6.743592322529344e-06,0.0659117259342788,-2.3074373296321937e-05,0.0659117259342788,-8.984879391350062e-07,0.0659117259342788,-8.757769345839124e-06
0.0667058431142099,-6.33905111602499e-06,0.0667058431142099,-2.1336690185094264e-05,0.0667058431142099,-4.748699135405644e-06,0.0667058431142099,-1.0258207563159567e-05
0.067499960294141,-2.8536261219604298e-06,0.067499960294141,-2.131687432731728e-05,0.067499960294141,-5.874805902836956e-06,0.067499960294141,-1.3595656828605075e-05
0.068294077474072,-5.144057781275979e-06,0.068294077474072,-2.254101585303785e-05,0.068294077474072,-4.19623e-06,0.068294077474072,-1.6261598617232964e-05
0.0690881946540031,-4.11741877326196e-06,0.0690881946540031,-2.307447653247855e-05,0.0690881946540031,-6.28923122673804e-06,0.0690881946540031,-2.460373232650648e-05
0.0698823118339342,-4.235685988510666e-06,0.0698823118339342,-2.0862869573258483e-05,0.0698823118339342,-8.046733954042667e-06,0.0698823118339342,-2.9748755988510667e-05
0.0706764290138652,-4.808371568108645e-06,0.0706764290138652,-1.948056147954872e-05,0.0706764290138652,-1.0890351173871769e-05,0.0706764290138652,-3.253297411297781e-05
0.0714705461937963,-6.388108976068376e-06,0.0714705461937963,-1.807838671560587e-05,0.0714705461937963,-1.0693155119658122e-05,0.0714705461937963,-3.916793385641026e-05
0.0722646633737274,-7.55322e-06,0.0722646633737274,-1.722929771848942e-05,0.0722646633737274,-7.790438989370833e-06,0.0722646633737274,-4.070845938869969e-05
0.0730587805536585,-6.605441427305113e-06,0.0730587805536585,-1.7900623743167628e-05,0.0730587805536585,-3.692906788332344e-06,0.0730587805536585,-3.760836428191534e-05
0.0738528977335895,-6.862055311488825e-06,0.0738528977335895,-2.0230855067091647e-05,0.0738528977335895,2.9597199737191307e-08,0.0738528977335895,-3.3658741147518623e-05
0.0746470149135206,-8.69831093635984e-06,0.0746470149135206,-2.1257592935948363e-05,0.0746470149135206,6.219725285479037e-07,0.0746470149135206,-3.2217279787416454e-05
0.0754411320934517,-9.56741e-06,0.0754411320934517,-2.159354966277553e-05,0.0754411320934517,1.17494e-06,0.0754411320934517,-3.255258650950349e-05
0.0762352492733827,-8.668972623499261e-06,0.0762352492733827,-1.9816176284237687e-05,0.0762352492733827,1.17494e-06,0.0762352492733827,-3.841755311271703e-05
0.0770293664533138,-7.395271957952191e-06,0.0770293664533138,-1.987526047140777e-05,0.0770293664533138,-4.926779464957438e-08,0.0770293664533138,-4.282140391590438e-05
0.0778234836332449,-6.092030890388181e-06,0.0778234836332449,-2.164258339056196e-05,0.0778234836332449,-1.935133154716382e-06,0.0778234836332449,-3.733260693244864e-05
0.078617600813176,-5.094758475886636e-06,0.078617600813176,-2.34594041990485e-05,0.078617600813176,-2.497980508037788e-06,0.078617600813176,-2.4279455614186182e-05
0.079411717993107,-6.565853084857444e-06,0.079411717993107,-2.237333659165108e-05,0.079411717993107,-1.866107021632223e-06,0.079411717993107,-1.9085466382694225e-05
0.0802058351730381,-7.928572761729388e-06,0.0802058351730381,-2.331119954781012e-05,0.0802058351730381,-1.6286817708881442e-06,0.0802058351730381,-3.0457202667025777e-05
0.0809999523529692,-5.035703346352528e-06,0.0809999523529692,-2.4338038385561477e-05,0.0809999523529692,-6.210145111945296e-06,0.0809999523529692,-6.092727270328342e-05
0.0817940695329002,-5.341532436926412e-06,0.0817940695329002,-2.2639922752957355e-05,0.0817940695329002,-4.354273907683972e-06,0.0817940695329002,-8.225572680619053e-05
0.0825881867128313,-6.605490635886218e-06,0.0825881867128313,-2.354817667451476e-05,0.0825881867128313,1.499830835243432e-06,0.0825881867128313,-8.05196416768053e-05
0.0833823038927624,-4.354031046619471e-06,0.0833823038927624,-2.453552747313757e-05,0.0833823038927624,7.592669086490684e-06,0.0833823038927624,-6.448504241200883e-05
0.0841764210726934,-7.197636812907567e-06,0.0841764210726934,-2.45554365132712e-05,0.0841764210726934,7.88891e-06,0.0841764210726934,-5.534092831749431e-05
0.0849705382526245,-7.572881207967367e-06,0.0849705382526245,-2.323228370028481e-05,0.0849705382526245,4.413931580524615e-06,0.0849705382526245,-6.600339533011624e-05
0.0857646554325556,-6.092473506906743e-06,0.0857646554325556,-2.196873475209884e-05,0.0857646554325556,-4.6888957503900605e-06,0.0857646554325556,-6.537453756583146e-05
0.0865587726124866,-3.52483e-06,0.0865587726124866,-2.054675080125536e-05,0.0865587726124866,-1.209476430154271e-05,0.0865587726124866,-2.991919062665033e-05
0.0873528897924177,-2.5375218690785715e-06,0.0873528897924177,-2.025080100814096e-05,0.0873528897924177,-8.066752504080412e-06,0.0873528897924177,2.5778477955213296e-05
0.0881470069723488,-2.260808275319597e-06,0.0881470069723488,-1.7940226189387483e-05,0.0881470069723488,-5.241739538009805e-07,0.0881470069723488,7.81248936803559e-05
0.0889411241522799,-4.679717564256095e-06,0.0889411241522799,-1.8117612248847872e-05,0.0889411241522799,6.466942303759652e-06,0.0889411241522799,9.880479826335704e-05
0.0897352413322109,-8.974842351795611e-06,0.0897352413322109,-2.013200831215268e-05,0.0897352413322109,7.63222698000021e-06,0.0897352413322109,8.119058714137781e-05
0.090529358512142,-1.1166952366113758e-05,0.090529358512142,-2.084269531672143e-05,0.090529358512142,5.578655439176954e-06,0.090529358512142,6.330918688547177e-05
0.0913234756920731,-9.9031e-06,0.0913234756920731,-2.2856981530463626e-05,0.0913234756920731,7.138013569872465e-06,0.0913234756920731,6.247925516781248e-05
0.0921175928720041,-1.0199275289219777e-05,0.0921175928720041,-1.948056525555392e-05,0.0921175928720041,1.2864852892197769e-05,0.0921175928720041,6.2706605890041e-05
0.0929117100519352,-1.09102e-05,0.0929117100519352,-1.9559285627385703e-05,0.0929117100519352,2.0645275949267715e-05,0.0929117100519352,5.615064783655141e-05
0.0937058272318663,-1.134457433241144e-05,0.0937058272318663,-1.967802143857097e-05,0.0937058272318663,2.842549732964576e-05,0.0937058272318663,5.212174599446864e-05
0.0944999444117974,-9.903300439952864e-06,0.0944999444117974,-1.8295671883511603e-05,0.0944999444117974,2.93736e-05,0.0944999444117974,5.690049912009428e-05
0.0952940615917284,-6.901698616999318e-06,0.0952940615917284,-1.890763518955846e-05,0.0952940615917284,2.5957608609103712e-05,0.0952940615917284,4.848917172660002e-05
0.0960881787716595,-4.748865820804352e-06,0.0960881787716595,-1.9717226838567865e-05,0.0960881787716595,1.466347985117933e-05,0.0960881787716595,2.6927965037036944e-05
0.0968822959515906,-7.237242267399534e-06,0.0968822959515906,-2.1376044679179546e-05,0.0968822959515906,6.309453966199177e-06,0.0968822959515906,6.606554924801838e-06
0.0976764131315216,-6.141434485213244e-06,0.0976764131315216,-2.135634936103973e-05,0.0976764131315216,2.8733575480565725e-06,0.0976764131315216,-6.032127231512179e-06
0.0984705303114527,-5.064962574450316e-06,0.0984705303114527,-2.252134735976042e-05,0.0984705303114527,2.2016950496335444e-06,0.0984705303114527,-1.714935049633544e-05
0.0992646474913838,-5.736847405649034e-06,0.0992646474913838,-2.3804995177574453e-05,0.0992646474913838,2.2020233696451285e-06,0.0992646474913838,-2.785195399418564e-05
0.1000587646713148,-2.9320373071245998e-06,0.1000587646713148,-2.295654689151197e-05,0.1000587646713148,-7.213499807802641e-07,0.1000587646713148,-3.82614371471601e-05
0.1008528818512459,-6.802824477252129e-06,0.1008528818512459,-2.3152971435311256e-05,0.1008528818512459,-3.2878680991570576e-06,0.1008528818512459,-4.740259456723431e-05
0.101646999031177,-8.857033207297916e-06,0.101646999031177,-2.36667e-05,0.101646999031177,-6.1504967056955225e-06,0.101646999031177,-5.599196104522212e-05
0.1024411162111081,-6.891608077493535e-06,0.1024411162111081,-2.240223969078303e-05,0.1024411162111081,-8.185458273170182e-06,0.1024411162111081,-5.640859076010343e-05
0.1032352333910391,-6.921357178785566e-06,0.1032352333910391,-2.001395677365889e-05,0.1032352333910391,-6.526717430284531e-06,0.1032352333910391,-5.38796e-05
0.1040293505709702,-6.565785722426121e-06,0.1040293505709702,-2.2126944531101656e-05,0.1040293505709702,-6.68447141636082e-06,0.1040293505709702,-5.538041713878694e-05
0.1048234677509013,-6.052945905435014e-06,0.1048234677509013,-2.38832285998706e-05,0.1048234677509013,-8.22461e-06,0.1048234677509013,-5.470847409456498e-05
0.1056175849308323,-7.178235830710604e-06,0.1056175849308323,-2.443690383451492e-05,0.1056175849308323,-8.22461e-06,0.1056175849308323,-5.2101105015736377e-05
0.1064117021107634,-7.4151152657705266e-06,0.1064117021107634,-2.3073689220937982e-05,0.1064117021107634,-7.928222987411108e-06,0.1064117021107634,-4.499211093719319e-05
0.1072058192906945,-6.111645299169561e-06,0.1072058192906945,-2.0528363045412764e-05,0.1072058192906945,-6.822421196678241e-06,0.1072058192906945,-4.120185179501736e-05
0.1079999364706256,-7.04950982008916e-06,0.1079999364706256,-1.997405890787864e-05,0.1079999364706256,-4.196458827080766e-06,0.1079999364706256,-3.9108991531377625e-05
0.1087940536505566,-6.349498843740511e-06,0.1087940536505566,-2.03098e-05,0.1087940536505566,-1.3726728580994751e-06,0.1087940536505566,-3.563459786144764e-05
0.1095881708304877,-4.571099509015282e-06,0.1095881708304877,-2.0270769758016436e-05,0.1095881708304877,-3.5435009188502853e-06,0.1095881708304877,-3.1842847975959244e-05
0.1103822880104188,-5.695798596796309e-06,0.1103822880104188,-2.003333327590596e-05,0.1103822880104188,-4.394756456254646e-06,0.1103822880104188,-2.734236803036909e-05
0.1111764051903498,-7.158019833477373e-06,0.1111764051903498,-2.23239e-05,0.1111764051903498,-2.3902888104083877e-06,0.1111764051903498,-2.3292800832613135e-05
0.1119705223702809,-6.349046010493688e-06,0.1119705223702809,-2.2540922851066115e-05,0.1119705223702809,-3.064746555834974e-07,0.1119705223702809,-2.335048265967088e-05
0.112764639550212,-7.869148951994e-06,0.112764639550212,-2.331137709159525e-05,0.112764639550212,-7.997094920460555e-07,0.112764639550212,-2.36667e-05
0.1135587567301431,-8.89601e-06,0.1135587567301431,-2.4239169681363537e-05,0.1135587567301431,-1.589311532825504e-06,0.1135587567301431,-2.319269889542571e-05
0.1143528739100741,-9.21194465556063e-06,0.1143528739100741,-2.3529439995606225e-05,0.1143528739100741,4.83782420357296e-07,0.1143528739100741,-2.4555311551853544e-05
0.1151469910900052,-7.968358592122842e-06,0.1151469910900052,-2.0704389509491752e-05,0.1151469910900052,3.8515736575555753e-07,0.1151469910900052,-2.1376807371593453e-05
0.1159411082699363,-5.53903e-06,0.1159411082699363,-2.1139686385117507e-05,0.1159411082699363,-2.4613016321730016e-07,0.1159411082699363,-1.6085695780266267e-05
0.1167352254498673,-6.052262199112569e-06,0.1167352254498673,-2.287657662242959e-05,0.1167352254498673,-4.841671930196089e-07,0.1167352254498673,-1.1641300391411182e-05
0.1175293426297984,-6.565797163848337e-06,0.1175293426297984,-2.208675566978094e-05,0.1175293426297984,4.147037090379156e-07,0.1175293426297984,-1.3497093592496817e-05
0.1183234598097295,-6.635224371650851e-06,0.1183234598097295,-2.1948571073319608e-05,0.1183234598097295,-1.0768565960213144e-06,0.1183234598097295,-1.1896582513396596e-05
0.1191175769896605,-4.530192999188984e-06,0.1191175769896605,-2.2383349069057506e-05,0.1191175769896605,-2.923065244242264e-06,0.1191175769896605,-1.02388e-05
0.1199116941695916,-3.041447478752744e-06,0.1199116941695916,-2.167220244174967e-05,0.1199116941695916,-1.6679063349967615e-06,0.1199116941695916,-1.02388e-05
0.1207058113495227,-5.736564993453903e-06,0.1207058113495227,-2.29953e-05,0.1207058113495227,1.3724779356334626e-06,0.1207058113495227,-8.599703096549806e-06
0.1214999285294538,-6.881717027200169e-06,0.1214999285294538,-2.1988438672138785e-05,0.1214999285294538,2.1819885136000845e-06,0.1214999285294538,-7.049798714466086e-06
0.1222940457093848,-7.55322e-06,0.1222940457093848,-1.8768984135025995e-05,0.1222940457093848,1.2542774599050283e-06,0.1222940457093848,-6.6059086482537446e-06
0.1230881628893159,-6.033255928538693e-06,0.1230881628893159,-2.0348819968953222e-05,0.1230881628893159,2.3983690919858955e-06,0.1230881628893159,-7.471119488861e-06
0.123882280069247,-4.19623e-06,0.123882280069247,-2.0191353994248787e-05,0.123882280069247,5.438449081025038e-06,0.123882280069247,-1.9000949071881896e-05
0.124676397249178,-5.024812338298806e-06,0.124676397249178,-1.9046273294419532e-05,0.124676397249178,7.631811169149402e-06,0.124676397249178,-2.544287645106508e-05
0.1254705144291091,-4.690044390875666e-06,0.1254705144291091,-2.05064708582038e-05,0.1254705144291091,6.310126026138873e-06,0.1254705144291091,-2.6194185609124333e-05
0.1262646316090402,-5.618004752872778e-06,0.1262646316090402,-2.086266153697572e-05,0.1262646316090402,1.8859257440112903e-06,0.1262646316090402,-2.248206694386016e-05
0.1270587487889713,-5.87472e-06,0.1270587487889713,-2.0073035445273712e-05,0.1270587487889713,-1.7479724463424192e-06,0.1270587487889713,-1.5787062545980676e-05
0.1278528659689023,-5.519240986283614e-06,0.1278528659689023,-1.979605088925055e-05,0.1278528659689023,-3.830859714543366e-06,0.1278528659689023,-1.6972464354798543e-05
0.1286469831488334,-8.263527996879139e-06,0.1286469831488334,-2.30059198516534e-05,0.1286469831488334,-5.065488984401021e-06,0.1286469831488334,-2.1848773035503385e-05
0.1294411003287645,-1.083194182696407e-05,0.1294411003287645,-2.441647176500479e-05,0.1294411003287645,-3.277180517515767e-06,0.1294411003287645,-2.24474945371568e-05
0.1302352175086955,-8.027732438112544e-06,0.1302352175086955,-2.244263365060076e-05,0.1302352175086955,-4.956394201006667e-06,0.1302352175086955,-3.0746567439046357e-06
0.1310293346886266,-5.894413312023511e-06,0.1310293346886266,-2.421951530833917e-05,0.1310293346886266,-3.070506219929315e-06,0.1310293346886266,2.1081086524424263e-05
0.1318234518685577,-5.02513841883161e-06,0.1318234518685577,-2.207866542847517e-05,0.1318234518685577,1.885322160480379e-07,0.1318234518685577,4.067124021230793e-05
0.1326175690484888,-4.19623e-06,0.1326175690484888,-2.078364090477396e-05,0.1326175690484888,2.4391487293663766e-06,0.1326175690484888,4.096253155353758e-05
0.1334116862284198,-4.472462400513769e-06,0.1334116862284198,-2.224547552774441e-05,0.1334116862284198,2.5378832991009053e-06,0.1334116862284198,2.178682586624437e-05
0.1342058034083509,-4.591282939212104e-06,0.1342058034083509,-2.1733770032511723e-05,0.1342058034083509,6.941169997203321e-06,0.1342058034083509,1.1344663234803026e-05
0.134999920588282,-5.53903e-06,0.134999920588282,-1.963850273030341e-05,0.134999920588282,6.546348826739962e-06,0.134999920588282,1.3931099550222863e-05
0.135794037768213,-5.657433997885773e-06,0.135794037768213,-2.167270030361901e-05,0.135794037768213,3.584648634884198e-06,0.135794037768213,1.7643697884505993e-05
0.1365881549481441,-8.123825638126704e-06,0.1365881549481441,-2.2936791266317664e-05,0.1365881549481441,2.6557415399827677e-06,0.1365881549481441,1.267087844024126e-05
0.1373822721280752,-1.217463804991463e-05,0.1373822721280752,-2.1099716948201866e-05,0.1373822721280752,2.042243708070887e-06,0.1373822721280752,6.529192391758371e-06
0.1381763893080062,-9.095912698741886e-06,0.1381763893080062,-2.0230536958854968e-05,0.1381763893080062,6.010517301258114e-06,0.1381763893080062,9.605666924498338e-07
0.1389705064879373,-8.263534263814159e-06,0.1389705064879373,-1.9746873966620208e-05,0.1389705064879373,7.800125345632177e-06,0.1389705064879373,-3.5637542638141595e-06
0.1397646236678684,-1.0416557230457372e-05,0.1397646236678684,-2.1218238726102023e-05,0.1397646236678684,5.242953626707934e-06,0.1397646236678684,-1.1363935036386266e-05
0.1405587408477994,-7.374953621433614e-06,0.1405587408477994,-2.256065942808901e-05,0.1405587408477994,1.1350151838012657e-06,0.1405587408477994,-3.0304290591299497e-05
0.1413528580277305,-5.104629828347747e-06,0.1413528580277305,-2.268004224694829e-05,0.1413528580277305,5.03548e-07,0.1413528580277305,-4.59410366725669e-05
0.1421469752076616,-5.894165036309617e-06,0.1421469752076616,-2.0625512699714728e-05,0.1421469752076616,9.178735020223558e-07,0.1421469752076616,-4.0967591498734645e-05
0.1429410923875927,-6.181081566081081e-06,0.1429410923875927,-2.1060397001743374e-05,0.1429410923875927,2.191819477972973e-06,0.1429410923875927,-2.728436775145504e-05
0.1437352095675237,-6.604999681034471e-06,0.1437352095675237,-2.16526e-05,0.1437352095675237,3.248012037052336e-06,0.1437352095675237,-1.7309589756157677e-05
0.1445293267474548,-6.407820070039116e-06,0.1445293267474548,-2.2166151671182094e-05,0.1445293267474548,1.885740093385488e-06,0.1445293267474548,-1.8177399719843537e-05
0.1453234439273859,-4.927021473011693e-06,0.1453234439273859,-2.3231657968965904e-05,0.1453234439273859,1.965122946023386e-06,0.1453234439273859,-2.900171240625724e-05
0.146117561107317,-6.092517065737368e-06,0.146117561107317,-2.271902846348241e-05,0.146117561107317,2.51774e-06,0.146117561107317,-3.952647947504246e-05
0.146911678287248,-8.047159281268924e-06,0.146911678287248,-2.3114165291883034e-05,0.146911678287248,4.374602514821809e-06,0.146911678287248,-4.254456579981181e-05
0.1477057954671791,-7.355704996421365e-06,0.1477057954671791,-2.496886792548772e-05,0.1477057954671791,5.775965440048687e-06,0.1477057954671791,-3.764743998568546e-05
0.1484999126471102,-6.88182e-06,0.1484999126471102,-2.433832600666744e-05,0.1484999126471102,3.1895804928801963e-06,0.1484999126471102,-3.709444828871159e-05
0.1492940298270412,-7.454336371909142e-06,0.1492940298270412,-2.1592282900493656e-05,0.1492940298270412,2.8729645578637143e-06,0.1492940298270412,-4.4399409546951744e-05
0.1500881470069723,-7.04967e-06,0.1500881470069723,-1.9993599711446274e-05,0.1500881470069723,5.479317503249812e-06,0.1500881470069723,-4.110849224668053e-05
0.1508822641869034,-8.22461e-06,0.1508822641869034,-2.03098e-05,0.1508822641869034,3.7038301988558633e-06,0.1508822641869034,-2.2810277230587608e-05
0.1516763813668344,-7.94842732865594e-06,0.1516763813668344,-1.9400641636388448e-05,0.1516763813668344,3.082876790222659e-07,0.1516763813668344,-5.446088582978594e-06
0.1524704985467655,-5.233767367306584e-06,0.1524704985467655,-1.892624464912366e-05,0.1524704985467655,-4.2740280519487805e-06,0.1524704985467655,-1.8268916645957088e-06
0.1532646157266966,-5.104524639911758e-06,0.1532646157266966,-2.2876782083036407e-05,0.1532646157266966,-7.29648566406019e-06,0.1532646157266966,-3.5641262720040885e-06
0.1540587329066277,-6.1907349177525085e-06,0.1540587329066277,-2.042993611394481e-05,0.1540587329066277,-7.55322e-06,0.1540587329066277,-5.87472e-06
0.1548528500865587,-5.993225647187562e-06,0.1548528500865587,-1.97960303431899e-05,0.1548528500865587,-8.658998705624877e-06,0.1548528500865587,8.480650351983364e-06
0.1556469672664898,-4.86763e-06,0.1556469672664898,-2.1336866754224566e-05,0.1556469672664898,-1.0219382162560793e-05,0.1556469672664898,1.9933376404817868e-05
0.1564410844464209,-4.176676777067742e-06,0.1564410844464209,-2.2225101653425283e-05,0.1564410844464209,-6.0637714104692805e-06,0.1564410844464209,2.3549386487018588e-05
0.157235201626352,-4.245434139376696e-06,0.157235201626352,-2.0606685491653524e-05,0.157235201626352,-2.024769706512708e-06,0.157235201626352,1.857336688498643e-05
0.158029318806283,-5.272471383913786e-06,0.158029318806283,-2.017120232547808e-05,0.158029318806283,9.57816043941684e-07,0.158029318806283,1.570885979159767e-05
0.1588234359862141,-4.255615752300609e-06,0.1588234359862141,-1.959865569340785e-05,0.1588234359862141,5.283328497091683e-06,0.1588234359862141,2.491380079831279e-05
0.1596175531661451,-6.606671461490052e-06,0.1596175531661451,-2.125746126348723e-05,0.1596175531661451,7.21752e-06,0.1596175531661451,3.3976721885213486e-05
0.1604116703460762,-7.29619888423669e-06,0.1604116703460762,-2.102043570259037e-05,0.1604116703460762,7.681722615189762e-06,0.1604116703460762,2.6171400914874413e-05
0.1612057875260073,-5.440278231224377e-06,0.1612057875260073,-2.2145939872308405e-05,0.1612057875260073,7.454468231224376e-06,0.1612057875260073,-4.947902666598601e-06
0.1619999047059384,-5.5389613514667735e-06,0.1619999047059384,-2.165272325800301e-05,0.1619999047059384,6.378441621333068e-06,0.1619999047059384,-4.984584543485766e-05
0.1627940218858694,-5.401105776443208e-06,0.1627940218858694,-2.149478987877916e-05,0.1627940218858694,3.920387444418205e-06,0.1627940218858694,-7.662379788907256e-05
0.1635881390658005,-4.19623e-06,0.1635881390658005,-2.2263317258550184e-05,0.1635881390658005,3.110863888651433e-06,0.1635881390658005,-7.758027866880334e-05
0.1643822562457316,-5.0243068692600905e-06,0.1643822562457316,-2.3410061724323116e-05,0.1643822562457316,3.3654016237677245e-06,0.1643822562457316,-5.7118832600047925e-05
0.1651763734256627,-6.762773901265954e-06,0.1651763734256627,-2.0901957465404e-05,0.1651763734256627,5.94256805095085e-06,0.1651763734256627,-1.9105195724667072e-05
0.1659704906055937,-6.704251553008978e-06,0.1659704906055937,-2.03098e-05,0.1659704906055937,5.855288395515931e-06,0.1659704906055937,9.384572882209795e-06
0.1667646077855248,-3.880392578701975e-06,0.1667646077855248,-2.129714338032946e-05,0.1667646077855248,6.180872493725635e-06,0.1667646077855248,2.0289939773396423e-05
0.1675587249654559,-4.749485694992688e-06,0.1675587249654559,-2.175155082518549e-05,0.1675587249654559,2.378947566052109e-06,0.1675587249654559,1.6260753044179185e-05
0.1683528421453869,-6.230254140603871e-06,0.1683528421453869,-2.058714982460114e-05,0.1683528421453869,-4.699530328841918e-06,0.1683528421453869,-1.74667995466448e-06
0.169146959325318,-5.57783480314484e-06,0.169146959325318,-1.955946155204097e-05,0.169146959325318,-7.9374268854328e-06,0.169146959325318,-1.6081529152031427e-05
0.1699410765052491,-7.631409377383762e-06,0.1699410765052491,-2.204786119922692e-05,0.1699410765052491,-1.02388e-05,0.1699410765052491,-2.56809e-05
0.1707351936851801,-1.043558458959882e-05,0.1707351936851801,-2.29953e-05,0.1707351936851801,-9.725613565894602e-06,0.1707351936851801,-2.4141317766759867e-05
0.1715293108651112,-1.1779034394305709e-05,0.1715293108651112,-2.2985328416820754e-05,0.1715293108651112,-9.922827635778878e-06,0.1715293108651112,-1.6162652224908524e-05
0.1723234280450423,-8.046471674073713e-06,0.1723234280450423,-2.2363649433229425e-05,0.1723234280450423,-8.480351547715773e-06,0.1723234280450423,2.113720718842245e-07
0.1731175452249733,-7.51390716564208e-06,0.1731175452249733,-2.214650683468658e-05,0.1731175452249733,-2.396717338870009e-06,0.1731175452249733,1.207763432441748e-05
0.1739116624049044,-8.284043201403998e-06,0.1739116624049044,-1.9914129355653985e-05,0.1739116624049044,7.2978506394019665e-06,0.1739116624049044,1.0870033795086009e-05
0.1747057795848355,-1.01993381072857e-05,0.1747057795848355,-2.028946341668317e-05,0.1747057795848355,1.1917426596493912e-05,0.1747057795848355,8.0864020715238e-06
0.1754998967647666,-9.567707474761897e-06,0.1754998967647666,-1.9638600324091613e-05,0.1754998967647666,1.5945253784534133e-05,0.1754998967647666,1.3259058832794996e-05
0.1762940139446976,-5.945040259950276e-06,0.1762940139446976,-2.0349938969055955e-05,0.1762940139446976,1.2432641129419118e-05,0.1762940139446976,1.405126075294608e-05
0.1770881311246287,-4.817155423890659e-06,0.1770881311246287,-2.023184224633628e-05,0.1770881311246287,6.32062589422604e-06,0.1770881311246287,4.457844690137943e-06
0.1778822483045598,-7.038473937376034e-06,0.1778822483045598,-1.8967e-05,0.1778822483045598,6.168447153381495e-06,0.1778822483045598,-8.789675681405675e-06
0.1786763654844909,-8.776952459843746e-06,0.1786763654844909,-1.96384e-05,0.1786763654844909,9.635222307921292e-06,0.1786763654844909,-2.2238027250853605e-05
0.1794704826644219,-5.322611657927874e-06,0.1794704826644219,-1.9312871927162057e-05,0.1794704826644219,8.669888931647936e-06,0.1794704826644219,-3.513604270443857e-05
0.180264599844353,-6.368328445276006e-06,0.180264599844353,-1.9085497370902935e-05,0.180264599844353,3.189423811432958e-06,0.180264599844353,-4.7935259116932034e-05
0.181058717024284,-5.617815606368974e-06,0.181058717024284,-1.9164911903645523e-05,0.181058717024284,-1.362916474668845e-06,0.181058717024284,-5.4057727613800734e-05
0.1818528342042151,-7.079151547140033e-06,0.1818528342042151,-1.7703004898564606e-05,0.1818528342042151,-3.7221650775872543e-06,0.1818528342042151,-5.65652e-05
0.1826469513841462,-8.007272321844931e-06,0.1826469513841462,-2.001395132420652e-05,0.1826469513841462,-7.137928083388437e-06,0.1826469513841462,-5.044609003136e-05
0.1834410685640773,-7.840056189857556e-06,0.1834410685640773,-2.2521535065233646e-05,0.1834410685640773,-7.119811797595453e-06,0.1834410685640773,-3.812483188952254e-05
0.1842351857440083,-7.69114065193474e-06,0.1842351857440083,-2.327161262863895e-05,0.1842351857440083,-4.512664727350975e-06,0.1842351857440083,-3.152675209102646e-05
0.1850293029239394,-1.02388e-05,0.1850293029239394,-2.206681459048174e-05,0.1850293029239394,-5.084865144749848e-06,0.1850293029239394,-2.972903437095933e-05
0.1858234201038705,-8.105863146914961e-06,0.1858234201038705,-2.09812e-05,0.1858234201038705,-4.570760214279769e-06,0.1858234201038705,-2.617193146914962e-05
0.1866175372838016,-8.442355469126326e-06,0.1866175372838016,-2.3538201110062598e-05,0.1866175372838016,-8.227597868405954e-06,0.1866175372838016,-1.3976873622067669e-05
0.1874116544637326,-8.105772414289103e-06,0.1874116544637326,-2.2096251760328347e-05,0.1874116544637326,-1.4198109859055296e-05,0.1874116544637326,-8.500888264623436e-06
0.1882057716436637,-6.921299091755382e-06,0.1882057716436637,-2.2461282745991087e-05,0.1882057716436637,-1.0376940130435423e-05,0.1882057716436637,-9.063914338662432e-06
0.1889998888235948,-3.5254707172575598e-06,0.1889998888235948,-2.2659671911212376e-05,0.1889998888235948,3.858207403221769e-06,0.1889998888235948,-1.594453870757528e-05
0.1897940060035258,-5.63449657031167e-07,0.1897940060035258,-2.183047960574881e-05,0.1897940060035258,1.7996083457360636e-05,0.1897940060035258,-1.82956e-05
0.1905881231834569,-1.8648330396397083e-06,0.1905881231834569,-2.323139215461186e-05,0.1905881231834569,2.0884471136576467e-05,0.1905881231834569,-1.748622139207206e-05
0.191382240363388,-4.274546085975744e-06,0.191382240363388,-2.43381e-05,0.191382240363388,1.4351229355181926e-05,0.191382240363388,-2.1389491152175284e-05
0.192176357543319,-5.419961018421505e-06,0.192176357543319,-2.287647875745711e-05,0.192176357543319,6.036807550719632e-06,0.192176357543319,-3.199467916579355e-05
0.1929704747232501,-3.5747857696662325e-06,0.1929704747232501,-2.19883e-05,0.1929704747232501,4.647177957975305e-07,0.1929704747232501,-3.705587197772466e-05
0.1937645919031812,-3.52483e-06,0.1937645919031812,-2.2876812902127443e-05,0.1937645919031812,4.245997332488591e-07,0.1937645919031812,-2.544542894628053e-05
0.1945587090831123,-4.788820874845536e-06,0.1945587090831123,-2.2087231599437528e-05,0.1945587090831123,-2.360122395282654e-06,0.1945587090831123,-2.357835747804736e-06
0.1953528262630433,-8.836401445177812e-06,0.1953528262630433,-2.4574499286148337e-05,0.1953528262630433,-2.8931735467541245e-06,0.1953528262630433,9.014185714520844e-06
0.1961469434429744,-1.0318420581509364e-05,0.1961469434429744,-2.457494616296813e-05,0.1961469434429744,1.8850795329872932e-06,0.1961469434429744,1.466100929948094e-05
0.1969410606229055,-7.514147952217735e-06,0.1969410606229055,-2.3034562782061272e-05,0.1969410606229055,3.0523881819314004e-06,0.1969410606229055,1.5750339761088675e-05
0.1977351778028366,-8.677911538857684e-06,0.1977351778028366,-2.1495059831490484e-05,0.1977351778028366,-1.983184871342157e-06,0.1977351778028366,8.483345727382298e-06
0.1985292949827676,-1.09102e-05,0.1985292949827676,-2.1089738153933696e-05,0.1985292949827676,-3.564326330664026e-06,0.1985292949827676,-7.99764260813452e-07
0.1993234121626987,-8.93486881766486e-06,0.1993234121626987,-2.1277140313496075e-05,0.1993234121626987,-2.912808590167297e-06,0.1993234121626987,-8.41405217791639e-06
0.2001175293426297,-7.55322e-06,0.2001175293426297,-2.09812e-05,0.2001175293426297,-2.892764300385336e-06,0.2001175293426297,-1.8496545985040677e-05
0.2009116465225608,-8.89601e-06,0.2009116465225608,-2.16133334783186e-05,0.2009116465225608,-4.441374961122886e-07,0.2009116465225608,-2.2283872905992517e-05
0.2017057637024919,-7.829674662216878e-06,0.2017057637024919,-2.250192856468874e-05,0.2017057637024919,1.1354479445105754e-06,0.2017057637024919,-7.434765718080204e-06
0.202499880882423,-5.203759050776523e-06,0.202499880882423,-2.131713112023133e-05,0.202499880882423,3.188796757333845e-06,0.202499880882423,1.5942267583563133e-05
0.203293998062354,-5.775816386132553e-06,0.203293998062354,-2.0625451061532712e-05,0.203293998062354,3.3869501740131246e-06,0.203293998062354,2.5896747518834583e-05
0.2040881152422851,-4.5916842501714935e-06,0.2040881152422851,-1.8334558330771208e-05,0.2040881152422851,4.136475749828507e-06,0.2040881152422851,2.274222085125256e-05
0.2048822324222162,-4.294110774935358e-06,0.2048822324222162,-1.9756722729387115e-05,0.2048822324222162,3.469008999578139e-06,0.2048822324222162,1.3226759586754074e-05
0.2056763496021472,-5.725871244862851e-06,0.2056763496021472,-1.8472876450455037e-05,0.2056763496021472,-6.010862181668738e-07,0.2056763496021472,4.851168779276306e-06
0.2064704667820783,-4.690078715142261e-06,0.2064704667820783,-1.7939460686379797e-05,0.2064704667820783,5.42350321545544e-07,0.2064704667820783,1.7299256885792796e-06
0.2072645839620094,-3.959404007939784e-06,0.2072645839620094,-1.8177123175157752e-05,0.2072645839620094,2.9818186093921026e-06,0.2072645839620094,-8.144899796278382e-06
0.2080587011419405,-1.609180071511528e-06,0.2080587011419405,-1.715073241019452e-05,0.2080587011419405,9.574937335705038e-07,0.2080587011419405,-1.6676887799767723e-05
0.2088528183218715,-4.235219159122282e-06,0.2088528183218715,-1.943976775320556e-05,0.2088528183218715,-2.142270643018814e-06,0.2088528183218715,-2.5601357049091096e-05
0.2096469355018026,-7.286371711635028e-06,0.2096469355018026,-2.1494692284990917e-05,0.2096469355018026,-4.19623e-06,0.2096469355018026,-3.328141369308022e-05
0.2104410526817337,-7.927970581754887e-06,0.2104410526817337,-2.228469240481894e-05,0.2104410526817337,-3.52483e-06,0.2104410526817337,-4.084599087263233e-05
0.2112351698616647,-8.303730123259957e-06,0.2112351698616647,-2.410050942243442e-05,0.2112351698616647,-3.011677889649991e-06,0.2112351698616647,-4.17945e-05
0.2120292870415958,-6.249939213337992e-06,0.2120292870415958,-2.319248450972081e-05,0.2120292870415958,-1.51064e-06,0.2120292870415958,-3.8082129403528073e-05
0.2128234042215269,-5.005798565271903e-06,0.2128234042215269,-2.2915770373717665e-05,0.2128234042215269,-2.6609758317378734e-07,0.2128234042215269,-2.832554556652568e-05
0.2136175214014579,-4.274890066798089e-06,0.2136175214014579,-2.43381e-05,0.2136175214014579,5.428777990824919e-07,0.2136175214014579,-2.0860408751758982e-05
0.214411638581389,-5.657821721942866e-06,0.214411638581389,-2.3073853589423425e-05,0.214411638581389,2.27248037911568e-07,0.214411638581389,-1.454350119667823e-05
0.2152057557613201,-8.027155267542565e-06,0.2152057557613201,-2.2008614368835845e-05,0.2152057557613201,1.0762129278696936e-06,0.2152057557613201,-1.794008836720775e-05
0.2159998729412512,-5.539579185539153e-06,0.2159998729412512,-2.1820358920119365e-05,0.2159998729412512,5.036395308323062e-07,0.2159998729412512,-2.232335083900009e-05
0.2167939901211822,-3.485873933029131e-06,0.2167939901211822,-2.03098e-05,0.2167939901211822,2.4967557157537496e-06,0.2167939901211822,-2.43381e-05
0.2175881073011133,-5.141330880121078e-06,0.2175881073011133,-2.1633125971129582e-05,0.2175881073011133,6.169095883469241e-06,0.2175881073011133,-2.2512435552520324e-05
0.2183822244810444,-9.785661435236508e-06,0.2183822244810444,-2.0823306730364985e-05,0.2183822244810444,7.435780269118636e-06,0.2183822244810444,-2.2105728069702647e-05
0.2191763416609755,-7.791401955061641e-06,0.2191763416609755,-2.106040152149797e-05,0.2191763416609755,5.441511955061641e-06,0.2191763416609755,-2.1890765991004748e-05
0.2199704588409065,-9.783732531916804e-06,0.2199704588409065,-2.16526e-05,0.2199704588409065,2.903425814303137e-06,0.2199704588409065,-1.9460854435853376e-05
0.2207645760208376,-9.577385878990589e-06,0.2207645760208376,-1.96384e-05,0.2207645760208376,7.013209289552211e-07,0.2207645760208376,-2.5442348875645893e-05
0.2215586932007686,-9.537839379025948e-06,0.2215586932007686,-2.0703643748233032e-05,0.2215586932007686,-8.39246e-07,0.2215586932007686,-4.319757383320295e-05
0.2223528103806997,-9.587309405808755e-06,0.2223528103806997,-2.4416889489019086e-05,0.2223528103806997,2.043602750975583e-06,0.2223528103806997,-4.85084e-05
0.2231469275606308,-7.099174877196181e-06,0.2231469275606308,-2.3903576982059107e-05,0.2231469275606308,1.6096497543923629e-06,0.2231469275606308,-4.3731293779593024e-05
0.2239410447405619,-7.533695442136284e-06,0.2239410447405619,-2.108000215270506e-05,0.2239410447405619,3.325811323438685e-06,0.2239410447405619,-3.575568251631684e-05
0.2247351619204929,-6.96094584397104e-06,0.2247351619204929,-2.2836493552613065e-05,0.2247351619204929,7.078467293214092e-06,0.2247351619204929,-2.5249216879420806e-05
0.225529279100424,-7.474237173806488e-06,0.225529279100424,-2.227410213653631e-05,0.225529279100424,5.282399486463898e-06,0.225529279100424,-7.879471540427412e-06
0.2263233962803551,-7.1192468268198345e-06,0.2263233962803551,-1.9757709819335333e-05,0.2263233962803551,1.4901990525060388e-06,0.2263233962803551,1.8438682565688525e-05
0.2271175134602862,-7.63189036107196e-06,0.2271175134602862,-1.96384e-05,0.2271175134602862,-1.7978443393080589e-06,0.2271175134602862,3.893592700761748e-05
0.2279116306402172,-5.53903e-06,0.2279116306402172,-2.0270512932257907e-05,0.2279116306402172,-3.32729221588274e-06,0.2279116306402172,4.120058547235584e-05
0.2287057478201483,-8.93543412957564e-06,0.2287057478201483,-1.932307767543817e-05,0.2287057478201483,3.454271273463692e-07,0.2287057478201483,1.85527926821278e-05
0.2294998650000794,-9.735405875236095e-06,0.2294998650000794,-1.8631387320757893e-05,0.2294998650000794,6.209544736995449e-06,0.2294998650000794,1.848090528906096e-06
0.2302939821800104,-7.514271131899495e-06,0.2302939821800104,-2.0863420981016496e-05,0.2302939821800104,2.026257599485467e-06,0.2302939821800104,8.83293029022439e-06
0.2310880993599415,-6.348381408886828e-06,0.2310880993599415,-2.09812e-05,0.2310880993599415,-2.874028302508804e-07,0.2310880993599415,1.981317549775511e-05
0.2318822165398726,-7.334941365893144e-06,0.2318822165398726,-2.1079880800367297e-05,0.2318822165398726,1.7567716878934924e-06,0.2318822165398726,2.2206489127630702e-05
0.2326763337198036,-8.776906694154915e-06,0.2326763337198036,-2.019101309766483e-05,0.2326763337198036,1.9356674793838137e-06,0.2326763337198036,1.952189461376908e-05
0.2334704508997347,-6.823676228032728e-06,0.2334704508997347,-2.0170606489718352e-05,0.2334704508997347,7.0174772308056096e-06,0.2334704508997347,1.571002109595128e-05
0.2342645680796658,-6.467188660206393e-06,0.2342645680796658,-2.226468950378448e-05,0.2342645680796658,1.2331931339793609e-05,0.2342645680796658,1.643876731160115e-05
0.2350586852595969,-5.104497593740256e-06,0.2350586852595969,-2.1751576458371782e-05,0.2350586852595969,1.2904680519670275e-05,0.2350586852595969,1.866087628342572e-05
0.2358528024395279,-6.526199864190562e-06,0.2358528024395279,-2.216635476367027e-05,0.2358528024395279,9.31138701210742e-06,0.2358528024395279,1.4339005787406955e-06
0.236646919619459,-5.292685660887766e-06,0.236646919619459,-2.16526e-05,0.236646919619459,2.715782440839611e-06,0.236646919619459,-2.121298278091244e-05
0.2374410367993901,-4.284064130388572e-06,0.2374410367993901,-2.084309405213561e-05,0.2374410367993901,1.0187905640728838e-06,0.2374410367993901,-3.561138824850026e-05
0.2382351539793211,-7.631125622094663e-06,0.2382351539793211,-2.214569394446325e-05,0.2382351539793211,-5.102582808871471e-06,0.2382351539793211,-3.710546695648766e-05
0.2390292711592522,-7.592774978686001e-06,0.2390292711592522,-2.2086848113283184e-05,0.2390292711592522,-8.402350068324079e-06,0.2390292711592522,-2.460518184475014e-05
0.2398233883391833,-4.768398573847066e-06,0.2398233883391833,-2.283621158273357e-05,0.2398233883391833,-6.605471428033985e-06,0.2398233883391833,-1.0947273887222654e-05
0.2406175055191144,-2.339404825781446e-06,0.2406175055191144,-2.2600099625305212e-05,0.2406175055191144,-7.178178500573558e-06,0.2406175055191144,-7.186277653139731e-07
0.2414116226990454,-3.298180697258348e-06,0.2414116226990454,-2.36274026592276e-05,0.2414116226990454,-3.484870334924923e-06,0.2414116226990454,-3.209691812626888e-06
0.2422057398789765,-5.933896542130954e-06,0.2422057398789765,-2.3656556025765746e-05,0.2422057398789765,-1.7080747413867565e-06,0.2422057398789765,-9.369667619758116e-06
0.2429998570589076,-6.54622297279983e-06,0.2429998570589076,-2.198880850123104e-05,0.2429998570589076,-2.853234054400339e-06,0.2429998570589076,-1.7622758380802373e-05
0.2437939742388386,-4.729777518373592e-06,0.2437939742388386,-1.8690178841554137e-05,0.2437939742388386,-5.044411204066019e-06,0.2437939742388386,-9.828460567715184e-06
0.2445880914187697,-5.065374324126872e-06,0.2445880914187697,-1.999356375584009e-05,0.2445880914187697,-4.8492516206343605e-06,0.2445880914187697,-4.9043826492384026e-06
0.2453822085987008,-4.86763e-06,0.2453822085987008,-1.9914969454397465e-05,0.2453822085987008,-2.775169778133929e-06,0.2453822085987008,-1.4098441670227902e-05
0.2461763257786318,-3.763059494534586e-06,0.2461763257786318,-1.993450949252553e-05,0.2461763257786318,-6.63262135685118e-07,0.2461763257786318,-3.0727293538257895e-05
0.2469704429585629,-2.942207061362219e-06,0.2469704429585629,-1.96384e-05,0.2469704429585629,5.122631816044439e-06,0.2469704429585629,-3.5249933514464745e-05
0.247764560138494,-4.354081238164997e-06,0.247764560138494,-2.0823169008626823e-05,0.247764560138494,9.468484506171562e-06,0.247764560138494,-2.4635957414614376e-05
0.2485586773184251,-5.183604786656569e-06,0.2485586773184251,-2.283612156008596e-05,0.2485586773184251,8.658935479132605e-06,0.2485586773184251,-1.2588328626838326e-05
0.2493527944983561,-4.650475778283521e-06,0.2493527944983561,-2.4022983136045028e-05,0.2493527944983561,3.3674942515341e-06,0.2493527944983561,-1.375314221716479e-05
0.2501469116782872,-5.695962072452393e-06,0.2501469116782872,-2.350876146589988e-05,0.2501469116782872,-1.2932736567763888e-06,0.2501469116782872,-2.172008577124044e-05
0.2509410288582183,-8.90576654591814e-06,0.2509410288582183,-2.4041724301708395e-05,0.2509410288582183,-8.880283808312359e-07,0.2509410288582183,-2.3627673816327444e-05
0.2517351460381494,-8.67901592808985e-06,0.2517351460381494,-2.3607286946063095e-05,0.2517351460381494,-2.319896786516918e-06,0.2517351460381494,-2.350842542921353e-05
0.2525292632180804,-7.592797861359963e-06,0.2525292632180804,-2.319254614790288e-05,0.2525292632180804,-1.7279717683074269e-06,0.2525292632180804,-2.6628625265788964e-05
0.2533233803980115,-6.349483890763325e-06,0.2533233803980115,-2.173214853618249e-05,0.2533233803980115,3.1705392449122583e-06,0.2533233803980115,-2.9512665658583025e-05
0.2541174975779426,-1.0042065009894349e-05,0.2541174975779426,-2.003361064772513e-05,0.2541174975779426,7.988527777454199e-06,0.2541174975779426,-3.424245438473421e-05
0.2549116147578736,-1.0613931117012072e-05,0.2549116147578736,-2.027049238619725e-05,0.2549116147578736,1.0021832926290684e-05,0.2549116147578736,-3.792475422881732e-05
0.2557057319378047,-7.533631476714092e-06,0.2557057319378047,-1.985724555374724e-05,0.2557057319378047,3.584785571968809e-06,0.2557057319378047,-4.781685059471499e-05
0.2564998491177358,-4.867956077294926e-06,0.2564998491177358,-2.06450120310589e-05,0.2564998491177358,-1.2921356591407844e-05,0.2564998491177358,-5.387905653244543e-05
0.2572939662976669,-4.86763e-06,0.2572939662976669,-2.350885392317297e-05,0.2572939662976669,-1.7841479480906958e-05,0.2572939662976669,-4.209617579290784e-05
0.2580880834775979,-5.51830069068587e-06,0.2580880834775979,-2.224607131913155e-05,0.2580880834775979,-1.3933846032305428e-05,0.2580880834775979,-3.219714994285941e-05
0.258882200657529,-7.030105311040326e-06,0.258882200657529,-2.058637972742775e-05,0.258882200657529,-8.129889174098234e-06,0.258882200657529,-4.068026403608965e-05
0.2596763178374601,-6.053409283034241e-06,0.2596763178374601,-2.1139529731457083e-05,0.2596763178374601,-3.210816791773148e-06,0.2596763178374601,-5.0676915543558746e-05
0.2604704350173911,-6.141012603019988e-06,0.2604704350173911,-2.362569809639546e-05,0.2604704350173911,-9.780590246041003e-07,0.2604704350173911,-4.28469008226512e-05
0.2612645521973222,-7.296439898371364e-06,0.2612645521973222,-2.50095e-05,0.2612645521973222,-1.51064e-06,0.2612645521973222,-2.0638355870487373e-05
0.2620586693772533,-5.6574150903873885e-06,0.2620586693772533,-2.4062646846585105e-05,0.2620586693772533,3.851630271636775e-07,0.2620586693772533,-7.079128288060536e-06
0.2628527865571843,-5.75617202017466e-06,0.2628527865571843,-2.216637530667078e-05,0.2628527865571843,2.043533954811082e-06,0.2628527865571843,-1.900449299839646e-05
0.2636469037371154,-5.53903e-06,0.2636469037371154,-2.216597471816106e-05,0.2636469037371154,5.43998232271377e-06,0.2636469037371154,-2.8227593280989724e-05
0.2644410209170465,-6.959848854195531e-06,0.2644410209170465,-2.309408677279329e-05,0.2644410209170465,7.57272677772764e-06,0.2644410209170465,-2.34992893815768e-05
0.2652351380969776,-7.968053006104349e-06,0.2652351380969776,-2.194967325247169e-05,0.2652351380969776,7.88891e-06,0.2652351380969776,6.003357197046138e-06
0.2660292552769086,-9.17229623647336e-06,0.2660292552769086,-1.9282800020472726e-05,0.2660292552769086,8.991288393114033e-07,0.2660292552769086,2.777383641228333e-05
0.2668233724568397,-1.002098301642614e-05,0.2668233724568397,-2.011087340154907e-05,0.2668233724568397,-5.676363655792367e-06,0.2668233724568397,2.674654126216505e-05
0.2676174896367708,-7.039230689549619e-06,0.2676174896367708,-2.050741046037773e-05,0.2676174896367708,2.441436000908151e-06,0.2676174896367708,2.6748229241822884e-05
0.2684116068167018,-7.869446464012694e-06,0.2684116068167018,-2.1573964226333745e-05,0.2684116068167018,2.0973286720533065e-05,0.2684116068167018,4.153946171761196e-05
0.2692057239966329,-1.1403729523329906e-05,0.2692057239966329,-2.068631698905833e-05,0.2692057239966329,3.5297453141993835e-05,0.2692057239966329,5.859844171198356e-05
0.269999841176564,-1.292428558577796e-05,0.269999841176564,-2.114864045923897e-05,0.269999841176564,3.541688648533223e-05,0.269999841176564,6.898439823497375e-05
0.270793958356495,-7.772231132663552e-06,0.270793958356495,-2.10301027574534e-05,0.270793958356495,2.558536360342718e-05,0.270793958356495,6.148738638424799e-05
0.2715880755364261,-6.88182e-06,0.2715880755364261,-1.946077615604565e-05,0.2715880755364261,1.8022106342376428e-05,0.2715880755364261,3.9693484277992505e-05
0.2723821927163572,-5.2424536449056216e-06,0.2723821927163572,-1.9894914999312808e-05,0.2723821927163572,1.1252200367473966e-05,0.2723821927163572,1.8643897238643647e-05
0.2731763098962882,-5.815152959409907e-06,0.2731763098962882,-2.09812e-05,0.2731763098962882,2.620731046794402e-06,0.2731763098962882,1.104802553751493e-06
0.2739704270762193,-5.53903e-06,0.2739704270762193,-2.1415122425768105e-05,0.2739704270762193,-2.3982534065110054e-06,0.2739704270762193,-5.971451524887327e-06
0.2747645442561504,-2.85344e-06,0.2747645442561504,-2.074434908061888e-05,0.2747645442561504,-5.341112715226753e-06,0.2747645442561504,-1.5785971421341745e-05
0.2755586614360815,-3.8013205498135623e-06,0.2755586614360815,-1.96384e-05,0.2755586614360815,-7.829700549813562e-06,0.2755586614360815,-2.750773977132474e-05
0.2763527786160125,-4.067686889222605e-06,0.2763527786160125,-2.08818068288752e-05,0.2763527786160125,-8.007467244310959e-06,0.2763527786160125,-3.1357874742387355e-05
0.2771468957959436,-5.20333e-06,0.2771468957959436,-2.1909320459919627e-05,0.2771468957959436,-8.045771810602312e-06,0.2771468957959436,-3.37377e-05
0.2779410129758747,-6.288426503235608e-06,0.2779410129758747,-2.208705222058376e-05,0.2779410129758747,-1.1462456969143316e-05,0.2779410129758747,-3.37377e-05
0.2787351301558057,-7.0401174536309415e-06,0.2787351301558057,-2.1771428952615783e-05,0.2787351301558057,-1.1483346180446414e-05,0.2787351301558057,-3.348114872681548e-05
0.2795292473357368,-8.273864988520718e-06,0.2795292473357368,-2.039846898890701e-05,0.2795292473357368,-9.291148087622732e-06,0.2795292473357368,-3.55345138477131e-05
0.2803233645156679,-6.525816172074813e-06,0.2803233645156679,-1.96384e-05,0.2803233645156679,-6.002751836826507e-06,0.2803233645156679,-3.800343706360271e-05
0.2811174816955989,-3.089591018368748e-06,0.2811174816955989,-2.0457374844237475e-05,0.2811174816955989,-4.294626746168918e-06,0.2811174816955989,-3.881255869846756e-05
0.2819115988755301,-3.2484755893379405e-06,0.2819115988755301,-2.1939136871353326e-05,0.2819115988755301,-2.9916192634076367e-06,0.2819115988755301,-3.723287926340764e-05
0.2827057160554611,-4.432928347261672e-06,0.2827057160554611,-2.2135681232440484e-05,0.2827057160554611,-5.02542791813104e-06,0.2827057160554611,-3.515969897008648e-05
0.2834998332353922,-9.566208654247415e-06,0.2834998332353922,-2.1820615733637126e-05,0.2834998332353922,-5.539270266287605e-06,0.2834998332353922,-3.37377e-05
0.2842939504153233,-8.818252802064427e-06,0.2842939504153233,-2.09812e-05,0.2842939504153233,-1.3145111653692397e-06,0.2842939504153233,-3.069870958227887e-05
0.2850880675952543,-6.37827e-06,0.2850880675952543,-2.139468759180739e-05,0.2850880675952543,-1.67849e-07,0.2850880675952543,-2.9097723046336e-05
0.2858821847751854,-7.55322e-06,0.2858821847751854,-2.3350528922625857e-05,0.2858821847751854,-1.893637350141426e-06,0.2858821847751854,-2.771785670486486e-05
0.2866763019551165,-7.000969071533843e-06,0.2866763019551165,-2.481162436218644e-05,0.2866763019551165,-3.52483e-06,0.2866763019551165,-2.28600708219023e-05
0.2874704191350475,-6.723636960591136e-06,0.2874704191350475,-2.224628424611981e-05,0.2874704191350475,-1.3137922910051552e-06,0.2874704191350475,-2.214643591905158e-05
0.2882645363149786,-8.382426913898373e-06,0.2882645363149786,-2.1139277220009727e-05,0.2882645363149786,-1.0365157320341471e-06,0.2882645363149786,-2.040877462915244e-05
0.2890586534949096,-8.264094824769152e-06,0.2890586534949096,-1.9599690894762485e-05,0.2890586534949096,-2.566893264433979e-07,0.2890586534949096,-1.96384e-05
0.2898527706748408,-7.661788511337684e-06,0.2898527706748408,-1.9124527612886488e-05,0.2898527706748408,1.84634e-06,0.2898527706748408,-1.9875525954649264e-05
0.2906468878547718,-7.118452915470567e-06,0.2906468878547718,-1.976671942587806e-05,0.2906468878547718,1.609707084529433e-06,0.2906468878547718,-1.7732859393482334e-05
0.2914410050347029,-7.455740536024133e-06,0.2914410050347029,-2.0171653039037533e-05,0.2914410050347029,1.0071e-06,0.2914410050347029,-1.7191020536024133e-05
0.292235122214634,-5.105090984687276e-06,0.292235122214634,-2.036922846348241e-05,0.292235122214634,1.1353651341291125e-06,0.292235122214634,-1.458381779010622e-05
0.293029239394565,-5.657310539449534e-06,0.293029239394565,-2.074415389304244e-05,0.293029239394565,3.4653575882810487e-06,0.293029239394565,-1.3911674097663027e-05
0.2938233565744961,-7.98729758655012e-06,0.2938233565744961,-1.971799114592947e-05,0.2938233565744961,3.5045604961709483e-06,0.2938233565744961,-1.4879271454810411e-05
0.2946174737544272,-5.696486553317589e-06,0.2946174737544272,-2.220487593462315e-05,0.2946174737544272,-2.2799838676013107e-07,0.2946174737544272,-1.6084577842593724e-05
0.2954115909343582,-6.190899134217166e-06,0.2954115909343582,-2.3311330783553127e-05,0.2954115909343582,1.945478736899304e-06,0.2954115909343582,-2.1475306202604905e-05
0.2962057081142893,-6.684431122722951e-06,0.2962057081142893,-2.303615808117979e-05,0.2962057081142893,3.959224438638525e-06,0.2962057081142893,-2.354857389048628e-05
0.2969998252942204,-6.21042e-06,0.2969998252942204,-2.299507399333256e-05,0.2969998252942204,4.19623e-06,0.2969998252942204,-2.0645877566932615e-05
0.2977939424741515,-7.355326617516768e-06,0.2977939424741515,-2.29953e-05,0.2977939424741515,1.5707267649664628e-06,0.2977939424741515,-2.185046390774649e-05
0.2985880596540825,-6.527860389718395e-06,0.2985880596540825,-2.34087728391176e-05,0.2985880596540825,1.105977736900628e-06,0.2985880596540825,-1.6874701768545176e-05
0.2993821768340136,-4.148964181262861e-06,0.2993821768340136,-2.4871194726740625e-05,0.2993821768340136,9.288754092248708e-07,0.2993821768340136,-2.4051328829712592e-05
0.3001762940139447,-3.0699794870439225e-06,0.3001762940139447,-2.3172731783608632e-05,0.3001762940139447,-7.687793290491591e-07,0.3001762940139447,-3.537263692226354e-05
0.3009704111938757,-6.37827e-06,0.3009704111938757,-2.1120496240585022e-05,0.3009704111938757,-1.2558446576531372e-06,0.3009704111938757,-3.71719899190401e-05
0.3017645283738068,-3.367026877918144e-06,0.3017645283738068,-2.1524099781089745e-05,0.3017645283738068,2.1619509449522884e-06,0.3017645283738068,-3.993955895642892e-05
0.3025586455537379,-5.065093570479825e-06,0.3025586455537379,-2.3556905333608638e-05,0.3025586455537379,3.18914e-06,0.3025586455537379,-2.8820707344160036e-05
0.3033527627336689,-5.657595178354113e-06,0.3033527627336689,-2.2522771441459198e-05,0.3033527627336689,3.623396111307553e-06,0.3033527627336689,-2.10811953352328e-05
0.3041468799136,-5.695801548751669e-06,0.3041468799136,-2.1237910186889247e-05,0.3041468799136,7.815505261044389e-07,0.3041468799136,-4.380991432211546e-06
0.3049409970935311,-8.798559781675231e-06,0.3049409970935311,-2.1356285821355424e-05,0.3049409970935311,-2.2794902183247683e-06,0.3049409970935311,1.878284818871056e-05
0.3057351142734621,-6.704440336475297e-06,0.3057351142734621,-2.09217664000024e-05,0.3057351142734621,-4.630149495287055e-06,0.3057351142734621,3.181879663524703e-05
0.3065292314533932,-6.88182e-06,0.3065292314533932,-1.9954246249109224e-05,0.3065292314533932,-5.440605407694893e-06,0.3065292314533932,4.157664940693714e-05
0.3073233486333243,-5.835642355254457e-06,0.3073233486333243,-2.107809580238815e-05,0.3073233486333243,1.0967730639365256e-06,0.3073233486333243,4.703753872136503e-05
0.3081174658132554,-9.884470865101564e-06,0.3081174658132554,-2.287619652030698e-05,0.3081174658132554,5.045849342020065e-06,0.3081174658132554,4.756036111063352e-05
0.3089115829931864,-1.1650674782243696e-05,0.3089115829931864,-2.4298751294075875e-05,0.3089115829931864,7.336151198754395e-06,0.3089115829931864,3.677759666529651e-05
0.3097057001731175,-9.69601505885185e-06,0.3097057001731175,-2.1337339313620203e-05,0.3097057001731175,7.494158117289165e-06,0.3097057001731175,2.015277787413942e-05
0.3104998173530486,-6.8824120896795225e-06,0.3104998173530486,-2.1652363720302183e-05,0.3104998173530486,5.874983152710661e-06,0.3104998173530486,9.905073645329953e-06
0.3112939345329796,-7.079724848510688e-06,0.3112939345329796,-2.1276966491550868e-05,0.3112939345329796,5.401231900866236e-06,0.3112939345329796,1.025637870509101e-05
0.3120880517129107,-4.040072043811233e-06,0.3120880517129107,-1.9796483858523264e-05,0.3120880517129107,5.005557010804626e-06,0.3120880517129107,1.4368656902758369e-05
0.3128821688928418,-3.009864618535636e-06,0.3128821688928418,-1.9243620819549128e-05,0.3128821688928418,8.025782560525806e-06,0.3128821688928418,-5.278023334685996e-06
0.3136762860727728,-4.472344022810838e-06,0.3136762860727728,-1.8967e-05,0.3136762860727728,8.09746092016207e-06,0.3136762860727728,-3.857685723178522e-05
0.314470403252704,-6.2876688657279765e-06,0.314470403252704,-1.8967e-05,0.314470403252704,3.843072623973152e-06,0.314470403252704,-5.0640342878974e-05
0.315264520432635,-9.923214288115924e-06,0.315264520432635,-1.9085394640599565e-05,0.315264520432635,-1.8850107895190176e-06,0.315264520432635,-5.285238806210796e-05
0.3160586376125661,-7.316288803621326e-06,0.3160586376125661,-1.987509278180469e-05,0.3160586376125661,-8.619456879109537e-06,0.3160586376125661,-6.114636079652508e-05
0.3168527547924971,-6.003306108380158e-06,0.3168527547924971,-1.9737839399761305e-05,0.3168527547924971,-1.4691407109042778e-05,0.3168527547924971,-8.641918091752367e-05
0.3176468719724282,-6.5653349751236e-06,0.3176468719724282,-1.87102949496259e-05,0.3176468719724282,-1.0892496119487972e-05,0.3176468719724282,-8.200747038143814e-05
0.3184409891523593,-7.514251146464411e-06,0.3184409891523593,-1.892759879873278e-05,0.3184409891523593,-7.037694833730475e-06,0.3184409891523593,-4.77769270768376e-05
0.3192351063322903,-5.086088864408194e-06,0.3192351063322903,-2.101970631743608e-05,0.3192351063322903,-1.0850072913489351e-05,0.3192351063322903,-9.617552679894576e-06
0.3200292235122214,-5.716367351202743e-06,0.3200292235122214,-2.117854887820625e-05,0.3200292235122214,-5.066111964915091e-06,0.3200292235122214,5.312060685843896e-06
0.3208233406921525,-6.2892943443489326e-06,0.3208233406921525,-1.986591466813843e-05,0.3208233406921525,8.720646682853444e-06,0.3208233406921525,-2.478623751869249e-06
0.3216174578720835,-6.763692307473864e-06,0.3216174578720835,-2.327143798712311e-05,0.3216174578720835,2.499283839426336e-05,0.3216174578720835,4.436509561552009e-06
0.3224115750520147,-5.677222345783194e-06,0.3224115750520147,-2.2560675282057737e-05,0.3224115750520147,2.917609646244874e-05,0.3224115750520147,3.0006996818910825e-05
0.3232056922319457,-6.940848950826699e-06,0.3232056922319457,-2.331055041334942e-05,0.3232056922319457,2.73594e-05,0.3232056922319457,4.909960837005639e-05
0.3239998094118768,-9.90227622169115e-06,0.3239998094118768,-2.316338489618506e-05,0.3239998094118768,2.6688274594132903e-05,0.3239998094118768,6.0926691355737374e-05
0.3247939265918079,-8.620442629076084e-06,0.3247939265918079,-2.23239e-05,0.3247939265918079,2.1112104069517588e-05,0.3247939265918079,6.286584894361413e-05
0.3255880437717389,-7.33722899730462e-06,0.3255880437717389,-2.3073031746996217e-05,0.3255880437717389,1.673681488883641e-05,0.3255880437717389,5.023378933301847e-05
0.32638216095167,-5.6954316866515e-06,0.32638216095167,-2.483159053321123e-05,0.32638216095167,1.2849543679818385e-05,0.32638216095167,4.11459942971937e-05
0.3271762781316011,-7.710136681446652e-06,0.3271762781316011,-2.4061193550699423e-05,0.3271762781316011,6.560022750705444e-06,0.3271762781316011,3.490768377060345e-05
0.3279703953115321,-5.7975268997904345e-06,0.3279703953115321,-2.1120537332706403e-05,0.3279703953115321,7.427494178559983e-07,0.3279703953115321,1.9547583592012383e-05
0.3287645124914632,-4.19623e-06,0.3287645124914632,-1.9105212724340022e-05,0.3287645124914632,-4.985140598105484e-06,0.3287645124914632,3.675472693948117e-07
0.3295586296713942,-3.248418245667827e-06,0.3295586296713942,-1.9913750620669656e-05,0.3295586296713942,-8.501031754332173e-06,0.3295586296713942,-1.1225928760165382e-05
0.3303527468513254,-4.501869206354118e-06,0.3303527468513254,-2.23239e-05,0.3303527468513254,-9.56741e-06,0.3303527468513254,-2.6586169679553725e-05
0.3311468640312564,-6.702811286901306e-06,0.3311468640312564,-2.23239e-05,0.3311468640312564,-1.02388e-05,0.3311468640312564,-4.9368729919047885e-05
0.3319409812111875,-8.79861711147076e-06,0.3319409812111875,-2.2126407140249724e-05,0.3319409812111875,-1.0968636081262204e-05,0.3319409812111875,-6.912235085627849e-05
0.3327350983911186,-6.4479348289795405e-06,0.3327350983911186,-2.110008774605582e-05,0.3327350983911186,-1.2430356780680306e-05,0.3327350983911186,-6.928367287727878e-05
0.3335292155710496,-6.704039886698203e-06,0.3335292155710496,-2.143540764393327e-05,0.3335292155710496,-1.3279960226603593e-05,0.3335292155710496,-5.8620586863387006e-05
0.3343233327509807,-6.091799000684709e-06,0.3343233327509807,-2.254017900045686e-05,0.3343233327509807,-1.0435710702347138e-05,0.3343233327509807,-4.079568504724796e-05
0.3351174499309118,-5.687180357858567e-06,0.3351174499309118,-2.015281685772147e-05,0.3351174499309118,-7.631982087925027e-06,0.3351174499309118,-2.9687691038020703e-05
0.3359115671108428,-4.275136586387412e-06,0.3359115671108428,-1.9599030748015187e-05,0.3359115671108428,-6.486824390924941e-06,0.3359115671108428,-3.055884758161254e-05
0.3367056842907739,-4.98564497733224e-06,0.3367056842907739,-1.999455985968089e-05,0.3367056842907739,-6.980497239597418e-06,0.3367056842907739,-4.039170411476645e-05
0.337499801470705,-8.224037933150134e-06,0.337499801470705,-2.030954317424149e-05,0.337499801470705,-6.546406035555076e-06,0.337499801470705,-4.5150684953715166e-05
0.338293918650636,-7.850108722862156e-06,0.338293918650636,-2.1494723104081937e-05,0.338293918650636,-4.157421670848163e-06,0.338293918650636,-4.771668887773823e-05
0.3390880358305671,-5.727719701577341e-06,0.3390880358305671,-2.0961772199766137e-05,0.3390880358305671,-4.0374688619429225e-06,0.3390880358305671,-5.316650881344018e-05
0.3398821530104982,-3.368451245232476e-06,0.3398821530104982,-2.123763795158528e-05,0.3398821530104982,-4.157135020162901e-06,0.3398821530104982,-5.500738343380031e-05
0.3406762701904293,-8.015336728024458e-07,0.3406762701904293,-2.226457395984396e-05,0.3406762701904293,-3.0322304805162107e-06,0.3406762701904293,-5.102918693478538e-05
0.3414703873703603,-3.6907343735643367e-06,0.3414703873703603,-2.127809348515148e-05,0.3414703873703603,-1.17494e-06,0.3414703873703603,-4.383184170662573e-05
0.3422645045502914,-6.052651201673432e-06,0.3422645045502914,-1.987514818907775e-05,0.3422645045502914,-2.103154425895189e-06,0.3422645045502914,-3.496304425895189e-05
0.3430586217302225,-4.90716068887874e-06,0.3430586217302225,-2.1927859609941807e-05,0.3430586217302225,-5.826089067334838e-07,0.3430586217302225,-2.8919618788833072e-05
0.3438527389101535,-5.18327227186156e-06,0.3438527389101535,-2.1909556739617447e-05,0.3438527389101535,2.0433963624820794e-06,0.3438527389101535,-2.50095e-05
0.3446468560900846,-7.828164681656714e-06,0.3446468560900846,-2.2422607866503287e-05,0.3446468560900846,3.7614170513609e-06,0.3446468560900846,-2.52077258972782e-05
0.3454409732700157,-1.0793362815628044e-05,0.3454409732700157,-2.16526e-05,0.3454409732700157,4.492984078519241e-06,0.3454409732700157,-1.9998232628153923e-05
0.3462350904499467,-7.356881623651789e-06,0.3462350904499467,-2.16526e-05,0.3462350904499467,3.090969632538877e-06,0.3462350904499467,-9.038593881384256e-06
0.3470292076298778,-5.943741248980648e-06,0.3470292076298778,-1.983578997032763e-05,0.3470292076298778,1.0170286564287369e-06,0.3470292076298778,6.149193892356079e-06
0.3478233248098089,-5.776250882753891e-06,0.3478233248098089,-1.9558767840972534e-05,0.3478233248098089,2.814266545099068e-06,0.3478233248098089,2.323370124298053e-05
0.34861744198974,-8.363374355610099e-06,0.34861744198974,-2.1889449923077737e-05,0.34861744198974,3.307300917317724e-06,0.34861744198974,2.992683790939173e-05
0.349411559169671,-7.90855552537389e-06,0.349411559169671,-2.325224681525498e-05,0.349411559169671,3.8497818519698257e-07,0.349411559169671,2.404167928476199e-05
0.3502056763496021,-5.144343973665077e-06,0.3502056763496021,-2.40228701327112e-05,0.3502056763496021,-4.048767873439028e-07,0.3502056763496021,2.206760035326097e-05
0.3509997935295332,-5.538435046045512e-06,0.3509997935295332,-2.4337832901211184e-05,0.3509997935295332,1.677671943186346e-06,0.3509997935295332,1.5612231077329328e-05
0.3517939107094642,-5.87472e-06,0.3517939107094642,-2.125704516390769e-05,0.3517939107094642,5.831196997156952e-07,0.3517939107094642,1.1069348116482249e-05
0.3525880278893953,-4.29512509411826e-06,0.3525880278893953,-2.0387490654874985e-05,0.3525880278893953,1.252972970414449e-06,0.3525880278893953,4.270620430282534e-06
0.3533821450693264,-5.617207329236719e-06,0.3533821450693264,-2.204728956654879e-05,0.3533821450693264,1.096762437881263e-06,0.3533821450693264,-4.1111663735309e-06
0.3541762622492574,-5.9343231393224615e-06,0.3541762622492574,-2.313326430931977e-05,0.3541762622492574,3.654995696612307e-07,0.3541762622492574,-1.3806142128361448e-05
0.3549703794291886,-5.656683962512513e-06,0.3549703794291886,-2.1218739212413865e-05,0.3549703794291886,-1.637940434393035e-06,0.3549703794291886,-1.961710075629271e-05
0.3557644966091196,-8.303489853393688e-06,0.3557644966091196,-2.1929118089245752e-05,0.3557644966091196,-2.301282906014304e-06,0.3557644966091196,-2.070604175927576e-05
0.3565586137890507,-9.508096767640704e-06,0.3565586137890507,-2.0942567794321235e-05,0.3565586137890507,2.02387208711614e-06,0.3565586137890507,-1.1937479394155772e-05
0.3573527309689818,-9.804589752118924e-06,0.3573527309689818,-2.1059938123867403e-05,0.3573527309689818,1.6493065695725138e-06,0.3573527309689818,-1.1382712181556664e-05
0.3581468481489128,-7.139212725666335e-06,0.3581468481489128,-2.26002717401451e-05,0.3581468481489128,1.5889472743336648e-06,0.3581468481489128,-2.072211827584008e-05
0.3589409653288439,-6.643455558733711e-06,0.3589409653288439,-2.328163926503845e-05,0.3589409653288439,3.938398910906605e-06,0.3589409653288439,-2.0866728097461283e-05
0.3597350825087749,-7.711583743419743e-06,0.3597350825087749,-2.1920134802012665e-05,0.3597350825087749,8.025001155585852e-06,0.3597350825087749,-1.4229264408656755e-05
0.360529199688706,-6.5168782548379e-06,0.360529199688706,-2.169214892682636e-05,0.360529199688706,1.355603378110406e-05,0.360529199688706,-1.6477918233864207e-05
0.3613233168686371,-4.344479854085217e-06,0.3613233168686371,-2.536233035079193e-05,0.3613233168686371,1.1027804408401515e-05,0.3613233168686371,-2.8999698715949903e-05
0.3621174340485681,-5.03548e-06,0.3621174340485681,-2.4457285663935777e-05,0.3621174340485681,3.029847908224985e-06,0.3621174340485681,-3.833987593795201e-05
0.3629115512284993,-5.321869471218332e-06,0.3629115512284993,-2.3824749617080985e-05,0.3629115512284993,3.2089363019632757e-06,0.3629115512284993,-4.297941803106068e-05
0.3637056684084303,-5.815759844825436e-06,0.3637056684084303,-2.50095e-05,0.3637056684084303,5.400658608034504e-06,0.3637056684084303,-4.078858184930948e-05
0.3644997855883614,-4.196538918399492e-06,0.3644997855883614,-2.40028160577288e-05,0.3644997855883614,5.203638913798384e-06,0.3644997855883614,-2.7699270398393136e-05
0.3652939027682925,-4.245717678155069e-06,0.3652939027682925,-2.17905144746232e-05,0.3652939027682925,4.512543034465207e-06,0.3652939027682925,-8.854680849769111e-06
0.3660880199482235,-2.556746118124663e-06,0.3660880199482235,-2.0251547418389332e-05,0.3660880199482235,3.980317792956774e-06,0.3660880199482235,4.448388886585106e-06
0.3668821371281546,-5.023962890999413e-06,0.3668821371281546,-1.9894807132494243e-05,0.3668821371281546,-3.2418200742334385e-07,0.3668821371281546,9.19262648619032e-06
0.3676762543080857,-7.314784559865847e-06,0.3676762543080857,-2.220527867645715e-05,0.3676762543080857,-4.062828420413905e-07,0.3676762543080857,7.515562524509066e-06
0.3684703714880167,-8.402092636324513e-06,0.3684703714880167,-2.1967611153049885e-05,0.3684703714880167,3.068007344973641e-07,0.3684703714880167,1.0786199810850388e-06
0.3692644886679478,-5.905027553446795e-06,0.3692644886679478,-2.1850503433961672e-05,0.3692644886679478,-6.521668728368698e-07,0.3692644886679478,-9.58524360581115e-07
0.3700586058478789,-4.837964784299824e-06,0.3700586058478789,-1.8455038623721597e-05,0.3700586058478789,3.3468397662177314e-06,0.3700586058478789,2.418856301139008e-06
0.3708527230278099,-7.138129186076e-06,0.3708527230278099,-1.876799792411343e-05,0.3708527230278099,5.7460800943209695e-06,0.3708527230278099,7.608326974799842e-07
0.371646840207741,-7.988049404139261e-06,0.371646840207741,-2.1079853512940208e-05,0.371646840207741,5.36160691052045e-06,0.371646840207741,-5.478182953778936e-06
0.3724409573876721,-6.288265978851691e-06,0.3724409573876721,-2.117869151939045e-05,0.3724409573876721,5.500107010574154e-06,0.3724409573876721,-3.155063339640769e-06
0.3732350745676032,-9.09227972815597e-06,0.3732350745676032,-2.16526e-05,0.3732350745676032,3.32857027184403e-06,0.3732350745676032,4.392499728155971e-06
0.3740291917475342,-8.264403805425921e-06,0.3740291917475342,-2.16526e-05,0.3740291917475342,7.012360596222762e-07,0.3740291917475342,-2.6147065748156115e-06
0.3748233089274653,-7.671806675559927e-06,0.3748233089274653,-2.194847366721172e-05,0.3748233089274653,-4.44253955705637e-07,0.3748233089274653,-1.4465147988306666e-05
0.3756174261073964,-8.22461e-06,0.3756174261073964,-2.1257296895001805e-05,0.3756174261073964,-7.60448692962618e-07,0.3756174261073964,-1.6508304112505755e-05
0.3764115432873274,-8.21476563108966e-06,0.3764115432873274,-2.196859996446209e-05,0.3764115432873274,-1.332943984150197e-06,0.3764115432873274,-1.50175581835108e-05
0.3772056604672585,-1.019908012166894e-05,0.3772056604672585,-2.0755011822498408e-05,0.3772056604672585,-3.2480772232904755e-06,0.3772056604672585,-1.1502764593283114e-05
0.3779997776471896,-9.903580539732487e-06,0.3779997776471896,-1.8632019112123763e-05,0.3779997776471896,-4.19623e-06,0.3779997776471896,-1.3258978740624192e-05
0.3787938948271206,-7.949141408797123e-06,0.3787938948271206,-1.914480769453644e-05,0.3787938948271206,-4.669667821352267e-06,0.3787938948271206,-1.8411870196085204e-05
0.3795880120070517,-6.201374135659841e-06,0.3795880120070517,-1.9580162827934908e-05,0.3795880120070517,-4.789634962791809e-06,0.3795880120070517,-2.883447022324914e-05
0.3803821291869828,-5.42179665761202e-06,0.3803821291869828,-1.8433936092350408e-05,0.3803821291869828,-3.0914455480100164e-06,0.3803821291869828,-3.3959711341188764e-05
0.3811762463669139,-4.53193e-06,0.3811762463669139,-1.8256060758898085e-05,0.3811762463669139,-2.4879327096276687e-06,0.3811762463669139,-2.268020667207769e-05
0.3819703635468449,-3.426469913351277e-06,0.3819703635468449,-1.817682012076271e-05,0.3819703635468449,-2.4984861687731807e-06,0.3819703635468449,-5.564568343399048e-06
0.382764480726776,-1.48132037969437e-06,0.382764480726776,-1.76242e-05,0.382764480726776,-3.6623481224571127e-06,0.382764480726776,2.675476823942977e-06
0.3835585979067071,-1.4710752666144469e-06,0.3835585979067071,-1.8570868594473663e-05,0.3835585979067071,-5.519247456519525e-06,0.3835585979067071,2.997578658319041e-08
0.3843527150866381,-3.2876273161677185e-06,0.3843527150866381,-2.110964780050504e-05,0.3843527150866381,-3.762036216841171e-06,0.3843527150866381,-8.815569764970753e-06
0.3851468322665692,-6.485233566565656e-06,0.3851468322665692,-1.9954482528806864e-05,0.3851468322665692,-3.751818163319673e-06,0.3851468322665692,-1.1028476326639344e-05
0.3859409494465003,-9.56741e-06,0.3859409494465003,-1.922374379834791e-05,0.3859409494465003,-1.4328174748050929e-06,0.3859409494465003,-1.19173e-05
0.3867350666264313,-8.028384595940305e-06,0.3867350666264313,-2.2026595618116465e-05,0.3867350666264313,1.3711756399682217e-06,0.3867350666264313,-1.4482355074957377e-05
0.3875291838063624,-5.71682769966137e-06,0.3875291838063624,-2.018139990308415e-05,0.3875291838063624,3.4160278061193125e-06,0.3875291838063624,-2.3369514014947664e-05
0.3883233009862935,-5.44048223473193e-06,0.3883233009862935,-2.0821874162298025e-05,0.3883233009862935,5.529414985049748e-06,0.3883233009862935,-2.7932254000847515e-05
0.3891174181662246,-8.323883798339471e-06,0.3891174181662246,-2.19976877169473e-05,0.3891174181662246,8.382990642205322e-06,0.3891174181662246,-2.844530912515447e-05
0.3899115353461556,-7.632191265032476e-06,0.3899115353461556,-2.2965745176858107e-05,0.3899115353461556,7.908641520067084e-06,0.3899115353461556,-2.4693525637586523e-05
0.3907056525260867,-6.980474307542625e-06,0.3907056525260867,-2.2680100951802232e-05,0.3907056525260867,6.466642906491751e-06,0.3907056525260867,-1.802157077372124e-05
0.3914997697060178,-9.566248700588257e-06,0.3914997697060178,-2.23239e-05,0.3914997697060178,1.1915309197478488e-05,0.3914997697060178,5.027599755050719e-06
0.3922938868859488,-1.0436773644675108e-05,0.3922938868859488,-2.46738e-05,0.3922938868859488,1.5313039532987338e-05,0.3922938868859488,2.4036893039940095e-05
0.3930880040658799,-9.765211494891943e-06,0.3930880040658799,-2.367640651765172e-05,0.3930880040658799,1.52262295491105e-05,0.3930880040658799,2.73594e-05
0.393882121245811,-8.856937952217735e-06,0.393882121245811,-2.4130608761591217e-05,0.393882121245811,1.1409365706626076e-05,0.393882121245811,2.462237293551689e-05
0.394676238425742,-8.284230301455787e-06,0.394676238425742,-2.3587631771070723e-05,0.394676238425742,4.378311690742092e-06,0.394676238425742,1.0714418538404788e-05
0.3954703556056732,-7.248523714638188e-06,0.3954703556056732,-2.234461966298097e-05,0.3954703556056732,1.6496264152930226e-06,0.3954703556056732,-9.54703765625949e-07
0.3962644727856042,-4.788767308739605e-06,0.3962644727856042,-2.0862866997582503e-05,0.3962644727856042,4.246855436597455e-07,0.3962644727856042,-7.314492979242719e-06
0.3970585899655353,-5.479665170517389e-06,0.3970585899655353,-2.054646202198114e-05,0.3970585899655353,-1.4116992659383987e-06,0.3970585899655353,-1.4701140682069554e-05
0.3978527071454664,-7.750178167442571e-06,0.3978527071454664,-2.27383227143219e-05,0.3978527071454664,-3.721798167442572e-06,0.3978527071454664,-2.1572029234585387e-05
0.3986468243253974,-7.21752e-06,0.3986468243253974,-2.29953e-05,0.3986468243253974,-3.959688812748716e-06,0.3986468243253974,-2.7969864749005136e-05
0.3994409415053285,-8.463060435959482e-06,0.3994409415053285,-2.10601869614756e-05,0.3994409415053285,-4.293479564040518e-06,0.3994409415053285,-3.0458500114742183e-05
0.4002350586852595,-4.573329559682797e-06,0.4002350586852595,-2.0190860888792424e-05,0.4002350586852595,-6.64421936035384e-06,0.4002350586852595,-3.428849786784613e-05
0.4010291758651906,-2.4978225662854085e-06,0.4010291758651906,-2.066524588407228e-05,0.4010291758651906,-5.085268287631226e-06,0.4010291758651906,-3.718357787515238e-05
0.4018232930451217,-1.935264169251143e-06,0.4018232930451217,-2.279612893640824e-05,0.4018232930451217,-2.221327162063295e-06,0.4018232930451217,-3.52083243054426e-05
0.4026174102250527,-2.794324556613616e-06,0.4026174102250527,-2.1840786949104986e-05,0.4026174102250527,-2.466692389897491e-07,0.4026174102250527,-2.7298865451527577e-05
0.4034115274049838,-3.643310675566244e-06,0.4034115274049838,-2.0675062527149576e-05,0.4034115274049838,-9.577202637972224e-07,0.4034115274049838,-2.2205482265221815e-05
0.4042056445849149,-4.53193e-06,0.4042056445849149,-2.129638877516742e-05,0.4042056445849149,-2.952088574528897e-06,0.4042056445849149,-2.417908289434676e-05
0.404999761764846,-4.196401621333078e-06,0.404999761764846,-2.433686728226166e-05,0.404999761764846,-4.19571514111311e-06,0.404999761764846,-3.1050040544003074e-05
0.4057938789447771,-5.1430597785950274e-06,0.4057938789447771,-2.370588512162866e-05,0.4057938789447771,-3.7228151107024873e-06,0.4057938789447771,-2.6158688330268647e-05
0.4065879961247081,-5.934650348026249e-06,0.4065879961247081,-2.12683918160548e-05,0.4065879961247081,-3.644686588608956e-06,0.4065879961247081,-1.7432209924661654e-05
0.4073821133046392,-6.522949354421311e-06,0.4073821133046392,-2.037895257703573e-05,0.4073821133046392,4.181432777013865e-07,0.4073821133046392,-7.59955245488436e-06
0.4081762304845703,-7.92975930141407e-06,0.4081762304845703,-1.9519813036517804e-05,0.4081762304845703,8.318538275254255e-06,0.4081762304845703,-9.271009026453977e-08
0.4089703476645013,-6.5653509483824415e-06,0.4089703476645013,-1.9065119695464733e-05,0.4089703476645013,9.826181492900804e-06,0.4089703476645013,-3.024660658159529e-07
0.4097644648444324,-9.56741e-06,0.4097644648444324,-2.042812272938712e-05,0.4097644648444324,3.328807552213809e-06,0.4097644648444324,-1.7205156537815993e-05
0.4105585820243635,-7.040171486429253e-06,0.4105585820243635,-2.09812e-05,0.4105585820243635,-7.600703157487622e-07,0.4105585820243635,-3.152520787593457e-05
0.4113526992042945,-3.7620591488959766e-06,0.4113526992042945,-1.9737947266579864e-05,0.4113526992042945,-7.945089055769124e-08,0.4113526992042945,-3.0145718616719825e-05
0.4121468163842256,-5.359780501350499e-06,0.4121468163842256,-1.999367637907161e-05,0.4121468163842256,1.17494e-06,0.4121468163842256,-1.8360278484701808e-05
0.4129409335641567,-6.113199100857146e-06,0.4129409335641567,-2.3242140654609134e-05,0.4129409335641567,1.6882121478359289e-06,0.4129409335641567,-5.777499100857146e-06
0.4137350507440878,-4.275435933926471e-06,0.4137350507440878,-2.369644620436929e-05,0.4137350507440878,3.385296755867271e-06,0.4137350507440878,-5.9916808219408e-06
0.4145291679240188,-5.0255155624316e-06,0.4145291679240188,-2.398266952547325e-05,0.4145291679240188,4.6108727812158e-06,0.4145291679240188,-5.836407094737882e-06
0.4153232851039499,-5.6575823518045135e-06,0.4153232851039499,-2.451443314919983e-05,0.4153232851039499,6.961057645752703e-06,0.4153232851039499,1.5898776457527037e-06
0.416117402283881,-6.802987942790778e-06,0.416117402283881,-2.5524101772267583e-05,0.416117402283881,1.0081137059725987e-05,0.416117402283881,6.191376916702932e-06
0.416911519463812,-5.697045443407334e-06,0.416911519463812,-2.2126302242648157e-05,0.416911519463812,1.02388e-05,0.416911519463812,7.652008630496778e-06
0.4177056366437431,-3.52483e-06,0.4177056366437431,-1.967944299572592e-05,0.4177056366437431,1.0051078954384984e-05,0.4177056366437431,3.2877799030927223e-06
0.4184997538236742,-4.531397973867636e-06,0.4184997538236742,-2.0644703840148745e-05,0.4184997538236742,9.903366039479953e-06,0.4184997538236742,4.866920631823514e-06
0.4192938710036052,-6.012426372280732e-06,0.4192938710036052,-2.12571992517122e-05,0.4192938710036052,8.284903153459887e-06,0.4192938710036052,-6.066011429663732e-06
0.4200879881835363,-6.704967133262705e-06,0.4200879881835363,-1.69528e-05,0.4200879881835363,6.54612e-06,0.4200879881835363,-1.4009443440084754e-05
0.4208821053634674,-6.070022908774441e-06,0.4208821053634674,-1.813689098862444e-05,0.4208821053634674,4.437964764252434e-06,0.4208821053634674,-1.4306260581754887e-05
0.4216762225433985,-8.657484804828454e-06,0.4216762225433985,-2.1751403766192297e-05,0.4216762225433985,-1.03358960965691e-06,0.4216762225433985,-1.377469522863386e-05
0.4224703397233295,-9.03503073955971e-06,0.4224703397233295,-2.216647523950591e-05,0.4224703397233295,-1.486300789178536e-07,0.4224703397233295,-9.737497381679334e-06
0.4232644569032606,-6.724117500323625e-06,0.4232644569032606,-2.05863437718216e-05,0.4232644569032606,-4.832518853782234e-07,0.4232644569032606,-4.473376099669648e-06
0.4240585740831917,-5.578628895238579e-06,0.4240585740831917,-2.1019755306119945e-05,0.4240585740831917,-4.195782778370888e-06,0.4240585740831917,-5.400432392153318e-06
0.4248526912631227,-5.657646773940468e-06,0.4248526912631227,-2.1534519614434285e-05,0.4248526912631227,-8.95414460734892e-06,0.4248526912631227,-1.6436806644352604e-05
0.4256468084430538,-5.884258691397359e-06,0.4256468084430538,-2.1534034165552827e-05,0.4256468084430538,-1.4618182551964784e-05,0.4256468084430538,-2.409778691397359e-05
0.4264409256229849,-6.920697125316258e-06,0.4264409256229849,-2.058629898741513e-05,0.4264409256229849,-2.1467930759519496e-05,0.4264409256229849,-3.32023699386069e-05
0.4272350428029159,-7.040243309275127e-06,0.4272350428029159,-1.96384e-05,0.4272350428029159,-1.500084553962459e-05,0.4272350428029159,-3.695513007217462e-05
0.428029159982847,-5.22327031655905e-06,0.428029159982847,-2.1198428311672942e-05,0.428029159982847,-3.2505996306424105e-06,0.428029159982847,-3.91089e-05
0.4288232771627781,-5.53903e-06,0.4288232771627781,-2.09812e-05,0.4288232771627781,1.0357863657888805e-05,0.4288232771627781,-3.6186214647685655e-05
0.4296173943427092,-4.650195284855019e-06,0.4296173943427092,-2.307368370432064e-05,0.4296173943427092,1.6498834715144983e-05,0.4296173943427092,-3.5969334715144985e-05
0.4304115115226402,-2.1327304695130244e-06,0.4304115115226402,-2.240278232639438e-05,0.4304115115226402,1.2154380939026048e-05,0.4304115115226402,-3.662075767344155e-05
0.4312056287025713,-3.938442317013385e-06,0.4312056287025713,-2.2954236458213464e-05,0.4312056287025713,6.468214744734946e-06,0.4312056287025713,-4.070782265100912e-05
0.4319997458825024,-9.901269383353878e-06,0.4319997458825024,-2.433777126302912e-05,0.4319997458825024,-3.520802641197263e-06,0.4319997458825024,-3.743296287857344e-05
0.4327938630624334,-1.02001120641361e-05,0.4327938630624334,-2.26397257030485e-05,0.4327938630624334,-1.3277159786212998e-05,0.4327938630624334,-1.250338567875757e-05
0.4335879802423645,-7.277469172637493e-06,0.4335879802423645,-2.1575032621489155e-05,0.4335879802423645,-1.1527672901883186e-05,0.4335879802423645,5.634929202348041e-06
0.4343820974222956,-6.132311465903107e-06,0.4343820974222956,-2.080312901115701e-05,0.4343820974222956,-2.338986366370465e-07,0.4343820974222956,1.939389493824593e-06
0.4351762146022266,-5.262967463589078e-06,0.4351762146022266,-2.1494525061788472e-05,0.4351762146022266,5.606353190359832e-06,0.4351762146022266,-1.969987292020876e-05
0.4359703317821577,-6.032965967230987e-06,0.4359703317821577,-2.074359914940412e-05,0.4359703317821577,4.670967901692961e-06,0.4359703317821577,-3.845212662261125e-05
0.4367644489620888,-5.87472e-06,0.4367644489620888,-2.250135327498973e-05,0.4367644489620888,8.124092280925981e-07,0.4367644489620888,-3.615220440118564e-05
0.4375585661420199,-5.87472e-06,0.4375585661420199,-2.309435335793063e-05,0.4375585661420199,-9.88230321029076e-06,0.4375585661420199,-8.988110352357009e-06
0.438352683321951,-6.8023288583361725e-06,0.438352683321951,-2.2402607304776404e-05,0.438352683321951,-1.189832555415458e-05,0.438352683321951,1.890151913017071e-05
0.439146800501882,-7.789723266577583e-06,0.439146800501882,-2.3429576465212705e-05,0.439146800501882,-3.095779317629751e-06,0.439146800501882,3.98125643164549e-05
0.4399409176818131,-8.89601e-06,0.4399409176818131,-2.46738e-05,0.4399409176818131,1.1634556592888011e-05,0.4399409176818131,5.74503611260884e-05
0.4407350348617442,-1.0050212371863424e-05,0.4407350348617442,-2.3568939860597127e-05,0.4407350348617442,1.8472865249302703e-05,0.4407350348617442,5.6184409645115405e-05
0.4415291520416752,-1.1107977636971764e-05,0.4415291520416752,-2.0487634137316665e-05,0.4415291520416752,1.270841054788705e-05,0.4415291520416752,3.4196590433567024e-05
0.4423232692216063,-1.008089685210239e-05,0.4423232692216063,-1.9558696068050944e-05,0.4423232692216063,5.370965783244444e-06,0.4423232692216063,1.3773181356855516e-05
0.4431173864015373,-9.725118804042283e-06,0.4431173864015373,-2.2273681884705803e-05,0.4431173864015373,3.761962437905818e-06,0.4431173864015373,9.310563814778148e-06
0.4439115035814684,-1.1226059702139392e-05,0.4439115035814684,-2.2373217233282307e-05,0.4439115035814684,8.263977701197697e-06,0.4439115035814684,3.801644895465215e-06
0.4447056207613995,-1.2095543122561042e-05,0.4447056207613995,-2.0398833981189135e-05,0.4447056207613995,1.0140168624512207e-05,0.4447056207613995,-3.2479625638702763e-06
0.4454997379413306,-7.5551078234165395e-06,0.4454997379413306,-2.03098e-05,0.4454997379413306,9.567598777842792e-06,0.4454997379413306,-6.544798521358991e-06
0.4462938551212617,-4.493259263177131e-06,0.4462938551212617,-2.202797508924484e-05,0.4462938551212617,7.949256068217276e-06,0.4462938551212617,-1.2823022080033576e-05
0.4470879723011927,-4.471969361335083e-06,0.4470879723011927,-2.183009624156119e-05,0.4470879723011927,6.941780638664917e-06,0.4470879723011927,-1.3577851596662294e-05
0.4478820894811238,-6.288518231454862e-06,0.4478820894811238,-2.258025589112073e-05,0.4478820894811238,4.976906326408853e-06,0.4478820894811238,-1.420484381009202e-05
0.4486762066610549,-5.7776009605195535e-06,0.4486762066610549,-2.329148639208436e-05,0.4486762066610549,4.53193e-06,0.4486762066610549,-1.8489854525598707e-05
0.4494703238409859,-4.275355843971045e-06,0.4494703238409859,-2.277840556181313e-05,0.4494703238409859,2.973293725629784e-06,0.4494703238409859,-2.725405948938984e-05
0.450264441020917,-6.4265963103918815e-06,0.450264441020917,-2.1475162134555825e-05,0.450264441020917,6.027277490120339e-07,0.450264441020917,-4.0962873641041616e-05
0.4510585582008481,-9.48816516580401e-06,0.4510585582008481,-2.040885848456786e-05,0.4510585582008481,-3.257924547401232e-07,0.4510585582008481,-4.7342810331608016e-05
0.4518526753807791,-7.257907107071866e-06,0.4518526753807791,-2.1138604336522428e-05,0.4518526753807791,-3.849165798971703e-07,0.4518526753807791,-4.860683645302178e-05
0.4526467925607102,-4.0188585076438265e-06,0.4526467925607102,-2.1909253685222405e-05,0.4526467925607102,-3.4446747854332507e-06,0.4526467925607102,-4.99599585571113e-05
0.4534409097406413,-4.945337807818909e-06,0.4534409097406413,-2.1622970000256577e-05,0.4534409097406413,-5.558456517926652e-06,0.4534409097406413,-5.065858967641527e-05
0.4542350269205724,-6.723373807880476e-06,0.4542350269205724,-2.1287146088562825e-05,0.4542350269205724,-4.720581572331602e-06,0.4542350269205724,-5.2103069288179285e-05
0.4550291441005034,-5.223293199403423e-06,0.4550291441005034,-2.151445433881305e-05,0.4550291441005034,-2.577624300873369e-06,0.4550291441005034,-4.374155810779717e-05
0.4558232612804345,-4.215930258359134e-06,0.4558232612804345,-2.034965709261181e-05,0.4558232612804345,-4.9329736266366035e-08,0.4558232612804345,-4.140015893702414e-05
0.4566173784603656,-1.7472381912177448e-06,0.4566173784603656,-1.991443525681978e-05,0.4566173784603656,-1.2740420437136085e-06,0.4566173784603656,-6.563211713663432e-05
0.4574114956402966,-8.39246e-07,0.4574114956402966,-2.157367658148424e-05,0.4574114956402966,-3.2483265332016738e-06,0.4574114956402966,-7.658871517034331e-05
0.4582056128202277,-1.036495522202059e-06,0.4582056128202277,-2.1830726158477e-05,0.4582056128202277,-5.459380916934267e-06,0.4582056128202277,-5.396673183602045e-05
0.4589997300001588,-2.852661983290187e-06,0.4589997300001588,-2.064602392454736e-05,0.4589997300001588,-7.720583739556366e-06,0.4589997300001588,-5.7246670627091146e-06
0.4597938471800898,-4.19623e-06,0.4597938471800898,-2.1158976875445407e-05,0.4597938471800898,-6.507466462218231e-06,0.4597938471800898,3.915013830124116e-05
0.4605879643600209,-5.556945631508634e-06,0.4605879643600209,-2.094243685680534e-05,0.4605879643600209,-5.934696211452805e-06,0.4605879643600209,5.3723816314077126e-05
0.461382081539952,-8.302696765427486e-06,0.461382081539952,-2.03098e-05,0.461382081539952,-3.626270866761413e-06,0.461382081539952,4.4253413828022615e-05
0.4621761987198831,-9.448112189977494e-06,0.4621761987198831,-2.173160519357214e-05,0.4621761987198831,8.600779714303603e-08,0.4621761987198831,3.5498042335078766e-05
0.4629703158998141,-6.805079840723557e-06,0.4629703158998141,-2.189018600472983e-05,0.4629703158998141,3.4552986012712565e-06,0.4629703158998141,4.054762591346786e-05
0.4637644330797452,-4.19623e-06,0.4637644330797452,-2.16526e-05,0.4637644330797452,-3.244982884459653e-06,0.4637644330797452,4.102652277213146e-05
0.4645585502596763,-5.459762233749097e-06,0.4645585502596763,-2.1179327222410272e-05,0.4645585502596763,-1.2054831174689736e-05,0.4645585502596763,2.384742848719721e-05
0.4653526674396073,-6.091782493497164e-06,0.4653526674396073,-2.0152405936507955e-05,0.4653526674396073,-7.634063009966919e-06,0.4653526674396073,-5.256049465115782e-06
0.4661467846195384,-7.41390515625722e-06,0.4661467846195384,-1.989504854870725e-05,0.4661467846195384,-3.110986772299914e-06,0.4661467846195384,-1.5392541928557135e-05
0.4669409017994695,-9.251131363617024e-06,0.4669409017994695,-2.040850987323446e-05,0.4669409017994695,7.366033220443057e-07,0.4669409017994695,-1.0088968223707692e-05
0.4677350189794005,-7.515648174059349e-06,0.4677350189794005,-2.0369295238179632e-05,0.4677350189794005,6.96839860078432e-06,0.4677350189794005,-3.867501212776901e-07
0.4685291361593316,-4.709767320412796e-06,0.4685291361593316,-2.16526e-05,0.4685291361593316,1.0099973547700383e-05,0.4685291361593316,-1.292054170097958e-05
0.4693232533392627,-4.156800879726312e-06,0.4693232533392627,-2.16526e-05,0.4693232533392627,1.3220670879726312e-05,0.4693232533392627,-2.6944841759452623e-05
0.4701173705191938,-6.724065332189764e-06,0.4701173705191938,-2.123856252431586e-05,0.4701173705191938,1.5195422078681113e-05,0.4701173705191938,-2.9116777921318888e-05
0.4709114876991248,-4.236027018907341e-06,0.4709114876991248,-2.0487470935100085e-05,0.4709114876991248,1.5748259525599554e-05,0.4709114876991248,-3.099240711600667e-05
0.4717056048790559,-3.3465366095625398e-06,0.4717056048790559,-2.1097643525039336e-05,0.4717056048790559,1.3339780543237753e-05,0.4717056048790559,-4.8346131916067385e-05
0.472499722058987,-5.70616921885452e-06,0.472499722058987,-2.299476071946036e-05,0.472499722058987,9.56881156825536e-06,0.472499722058987,-6.881129227116748e-05
0.473293839238918,-6.21042e-06,0.473293839238918,-2.027011304427914e-05,0.473293839238918,3.557456915020384e-06,0.473293839238918,-7.588718291783921e-05
0.4740879564188491,-6.21042e-06,0.4740879564188491,-1.821809425967116e-05,0.4740879564188491,1.67849e-07,0.4740879564188491,-6.623518712421192e-05
0.4748820735987802,-6.288495299400099e-06,0.4748820735987802,-1.734745590408674e-05,0.4748820735987802,8.782829519761946e-07,0.4748820735987802,-3.814071871259791e-05
0.4756761907787112,-7.98599327413241e-06,0.4756761907787112,-1.9500216773205465e-05,0.4756761907787112,2.8312122456657403e-06,0.4756761907787112,-2.347253700577901e-05
0.4764703079586423,-8.788117823410697e-06,0.4764703079586423,-2.1089609779306724e-05,0.4764703079586423,3.309050932399906e-06,0.4764703079586423,-2.56809e-05
0.4772644251385734,-5.638237247197624e-06,0.4772644251385734,-2.019152863576457e-05,0.4772644251385734,-1.7267362207774634e-06,0.4772644251385734,-1.3682792451934533e-05
0.4780585423185045,-5.499384650847092e-06,0.4780585423185045,-1.96384e-05,0.4780585423185045,-2.8930847586651346e-06,0.4780585423185045,1.8745097364893807e-05
0.4788526594984356,-5.993363239516511e-06,0.4788526594984356,-2.000294145864542e-05,0.4788526594984356,-6.4241877728214e-07,0.4788526594984356,3.787186097948274e-05
0.4796467766783666,-4.669174782173622e-06,0.4796467766783666,-2.141543023657618e-05,0.4796467766783666,-1.54866106001297e-06,0.4796467766783666,3.194933315598081e-05
0.4804408938582977,-9.703318835860523e-06,0.4804408938582977,-2.2383089583723675e-05,0.4804408938582977,-4.215645630603296e-06,0.4804408938582977,8.887865820697384e-06
0.4812350110382288,-1.063497268740985e-05,0.4812350110382288,-2.3054800374694787e-05,0.4812350110382288,-3.76253361244591e-06,0.4812350110382288,-6.798395406158989e-06
0.4820291282181598,-1.10680569588761e-05,0.4820291282181598,-2.076395114226641e-05,0.4820291282181598,-3.169149215429921e-06,0.4820291282181598,-2.066191011692645e-06
0.4828232453980909,-9.606859488751848e-06,0.4828232453980909,-2.216444249233972e-05,0.4828232453980909,-2.438702225298965e-06,0.4828232453980909,1.0515383518824036e-05
0.483617362578022,-7.780235865511377e-06,0.483617362578022,-2.003378528924088e-05,0.483617362578022,6.814679303064598e-07,0.483617362578022,1.6419876531634333e-05
0.484411479757953,-8.89601e-06,0.484411479757953,-2.121819436170376e-05,0.484411479757953,1.964678965547026e-06,0.484411479757953,1.416878732751919e-05
0.4852055969378841,-8.945317088223337e-06,0.4852055969378841,-2.147446356849268e-05,0.4852055969378841,5.627162121111491e-06,0.4852055969378841,1.0180046231781858e-05
0.4859997141178152,-1.0238079196535996e-05,0.4859997141178152,-2.1820307570268568e-05,0.4859997141178152,7.88839514213566e-06,0.4859997141178152,8.896215945599661e-06
0.4867938312977463,-8.917795724169893e-06,0.4867938312977463,-2.149466660241508e-05,0.4867938312977463,-3.2614189206233365e-06,0.4867938312977463,9.50699513613059e-06
0.4875879484776773,-4.51406759186802e-06,0.4875879484776773,-2.16526e-05,0.4875879484776773,-9.96309914316608e-06,0.4875879484776773,7.232857229255007e-06
0.4883820656576084,-2.9510186290135008e-06,0.4883820656576084,-2.16526e-05,0.4883820656576084,-1.1086669419352937e-06,0.4883820656576084,-2.58794292893325e-06
0.4891761828375395,-4.10673948034982e-06,0.4891761828375395,-2.3074296456007705e-05,0.4891761828375395,1.3260545759631952e-05,0.4891761828375395,-1.3193315541390164e-05
0.4899703000174705,-5.064223449773792e-06,0.4899703000174705,-2.36667e-05,0.4899703000174705,1.7940737700150807e-05,0.4899703000174705,-2.4608880996489146e-05
0.4907644171974016,-4.0589964703125845e-06,0.4907644171974016,-2.237353890879495e-05,0.4907644171974016,1.4475818829738742e-05,0.4907644171974016,-3.6400075571935805e-05
0.4915585343773327,-2.8336115924098597e-06,0.4915585343773327,-2.2648556230631176e-05,0.4915585343773327,1.0051810103633292e-05,0.4915585343773327,-4.684835138514328e-05
0.4923526515572637,-7.156776315978309e-06,0.4923526515572637,-2.3351952965137185e-05,0.4923526515572637,2.8360185466727557e-06,0.4923526515572637,-5.028530205493958e-05
0.4931467687371948,-7.278773343579238e-06,0.4931467687371948,-2.296553391354065e-05,0.4931467687371948,-3.562819253269735e-06,0.4931467687371948,-4.774204306205484e-05
0.4939408859171259,-4.273869590358428e-06,0.4939408859171259,-2.414070076008012e-05,0.4939408859171259,-5.48080030723118e-06,0.4939408859171259,-3.520842286749101e-05
0.494735003097057,-6.564861327676307e-06,0.494735003097057,-2.3390505511209977e-05,0.494735003097057,-9.415096577609084e-07,0.494735003097057,-1.9684423108534035e-05
0.495529120276988,-7.987837844904372e-06,0.495529120276988,-2.38346e-05,0.495529120276988,1.3927875708965092e-06,0.495529120276988,-6.766091568977536e-06
0.4963232374569191,-6.230164928444576e-06,0.4963232374569191,-2.398246970244429e-05,0.4963232374569191,-4.11725558047858e-06,0.4963232374569191,1.964825469046175e-06
0.4971173546368502,-4.354031706747448e-06,0.4971173546368502,-2.2167327795607013e-05,0.4971173546368502,-6.289320853373724e-06,0.4971173546368502,1.4775312080888457e-07
0.4979114718167812,-5.637738623072175e-06,0.4979114718167812,-2.034929252834888e-05,0.4979114718167812,-6.003013512559542e-06,0.4979114718167812,-8.144792524117542e-06
0.4987055889967123,-3.5059738333670734e-06,0.4987055889967123,-2.062491686395497e-05,0.4987055889967123,-6.655236226268168e-06,0.4987055889967123,-2.1234964824980245e-05
0.4994997061766434,-1.17536333262149e-06,0.4994997061766434,-2.1987729846816143e-05,0.4994997061766434,-2.184262483652377e-06,0.4994997061766434,-3.507520834223137e-05
0.5002938233565745,-2.655374627105612e-06,0.5002938233565745,-2.3824638534100118e-05,0.5002938233565745,3.0682714584577903e-06,0.5002938233565745,-4.787057577140954e-05
0.5010879405365055,-1.570646502774632e-06,0.5010879405365055,-2.2304539606837676e-05,0.5010879405365055,-9.70589156284021e-07,0.5010879405365055,-5.4628840245838056e-05
0.5018820577164366,-2.642585215012679e-06,0.5018820577164366,-2.19883e-05,0.5018820577164366,-6.171393816327439e-06,0.5018820577164366,-4.821211191106776e-05
0.5026761748963677,-6.799859307351208e-06,0.5026761748963677,-2.29953e-05,0.5026761748963677,-3.390431049575063e-06,0.5026761748963677,-2.153619357112829e-05
0.5034702920762988,-9.073435429213535e-06,0.5034702920762988,-2.256155221574762e-05,0.5034702920762988,8.622248019223316e-06,0.5034702920762988,-1.3191372714423778e-06
0.5042644092562298,-1.0317616925571571e-05,0.5042644092562298,-2.14752237727378e-05,0.5042644092562298,1.6202583074428426e-05,0.5042644092562298,3.562787634467927e-06
0.5050585264361609,-9.626911830982275e-06,0.5050585264361609,-2.0408878991116904e-05,0.5050585264361609,1.341877312483095e-05,0.5050585264361609,1.0296823213204494e-05
0.505852643616092,-8.22461e-06,0.505852643616092,-1.962002098105961e-05,0.505852643616092,5.7387341029797935e-06,0.505852643616092,1.39010714977816e-05
0.506646760796023,-8.461059459031925e-06,0.506646760796023,-1.987492048897272e-05,0.506646760796023,3.978754729515963e-06,0.506646760796023,1.8016822565643662e-05
0.507440877975954,-7.5144116708483185e-06,0.507440877975954,-2.19883e-05,0.507440877975954,4.405803508278024e-06,0.507440877975954,2.159725499748277e-05
0.5082349951558852,-6.112457936712505e-06,0.5082349951558852,-2.2816785784154968e-05,0.5082349951558852,2.221662989452084e-06,0.5082349951558852,1.1292103090889405e-05
0.5090291123358163,-7.197511034907863e-06,0.5090291123358163,-2.3429818261527853e-05,0.5090291123358163,5.005466552361795e-06,0.5090291123358163,-4.79537361096854e-06
0.5098232295157473,-9.211950769948044e-06,0.5098232295157473,-2.2403655198321666e-05,0.5098232295157473,1.767382844356277e-06,0.5098232295157473,-1.4859570138119703e-05
0.5106173466956784,-9.014377303761878e-06,0.5106173466956784,-1.982678965814623e-05,0.5106173466956784,-4.640919578334022e-07,0.5106173466956784,-1.821668768059883e-05
0.5114114638756094,-4.769316402709717e-06,0.5114114638756094,-1.992471855645285e-05,0.5114114638756094,-1.905486550718632e-06,0.5114114638756094,-1.7347646550718632e-05
0.5122055810555405,-2.0834372895807824e-06,0.5122055810555405,-2.0508540113613062e-05,0.5122055810555405,-2.6163427104192178e-06,0.5122055810555405,-1.7032583737484696e-05
0.5129996982354716,-1.1753747740436575e-06,0.5129996982354716,-1.930309037515288e-05,0.5129996982354716,-4.195360458388318e-06,0.5129996982354716,-1.292613909617463e-05
0.5137938154154027,-5.319080125264151e-06,0.5137938154154027,-2.025061729893547e-05,0.5137938154154027,-2.825786776289722e-06,0.5137938154154027,-9.490237566559272e-06
0.5145879325953338,-7.277537968801994e-06,0.5145879325953338,-2.0271077948926576e-05,0.5145879325953338,-3.0008805616461045e-08,0.5145879325953338,-8.973833046797009e-06
0.5153820497752648,-6.88182e-06,0.5153820497752648,-1.92437749150043e-05,0.5153820497752648,-8.782657532424587e-07,0.5153820497752648,-1.3501920543722384e-05
0.5161761669551959,-6.88182e-06,0.5161761669551959,-1.967788797472933e-05,0.5161761669551959,-1.450968212144306e-06,0.5161761669551959,-1.7445184636432916e-05
0.5169702841351269,-7.138379854251184e-06,0.5169702841351269,-1.9757231244389e-05,0.5169702841351269,-1.2349438997844458e-06,0.5169702841351269,-1.7703316571085203e-05
0.5177644013150581,-8.282966024302553e-06,0.5177644013150581,-1.9697520272572225e-05,0.5177644013150581,-1.67849e-07,0.5177644013150581,-1.69528e-05
0.5185585184949891,-1.083084109653002e-05,0.5185585184949891,-2.068394764673768e-05,0.5185585184949891,-7.995664300649884e-07,0.5185585184949891,-1.7900380379147435e-05
0.5193526356749202,-8.14651865807141e-06,0.5193526356749202,-1.9108658657461035e-05,0.5193526356749202,-8.39246e-07,0.5193526356749202,-2.3032870523032917e-05
0.5201467528548512,-7.000038996502286e-06,0.5201467528548512,-1.666630378115144e-05,0.5201467528548512,-8.582021722534413e-07,0.5201467528548512,-2.726013799300457e-05
0.5209408700347823,-6.80422685160146e-06,0.5209408700347823,-2.07045574667416e-05,0.5209408700347823,-3.2473347168363527e-06,0.5209408700347823,-2.6313503136875625e-05
0.5217349872147133,-4.769685098845934e-06,0.5217349872147133,-2.16526e-05,0.5217349872147133,-3.683333399230622e-06,0.5217349872147133,-2.6963141501923445e-05
0.5225291043946444,-4.689769796742728e-06,0.5225291043946444,-2.1178857069116568e-05,0.5225291043946444,-2.5377604065145444e-06,0.5225291043946444,-2.8722220406514543e-05
0.5233232215745756,-5.045322114891266e-06,0.5233232215745756,-1.9718165451596088e-05,0.5233232215745756,-2.300502586201825e-06,0.5233232215745756,-2.376547482759635e-05
0.5241173387545066,-6.911553375500148e-06,0.5241173387545066,-2.200681862343715e-05,0.5241173387545066,-3.1496781072857567e-06,0.5241173387545066,-3.0954267004001186e-05
0.5249114559344377,-7.15838491530873e-06,0.5249114559344377,-2.362718692559044e-05,0.5249114559344377,-3.919665084691269e-06,0.5249114559344377,-5.970248631520809e-05
0.5257055731143687,-4.473242090377723e-06,0.5257055731143687,-2.293715306825005e-05,0.5257055731143687,-3.999036045188862e-06,0.5257055731143687,-6.84953958676397e-05
0.5264996902942998,-4.195783784534094e-06,0.5264996902942998,-2.3330499219607695e-05,0.5264996902942998,-2.182932424285766e-06,0.5264996902942998,-4.734409758408503e-05
0.5272938074742308,-7.789868797902248e-06,0.5272938074742308,-2.263979761426091e-05,0.5272938074742308,-1.3537515832843802e-06,0.5272938074742308,-1.316013374395628e-05
0.528087924654162,-3.438140051687092e-06,0.528087924654162,-2.372476766706458e-05,0.528087924654162,2.3287634890487405e-06,0.528087924654162,1.4433887912389923e-05
0.528882041834093,-5.101717143681556e-06,0.528882041834093,-2.447649259401727e-05,0.528882041834093,2.361681129418976e-06,0.528882041834093,1.871747923532116e-05
0.5296761590140241,-5.2256932736969525e-06,0.5296761590140241,-2.202778451998351e-05,0.5296761590140241,-1.3092459783063524e-06,0.5296761590140241,1.2335042559967264e-05
0.5304702761939551,-2.85344e-06,0.5304702761939551,-2.143264484300756e-05,0.5304702761939551,-6.95833133253656e-06,0.5304702761939551,1.2550444048834854e-05
0.5312643933738862,-5.319980146498668e-06,0.5312643933738862,-2.506861513605702e-05,0.5312643933738862,-5.10714791690403e-06,0.5312643933738862,7.461793813600828e-07
0.5320585105538173,-9.468181966843748e-06,0.5320585105538173,-2.487197848878291e-05,0.5320585105538173,3.069220477359525e-06,0.5320585105538173,-1.1007753902766766e-05
0.5328526277337483,-7.573514979826671e-06,0.5328526277337483,-2.3194695339995115e-05,0.5328526277337483,9.40814033388784e-06,0.5328526277337483,-6.647611968908248e-06
0.5336467449136795,-5.619357203953064e-06,0.5336467449136795,-2.113935426773724e-05,0.5336467449136795,1.1482326526977172e-05,0.5336467449136795,3.4422120143039218e-06
0.5344408620936105,-3.52483e-06,0.5344408620936105,-2.1701927421745867e-05,0.5344408620936105,1.25887e-05,0.5344408620936105,9.941885397097078e-06
0.5352349792735416,-3.0119524796929147e-06,0.5352349792735416,-2.0577635278204384e-05,0.5352349792735416,1.2845142579673643e-05,0.5352349792735416,4.804572513503809e-06
0.5360290964534726,-2.319842228095052e-06,0.5360290964534726,-1.7486177615177227e-05,0.5360290964534726,1.3575768152063368e-05,0.5360290964534726,-1.98001247231434e-05
0.5368232136334037,-5.24276773912297e-06,0.5368232136334037,-1.80961607378234e-05,0.5368232136334037,1.3200965883502934e-05,0.5368232136334037,-3.079571808958482e-05
0.5376173308133347,-6.506652374271957e-06,0.5376173308133347,-2.133539294239114e-05,0.5376173308133347,6.42726440882973e-06,0.5376173308133347,-1.0869378353906357e-05
0.5384114479932659,-9.40907497538963e-06,0.5384114479932659,-2.2955776652560192e-05,0.5384114479932659,-7.991663321153807e-07,0.5384114479932659,1.924104887493351e-05
0.539205565173197,-9.647255470534258e-06,0.539205565173197,-2.2365174839977803e-05,0.539205565173197,-4.9169256221959326e-06,0.539205565173197,2.999571906223129e-05
0.539999682353128,-5.87632179229208e-06,0.539999682353128,-2.131710546060682e-05,0.539999682353128,-3.190398549625965e-06,0.539999682353128,2.98772e-05
0.5407937995330591,-6.21042e-06,0.5407937995330591,-2.071455444152496e-05,0.5407937995330591,4.636602332490904e-06,0.5407937995330591,3.1544710648052376e-05
0.5415879167129901,-6.21042e-06,0.5415879167129901,-1.96384e-05,0.5415879167129901,3.902827258734713e-06,0.5415879167129901,3.1990305753893026e-05
0.5423820338929212,-6.073889715809104e-06,0.5423820338929212,-2.013162628697389e-05,0.5423820338929212,2.6737747765066245e-06,0.5423820338929212,2.882747421515961e-05
0.5431761510728523,-4.897471614638931e-06,0.5431761510728523,-2.16526e-05,0.5431761510728523,4.964597082888552e-06,0.5431761510728523,2.108566420187248e-05
0.5439702682527834,-7.629680851915487e-06,0.5439702682527834,-2.2086252366268747e-05,0.5439702682527834,3.527515014544392e-06,0.5439702682527834,9.122376108852326e-06
0.5447643854327144,-9.331010709685156e-06,0.5447643854327144,-2.172229619806986e-05,0.5447643854327144,5.990023636214377e-08,0.5447643854327144,-5.220622230043897e-06
0.5455585026126455,-7.612773427593259e-06,0.5455585026126455,-2.05959380551215e-05,0.5455585026126455,-5.233992213766414e-07,0.5455585026126455,-1.1402938534536895e-05
0.5463526197925765,-6.990334047707463e-06,0.5463526197925765,-2.1781078610415524e-05,0.5463526197925765,7.002562702237564e-07,0.5463526197925765,-2.332618410837177e-05
0.5471467369725076,-6.527197408575513e-06,0.5471467369725076,-2.267899447588817e-05,0.5471467369725076,3.288418460275557e-06,0.5471467369725076,-3.768106567044624e-05
0.5479408541524387,-5.626270767397655e-06,0.5479408541524387,-2.36667e-05,0.5479408541524387,-3.229442045200937e-07,0.5479408541524387,-4.7637008758743146e-05
0.5487349713323698,-6.92145157051873e-06,0.5487349713323698,-2.31143521145412e-05,0.5487349713323698,-3.879179796980366e-06,0.5487349713323698,-4.933832628207492e-05
0.5495290885123009,-5.223373289358795e-06,0.5495290885123009,-2.2640058898098357e-05,0.5495290885123009,-4.551973289358795e-06,0.5495290885123009,-4.787708657871759e-05
0.5503232056922319,-6.585539480875376e-06,0.5503232056922319,-2.0509264895362985e-05,0.5503232056922319,-8.000053079971513e-07,0.5503232056922319,-4.45592191239197e-05
0.551117322872163,-8.145664458368829e-06,0.551117322872163,-2.07237450184111e-05,0.551117322872163,5.776215405545824e-06,0.551117322872163,-3.749916958101557e-05
0.551911440052094,-7.829803727794805e-06,0.551911440052094,-2.1000966810235164e-05,0.551911440052094,5.479913727794807e-06,0.551911440052094,-3.265199598240598e-05
0.5527055572320251,-7.55322e-06,0.5527055572320251,-2.0330424228166373e-05,0.5527055572320251,6.506176534134337e-06,0.5527055572320251,-2.8960559374840763e-05
0.5534996744119562,-6.88228909831024e-06,0.5534996744119562,-1.7961163582731633e-05,0.5534996744119562,7.552985450844879e-06,0.5534996744119562,-2.199134906914789e-05
0.5542937915918873,-5.53903e-06,0.5542937915918873,-2.0211186438874657e-05,0.5542937915918873,6.270942474008017e-06,0.5542937915918873,-2.0111688762995996e-05
0.5550879087718184,-6.88182e-06,0.5550879087718184,-2.1139330073389e-05,0.5550879087718184,4.394106183442103e-06,0.5550879087718184,-1.9818557100652616e-05
0.5558820259517494,-7.037831844622771e-06,0.5558820259517494,-2.1079819180546336e-05,0.5558820259517494,3.919034877426699e-06,0.5558820259517494,-1.5079283741911003e-05
0.5566761431316805,-9.4666597250495e-06,0.5566761431316805,-2.161312740518243e-05,0.5566761431316805,5.054107625027499e-06,0.5566761431316805,-1.3043777899978e-05
0.5574702603116115,-6.450595105421699e-06,0.5574702603116115,-2.13169e-05,0.5574702603116115,7.572319808182034e-06,0.5574702603116115,-1.3950605092738077e-05
0.5582643774915427,-3.5539651068180475e-06,0.5582643774915427,-2.143510972605345e-05,0.5582643774915427,5.91577000533872e-06,0.5582643774915427,-1.5174982128181655e-05
0.5590584946714737,-4.512072927341373e-06,0.5590584946714737,-2.1751699497665915e-05,0.5590584946714737,2.597167699122068e-06,0.5590584946714737,-1.59457e-05
0.5598526118514048,-5.064319449605003e-06,0.5598526118514048,-2.2481222152279723e-05,0.5598526118514048,1.5699788187993749e-06,0.5598526118514048,-1.4741910550394997e-05
0.5606467290313358,-8.479918987305904e-06,0.5606467290313358,-2.350852518620211e-05,0.5606467290313358,-1.3309577653847154e-06,0.5606467290313358,-1.3832203594922362e-05
0.5614408462112669,-1.0248493502949923e-05,0.5614408462112669,-2.269930743318124e-05,0.5614408462112669,-3.602354930084329e-06,0.5614408462112669,-1.62814e-05
0.5622349633911979,-1.0791308513880186e-05,0.5622349633911979,-2.2816724152093087e-05,0.5622349633911979,-5.124061138251397e-06,0.5622349633911979,-1.5640283960874596e-05
0.563029080571129,-1.1265954730781129e-05,0.563029080571129,-2.455537967682464e-05,0.563029080571129,-2.301060778866974e-06,0.563029080571129,-1.6498055714633977e-05
0.5638231977510602,-8.363084585192243e-06,0.5638231977510602,-2.43381e-05,0.5638231977510602,-1.9647682619351097e-06,0.5638231977510602,-1.700217173806489e-05
0.5646173149309912,-4.9860660992430565e-06,0.5646173149309912,-2.4802555746138576e-05,0.5646173149309912,-3.406393900756944e-06,0.5646173149309912,-1.659735457400738e-05
0.5654114321109223,-6.54612e-06,0.5654114321109223,-2.387414389350056e-05,0.5654114321109223,-4.591030686609059e-06,0.5654114321109223,-1.9341702403131704e-05
0.5662055492908533,-5.578983601450668e-06,0.5662055492908533,-2.108431943262902e-05,0.5662055492908533,-5.064789556728815e-06,0.5662055492908533,-2.0112640443271187e-05
0.5669996664707844,-5.035359865066877e-06,0.5669996664707844,-1.913490789895047e-05,0.5669996664707844,-7.551778387959812e-06,0.5669996664707844,-1.829656107946498e-05
0.5677937836507154,-3.2496824551737934e-06,0.5677937836507154,-2.015183578332401e-05,0.5677937836507154,-7.377123806689549e-06,0.5677937836507154,-1.7051861351515758e-05
0.5685879008306466,-3.4047082287826e-06,0.5685879008306466,-2.032914047947602e-05,0.5685879008306466,-6.012538083544202e-06,0.5685879008306466,-1.592800958227899e-05
0.5693820180105776,-4.789634962791698e-06,0.5693820180105776,-2.163190121185642e-05,0.5693820180105776,-4.594648531448591e-06,0.5693820180105776,-1.35958e-05
0.5701761351905087,-3.644219341400088e-06,0.5701761351905087,-2.34693744158659e-05,0.5701761351905087,-1.1377182865713428e-06,0.5701761351905087,-1.2491778682800177e-05
0.5709702523704397,-4.19623e-06,0.5709702523704397,-2.090405895224845e-05,0.5709702523704397,2.8640363219731904e-08,0.5709702523704397,-1.1936393651315989e-05
0.5717643695503708,-4.078047516975949e-06,0.5717643695503708,-2.054619890604608e-05,0.5717643695503708,1.17494e-06,0.5717643695503708,-1.1030084092873825e-05
0.5725584867303019,-4.166435791491353e-06,0.5725584867303019,-2.1889195375696788e-05,0.5725584867303019,2.1224515829827064e-06,0.5725584867303019,-8.91587280567243e-06
0.573352603910233,-5.735690052949983e-06,0.573352603910233,-2.125932030187656e-05,0.573352603910233,3.623166794174881e-06,0.573352603910233,-1.5962632811425708e-05
0.5741467210901641,-5.992916064447481e-06,0.5741467210901641,-2.023070745658588e-05,0.5741467210901641,3.1513571341987763e-06,0.5741467210901641,-2.125533330674325e-05
