X [s].2,L DELTOID ANTERIOR: EMG 3 [V],X [s].3,L BICEPS BRACHII: EMG 4 [V],X [s].4,L DELTOID POSTERIOR: EMG 5 [V],X [s].7,L DELTOID MEDIUS: EMG 8 [V]
0.0,-8.89601e-06,0.0,-1.09102e-05,0.0,-1.561e-05,0.0,-1.46029e-05
0.000794117179931,-1.258869618663683e-05,0.000794117179931,-1.1581599306659364e-05,0.000794117179931,-1.762419791997809e-05,0.000794117179931,-1.6952797573307775e-05
0.0015882343598621,-1.2924397615738791e-05,0.0015882343598621,-1.7959854699037045e-05,0.0015882343598621,-1.6281409537044832e-05,0.0015882343598621,-2.030977615738792e-05
0.0023823515397932,-1.6281398698160023e-05,0.0023823515397932,-2.433813645151935e-05,0.0023823515397932,-1.1581604230882974e-05,0.0023823515397932,-1.9974098047240037e-05
0.0031764687197242,-1.5610001082427237e-05,0.0031764687197242,-4.313726969203739e-05,0.0031764687197242,-1.3763596482192091e-05,0.0031764687197242,-1.896700162364085e-05
0.0039705858996553,-1.057452600020837e-05,0.0039705858996553,-4.917976880026629e-05,0.0039705858996553,-1.6281386999637647e-05,0.0039705858996553,-1.695281040008335e-05
0.0047647030795864,-5.036357640066325e-07,0.0047647030795864,-3.709480531643846e-05,0.0047647030795864,-1.7959885372595844e-05,0.0047647030795864,-1.7624194149038337e-05
0.0055588202595174,7.888913071775103e-06,0.0055588202595174,-2.5345195721484235e-05,0.0055588202595174,-1.7624199122349037e-05,0.0055588202595174,-1.6449199506337674e-05
0.0063529374394485,1.7288469692069632e-05,0.0063529374394485,-1.2253042214339767e-05,0.0063529374394485,-1.4938608659417889e-05,0.0063529374394485,-1.4938604870761344e-05
0.0071470546193796,1.6617104549121686e-05,0.0071470546193796,3.189035370607762e-06,0.0071470546193796,-1.6281390901756628e-05,0.0071470546193796,-1.3595809098243371e-05
0.0079411717993107,7.217617067238046e-06,0.0079411717993107,1.5945568266023997e-05,0.0079411717993107,-1.661709653330555e-05,0.0079411717993107,-1.326010346669445e-05
0.0087352889792417,-1.510628780721701e-06,0.0087352889792417,2.3666690075336876e-05,0.0087352889792417,-1.5274301726050726e-05,0.0087352889792417,-1.4938597842436592e-05
0.0095294061591728,-8.895974280046302e-06,0.0095294061591728,2.232390649456342e-05,0.0095294061591728,-1.8295585387232317e-05,0.0095294061591728,-1.7624187010873166e-05
0.0103235233391039,-9.231759331888347e-06,0.0103235233391039,3.004541439033093e-05,0.0103235233391039,-1.930269013356355e-05,0.0103235233391039,-1.76242e-05
0.0111176405190349,-1.091033701576475e-05,0.0111176405190349,4.414479391522179e-05,0.0111176405190349,-1.8967e-05,0.0111176405190349,-1.7624080111205842e-05
0.011911757698966,-1.3595656958377294e-05,0.011911757698966,5.186498876066097e-05,0.011911757698966,-1.8967e-05,0.011911757698966,-1.5274425161419867e-05
0.0127058748788971,-1.091028495810838e-05,0.0127058748788971,5.069053716759068e-05,0.0127058748788971,-1.594579557787193e-05,0.0127058748788971,-1.1581716817399029e-05
0.0134999920588282,-1.6617042929765337e-05,0.0134999920588282,4.867632014243576e-05,0.0134999920588282,-1.2588733570726272e-05,0.0134999920588282,-9.56743014233576e-06
0.0142941092387592,-1.762412188763413e-05,0.0142941092387592,3.675883596403167e-05,0.0142941092387592,-1.15815648495517e-05,0.0142941092387592,-8.39242680247719e-06
0.0150882264186903,-1.0910334002835772e-05,0.0150882264186903,2.2659320830751927e-05,0.0150882264186903,-8.560343500708944e-06,0.0150882264186903,-5.53903e-06
0.0158823435986214,-1.4938313916754588e-05,0.0158823435986214,1.4267795999659611e-05,0.0158823435986214,-9.567338479188647e-06,0.0158823435986214,-5.53903e-06
0.0166764607785524,-1.49386e-05,0.0166764607785524,2.014795189256565e-06,0.0166764607785524,-1.191718393642198e-05,0.0166764607785524,-4.531979741745113e-06
0.0174705779584835,-1.3595837271563133e-05,0.0174705779584835,-1.9973489679819117e-05,0.0174705779584835,-1.1749404660333222e-05,0.0174705779584835,-3.5248579536723487e-06
0.0182646951384146,-2.064545684080291e-05,0.0182646951384146,-4.061937360612684e-05,0.0182646951384146,-1.2924392806494378e-05,0.0182646951384146,-2.8534441103385017e-06
0.0190588123183456,-1.96383375101073e-05,0.0190588123183456,-5.052257917003577e-05,0.0190588123183456,-1.3595826037455293e-05,0.0190588123183456,-7.888956867264404e-06
0.0198529294982767,-1.5609401508563863e-05,0.0198529294982767,-4.9179376070912216e-05,0.0198529294982767,-1.5274187782493588e-05,0.0198529294982767,-1.0910249874447294e-05
0.0206470466782078,5.024661525339855e-07,0.0206470466782078,-3.776686630438081e-05,0.0206470466782078,-1.2253202847054484e-05,0.0206470466782078,-1.2252909845753562e-05
0.0214411638581389,5.874475541931322e-06,0.0214411638581389,-1.3261215341201326e-05,0.0214411638581389,-1.174942292033906e-05,0.0214411638581389,-1.359573888516424e-05
0.0222352810380699,-3.3736754114171936e-05,0.0222352810380699,1.0573930865108526e-05,0.0222352810380699,-1.4938523846634897e-05,0.0222352810380699,-1.2924416032036036e-05
0.023029398218001,-4.4479975893757296e-05,0.023029398218001,1.5945687946766442e-05,0.023029398218001,-1.6952795480037418e-05,0.023029398218001,-1.0910204519962584e-05
0.0238235153979321,2.098271016465071e-05,0.0238235153979321,8.392033638414749e-06,0.0238235153979321,-1.628137396254471e-05,0.0238235153979321,-1.6281413018727646e-05
0.0246176325778631,9.886307606711404e-05,0.0246176325778631,-1.359671572017128e-05,0.0246176325778631,-1.4938324593996892e-05,0.0246176325778631,-1.695271737807601e-05
0.0254117497577942,9.58420911316749e-05,0.0254117497577942,-3.591828775878027e-05,0.0254117497577942,-8.225034736422706e-06,0.0254117497577942,-1.4938727421116596e-05
0.0262058669377253,5.623114925834177e-05,0.0262058669377253,-6.0592572704622826e-05,0.0262058669377253,-8.22461e-06,0.0262058669377253,-1.49386e-05
0.0269999841176564,-2.3487183868532244e-06,0.0269999841176564,-7.301415157862563e-05,0.0269999841176564,-1.2252919430456953e-05,0.0269999841176564,-1.628137314341898e-05
0.0277941012975874,-4.397650767963934e-05,0.0277941012975874,-7.536429451454333e-05,0.0277941012975874,-1.2588699451454332e-05,0.0277941012975874,-1.6952803291274003e-05
0.0285882184775185,-4.867574937832313e-05,0.0285882184775185,-7.200698759220448e-05,0.0285882184775185,-1.225300781025305e-05,0.0285882184775185,-1.896695313848169e-05
0.0293823356574496,-2.5011417378835976e-05,0.0293823356574496,-5.858048786871362e-05,0.0293823356574496,-1.258867280307962e-05,0.0293823356574496,-1.6952963181522278e-05
0.0301764528373806,-1.0575357313197128e-05,0.0301764528373806,-5.4886919314197646e-05,0.0301764528373806,-1.560982056111102e-05,0.0301764528373806,-1.9973920561111016e-05
0.0309705700173117,-3.5250961730989376e-06,0.0309705700173117,-4.4144805595053485e-05,0.0309705700173117,-1.6449168314479312e-05,0.0309705700173117,-2.0477580989442724e-05
0.0317646871972428,-1.174977885746197e-06,0.0317646871972428,-2.2324251797711765e-05,0.0317646871972428,-1.493862435442008e-05,0.0317646871972428,-2.064549729305764e-05
0.0325588043771738,-7.0496986813754425e-06,0.0325588043771738,-1.678378050015635e-06,0.0325588043771738,-1.2924403700836862e-05,0.0325588043771738,-2.0309792598326277e-05
0.0333529215571049,-1.2253091119618964e-05,0.0333529215571049,1.863157335614257e-05,0.0333529215571049,-1.3595964015314135e-05,0.0333529215571049,-1.8967091116904647e-05
0.034147038737036,-1.5609741047884622e-05,0.034147038737036,2.8701423151367663e-05,0.034147038737036,-1.963793388619232e-05,0.034147038737036,-2.232364105559842e-05
0.0349411559169671,-1.829545091374748e-05,0.0349411559169671,2.433834226516036e-05,0.0349411559169671,-2.098112545687374e-05,0.0349411559169671,-2.064559317335651e-05
0.0357352730968981,-1.644926255369249e-05,0.0357352730968981,1.6281672950787626e-05,0.0357352730968981,-1.6449353538417655e-05,0.0357352730968981,-1.6281547850178396e-05
0.0365293902768292,-1.2253051379384325e-05,0.0365293902768292,3.692834139622283e-06,0.0365293902768292,-1.594570616498737e-05,0.0365293902768292,-1.5945704110399723e-05
0.0373235074567603,-7.04964478176435e-06,0.0373235074567603,-2.5175697768389327e-06,0.0373235074567603,-1.493858423854403e-05,0.0373235074567603,-1.510636374912078e-05
0.0381176246366913,-4.364262238307268e-06,0.0381176246366913,1.5610791435873914e-05,0.0381176246366913,-1.3260047931646316e-05,0.0381176246366913,-1.1245910413670736e-05
0.0389117418166224,-1.0238369615900604e-05,0.0389117418166224,4.112123090112102e-05,0.0389117418166224,-1.1581722967513489e-05,0.0389117418166224,-1.1581575406497304e-05
0.0397058589965535,-1.3595626660911969e-05,0.0397058589965535,5.572514598271234e-05,0.0397058589965535,-1.258864799827359e-05,0.0397058589965535,-1.1917282666091196e-05
0.0404999761764846,-1.35958e-05,0.0404999761764846,5.085844603115927e-05,0.0404999761764846,-1.359576978634635e-05,0.0404999761764846,-1.2588679857564234e-05
0.0412940933564156,-1.5106387362046989e-05,0.0412940933564156,1.896726680838798e-05,0.0412940933564156,-1.762416629767648e-05,0.0412940933564156,-1.191730561705392e-05
0.0420882105363467,-1.29244e-05,0.0420882105363467,-1.6953004864417007e-05,0.0420882105363467,-1.7959835422091384e-05,0.0420882105363467,-1.1917295546396876e-05
0.0428823277162778,-1.29244e-05,0.0428823277162778,-3.239349454486728e-05,0.0428823277162778,-1.3092643031320192e-05,0.0428823277162778,-1.1581630553570309e-05
0.0436764448962088,-1.158169317890784e-05,0.0436764448962088,-4.263298951429729e-05,0.0436764448962088,-1.3931441759713024e-05,0.0436764448962088,-9.567549767667846e-06
0.0444705620761399,-1.2252967935927924e-05,0.0444705620761399,-5.841074649908196e-05,0.0444705620761399,-1.6449079762117573e-05,0.0444705620761399,-8.896042064072075e-06
0.045264679256071,-1.2924382461309764e-05,0.045264679256071,-5.69009394607469e-05,0.045264679256071,-1.7120582461309767e-05,0.045264679256071,-7.04971823113692e-06
0.046058796436002,-1.0910209039925166e-05,0.046058796436002,-4.515145273289681e-05,0.046058796436002,-1.5274308286373666e-05,0.046058796436002,-1.0238785686874914e-05
0.0468529136159331,-7.553243021076412e-06,0.0468529136159331,-2.635191151867121e-05,0.0468529136159331,-1.4938588489376072e-05,0.0468529136159331,-8.560338776388376e-06
0.0476470307958642,-8.89589299342551e-06,0.0476470307958642,-3.694654489321079e-06,0.0476470307958642,-1.426725850372293e-05,0.0476470307958642,-1.0238653741564044e-05
0.0484411479757953,-7.553307970761644e-06,0.0484411479757953,6.209771214076934e-06,0.0484411479757953,-1.3092276978265352e-05,0.0484411479757953,-1.3092013064015018e-05
0.0492352651557263,-3.5250067615205047e-06,0.0492352651557263,2.182216761081715e-06,0.0492352651557263,-1.6281260061254943e-05,0.0492352651557263,-1.6281260061254943e-05
0.0500293823356574,-6.881745325498899e-06,0.0500293823356574,-1.6280989290355168e-05,0.0500293823356574,-1.6952785065055292e-05,0.0500293823356574,-1.561001493494471e-05
0.0508234995155885,-6.210420409562864e-06,0.0508234995155885,-4.045168525579792e-05,0.0508234995155885,-1.7624199590437137e-05,0.0508234995155885,-1.5945699795218566e-05
0.0516176166955195,-3.860487658085361e-06,0.0516176166955195,-5.60620340057287e-05,0.0516176166955195,-1.5609957657875142e-05,0.0516176166955195,-1.7624263513187287e-05
0.0524117338754506,-1.846507700083154e-06,0.0524117338754506,-7.670538106977656e-05,0.0524117338754506,-1.3595967700915749e-05,0.0524117338754506,-2.064524844862638e-05
0.0532058510553817,-1.1749813819628574e-06,0.0532058510553817,-8.845587581564999e-05,0.0532058510553817,-1.2924441381962857e-05,0.0532058510553817,-2.131685861803714e-05
0.0539999682353128,-2.5176862868379647e-06,0.0539999682353128,-8.040012227897222e-05,0.0539999682353128,-1.4267146286837963e-05,0.0539999682353128,-1.9638467141452545e-05
0.0547940854152438,-2.182046165599586e-06,0.0547940854152438,-5.253731174292899e-05,0.0547940854152438,-1.19173431591971e-05,0.0547940854152438,-1.8295624662398342e-05
0.0555882025951749,5.035342881569369e-07,0.0555882025951749,-1.863117933547519e-05,0.0555882025951749,-1.2924404387812783e-05,0.0555882025951749,-1.4938586836561646e-05
0.056382319775106,-3.6922561244693578e-06,0.056382319775106,1.8291869885875488e-05,0.056382319775106,-1.4267064359119058e-05,0.056382319775106,-1.091060692264282e-05
0.057176436955037,-6.545893460497436e-06,0.057176436955037,3.843590089996401e-05,0.057176436955037,-1.4938546696400828e-05,0.057176436955037,-9.231843258204014e-06
0.0579705541349681,-6.881800610891336e-06,0.0579705541349681,6.210283307650285e-05,0.0579705541349681,-1.728836427623936e-05,0.0579705541349681,-9.903061222360248e-06
0.0587646713148992,-8.560249368272499e-06,0.0587646713148992,8.778427233084857e-05,0.0587646713148992,-1.4938684884924222e-05,0.0587646713148992,-8.560358505309757e-06
0.0595587884948302,3.524654906703665e-06,0.0595587884948302,9.98701249072832e-05,0.0595587884948302,-1.292442918236094e-05,0.0595587884948302,-1.040667324892294e-05
0.0603529056747613,9.063791638432065e-06,0.0603529056747613,9.819176881739352e-05,0.0603529056747613,-1.3931509594648146e-05,0.0603529056747613,-1.292441918929629e-05
0.0611470228546924,-5.026186615049527e-07,0.0611470228546924,9.382812391064814e-05,0.0611470228546924,-1.527416956595442e-05,0.0611470228546924,-1.560973913190884e-05
0.0619411400346235,-8.559701604625763e-06,0.0619411400346235,8.342188584018017e-05,0.0619411400346235,-1.4938625349926823e-05,0.0619411400346235,-1.5945674650073177e-05
0.0627352572145545,-1.3595528692000289e-05,0.0627352572145545,5.75736927117764e-05,0.0627352572145545,-1.66170095638205e-05,0.0627352572145545,-1.6952745738292302e-05
0.0635293743944856,-9.56753989421728e-06,0.0635293743944856,3.0717265960373724e-05,0.0635293743944856,-1.66171e-05,0.0635293743944856,-1.2588840719084704e-05
0.0643234915744167,-6.88184849472638e-06,0.0643234915744167,4.867904261383314e-06,0.0643234915744167,-1.3260135618540603e-05,0.0643234915744167,-1.0238824932978424e-05
0.0651176087543477,-1.2252844585084428e-05,0.0651176087543477,-2.232422563153512e-05,0.0651176087543477,-1.258868889888736e-05,0.0651176087543477,-8.22461e-06
0.0659117259342788,1.84502511988808e-06,0.0659117259342788,-5.186264501070076e-05,0.0659117259342788,-1.1581693920407671e-05,0.0659117259342788,-8.22461e-06
0.0667058431142099,2.4672164742353277e-05,0.0667058431142099,-7.301288497975812e-05,0.0667058431142099,-1.15816e-05,0.0667058431142099,-6.881916191499862e-06
0.067499960294141,-1.6660689067799273e-07,0.067499960294141,-9.2819609668575e-05,0.067499960294141,-1.1917283214636863e-05,0.067499960294141,-1.0238632147368649e-05
0.068294077474072,-2.030922864105709e-05,0.068294077474072,-0.0001116194667246,0.068294077474072,-1.4938514295950069e-05,0.068294077474072,-1.510626192267122e-05
0.0690881946540031,-1.896700903992519e-05,0.0690881946540031,-0.0001196769457591,0.0690881946540031,-1.661708870009351e-05,0.0690881946540031,-1.5609996609691446e-05
0.0698823118339342,-1.2757189442648622e-05,0.0698823118339342,-0.0001049076397644,0.0698823118339342,-1.5610111800610488e-05,0.0698823118339342,-1.6784769571505053e-05
0.0706764290138652,-8.403113063819928e-07,0.0706764290138652,-7.973065067435528e-05,0.0706764290138652,-1.3931650044361073e-05,0.0706764290138652,-1.4938765044327585e-05
0.0714705461937963,1.896565797896269e-05,0.0714705461937963,-6.059489652555788e-05,0.0714705461937963,-1.0574727461812916e-05,0.0714705461937963,-1.1581827461812916e-05
0.0722646633737274,3.373701873103581e-05,0.0722646633737274,-4.515211224055724e-05,0.0722646633737274,-1.4267029681605878e-05,0.0722646633737274,-1.0574546450471125e-05
0.0730587805536585,9.232310115665815e-06,0.0730587805536585,-3.30665959463312e-05,0.0730587805536585,-1.4938583558401109e-05,0.0730587805536585,-1.3595726012804989e-05
0.0738528977335895,-1.4434932453748285e-05,0.0738528977335895,-1.9638438324055756e-05,0.0738528977335895,-1.1581609581085289e-05,0.0738528977335895,-1.6281392335131768e-05
0.0746470149135206,-7.050461226049646e-06,0.0746470149135206,-6.211858604310182e-06,0.0746470149135206,-1.2924256139354711e-05,0.0746470149135206,-1.829538420903207e-05
0.0754411320934517,-1.0238527285215484e-05,0.0754411320934517,6.708085093331947e-07,0.0754411320934517,-1.4938427758003287e-05,0.0754411320934517,-2.064529905100384e-05
0.0762352492733827,-1.1581514222765885e-05,0.0762352492733827,9.902510284517784e-06,0.0762352492733827,-1.5274278555691473e-05,0.0762352492733827,-2.0981178555691477e-05
0.0770293664533138,-1.0406749633549376e-05,0.0770293664533138,1.3931329820588729e-05,0.0770293664533138,-1.6281357455147183e-05,0.0770293664533138,-1.9974142544852816e-05
0.0778234836332449,-5.5391303248492e-06,0.0778234836332449,6.546272215974949e-06,0.0778234836332449,-1.71205827037138e-05,0.0778234836332449,-1.930271383785338e-05
0.078617600813176,-2.1820401718604776e-06,0.078617600813176,1.5106331256116088e-06,0.078617600813176,-1.644919982819072e-05,0.078617600813176,-1.594569828139522e-05
0.079411717993107,-2.349872668273759e-06,0.079411717993107,-5.202636734048083e-06,0.079411717993107,-1.6281417326563378e-05,0.079411717993107,-1.4267373317262409e-05
0.0802058351730381,-6.881450032422492e-06,0.0802058351730381,-1.1581079305042091e-05,0.0802058351730381,-1.2421115163038645e-05,0.0802058351730381,-1.4938545189746631e-05
0.0809999523529692,-7.888849573292716e-06,0.0809999523529692,-1.5609758290770808e-05,0.0809999523529692,-1.3763519430256936e-05,0.0809999523529692,-1.3595880569743065e-05
0.0817940695329002,-8.224597120255162e-06,0.0817940695329002,-1.4938625759489674e-05,0.0817940695329002,-1.0910309475912776e-05,0.0817940695329002,-1.4434967802556248e-05
0.0825881867128313,-3.5249086384202377e-06,0.0825881867128313,-1.628137753178432e-05,0.0825881867128313,-1.2924366297676476e-05,0.0825881867128313,-1.4267202807690342e-05
0.0833823038927624,-7.552732518969007e-06,0.0833823038927624,-1.326046561168083e-05,0.0833823038927624,-1.5609675011839263e-05,0.0833823038927624,-1.42672e-05
0.0841764210726934,-1.2252532878760036e-05,0.0841764210726934,-9.567777024399354e-06,0.0841764210726934,-1.6281333268110312e-05,0.0841764210726934,-1.560986653622063e-05
0.0849705382526245,-1.3931369483730428e-05,0.0849705382526245,-1.1077982532247076e-05,0.0849705382526245,-1.762409558698434e-05,0.0849705382526245,-1.561e-05
0.0857646554325556,-1.124605072450398e-05,0.0857646554325556,-1.6952470292953706e-05,0.0857646554325556,-1.8631243478311008e-05,0.0857646554325556,-1.6281362318874005e-05
0.0865587726124866,-6.88197051164727e-06,0.0865587726124866,-2.568059897877478e-05,0.0865587726124866,-1.896698842212792e-05,0.0865587726124866,-1.695277684425584e-05
0.0873528897924177,-1.2924322326996249e-05,0.0873528897924177,-3.91087273927537e-05,0.0873528897924177,-1.577784099486371e-05,0.0873528897924177,-1.4938625891086946e-05
0.0881470069723488,-2.0308934920152458e-05,0.0881470069723488,-4.078720339094374e-05,0.0881470069723488,-1.712044271275499e-05,0.0881470069723488,-1.6281242712754994e-05
0.0889411241522799,-2.7023058728109915e-05,0.0889411241522799,-3.004602605030639e-05,0.0889411241522799,-1.6952816027260334e-05,0.0889411241522799,-1.3596056512576596e-05
0.0897352413322109,-1.963894562299751e-05,0.0897352413322109,-2.0646194431284453e-05,0.0897352413322109,-1.4938748808286944e-05,0.0897352413322109,-1.1246073609668103e-05
0.090529358512142,-1.7959987693451175e-05,0.090529358512142,-1.6952992925592583e-05,0.090529358512142,-1.4435026310647608e-05,0.090529358512142,-1.4938407074407418e-05
0.0913234756920731,-2.5680663655076896e-05,0.0913234756920731,-2.6352012275080333e-05,0.0913234756920731,-1.661703320447394e-05,0.0913234756920731,-1.6281358896002752e-05
0.0921175928720041,-2.3331021093158725e-05,0.0921175928720041,-3.105205781368255e-05,0.0921175928720041,-1.7288493973383222e-05,0.0921175928720041,-1.6449198493794617e-05
0.0929117100519352,-2.855759210391253e-06,0.0929117100519352,-2.853468514510528e-05,0.0929117100519352,-1.6952838020102415e-05,0.0929117100519352,-1.5274433064695632e-05
0.0937058272318663,3.00419853191292e-05,0.0937058272318663,-2.1653230620504096e-05,0.0937058272318663,-1.7624138475601377e-05,0.0937058272318663,-1.4938630762199313e-05
0.0944999444117974,3.927605376701938e-05,0.0944999444117974,-1.2589334486726502e-05,0.0944999444117974,-1.8295553000983225e-05,0.0944999444117974,-1.560995300098322e-05
0.0952940615917284,1.930366608338452e-05,0.0952940615917284,-2.8539108657720034e-06,0.0952940615917284,-1.3596027315444606e-05,0.0952940615917284,-1.6449159410374676e-05
0.0960881787716595,4.868015886639629e-06,0.0960881787716595,2.1819053886364164e-06,0.0960881787716595,-1.2253035896506195e-05,0.0960881787716595,-1.4435053844759294e-05
0.0968822959515906,5.035458009914989e-06,0.0968822959515906,1.1244712540649813e-05,0.0968822959515906,-1.4266936118979866e-05,0.0968822959515906,-1.0910661785234716e-05
0.0976764131315216,7.217281301480394e-06,0.0976764131315216,2.8700290414031e-05,0.0976764131315216,-1.2253220338104796e-05,0.0976764131315216,-9.9032101690524e-06
0.0984705303114527,6.881849460326548e-06,0.0984705303114527,4.682830915114214e-05,0.0984705303114527,-6.210950284122725e-06,0.0984705303114527,-9.23176891977552e-06
0.0992646474913838,4.532085382788149e-06,0.0992646474913838,4.011644394610018e-05,0.0992646474913838,-7.217453407093121e-06,0.0992646474913838,-1.0910089012483105e-05
0.1000587646713148,-1.8444502985114372e-06,0.1000587646713148,2.316822263645084e-05,0.1000587646713148,-9.902304338398398e-06,0.1000587646713148,-1.242035245182963e-05
0.1008528818512459,-6.881070710720473e-06,0.1008528818512459,2.520812084855643e-06,0.1008528818512459,-1.124570018873185e-05,0.1008528818512459,-1.1246074827419536e-05
0.101646999031177,-9.735256518289416e-06,0.101646999031177,-1.795987501359203e-05,0.101646999031177,-1.0910200409614445e-05,0.101646999031177,-1.1581599590385554e-05
0.1024411162111081,-1.2588503465647414e-05,0.1024411162111081,-2.4673603465647413e-05,0.1024411162111081,-9.56726259923556e-06,0.1024411162111081,-1.2588356064882974e-05
0.1032352333910391,-1.1246590737535254e-05,0.1032352333910391,-2.3327842372090324e-05,0.1032352333910391,-8.561987502503326e-06,0.1032352333910391,-1.0239194707163002e-05
0.1040293505709702,-1.35956519664469e-05,0.1040293505709702,-1.258307474747168e-05,0.1040293505709702,-1.4267496067106198e-05,0.1040293505709702,-1.1583376402637192e-05
0.1048234677509013,-1.3260324749713749e-05,0.1048234677509013,1.5930854502193085e-07,0.1048234677509013,-1.4938150500572508e-05,0.1048234677509013,-1.5607303003435048e-05
0.1056175849308323,-1.309228777092348e-05,0.1056175849308323,1.1911157890621464e-05,0.1056175849308323,-1.3093165218779714e-05,0.1056175849308323,-1.359685293742748e-05
0.1064117021107634,-1.3763348107262703e-05,0.1064117021107634,2.198452160894054e-05,0.1064117021107634,-1.3595611061688258e-05,0.1064117021107634,-1.5273670268156757e-05
0.1072058192906945,-9.56836502592002e-06,0.1072058192906945,2.3666318006929106e-05,0.1072058192906945,-1.29245528063321e-05,0.1072058192906945,-1.7623665177837647e-05
0.1079999364706256,-9.23173685996346e-06,0.1079999364706256,-4.865346916708029e-06,0.1079999364706256,-1.762382396051158e-05,0.1079999364706256,-2.1316604540401955e-05
0.1087940536505566,-9.9031680497174e-06,0.1087940536505566,-3.474586610548228e-05,0.1087940536505566,-1.8463354633521733e-05,0.1087940536505566,-2.1988107189088867e-05
0.1095881708304877,-1.0909838869942858e-05,0.1095881708304877,-5.0523683396625975e-05,0.1095881708304877,-1.7792397256187108e-05,0.1095881708304877,-1.9134547218211526e-05
0.1103822880104188,-9.23049230718404e-06,0.1103822880104188,-5.555950033277311e-05,0.1103822880104188,-1.963876530893299e-05,0.1103822880104188,-1.79599e-05
0.1111764051903498,-5.873180133961892e-06,0.1111764051903498,-5.94186855741632e-05,0.1111764051903498,-2.064609881527305e-05,0.1111764051903498,-1.7959557805281872e-05
0.1119705223702809,-2.855255161154191e-06,0.1119705223702809,-5.9586399127006505e-05,0.1119705223702809,-2.181969412936237e-05,0.1119705223702809,-1.7288903371815563e-05
0.112764639550212,5.020240382709868e-07,0.112764639550212,-4.73390624574963e-05,0.112764639550212,-1.7626104936272423e-05,0.112764639550212,-1.0913095537635573e-05
0.1135587567301431,3.020518601088104e-06,0.1135587567301431,-2.568753403640235e-05,0.1135587567301431,-1.2590242802725957e-05,0.1135587567301431,-6.547457089568123e-06
0.1143528739100741,4.531690105181912e-06,0.1143528739100741,-4.703111873885026e-06,0.1143528739100741,-1.0910466551562356e-05,0.1143528739100741,-6.881766689687528e-06
0.1151469910900052,1.6789797221522045e-07,0.1151469910900052,1.9973823118209385e-05,0.1151469910900052,-8.56033636965694e-06,0.1151469910900052,-5.874731301329639e-06
0.1159411082699363,-4.1964131043708745e-06,0.1159411082699363,4.683177681980146e-05,0.1159411082699363,-1.0071114433413792e-05,0.1159411082699363,-6.882277758199984e-06
0.1167352254498673,-5.53903e-06,0.1167352254498673,6.059560167680734e-05,0.1167352254498673,-1.0911153192953107e-05,0.1167352254498673,-1.0239753192953109e-05
0.1175293426297984,-5.5375832015005055e-06,0.1175293426297984,6.763842559382738e-05,0.1175293426297984,-1.4268646802809305e-05,0.1175293426297984,-1.3596957442247445e-05
0.1183234598097295,-2.184321023064305e-06,0.1183234598097295,5.6572727330586736e-05,0.1183234598097295,-1.762191897014085e-05,0.1183234598097295,-1.627957517611268e-05
0.1191175769896605,-4.530678075860864e-06,0.1191175769896605,2.9388086559124787e-05,0.1191175769896605,-1.76242e-05,0.1191175769896605,-1.6616921152933328e-05
0.1199116941695916,-1.292116741495324e-05,0.1199116941695916,5.212639828140953e-06,0.1199116941695916,-1.6953058607728166e-05,0.1199116941695916,-1.527481721545633e-05
0.1207058113495227,-2.16505262228014e-05,0.1207058113495227,-1.1745372115106442e-05,0.1207058113495227,-1.930214167536961e-05,0.1207058113495227,-1.3596198803307424e-05
0.1214999285294538,-1.5610543914260062e-05,0.1214999285294538,-2.953989847467871e-05,0.1214999285294538,-1.796002086983557e-05,0.1214999285294538,-1.2924460434917785e-05
0.1222940457093848,-1.359554876590751e-05,0.1222940457093848,-4.448069572677341e-05,0.1222940457093848,-1.5609748765331827e-05,0.1222940457093848,-9.902771464084058e-06
0.1230881628893159,-9.231365657320014e-06,0.1230881628893159,-5.656485565526851e-05,0.1230881628893159,-1.1245417919427416e-05,0.1230881628893159,-4.196367737892596e-06
0.123882280069247,-7.553575232919349e-06,0.123882280069247,-5.488421334487331e-05,0.123882280069247,-8.89553635493176e-06,0.123882280069247,-4.869050938732039e-06
0.124676397249178,-8.559471284562371e-06,0.124676397249178,-4.7834819376838816e-05,0.124676397249178,-7.5538909713507345e-06,0.124676397249178,-8.899029388567264e-06
0.1254705144291091,-6.882845189791943e-06,0.1254705144291091,-4.347566544826126e-05,0.1254705144291091,-8.895189849388008e-06,0.1254705144291091,-1.49349093008687e-05
0.1262646316090402,-9.901698221361564e-06,0.1262646316090402,-3.927864695086205e-05,0.1262646316090402,-9.063782122893456e-06,0.1262646316090402,-1.6448499129239522e-05
0.1270587487889713,-4.1980355776868565e-06,0.1270587487889713,-2.7698764264042824e-05,0.1270587487889713,-9.567250683484254e-06,0.1270587487889713,-1.2925515199790887e-05
0.1278528659689023,2.516606648906041e-06,0.1278528659689023,-9.570470043058344e-06,0.1278528659689023,-1.24203183337611e-05,0.1278528659689023,-1.560954665753676e-05
0.1286469831488334,1.1749684984212526e-06,0.1286469831488334,4.531630767850237e-06,0.1286469831488334,-1.2588696436636188e-05,0.1286469831488334,-1.7624157252368122e-05
0.1294411003287645,-5.03844929170166e-07,0.1294411003287645,1.0405194141059765e-05,0.1294411003287645,-1.4938769674389162e-05,0.1294411003287645,-1.6953181767375618e-05
0.1302352175086955,-2.852888230844345e-06,0.1302352175086955,-1.5140425756380509e-06,0.1302352175086955,-1.628231961799883e-05,0.1302352175086955,-1.997474370520514e-05
0.1310293346886266,-8.396699785003319e-07,0.1310293346886266,-1.3941816829540377e-05,0.1310293346886266,-1.9637693364956194e-05,0.1310293346886266,-2.232361738808168e-05
0.1318234518685577,-1.8456456353625883e-06,0.1318234518685577,-3.8420603762107206e-05,0.1318234518685577,-1.796105728129042e-05,0.1318234518685577,-2.1653062843568817e-05
0.1326175690484888,-5.87253355610983e-06,0.1326175690484888,-5.739410552365455e-05,0.1326175690484888,-1.4940239841059029e-05,0.1326175690484888,-1.8968457636496917e-05
0.1334116862284198,-6.042503669320244e-06,0.1334116862284198,-5.992120502004476e-05,0.1334116862284198,-1.6280869354561958e-05,0.1334116862284198,-1.6282461290876083e-05
0.1342058034083509,-6.881612204607704e-06,0.1342058034083509,-6.0929050645529246e-05,0.1342058034083509,-1.829510129105849e-05,0.1342058034083509,-1.3260848063412266e-05
0.134999920588282,-1.0238464252457032e-05,0.134999920588282,-5.723696932449759e-05,0.134999920588282,-1.7624267149908653e-05,0.134999920588282,-1.2924433574954326e-05
0.135794037768213,-1.1245788222737726e-05,0.135794037768213,-5.119355289380492e-05,0.135794037768213,-1.762413612700689e-05,0.135794037768213,-1.158172774598622e-05
0.1365881549481441,-8.895551421795399e-06,0.1365881549481441,-4.179292772517912e-05,0.1365881549481441,-1.628166204580348e-05,0.1365881549481441,-1.4267855114508698e-05
0.1373822721280752,-6.545314620853071e-06,0.1373822721280752,-3.3732752684174185e-05,0.1373822721280752,-1.762466021861385e-05,0.1373822721280752,-1.7623854836039615e-05
0.1381763893080062,-4.196723172444178e-06,0.1381763893080062,-1.9294644869666257e-05,0.1381763893080062,-1.896667121837055e-05,0.1381763893080062,-1.661512731022329e-05
0.1389705064879373,-5.202704822643641e-06,0.1389705064879373,-2.86365120532306e-06,0.1389705064879373,-1.829601678490424e-05,0.1389705064879373,-1.2591200709425436e-05
0.1397646236678684,-5.538870888291477e-06,0.1397646236678684,7.2127466677030945e-06,0.1397646236678684,-1.4940191117085234e-05,0.1397646236678684,-1.4266404441457382e-05
0.1405587408477994,-3.189906976277637e-06,0.1405587408477994,1.3258127773421002e-05,0.1405587408477994,-1.544193566356051e-05,0.1405587408477994,-1.9301056472411037e-05
0.1413528580277305,-4.531689900574708e-06,0.1413528580277305,1.963725951923656e-05,0.1413528580277305,-1.124665030735142e-05,0.1413528580277305,-1.7624500126516697e-05
0.1421469752076616,-5.538998553697794e-06,0.1421469752076616,2.7694848432704812e-05,0.1421469752076616,-1.1749384278410129e-05,0.1421469752076616,-1.3931615303108087e-05
0.1429410923875927,-4.196347183305536e-06,0.1429410923875927,2.8366617183305536e-05,0.1429410923875927,-1.2924360938898156e-05,0.1429410923875927,-1.2588817183305536e-05
0.1437352095675237,-5.203418604304449e-06,0.1437352095675237,2.937408733687142e-05,0.1437352095675237,-1.2588611395695551e-05,0.1437352095675237,-1.3596154417217796e-05
0.1445293267474548,-5.540133781672676e-06,0.1445293267474548,3.121786138653267e-05,0.1445293267474548,-1.2254517711102514e-05,0.1445293267474548,-1.4936944315160891e-05
0.1453234439273859,-8.222731537747222e-06,0.1453234439273859,2.602023958269205e-05,0.1453234439273859,-1.5943117095167214e-05,0.1453234439273859,-1.091301771436304e-05
0.146117561107317,-7.889095562057537e-06,0.146117561107317,1.930641118587457e-05,0.146117561107317,-1.5274671124115072e-05,0.146117561107317,-8.226094490932676e-06
0.146911678287248,-3.526598237010679e-06,0.146911678287248,1.3262548339388995e-05,0.146911678287248,-1.359648009427472e-05,0.146911678287248,-7.889046018854944e-06
0.1477057954671791,-4.867284097390592e-06,0.1477057954671791,1.0910805329566463e-05,0.1477057954671791,-1.191773237826176e-05,0.1477057954671791,-1.1580648770400108e-05
0.1484999126471102,-6.545935338851421e-06,0.1484999126471102,4.532631713244728e-06,0.1484999126471102,-1.1581636932449748e-05,0.1484999126471102,-1.6280882945703523e-05
0.1492940298270412,-3.5249687179054994e-06,0.1492940298270412,-1.4940226779602253e-05,0.1492940298270412,-1.3595787389247168e-05,0.1492940298270412,-1.5106456750266024e-05
0.1500881470069723,-7.2175821539554355e-06,0.1500881470069723,-5.825296093935999e-05,0.1500881470069723,-1.3259944605854044e-05,0.1500881470069723,-1.6616851384178257e-05
0.1508822641869034,-7.551656246442185e-06,0.1508822641869034,-0.0001082701483519,0.1508822641869034,-1.2421972836795752e-05,0.1508822641869034,-1.527441169715803e-05
0.1516763813668344,-2.8548088095175984e-06,0.1516763813668344,-0.000129744101612,0.1516763813668344,-1.5945861037542556e-05,0.1516763813668344,-1.5610644150170227e-05
0.1524704985467655,-5.705070173958821e-06,0.1524704985467655,-0.0001237088110445,0.1524704985467655,-1.6281188254275723e-05,0.1524704985467655,-1.6951953017102894e-05
0.1532646157266966,-2.8548209785543075e-06,0.1532646157266966,-9.686199753631753e-05,0.1532646157266966,-1.561032493840794e-05,0.1532646157266966,-1.393296222283572e-05
0.1540587329066277,5.024187440230252e-07,0.1540587329066277,-5.859227349687768e-05,0.1540587329066277,-1.695234829599454e-05,0.1540587329066277,-1.3763656479820164e-05
0.1548528500865587,1.1748132359129406e-06,0.1548528500865587,-1.3100788340910963e-05,0.1548528500865587,-1.7624073234402476e-05,0.1548528500865587,-1.527401476796518e-05
0.1556469672664898,-1.5105292840550757e-06,0.1556469672664898,2.970753546179348e-05,0.1556469672664898,-1.5274396877173266e-05,0.1556469672664898,-1.6617044641615278e-05
0.1564410844464209,-4.867380075818595e-06,0.1564410844464209,5.891688516968559e-05,0.1564410844464209,-1.6952728592787156e-05,0.1564410844464209,-1.7624128592787154e-05
0.157235201626352,-2.518592463011404e-06,0.157235201626352,7.570443280867505e-05,0.157235201626352,-1.628122950638197e-05,0.157235201626352,-1.6952032778718863e-05
0.158029318806283,-5.876470058017217e-06,0.158029318806283,9.316020415387394e-05,0.158029318806283,-1.5610269240928846e-05,0.158029318806283,-1.3930423036284616e-05
0.1588234359862141,-1.0235703897757687e-05,0.1588234359862141,0.0001028850929949,0.1588234359862141,-1.628092367439518e-05,0.1588234359862141,-1.1247805302419285e-05
0.1596175531661451,-9.232276753031315e-06,0.1596175531661451,0.0001106086549065,0.1596175531661451,-1.3597311356423854e-05,0.1596175531661451,-1.091038891955298e-05
0.1604116703460762,-5.708333447527157e-06,0.1604116703460762,0.0001069215332644,0.1604116703460762,-1.1582436258102269e-05,0.1604116703460762,-1.1581321247299244e-05
0.1612057875260073,-7.217115750835016e-06,0.1612057875260073,8.443421879414091e-05,0.1612057875260073,-1.2588430500556678e-05,0.1612057875260073,-7.554297992421299e-06
0.1619999047059384,-1.1916735943167642e-05,0.1619999047059384,5.254062753279163e-05,0.1619999047059384,-1.2924359710054806e-05,0.1619999047059384,-1.057413739289361e-05
0.1627940218858694,-5.706587777027192e-06,0.1627940218858694,1.1244697082049487e-05,0.1627940218858694,-1.258870925325741e-05,0.1627940218858694,-1.49386e-05
0.1635881390658005,4.53110685323803e-06,0.1635881390658005,-3.240130877911109e-05,0.1635881390658005,-1.2924341203539998e-05,0.1635881390658005,-1.4938012035399976e-05
0.1643822562457316,-1.7001578389278957e-07,0.1643822562457316,-6.89949921597226e-05,0.1643822562457316,-1.2588591660337406e-05,0.1643822562457316,-1.1580841625589114e-05
0.1651763734256627,-6.880558530533982e-06,0.1651763734256627,-9.685909188724911e-05,0.1651763734256627,-1.2253157684270398e-05,0.1651763734256627,-9.230606214804383e-06
0.1659704906055937,-4.197950785564186e-06,0.1659704906055937,-0.000118320233536,0.1659704906055937,-1.2588484901003543e-05,0.1659704906055937,-6.883325686567727e-06
0.1667646077855248,-2.8541033018578347e-06,0.1667646077855248,-0.000131755366932,0.1667646077855248,-1.1749814591447122e-05,0.1667646077855248,-8.223946698142165e-06
0.1675587249654559,-2.1822725669935977e-06,0.1675587249654559,-0.0001273995116508,0.1675587249654559,-1.2252825557435246e-05,0.1675587249654559,-1.124485345199272e-05
0.1683528421453869,-1.17514022088262e-06,0.1683528421453869,-0.0001042386052194,0.1683528421453869,-1.5777099236851296e-05,0.1683528421453869,-1.4434365977145503e-05
0.169146959325318,-1.6790059081376037e-07,0.169146959325318,-8.24151177853404e-05,0.169146959325318,-1.4602960187259231e-05,0.169146959325318,-1.963813344251878e-05
0.1699410765052491,-4.1961006165195845e-06,0.1699410765052491,-6.696999157945163e-05,0.1699410765052491,-1.5609870615556043e-05,0.1699410765052491,-2.098123234611099e-05
0.1707351936851801,-2.853644720844594e-06,0.1707351936851801,-4.71580662319377e-05,0.1707351936851801,-1.4267855114508652e-05,0.1707351936851801,-2.131673622137284e-05
0.1715293108651112,-3.6958960344797513e-06,0.1715293108651112,-1.62673544495301e-05,0.1715293108651112,-1.6953062534384533e-05,0.1715293108651112,-2.0645631267192267e-05
0.1723234280450423,-1.1911382877755716e-05,0.1723234280450423,1.961255785196273e-05,0.1723234280450423,-1.7623716967850816e-05,0.1723234280450423,-2.098095848392541e-05
0.1731175452249733,-2.567301669829189e-05,0.1731175452249733,4.614331022772899e-05,0.1731175452249733,-1.76242e-05,0.1731175452249733,-2.1652215445903192e-05
0.1739116624049044,-1.6620953771318644e-05,0.1739116624049044,6.947968001897522e-05,0.1739116624049044,-1.6281970935383246e-05,0.1739116624049044,-2.232361457482665e-05
0.1747057795848355,-4.199678045471098e-06,0.1747057795848355,8.207480536475931e-05,0.1747057795848355,-1.728822042807034e-05,0.1747057795848355,-1.829671825995854e-05
0.1754998967647666,-4.364058176279692e-06,0.1754998967647666,7.637214200649048e-05,0.1754998967647666,-1.628153094232185e-05,0.1754998967647666,-1.5946005532084308e-05
0.1762940139446976,-2.1819869383880883e-06,0.1762940139446976,6.663581677547153e-05,0.1762940139446976,-1.4938541042380236e-05,0.1762940139446976,-1.3595758729666164e-05
0.1770881311246287,8.387470516309039e-07,0.1770881311246287,4.4811209476898814e-05,0.1770881311246287,-1.1581045612005758e-05,0.1770881311246287,-1.1244957542556664e-05
0.1778822483045598,-2.1818300356656783e-06,0.1778822483045598,1.7616011419106816e-05,0.1778822483045598,-8.225554836377185e-06,0.1778822483045598,-5.539082487956319e-06
0.1786763654844909,-1.5112573239929214e-06,0.1786763654844909,-8.570341464314792e-06,0.1786763654844909,-1.124559133800354e-05,0.1786763654844909,-5.706329846103483e-06
0.1794704826644219,-2.8525661909255397e-06,0.1794704826644219,-3.036650067412104e-05,0.1794704826644219,-1.0574936904537233e-05,0.1794704826644219,-4.532694576432788e-06
0.180264599844353,-3.524491636650094e-06,0.180264599844353,-4.480842513001997e-05,0.180264599844353,-7.890263468518855e-06,0.180264599844353,-4.867460815805175e-06
0.181058717024284,-1.690454031508672e-07,0.181058717024284,-5.253404825717865e-05,0.181058717024284,-1.0909123234633832e-05,0.181058717024284,-5.203210359007768e-06
0.1818528342042151,-8.39105805047175e-07,0.1818528342042151,-6.19344372618904e-05,0.1818528342042151,-1.359523921768297e-05,0.1818528342042151,-5.538959902210372e-06
0.1826469513841462,-5.5387422367611535e-06,0.1826469513841462,-6.227207944541297e-05,0.1826469513841462,-1.5945556117890742e-05,0.1826469513841462,-8.392285287234771e-06
0.1834410685640773,-4.195998091939083e-06,0.1834410685640773,-5.522211011384445e-05,0.1834410685640773,-1.2756456521394304e-05,0.1834410685640773,-1.1917473931693331e-05
0.1842351857440083,-1.5111111885695415e-06,0.1842351857440083,-5.186492880909111e-05,0.1842351857440083,-1.2253471190908886e-05,0.1842351857440083,-1.3932363849999624e-05
0.1850293029239394,-3.5251497848002417e-06,0.1850293029239394,-4.985056043039952e-05,0.1850293029239394,-1.4267711655680384e-05,0.1850293029239394,-1.7623688344319614e-05
0.1858234201038705,-4.363467826633127e-06,0.1858234201038705,-4.817392434673375e-05,0.1858234201038705,-1.5609020522613007e-05,0.1858234201038705,-1.6282379477386994e-05
0.1866175372838016,-6.209344015836553e-06,0.1866175372838016,-4.347573882533713e-05,0.1866175372838016,-1.7623026192736975e-05,0.1866175372838016,-1.9636443654561625e-05
0.1874116544637326,-5.7070891370118685e-06,0.1874116544637326,-3.7768583552801175e-05,0.1874116544637326,-1.8630861725976264e-05,0.1874116544637326,-2.1987277360611283e-05
0.1882057716436637,-3.525457560025223e-06,0.1882057716436637,-3.373885857766384e-05,0.1882057716436637,-1.762448964441596e-05,0.1882057716436637,-1.9303472385109227e-05
0.1889998888235948,-3.860482995063951e-06,0.1889998888235948,-3.138812903455234e-05,0.1889998888235948,-1.6281588019744196e-05,0.1889998888235948,-1.7960088019744197e-05
0.1897940060035258,-4.531907155676727e-06,0.1897940060035258,-4.112319899163905e-05,0.1897940060035258,-1.661708984693383e-05,0.1897940060035258,-2.299528984768994e-05
0.1905881231834569,-1.510483756833739e-06,0.1905881231834569,-5.4215768733222215e-05,0.1905881231834569,-1.5274456244407403e-05,0.1905881231834569,-2.1651870859432117e-05
0.191382240363388,-5.0375124692168e-07,0.191382240363388,-5.723639675065653e-05,0.191382240363388,-1.628211137270217e-05,0.191382240363388,-1.6952850797199636e-05
0.192176357543319,-1.1756948886302477e-06,0.192176357543319,-5.655870800275387e-05,0.192176357543319,-1.8630620577745776e-05,0.192176357543319,-1.712022257817188e-05
0.1929704747232501,-2.8523309722960786e-06,0.1929704747232501,-4.213973757218117e-05,0.1929704747232501,-1.71215981579698e-05,0.1929704747232501,-1.6281954480815686e-05
0.1937645919031812,-2.5179125416902583e-06,0.1937645919031812,-2.669593691775189e-05,0.1937645919031812,-1.4604194036978148e-05,0.1937645919031812,-1.62814e-05
0.1945587090831123,-6.880221026988218e-06,0.1945587090831123,-1.2929442901354915e-05,0.1945587090831123,-1.5609631004537002e-05,0.1945587090831123,-1.9637170015123336e-05
0.1953528262630433,-6.210566910570125e-06,0.1953528262630433,-2.855643649799384e-06,0.1953528262630433,-1.8295012357719503e-05,0.1953528262630433,-2.0309653089429875e-05
0.1961469434429744,-4.196373471782517e-06,0.1961469434429744,1.1746530564349666e-06,0.1961469434429744,-1.728857173624741e-05,0.1961469434429744,-1.8295743472494825e-05
0.1969410606229055,-8.895702428085563e-06,0.1969410606229055,5.204355242514335e-06,0.1969410606229055,-1.7624251262240244e-05,0.1969410606229055,-1.6952723106639636e-05
0.1977351778028366,-4.869133479736524e-06,0.1977351778028366,1.863393107890209e-05,0.1977351778028366,-1.829522412838637e-05,0.1977351778028366,-1.594532412838637e-05
0.1985292949827676,-1.1581724560647916e-05,0.1985292949827676,3.0385059622677053e-05,0.1985292949827676,-1.6615480711577094e-05,0.1985292949827676,-1.4267324560647917e-05
0.1993234121626987,-1.191705177738108e-05,0.1993234121626987,4.212151220833787e-05,0.1993234121626987,-1.2256226894045931e-05,0.1993234121626987,-1.4602651777381082e-05
0.2001175293426297,-1.2252801007960727e-05,0.2001175293426297,4.615611215480549e-05,0.2001175293426297,-1.0239993952235628e-05,0.2001175293426297,-1.46029e-05
0.2009116465225608,-1.2253e-05,0.2009116465225608,4.179644279035826e-05,0.2009116465225608,-8.561057239731541e-06,0.2009116465225608,-1.309287254202434e-05
0.2017057637024919,-9.568209242096564e-06,0.2017057637024919,3.726384874094021e-05,0.2017057637024919,-8.895910094365924e-06,0.2017057637024919,-9.232858896935634e-06
0.202499880882423,-1.0574348914205736e-05,0.202499880882423,2.9374783509639025e-05,0.202499880882423,-1.023859855177424e-05,0.202499880882423,-9.23171e-06
0.203293998062354,-2.853458842166881e-06,0.203293998062354,1.7959927853538263e-05,0.203293998062354,-1.1245897542313328e-05,0.203293998062354,-8.560311638457782e-06
0.2040881152422851,5.202745313766862e-06,0.2040881152422851,8.560212552052576e-06,0.2040881152422851,-1.0910151276026286e-05,0.2040881152422851,-6.210273829530276e-06
0.2048822324222162,1.1739573340915322e-06,0.2048822324222162,7.888320399869474e-06,0.2048822324222162,-1.057381213269318e-05,0.2048822324222162,-5.203821332954234e-06
0.2056763496021472,-2.183294803460572e-06,0.2056763496021472,5.877967729190606e-06,0.2056763496021472,-8.225200497815568e-06,0.2056763496021472,-6.882410493418057e-06
0.2064704667820783,-5.033566156797139e-06,0.2064704667820783,1.3255146519529571e-05,0.2064704667820783,-9.566509364748234e-06,0.2064704667820783,-8.223709371455378e-06
0.2072645839620094,-1.426236278811278e-05,0.2072645839620094,2.1312678419543384e-05,0.2072645839620094,-1.2251592811754231e-05,0.2072645839620094,-1.0237744610125618e-05
0.2080587011419405,-1.5106084128862055e-05,0.2080587011419405,2.1652473644016916e-05,0.2080587011419405,-8.226126268033105e-06,0.2080587011419405,-1.3594536440169114e-05
0.2088528183218715,-2.8562436458953038e-06,0.2088528183218715,1.5947005817268635e-05,0.2088528183218715,-9.734914342487717e-06,0.2088528183218715,-1.2588930438341523e-05
0.2096469355018026,3.1886491492223654e-06,0.2096469355018026,9.903590852402274e-06,0.2096469355018026,-1.3763272769939069e-05,0.2096469355018026,-1.091033634788952e-05
0.2104410526817337,-1.8464959147094005e-06,0.2104410526817337,-4.533199587982415e-06,0.2104410526817337,-1.59457890944988e-05,0.2104410526817337,-7.8890213681235e-06
0.2112351698616647,-4.197091797648731e-06,0.2112351698616647,-2.3673307126716625e-05,0.2112351698616647,-1.728828454951816e-05,0.2112351698616647,-9.567697265169803e-06
0.2120292870415958,-8.225337240643965e-06,0.2120292870415958,-5.456875686249568e-05,0.2120292870415958,-1.6281036377872725e-05,0.2120292870415958,-1.0910503000386464e-05
0.2128234042215269,-1.0237290552147546e-05,0.2128234042215269,-0.0001036941441694,0.2128234042215269,-1.5275054727673262e-05,0.2128234042215269,-1.1748771097742626e-05
0.2136175214014579,-1.0909795300930587e-05,0.2136175214014579,-0.0001404678428163,0.2136175214014579,-1.7622783553257063e-05,0.2136175214014579,-1.4936677649281851e-05
0.214411638581389,-1.3762301168936496e-05,0.214411638581389,-0.0001512271103794,0.214411638581389,-1.6953105612664205e-05,0.214411638581389,-1.7790701168936495e-05
0.2152057557613201,-1.1582271194961616e-05,0.2152057557613201,-0.0001391507174111,0.2152057557613201,-1.7959590210611438e-05,0.2152057557613201,-1.896663856366641e-05
0.2159998729412512,-8.225147197668935e-06,0.2159998729412512,-0.0001055823719926,0.2159998729412512,-1.79599e-05,0.2159998729412512,-2.030958512029233e-05
0.2167939901211822,-3.5248884738915487e-06,0.2167939901211822,-4.246668521794996e-05,0.2167939901211822,-1.5610029237070194e-05,0.2167939901211822,-1.980620626570856e-05
0.2175881073011133,-3.355845843448917e-07,0.2175881073011133,2.535354740497318e-05,0.2175881073011133,-1.8967317565347872e-05,0.2175881073011133,-2.0981109267043467e-05
0.2183822244810444,5.036903650867501e-07,0.2183822244810444,8.712281633486625e-05,0.2183822244810444,-2.1316235632233903e-05,0.2183822244810444,-2.030908816325738e-05
0.2191763416609755,1.0067393216159302e-06,0.2191763416609755,0.0001190005274644,0.2191763416609755,-1.896555728818277e-05,0.2191763416609755,-1.7790917987625186e-05
0.2199704588409065,1.6842028089350939e-07,0.2199704588409065,0.0001086050840788,0.2199704588409065,-1.5612285120851224e-05,0.2199704588409065,-1.5276013806603255e-05
0.2207645760208376,-4.193899674359068e-06,0.2207645760208376,9.115142108042856e-05,0.2207645760208376,-1.3932396283405572e-05,0.2207645760208376,-1.6616382973275544e-05
0.2215586932007686,-7.551922869078629e-06,0.2215586932007686,6.681340416923417e-05,0.2215586932007686,-1.39315e-05,0.2215586932007686,-1.644926487605912e-05
0.2223528103806997,-8.560069491560363e-06,0.2223528103806997,4.750590977892522e-05,0.2223528103806997,-1.527397931889628e-05,0.2223528103806997,-1.3260861605680574e-05
0.2231469275606308,-8.224640627073338e-06,0.2231469275606308,4.2130690024050056e-05,0.2231469275606308,-1.3260283762440029e-05,0.2231469275606308,-9.567746896894384e-06
0.2239410447405619,-1.2253018916129254e-05,0.2239410447405619,4.0787135174190445e-05,0.2239410447405619,-1.2420904041528314e-05,0.2239410447405619,-1.0238724336046466e-05
0.2247351619204929,-1.2588631540668142e-05,0.2247351619204929,3.608609389469912e-05,0.2247351619204929,-1.4267473837327432e-05,0.2247351619204929,-8.89635229461999e-06
0.225529279100424,-1.225276429179282e-05,0.225529279100424,2.8695835913513148e-05,0.225529279100424,-1.5609528583585643e-05,0.225529279100424,-1.0574971416414358e-05
0.2263233962803551,-1.1582109858326512e-05,0.2263233962803551,1.0588266098876252e-05,0.2263233962803551,-1.4268219716653023e-05,0.2263233962803551,-1.1916280283346976e-05
0.2271175134602862,-8.562161357143444e-06,0.2271175134602862,-1.3916483448077742e-05,0.2271175134602862,-1.3596211414060254e-05,0.2271175134602862,-9.568849943083186e-06
0.2279116306402172,-8.56031e-06,0.2279116306402172,-3.37284863806936e-05,0.2279116306402172,-1.4266887672344906e-05,0.2279116306402172,-8.560778491482642e-06
0.2287057478201483,-5.036599510209765e-06,0.2287057478201483,-5.320201603551399e-05,0.2287057478201483,-1.42672e-05,0.2287057478201483,-1.2587420555676751e-05
0.2294998650000794,-4.867658538711176e-06,0.2294998650000794,-6.696955982568362e-05,0.2294998650000794,-1.5609771690310596e-05,0.2294998650000794,-1.628077214835414e-05
0.2302939821800104,-8.224534658251279e-06,0.2302939821800104,-7.56998041125306e-05,0.2302939821800104,-1.561e-05,0.2302939821800104,-1.6449196234012287e-05
0.2310880993599415,-5.53903e-06,0.2310880993599415,-8.24136219191544e-05,0.2310880993599415,-1.4938557991017154e-05,0.2310880993599415,-1.8966873973051466e-05
0.2318822165398726,-5.538480686887376e-06,0.2318822165398726,-7.938876328329821e-05,0.2318822165398726,-1.4603083104370876e-05,0.2318822165398726,-1.795985421027127e-05
0.2326763337198036,-3.5244072504690715e-06,0.2326763337198036,-6.495361338062293e-05,0.2326763337198036,-1.52743e-05,0.2326763337198036,-1.779277506949121e-05
0.2334704508997347,-2.5184355891649526e-06,0.2334704508997347,-5.522912409536145e-05,0.2334704508997347,-1.52743e-05,0.2334704508997347,-1.963712470600029e-05
0.2342645680796658,-2.853257385823452e-06,0.2342645680796658,-5.656446954329381e-05,0.2342645680796658,-1.52743e-05,0.2342645680796658,-1.997391738582345e-05
0.2350586852595969,-1.6891356422406208e-07,0.2350586852595969,-5.002169486417221e-05,0.2350586852595969,-1.628100078707813e-05,0.2350586852595969,-2.0309666929026045e-05
0.2358528024395279,3.188304725023345e-06,0.2358528024395279,-3.5755449917842124e-05,0.2358528024395279,-1.62814e-05,0.2358528024395279,-1.8296101166628184e-05
0.236646919619459,1.17514390741263e-06,0.236646919619459,-2.3667923444475783e-05,0.236646919619459,-1.6449183012777362e-05,0.236646919619459,-1.3931941799394032e-05
0.2374410367993901,-3.189326702678909e-06,0.2374410367993901,-3.0381306786719e-05,0.2374410367993901,-1.963837665973193e-05,0.2374410367993901,-1.359581555863382e-05
0.2382351539793211,-7.218105912649246e-06,0.2382351539793211,-4.34747577301906e-05,0.2382351539793211,-1.9134311745923245e-05,0.2382351539793211,-1.3931695305509274e-05
0.2390292711592522,-1.0237654998507412e-05,0.2390292711592522,-5.2536456497505744e-05,0.2390292711592522,-1.6616069492517218e-05,0.2390292711592522,-1.4938141996674318e-05
0.2398233883391833,-6.884402808966558e-06,0.2398233883391833,-5.153047484730628e-05,0.2398233883391833,-1.3598124541918824e-05,0.2398233883391833,-1.35968331297417e-05
0.2406175055191144,-1.7203027245083746e-07,0.2406175055191144,-4.6832826903357854e-05,0.2406175055191144,-8.39570049391848e-06,0.2406175055191144,-1.1918345322627806e-05
0.2414116226990454,1.6768947962741128e-07,0.2414116226990454,-3.2905020111143705e-05,0.2414116226990454,-8.224689760661485e-06,0.2414116226990454,-1.2252840478677031e-05
0.2422057398789765,-1.6773902253483994e-07,0.2422057398789765,-4.876813114081964e-06,0.2422057398789765,-9.566970087518491e-06,0.2422057398789765,-1.1246229934361131e-05
0.2429998570589076,1.1243845221976677e-05,0.2429998570589076,2.9367435668990483e-05,0.2429998570589076,-8.224851739671139e-06,0.2429998570589076,-1.2252818695246644e-05
0.2437939742388386,1.0574521783430384e-05,0.2437939742388386,5.824276331573792e-05,0.2437939742388386,-9.56736643313923e-06,0.2437939742388386,-9.735341687539496e-06
0.2445880914187697,-1.107877639527285e-05,0.2445880914187697,6.881696315240284e-05,0.2445880914187697,-1.0239186514874114e-05,0.2445880914187697,-1.2588815954462234e-05
0.2453822085987008,-1.6952094442479973e-05,0.2453822085987008,5.807099342880262e-05,0.2453822085987008,-1.359602047358907e-05,0.2453822085987008,-1.3595711805309996e-05
0.2461763257786318,-1.4264723840624916e-05,0.2461763257786318,3.977273398592228e-05,0.2461763257786318,-1.443527512927477e-05,0.2461763257786318,-1.3260856585016397e-05
0.2469704429585629,-8.228843928323268e-06,0.2469704429585629,2.132983695455158e-05,0.2469704429585629,-1.5105929562741102e-05,0.2469704429585629,-1.5105106332572084e-05
0.247764560138494,-4.869489705640302e-06,0.247764560138494,1.0183512584565282e-06,0.247764560138494,-1.5945235043120926e-05,0.247764560138494,-1.8629347269744977e-05
0.2485586773184251,-3.189822138282949e-06,0.2485586773184251,-1.0905356809656658e-05,0.2485586773184251,-1.829464500071427e-05,0.2485586773184251,-1.561122785622451e-05
0.2493527944983561,-6.880864267241589e-06,0.2493527944983561,-2.9704434450941157e-05,0.2493527944983561,-1.6617534426333988e-05,0.2493527944983561,-1.426754754106719e-05
0.2501469116782872,-9.56711126459872e-06,0.2501469116782872,-4.045050505394542e-05,0.2501469116782872,-1.4603124052385234e-05,0.2501469116782872,-1.42672e-05
0.2509410288582183,-1.4267614835070212e-05,0.2509410288582183,-4.06193352864492e-05,0.2509410288582183,-1.7959863396584874e-05,0.2509410288582183,-1.15815511954465e-05
0.2517351460381494,-2.5680220830641687e-05,0.2517351460381494,-3.608729127829499e-05,0.2517351460381494,-1.6952120812248975e-05,0.2517351460381494,-1.0238367791452254e-05
0.2525292632180804,-2.1984187543618627e-05,0.2525292632180804,-3.44084331146445e-05,0.2525292632180804,-1.3259877704881498e-05,0.2525292632180804,-7.889354590237005e-06
0.2533233803980115,-9.577090513387252e-06,0.2533233803980115,-3.2396469814245565e-05,0.2533233803980115,-1.2589223271415188e-05,0.2533233803980115,-9.230663457169625e-06
0.2541174975779426,-3.5286535837224417e-06,0.2541174975779426,-2.3001247816587857e-05,0.2541174975779426,-1.1582237266062985e-05,0.2541174975779426,-1.090913789622276e-05
0.2549116147578736,-2.182691510421742e-06,0.2549116147578736,-1.0916063588943762e-05,0.2549116147578736,-1.0910525757636827e-05,0.2549116147578736,-1.5607719696542198e-05
0.2557057319378047,5.026413191248329e-07,0.2557057319378047,-5.5408433597246754e-06,0.2557057319378047,-9.567863339087144e-06,0.2557057319378047,-1.7623519986305137e-05
0.2564998491177358,-1.174621040214303e-06,0.2564998491177358,-8.391917768288304e-06,0.2564998491177358,-1.057430862466066e-05,0.2564998491177358,-1.76242e-05
0.2572939662976669,-1.5106257507893735e-06,0.2572939662976669,-2.6351537671900582e-05,0.2572939662976669,-1.3931357507893738e-05,0.2572939662976669,-1.76242e-05
0.2580880834775979,8.39422469329075e-07,0.2580880834775979,-3.642308823604813e-05,0.2580880834775979,-1.5609929412016047e-05,0.2580880834775979,-1.7959723530040113e-05
0.258882200657529,2.5170613052232382e-06,0.258882200657529,-3.440931208035059e-05,0.258882200657529,-1.4938260651221674e-05,0.258882200657529,-1.628161208035059e-05
0.2596763178374601,-1.6838584186270336e-07,0.2596763178374601,-3.525038029615062e-05,0.2596763178374601,-1.3596336845460863e-05,0.2596763178374601,-1.7120063154539136e-05
0.2604704350173911,-1.5096857187895107e-06,0.2604704350173911,-4.044800209999124e-05,0.2604704350173911,-1.493764571239348e-05,0.2604704350173911,-1.577875428760652e-05
0.2612645521973222,-4.194715372300319e-06,0.2612645521973222,-5.118794152304027e-05,0.2612645521973222,-1.6280642683330243e-05,0.2612645521973222,-1.628111597804968e-05
0.2620586693772533,-7.551822144515896e-06,0.2620586693772533,-6.662976984561867e-05,0.2620586693772533,-1.644913012783767e-05,0.2620586693772533,-1.7288080642105564e-05
0.2628527865571843,-4.5327421821718864e-06,0.2628527865571843,-6.697180975723776e-05,0.2628527865571843,-1.946968781513992e-05,0.2628527865571843,-1.7791864649297635e-05
0.2636469037371154,-2.182324895705178e-06,0.2636469037371154,-3.844095945044655e-05,0.2636469037371154,-1.695310524063549e-05,0.2636469037371154,-1.3596308738433744e-05
0.2644410209170465,-2.182013469071071e-06,0.2644410209170465,8.403072333109567e-07,0.2644410209170465,-1.863127346907107e-05,0.2644410209170465,-9.567445374308466e-06
0.2652351380969776,-1.1753778996024191e-06,0.2652351380969776,4.1127654139168296e-05,0.2652351380969776,-1.762402483946333e-05,0.2652351380969776,-1.091104660056429e-05
0.2660292552769086,-3.693704042516138e-06,0.2660292552769086,6.731165006399706e-05,0.2660292552769086,-1.661731558857414e-05,0.2660292552769086,-1.577914744464353e-05
0.2668233724568397,-6.879302612585983e-06,0.2668233724568397,8.022169796374767e-05,0.2668233724568397,-1.7287970022040494e-05,0.2668233724568397,-1.9970787598284974e-05
0.2676174896367708,-9.230199549812666e-06,0.2676174896367708,8.24125974010044e-05,0.2676174896367708,-1.829495266145068e-05,0.2676174896367708,-1.9806307921896965e-05
0.2684116068167018,-6.882983649244925e-06,0.2684116068167018,7.033478450729811e-05,0.2684116068167018,-1.913438443397506e-05,0.2684116068167018,-1.7625280511280282e-05
0.2692057239966329,-7.552986613777535e-06,0.2692057239966329,3.8448585776044846e-05,0.2692057239966329,-1.9638224942952588e-05,0.2692057239966329,-1.393278362422356e-05
0.269999841176564,-7.55322e-06,0.269999841176564,7.223764917501113e-06,0.269999841176564,-1.829586859963461e-05,0.269999841176564,-1.0910804349177869e-05
0.270793958356495,-6.881855213412096e-06,0.270793958356495,-9.902202062187358e-06,0.270793958356495,-1.5274458460354434e-05,0.270793958356495,-9.567480426299715e-06
0.2715880755364261,-5.538902254013778e-06,0.2715880755364261,-2.7694908381020665e-05,0.2715880755364261,-1.0909816763944012e-05,0.2715880755364261,-9.902716763944014e-06
0.2723821927163572,-4.1956596445332064e-06,0.2723821927163572,-2.56760112496049e-05,0.2723821927163572,-6.8820644366702494e-06,0.2723821927163572,-5.875779231234452e-06
0.2731763098962882,-1.8488262920739109e-06,0.2731763098962882,-5.533795699666062e-06,0.2731763098962882,-7.88904085809306e-06,0.2731763098962882,-1.0238538287711948e-05
0.2739704270762193,-8.220013443317366e-06,0.2739704270762193,7.879233036287113e-06,0.2739704270762193,-8.224368074826189e-06,0.2739704270762193,-9.567893843141032e-06
0.2747645442561504,-4.869556855148685e-06,0.2747645442561504,7.88891e-06,0.2747645442561504,-3.192030282723026e-06,0.2747645442561504,-8.393134403319933e-06
0.2755586614360815,-8.390957002195357e-06,0.2755586614360815,-5.533304287173881e-06,0.2755586614360815,-5.538028000042228e-06,0.2755586614360815,-9.902455858692871e-06
0.2763527786160125,-1.9299657994413712e-05,0.2763527786160125,-1.7956436798830587e-05,0.2763527786160125,-1.0908702404241803e-05,0.2763527786160125,-1.2587951197938584e-05
0.2771468957959436,-2.500875104318809e-05,0.2771468957959436,-2.7693822358527497e-05,0.2771468957959436,-1.4266759429449504e-05,0.2771468957959436,-1.5777381464538998e-05
0.2779410129758747,-1.1581177568274366e-05,0.2779410129758747,-3.9780442638201566e-05,0.2779410129758747,-1.460296034762284e-05,0.2779410129758747,-1.4938550624672222e-05
0.2787351301558057,1.4269015952161252e-05,0.2787351301558057,-4.850884023480089e-05,0.2787351301558057,-1.829573756517907e-05,0.2787351301558057,-1.1917189941299778e-05
0.2795292473357368,2.534875099450704e-05,0.2795292473357368,-5.119431332304474e-05,0.2795292473357368,-1.913453891301842e-05,0.2795292473357368,-1.124621332304474e-05
0.2803233645156679,3.674987636343429e-05,0.2803233645156679,-5.22002949732442e-05,0.2803233645156679,-1.8296270815662263e-05,0.2803233645156679,-1.2252194973244202e-05
0.2811174816955989,1.8643133333362943e-05,0.2811174816955989,-5.421398517792883e-05,0.2811174816955989,-1.661819568505931e-05,0.2811174816955989,-1.5607808629881376e-05
0.2819115988755301,-7.539991723293388e-06,0.2819115988755301,-5.0692280709737486e-05,0.2819115988755301,-1.863028243714445e-05,0.2819115988755301,-1.9300834468098155e-05
0.2827057160554611,-4.533010451883976e-06,0.2827057160554611,-3.911304172804976e-05,0.2827057160554611,-1.6282240354246747e-05,0.2827057160554611,-1.963827994939332e-05
0.2834998332353922,-6.210067465079939e-06,0.2834998332353922,-2.6690608773950748e-05,0.2834998332353922,-1.62814e-05,0.2834998332353922,-2.030965898519185e-05
0.2842939504153233,-1.5273733967809284e-05,0.2842939504153233,-2.853428469376945e-05,0.2842939504153233,-1.527436289260441e-05,0.2842939504153233,-1.963844192840294e-05
0.2850880675952543,-1.8294742630818027e-05,0.2850880675952543,-1.8293971001533887e-05,0.2850880675952543,-1.628142857900111e-05,0.2850880675952543,-1.762434289500555e-05
0.2858821847751854,-8.222891319896525e-06,0.2858821847751854,8.42370877442759e-07,0.2858821847751854,-1.6616865633388928e-05,0.2858821847751854,-1.930215314457417e-05
0.2866763019551165,-8.389909914976512e-07,0.2866763019551165,1.4271025106645256e-05,0.2866763019551165,-1.5610510019283606e-05,0.2866763019551165,-1.69528e-05
0.2874704191350475,-1.6833955469994552e-07,0.2874704191350475,2.433074171968644e-05,0.2874704191350475,-1.6951818886216222e-05,0.2874704191350475,-1.69528e-05
0.2882645363149786,-5.535893304563204e-06,0.2882645363149786,2.43381e-05,0.2882645363149786,-1.6281792088316566e-05,0.2882645363149786,-1.5610784176633135e-05
0.2890586534949096,-1.4934497986332448e-05,0.2890586534949096,1.729157647642932e-05,0.2890586534949096,-1.7623613996177188e-05,0.2890586534949096,-1.5274446500955702e-05
0.2898527706748408,-1.7959027380222108e-05,0.2898527706748408,1.1247645239555782e-05,0.2898527706748408,-1.76242e-05,0.2898527706748408,-1.4267490873259296e-05
0.2906468878547718,-2.1652078439944554e-05,0.2906468878547718,1.0574594829100993e-05,0.2906468878547718,-1.5274631901853464e-05,0.2906468878547718,-1.158197931640396e-05
0.2914410050347029,-3.038073192978128e-05,0.2914410050347029,4.531789509406234e-06,0.2914410050347029,-1.3092192550034749e-05,0.2914410050347029,-8.896006807021871e-06
0.292235122214634,-3.541470151621401e-05,0.292235122214634,-1.7629057123556245e-05,0.292235122214634,-1.1917661702982824e-05,0.292235122214634,-8.393157568499078e-06
0.293029239394565,-2.567847392428639e-05,0.293029239394565,-4.918465221165227e-05,0.293029239394565,-1.4266997824514487e-05,0.293029239394565,-1.2924602175485511e-05
0.2938233565744961,-1.763072061164413e-05,0.2938233565744961,-6.528035861484368e-05,0.2938233565744961,-1.359634339104818e-05,0.2938233565744961,-1.359525660895182e-05
0.2946174737544272,-1.3598469934087411e-05,0.2946174737544272,-7.770596776950825e-05,0.2946174737544272,-8.899124916474206e-06,0.2946174737544272,-1.3260322494507283e-05
0.2954115909343582,2.509438368285965e-06,0.2954115909343582,-7.670761885391411e-05,0.2954115909343582,-8.224955902609408e-06,0.2954115909343582,-1.158246475652352e-05
0.2962057081142893,7.886935481394448e-06,0.2962057081142893,-5.992837036834476e-05,0.2962057081142893,-1.2251519106450655e-05,0.2962057081142893,-1.0239293632408494e-05
0.2969998252942204,1.829331019031594e-05,0.2969998252942204,-3.458247678891035e-05,0.2969998252942204,-1.393113067550252e-05,0.2969998252942204,-1.1581304540402014e-05
0.2977939424741515,2.5344689251609837e-05,0.2977939424741515,-1.02405633121588e-05,0.2977939424741515,-1.6281229748121588e-05,0.2977939424741515,-1.3595654069818503e-05
0.2985880596540825,1.762414955698867e-05,0.2985880596540825,9.904108852713471e-06,0.2985880596540825,-1.6952774778494338e-05,0.2985880596540825,-1.258897743656231e-05
0.2993821768340136,1.6954370036602844e-05,0.2993821768340136,2.333324294124876e-05,0.2993821768340136,-1.661706260651021e-05,0.2993821768340136,-1.6281325235291707e-05
0.3001762940139447,2.4000910218398243e-05,0.3001762940139447,3.340535209181545e-05,0.3001762940139447,-1.6449386245814525e-05,0.3001762940139447,-1.594582415154872e-05
0.3009704111938757,1.997708350655384e-05,0.3009704111938757,4.2459186943610624e-05,0.3009704111938757,-1.6952427015390983e-05,0.3009704111938757,-1.6281151368281874e-05
0.3017645283738068,3.199110058926932e-06,0.3017645283738068,3.575588803307458e-05,0.3017645283738068,-1.762380119669254e-05,0.3017645283738068,-1.561039880330746e-05
0.3025586455537379,-1.5769333046616087e-05,0.3025586455537379,1.9981143302562285e-05,0.3025586455537379,-1.829530028309775e-05,0.3025586455537379,-1.7287750707744373e-05
0.3033527627336689,-2.517459117304141e-05,0.3033527627336689,1.393330567447338e-05,0.3033527627336689,-1.6282001891491125e-05,0.3033527627336689,-1.9302098108508875e-05
0.3041468799136,-1.5275797767793132e-05,0.3041468799136,7.218535437893965e-06,0.3041468799136,-1.1582310808643168e-05,0.3041468799136,-1.8295752316137823e-05
0.3049409970935311,-3.524873009406969e-06,0.3049409970935311,-2.1820055925329934e-06,0.3049409970935311,-8.896019830710088e-06,0.3049409970935311,-1.644920675882138e-05
0.3057351142734621,2.5178366287185344e-06,0.3057351142734621,-2.165523311099188e-05,0.3057351142734621,-1.1749786514874138e-05,0.3057351142734621,-1.6280820227688795e-05
0.3065292314533932,3.1880649243173128e-06,0.3065292314533932,-3.994883302308612e-05,0.3065292314533932,-1.4435635288615554e-05,0.3065292314533932,-1.2251876056499752e-05
0.3073233486333243,-5.005224730732305e-07,0.3073233486333243,-4.246383709306169e-05,0.3073233486333243,-1.6615312141857937e-05,0.3073233486333243,-8.395623052963552e-06
0.3081174658132554,-1.442562720781907e-05,0.3081174658132554,-3.7769261928038216e-05,0.3081174658132554,-1.930089318397816e-05,0.3081174658132554,-1.1243980264704587e-05
0.3089115829931864,-3.5069657035050674e-05,0.3089115829931864,-2.535172342560553e-05,0.3089115829931864,-1.93027e-05,0.3089115829931864,-1.4936660603198351e-05
0.3097057001731175,-3.50805e-05,0.3097057001731175,-3.868642949151382e-06,0.3097057001731175,-1.8967126765597524e-05,0.3097057001731175,-1.3596307062390088e-05
0.3104998173530486,-2.434057111663814e-05,0.3104998173530486,1.1913670563540107e-05,0.3104998173530486,-1.527514944634436e-05,0.3104998173530486,-1.2924554444789885e-05
0.3112939345329796,-1.2253996442679792e-05,0.3112939345329796,1.8630746416152773e-05,0.3112939345329796,-1.52743e-05,0.3112939345329796,-1.242084152291115e-05
0.3120880517129107,-7.0500526188770615e-06,0.3120880517129107,1.5945000353625377e-05,0.3120880517129107,-1.963826881593841e-05,0.3120880517129107,-1.3931412543958936e-05
0.3128821688928418,-1.2924257185574309e-05,0.3128821688928418,5.200116690311711e-06,0.3128821688928418,-1.7623485927871536e-05,0.3128821688928418,-1.2589057036064232e-05
0.3136762860727728,-1.2251550424279926e-05,0.3136762860727728,-9.912280633033002e-06,0.3136762860727728,-1.4267803991382695e-05,0.3136762860727728,-1.4267683193106155e-05
0.314470403252704,-8.227633812377136e-06,0.314470403252704,-3.539704921580108e-05,0.314470403252704,-1.5944440075048585e-05,0.314470403252704,-1.560899206003887e-05
0.315264520432635,-9.566598963403396e-06,0.315264520432635,-4.715850349017863e-05,0.315264520432635,-1.5274705518298303e-05,0.315264520432635,-1.3597016554894905e-05
0.3160586376125661,-1.359396141320551e-05,0.3160586376125661,-4.112585784139711e-05,0.3160586376125661,-1.4938753215946549e-05,0.3160586376125661,-1.258915964783964e-05
0.3168527547924971,-9.568654069839343e-06,0.3168527547924971,-3.1726402836831066e-05,0.3168527547924971,-1.6952177963536204e-05,0.3168527547924971,-1.3092044506325328e-05
0.3176468719724282,-7.553544775635737e-06,0.3176468719724282,-2.232541562715816e-05,0.3176468719724282,-1.6617154129541365e-05,0.3176468719724282,-1.1581843574873942e-05
0.3184409891523593,-7.888905413797862e-06,0.3184409891523593,-1.4267310070764008e-05,0.3184409891523593,-1.7288490827322482e-05,0.3184409891523593,-9.735285224726554e-06
0.3192351063322903,-8.560265043136179e-06,0.3192351063322903,-1.29244e-05,0.3192351063322903,-1.5609550431361785e-05,0.3192351063322903,-1.3595710086272355e-05
0.3200292235122214,-8.222911146862908e-06,0.3200292235122214,-1.2924069651748164e-05,0.3200292235122214,-1.2252433712809494e-05,0.3200292235122214,-1.2924588762396836e-05
0.3208233406921525,-2.1870512123521627e-06,0.3208233406921525,-1.17503744487054e-05,0.3208233406921525,-1.0240470412410566e-05,0.3208233406921525,-1.3595243195863144e-05
0.3216174578720835,-3.188452371505473e-06,0.3216174578720835,-1.393001010412282e-05,0.3216174578720835,-9.567868412168544e-06,0.3216174578720835,-1.35958e-05
0.3224115750520147,-3.860170672760893e-06,0.3224115750520147,-1.8293264338157875e-05,0.3224115750520147,-1.4935725344623217e-05,0.3224115750520147,-1.3931320333704452e-05
0.3232056922319457,-2.853830365402732e-06,0.3232056922319457,-1.796003012309297e-05,0.3232056922319457,-1.963657827669845e-05,0.3232056922319457,-1.4938209630721095e-05
0.3239998094118768,-5.538385363277256e-06,0.3239998094118768,-1.6281802899451936e-05,0.3239998094118768,-1.8967161159780772e-05,0.3239998094118768,-1.7959174780986513e-05
0.3247939265918079,-6.881695854173402e-06,0.3247939265918079,-2.433735512873856e-05,0.3247939265918079,-1.829566207337557e-05,0.3247939265918079,-1.8631237926624432e-05
0.3255880437717389,-1.5106585065148203e-06,0.3255880437717389,-3.944519220296144e-05,0.3255880437717389,-1.9302681493485185e-05,0.3255880437717389,-1.728848149348518e-05
0.32638216095167,-1.8468163459947067e-06,0.32638216095167,-5.018628755254339e-05,0.32638216095167,-1.896618340339119e-05,0.32638216095167,-1.695310621359281e-05
0.3271762781316011,-4.195995109991236e-06,0.3271762781316011,-4.716066734480106e-05,0.3271762781316011,-1.4936720883428396e-05,0.3271762781316011,-1.846263662496407e-05
0.3279703953115321,-3.5253406765249268e-06,0.3279703953115321,-3.307702413096202e-05,0.3279703953115321,-9.57149540459327e-06,0.3279703953115321,-1.6283059660675292e-05
0.3287645124914632,-8.408949233327338e-07,0.3287645124914632,-6.39465619956468e-06,0.3287645124914632,-7.051215868694391e-06,0.3287645124914632,-1.158448563302402e-05
0.3295586296713942,-1.1747834293564604e-06,0.3295586296713942,2.382050845085382e-05,0.3295586296713942,-7.552985139837011e-06,0.3295586296713942,-1.242040858971546e-05
0.3303527468513254,-1.681700878487223e-07,0.3303527468513254,4.0110809049331e-05,0.3303527468513254,-9.56676782175194e-06,0.3303527468513254,-1.0910681620135896e-05
0.3311468640312564,1.845995079662849e-06,0.3311468640312564,4.145857005185276e-05,0.3311468640312564,-8.560482461110425e-06,0.3311468640312564,-9.231997433471588e-06
0.3319409812111875,-1.510560562131227e-06,0.3319409812111875,3.407357476435249e-05,0.3319409812111875,-1.0406656307965336e-05,0.3319409812111875,-9.063863971917102e-06
0.3327350983911186,-4.867879594971215e-06,0.3327350983911186,1.661377206291986e-05,0.3327350983911186,-1.49386415993684e-05,0.3327350983911186,-1.2924691195578797e-05
0.3335292155710496,-6.881865513963118e-06,0.3335292155710496,-1.024517192772071e-05,0.3335292155710496,-1.5274800640036375e-05,0.3335292155710496,-1.527457308377871e-05
0.3343233327509807,-7.049529122329695e-06,0.3343233327509807,-3.371797721008807e-05,0.3343233327509807,-1.7119050387591997e-05,0.3343233327509807,-1.6280554733978174e-05
0.3351174499309118,-2.8563470735643264e-06,0.3351174499309118,-4.178891839215366e-05,0.3351174499309118,-1.728838368186409e-05,0.3351174499309118,-1.493953026797439e-05
0.3359115671108428,-4.866531862706042e-06,0.3359115671108428,-3.810381326170093e-05,0.3359115671108428,-1.6952983023790996e-05,0.3359115671108428,-1.4267566047581988e-05
0.3367056842907739,-7.55215215926888e-06,0.3367056842907739,-2.6356971820594463e-05,0.3367056842907739,-1.69528e-05,0.3367056842907739,-1.628059911646952e-05
0.337499801470705,-6.546371812157427e-06,0.337499801470705,-1.3263373533042875e-05,0.337499801470705,-1.9302112438299332e-05,0.337499801470705,-1.77916222942657e-05
0.338293918650636,-8.224438030108524e-06,0.338293918650636,-7.0503062903402e-06,0.338293918650636,-1.6617375153465646e-05,0.338293918650636,-1.7624217191968846e-05
0.3390880358305671,-6.210268510708784e-06,0.3390880358305671,5.036025361087364e-06,0.3390880358305671,-1.6281316678137105e-05,0.3390880358305671,-1.4938493956864376e-05
0.3398821530104982,-2.854216302809577e-06,0.3398821530104982,1.7122443718690974e-05,0.3398821530104982,-1.4434708894636517e-05,0.3398821530104982,-1.258863530777802e-05
0.3406762701904293,-6.882162271798052e-06,0.3406762701904293,2.6689597284251143e-05,0.3406762701904293,-1.2923715449606653e-05,0.3406762701904293,-1.2253114091732224e-05
0.3414703873703603,-7.888133933102101e-06,0.3414703873703603,3.138417831851498e-05,0.3414703873703603,-1.0911752149207864e-05,0.3414703873703603,-1.2588441308465356e-05
0.3422645045502914,-4.198534203060103e-06,0.3422645045502914,2.937485684483997e-05,0.3422645045502914,-1.2587652629300025e-05,0.3422645045502914,-1.3595171577580014e-05
0.3430586217302225,-6.2094604191396165e-06,0.3430586217302225,2.299833868781088e-05,0.3430586217302225,-1.4266400345312926e-05,0.3430586217302225,-1.527350034531293e-05
0.3438527389101535,-1.847775033976273e-06,0.3438527389101535,7.558297796342945e-06,0.3438527389101535,-1.42672e-05,0.3438527389101535,-1.3931941550939336e-05
0.3446468560900846,-3.188896621871079e-06,0.3446468560900846,-1.2249410187098156e-05,0.3446468560900846,-8.896983510703216e-06,0.3446468560900846,-1.493841746640331e-05
0.3454409732700157,-2.8534513013296264e-06,0.3454409732700157,-2.3666315758159203e-05,0.3454409732700157,-8.224632602659253e-06,0.3454409732700157,-1.3595845205318504e-05
0.3462350904499467,8.391695165958423e-07,0.3462350904499467,-3.575507406406351e-05,0.3462350904499467,-1.2253076483745907e-05,0.3462350904499467,-1.3092104401013457e-05
0.3470292076298778,1.6732295494839056e-07,0.3470292076298778,-6.361998510381963e-05,0.3470292076298778,-1.292448767465408e-05,0.3470292076298778,-1.2251772560066284e-05
0.3478233248098089,-1.8446293576656571e-06,0.3478233248098089,-8.306886378538913e-05,0.3478233248098089,-1.3259814891387234e-05,0.3478233248098089,-7.55721150359281e-06
0.34861744198974,-5.04491692333809e-07,0.34861744198974,-8.47627203775549e-05,0.34861744198974,-1.32601e-05,0.34861744198974,-6.882291848978039e-06
0.349411559169671,5.029888583614899e-07,0.349411559169671,-7.671157315087454e-05,0.349411559169671,-1.359561361871356e-05,0.349411559169671,-1.157899067309389e-05
0.3502056763496021,-4.1943142757939486e-06,0.3502056763496021,-6.261354715875906e-05,0.3502056763496021,-1.5273615809580823e-05,0.3502056763496021,-1.3594978971496988e-05
0.3509997935295332,-1.0237228699938983e-05,0.3509997935295332,-5.388186966691202e-05,0.3509997935295332,-1.728797623071261e-05,0.3509997935295332,-1.5106007186036375e-05
0.3517939107094642,-8.56049875726869e-06,0.3517939107094642,-3.776791206932959e-05,0.3517939107094642,-1.7624162248321348e-05,0.3517939107094642,-1.4267294373573797e-05
0.3525880278893953,-7.553196416952094e-06,0.3525880278893953,-1.8966764169520943e-05,0.3525880278893953,-1.762416462542814e-05,0.3525880278893953,-1.82956e-05
0.3533821450693264,-6.881574662920843e-06,0.3533821450693264,-1.2251803976486282e-05,0.3533821450693264,-1.661691599582033e-05,0.3533821450693264,-1.82956e-05
0.3541762622492574,-5.5401373780029735e-06,0.3541762622492574,-5.709029393373391e-06,0.3541762622492574,-1.5610885907680353e-05,0.3541762622492574,-1.82969288285332e-05
0.3549703794291886,-8.893389567544064e-06,0.3549703794291886,-1.224789014187967e-05,0.3549703794291886,-1.829350364154577e-05,0.3549703794291886,-2.2320755540377884e-05
0.3557644966091196,-8.89601e-06,0.3557644966091196,-1.8291769030562072e-05,0.3557644966091196,-1.762462566327088e-05,0.3557644966091196,-1.762717957949681e-05
0.3565586137890507,-5.540662874600366e-06,0.3565586137890507,-1.6953453153731443e-05,0.3565586137890507,-1.30944044181642e-05,0.3565586137890507,-1.42688328843286e-05
0.3573527309689818,-5.53903e-06,0.3573527309689818,-1.8966317528618603e-05,0.3573527309689818,-1.2924456855673616e-05,0.3573527309689818,-1.560954501907907e-05
0.3581468481489128,-5.203394202027652e-06,0.3581468481489128,-1.3932463030414784e-05,0.3581468481489128,-1.4602578989861738e-05,0.3581468481489128,-1.997326537364052e-05
0.3589409653288439,-4.867644658825072e-06,0.3589409653288439,-8.896229881939413e-06,0.3589409653288439,-1.46029e-05,0.3589409653288439,-1.661724658825072e-05
0.3597350825087749,-1.6715131567120406e-07,0.3597350825087749,-1.8296925595953797e-05,0.3597350825087749,-1.35958e-05,0.3597350825087749,-1.1581948843775084e-05
0.360529199688706,6.547089703427525e-06,0.360529199688706,-3.10521e-05,0.360529199688706,-1.3595462714472311e-05,0.360529199688706,-1.4938262714472311e-05
0.3613233168686371,1.0403382662544836e-05,0.3613233168686371,-3.10521e-05,0.3613233168686371,-1.2254153847539692e-05,0.3613233168686371,-1.3596953847539692e-05
0.3621174340485681,7.219793200235975e-06,0.3621174340485681,-1.696284977206902e-05,0.3621174340485681,-1.6613989334201952e-05,0.3621174340485681,-1.35958e-05
0.3629115512284993,5.875478955127446e-06,0.3629115512284993,7.874869381010571e-06,0.3629115512284993,-1.695261026121814e-05,0.3629115512284993,-1.2589269216345584e-05
0.3637056684084303,5.706940097789628e-06,0.3637056684084303,1.7620134332377752e-05,0.3637056684084303,-1.829503921768297e-05,0.3637056684084303,-1.2924259804420745e-05
0.3644997855883614,-3.522337073143376e-06,0.3644997855883614,1.997346543336326e-05,0.3644997855883614,-1.8966818695246648e-05,0.3644997855883614,-1.4938056085739938e-05
0.3652939027682925,-1.4265884510103402e-05,0.3652939027682925,2.1316735563303708e-05,0.3652939027682925,-1.779214388823216e-05,0.3652939027682925,-1.5609917781651854e-05
0.3660880199482235,-2.030960601734433e-05,0.3660880199482235,2.8031474719768212e-05,0.3660880199482235,-1.594572530208552e-05,0.3660880199482235,-1.3931424093743434e-05
0.3668821371281546,-1.2583250157546094e-05,0.3668821371281546,5.489255568307168e-05,0.3668821371281546,-1.695274202276889e-05,0.3668821371281546,-1.0910895726773334e-05
0.3676762543080857,1.897043629402393e-05,0.3676762543080857,8.879928010118949e-05,0.3676762543080857,-1.6616563074060568e-05,0.3676762543080857,-1.4938814770375773e-05
0.3684703714880167,2.9700807340531427e-05,0.3684703714880167,0.0001105957489667,0.3684703714880167,-1.4939926990394797e-05,0.3684703714880167,-1.5609469203842082e-05
0.3692644886679478,-1.1555008865700028e-05,0.3692644886679478,0.0001171547844085,0.3692644886679478,-1.2422421450681395e-05,0.3692644886679478,-1.3261613323916205e-05
0.3700586058478789,-4.177950191609593e-05,0.3700586058478789,9.920781563162508e-05,0.3700586058478789,-1.3762933416286871e-05,0.3700586058478789,-1.1917966583713129e-05
0.3708527230278099,-4.464690464427331e-05,0.3708527230278099,6.429847861370424e-05,0.3708527230278099,-1.2253526944823978e-05,0.3708527230278099,-1.023938551362839e-05
0.371646840207741,-2.904104150776156e-05,0.371646840207741,1.796922317393756e-05,0.371646840207741,-1.3931162202384512e-05,0.371646840207741,-1.2252594642861412e-05
0.3724409573876721,1.1733185397403007e-06,0.3724409573876721,-3.1720833595297025e-05,0.3724409573876721,-1.4938545951038448e-05,0.3724409573876721,-1.2253e-05
0.3732350745676032,-1.677544198232394e-07,0.3732350745676032,-8.208101126490454e-05,0.3732350745676032,-1.5945605419353668e-05,0.3732350745676032,-1.1749132027136896e-05
0.3740291917475342,8.432134262824887e-07,0.3740291917475342,-0.0001109504290432,0.3740291917475342,-1.4938114191341551e-05,0.3740291917475342,-8.896171936219483e-06
0.3748233089274653,1.727420109728847e-05,0.3748233089274653,-0.0001210102455452,0.3748233089274653,-1.2926150890942624e-05,0.3748233089274653,-9.56682636968579e-06
0.3756174261073964,1.9804380240040177e-05,0.3756174261073964,-0.0001218583928592,0.3756174261073964,-1.2253485278959774e-05,0.3756174261073964,-1.2251058891388768e-05
0.3764115432873274,5.8827334552438925e-06,0.3764115432873274,-0.0001104515653884,0.3764115432873274,-1.3091717288066976e-05,0.3764115432873274,-1.3762731095512365e-05
0.3772056604672585,-8.218580800796093e-06,0.3772056604672585,-8.678822051314771e-05,0.3772056604672585,-1.2253358861305602e-05,0.3772056604672585,-1.5105825787701188e-05
0.3779997776471896,-1.8628385696765343e-05,0.3779997776471896,-6.697744655444971e-05,0.3779997776471896,-1.1581788019744198e-05,0.3779997776471896,-1.695228293170139e-05
0.3787938948271206,-3.105045474647376e-05,0.3787938948271206,-4.9182156733484485e-05,0.3787938948271206,-1.4938155333304814e-05,0.3787938948271206,-1.8463199906610145e-05
0.3795880120070517,-5.2704768532440536e-05,0.3795880120070517,-2.5680717246321155e-05,0.3795880120070517,-1.493861015306617e-05,0.3795880120070517,-1.695281015306617e-05
0.3803821291869828,-5.7236381521057245e-05,0.3803821291869828,-1.35941341029426e-05,0.3803821291869828,-1.5609945380264313e-05,0.3803821291869828,-1.7624309239471377e-05
0.3811762463669139,-5.588662182880585e-05,0.3811762463669139,-3.3511022184553105e-06,0.3811762463669139,-1.5274091936168588e-05,0.3811762463669139,-1.829466371275865e-05
0.3819703635468449,-3.274914376317164e-05,0.3819703635468449,1.5594815604700507e-05,0.3819703635468449,-1.460343750270228e-05,0.3819703635468449,-1.5276718762160258e-05
0.382764480726776,-8.911597738528257e-06,0.382764480726776,4.1441894975173925e-05,0.382764480726776,-1.3931939093252616e-05,0.382764480726776,-1.4603339093252616e-05
0.3835585979067071,-2.298815991191005e-05,0.3835585979067071,5.890625987260886e-05,0.3835585979067071,-1.1750505047574814e-05,0.3835585979067071,-1.4938429996576296e-05
0.3843527150866381,-5.545293884850153e-06,0.3843527150866381,6.814348736186074e-05,0.3843527150866381,-1.4266296530399924e-05,0.3843527150866381,-1.762323631823101e-05
0.3851468322665692,3.607880632561624e-05,0.3851468322665692,6.361585736918747e-05,0.3851468322665692,-1.493845816596296e-05,0.3851468322665692,-1.76242e-05
0.3859409494465003,8.543215806179424e-05,0.3859409494465003,4.548825418605946e-05,0.3859409494465003,-1.2253170990527328e-05,0.3859409494465003,-1.661716412144775e-05
0.3867350666264313,9.181020419854274e-05,0.3867350666264313,2.500702110823863e-05,0.3867350666264313,-1.0238856338773329e-05,0.3867350666264313,-1.3931528169386664e-05
0.3875291838063624,5.253004753225256e-05,0.3875291838063624,-4.537789901739565e-06,0.3875291838063624,-1.0911131378050724e-05,0.3875291838063624,-1.426751045935024e-05
0.3883233009862935,2.335667956541952e-05,0.3883233009862935,-2.9854914853931745e-05,0.3883233009862935,-1.493505797884886e-05,0.3883233009862935,-1.5608819326282953e-05
0.3891174181662246,1.0583847811783833e-05,0.3891174181662246,-4.581111525358992e-05,0.3891174181662246,-1.49386e-05,0.3891174181662246,-1.0913643957654658e-05
0.3899115353461556,1.7393903827948242e-07,0.3899115353461556,-5.4545892201909047e-05,0.3899115353461556,-1.3596585815090917e-05,0.3899115353461556,-7.555184526023162e-06
0.3907056525260867,-1.0905351973504727e-05,0.3907056525260867,-5.656431853657925e-05,0.3907056525260867,-1.35958e-05,0.3907056525260867,-2.184390560369508e-06
0.3914997697060178,-1.2923815795794733e-05,0.3914997697060178,-6.227044475475174e-05,0.3914997697060178,-1.3931402632632456e-05,0.3914997697060178,-1.8464373673675449e-06
0.3922938868859488,-9.232236064389738e-06,0.3922938868859488,-6.999200005845246e-05,0.3922938868859488,-1.6281065230845416e-05,0.3922938868859488,-9.230657872645137e-06
0.3930880040658799,-6.881933455871282e-06,0.3930880040658799,-7.603577219906977e-05,0.3930880040658799,-1.7624203438075325e-05,0.3930880040658799,-1.393151547133897e-05
0.393882121245811,-2.904610192789848e-05,0.393882121245811,-9.013992114452288e-05,0.393882121245811,-1.8295394951039023e-05,0.393882121245811,-1.6953158835681707e-05
0.394676238425742,-8.275110950100934e-05,0.394676238425742,-0.0001223751889922,0.394676238425742,-1.6952195928138852e-05,0.394676238425742,-1.93035054291482e-05
0.3954703556056732,-8.744569053527385e-05,0.3954703556056732,-0.0001663033540511,0.3954703556056732,-1.4940232627739782e-05,0.3954703556056732,-2.1986123163013624e-05
0.3962644727856042,-6.899825972669517e-05,0.3962644727856042,-0.0001770738673337,0.3962644727856042,-1.091287484946076e-05,0.3962644727856042,-2.1820511485260763e-05
0.3970585899655353,-2.0670463817432693e-05,0.3970585899655353,-0.000159298188077,0.3970585899655353,-1.02391467218383e-05,0.3970585899655353,-2.232363998444209e-05
0.3978527071454664,2.197257518688212e-05,0.3978527071454664,-0.0001264021342837,0.3978527071454664,-1.1581104729133816e-05,0.3978527071454664,-2.299505236456691e-05
0.3986468243253974,-2.567035306327077e-05,0.3986468243253974,-7.134808086540962e-05,0.3986468243253974,-1.2252851450972117e-05,0.3986468243253974,-2.098164562495839e-05
0.3994409415053285,-5.3541847308524085e-05,0.3994409415053285,-3.529825700583644e-06,0.3994409415053285,-1.2924350537377276e-05,0.3994409415053285,-1.896714838786817e-05
0.4002350586852595,-1.292043011218715e-05,0.4002350586852595,6.748057329040579e-05,0.4002350586852595,-1.5610099247564876e-05,0.4002350586852595,-1.8295475940543907e-05
0.4010291758651906,4.078925651701367e-05,0.4010291758651906,0.0001374822184259,0.4010291758651906,-1.6952985642852803e-05,0.4010291758651906,-1.661761983095782e-05
0.4018232930451217,4.917233704638908e-05,0.4018232930451217,0.0001971698636706,0.4018232930451217,-1.7791253740208962e-05,0.4018232930451217,-1.8964910348089903e-05
0.4026174102250527,4.61607441902368e-05,0.4026174102250527,0.000229761812542,0.4026174102250527,-1.5611620766920428e-05,0.4026174102250527,-1.8967e-05
0.4034115274049838,2.267358672924978e-05,0.4034115274049838,0.0002312951012361,0.4034115274049838,-1.3596998867608906e-05,0.4034115274049838,-1.8967e-05
0.4042056445849149,-1.3579571138443597e-05,0.4042056445849149,0.0002071368191216,0.4042056445849149,-1.6951297319344296e-05,0.4042056445849149,-2.098029839160658e-05
0.404999761764846,-1.829418985191814e-05,0.404999761764846,0.000164336842495,0.404999761764846,-1.896639565082206e-05,0.404999761764846,-1.76252072486299e-05
0.4057938789447771,2.1310860579323444e-05,0.4057938789447771,0.0001153194724919,0.4057938789447771,-1.661745827162254e-05,0.4057938789447771,-1.023992599652798e-05
0.4065879961247081,6.932146570200136e-05,0.4065879961247081,4.145916045680752e-05,0.4065879961247081,-1.1581624576866734e-05,0.4065879961247081,-4.531957853635877e-06
0.4073821133046392,7.200150355441963e-05,0.4073821133046392,-3.240361862074294e-05,0.4073821133046392,-8.895746525330621e-06,0.4073821133046392,1.8473459953597287e-06
0.4081762304845703,3.136697245749764e-05,0.4081762304845703,-9.351545521156284e-05,0.4081762304845703,-7.0509838867154245e-06,0.4081762304845703,8.895523376042221e-06
0.4089703476645013,-4.039275225653707e-05,0.4089703476645013,-0.0001743286152215,0.4089703476645013,-1.157788133482232e-05,0.4089703476645013,7.218897281271794e-06
0.4097644648444324,-7.668266388014493e-05,0.4097644648444324,-0.0002206907756272,0.4097644648444324,-9.56876756296306e-06,0.4097644648444324,3.1918551259261183e-06
0.4105585820243635,-6.630587827085173e-05,0.4105585820243635,-0.0002244120564659,0.4105585820243635,-6.883233742052397e-06,0.4105585820243635,3.372001023125184e-07
0.4113526992042945,-4.918628589792797e-05,0.4113526992042945,-0.0002069646129594,0.4113526992042945,-1.1915392379396848e-05,0.4113526992042945,-4.194513142972507e-06
0.4121468163842256,-5.656349209579348e-05,0.4121468163842256,-0.0001727249183724,0.4121468163842256,-1.2252922367990612e-05,0.4121468163842256,-9.566167892474884e-06
0.4129409335641567,-7.670541467996023e-05,0.4129409335641567,-0.0001312614689718,0.4129409335641567,-1.594539102312538e-05,0.4129409335641567,-1.963755733663322e-05
0.4137350507440878,-7.032779164978848e-05,0.4137350507440878,-9.550278877024112e-05,0.4137350507440878,-1.863102109285464e-05,0.4137350507440878,-2.702361418241681e-05
0.4145291679240188,-5.45346911770436e-05,0.4145291679240188,-4.211296934810888e-05,0.4145291679240188,-1.4266774550240528e-05,0.4145291679240188,-2.5680970908293245e-05
0.4153232851039499,2.259016911576276e-05,0.4153232851039499,3.937124465118163e-05,0.4153232851039499,-1.225481124984174e-05,0.4153232851039499,-2.6016298125026378e-05
0.416117402283881,9.64577035932784e-05,0.416117402283881,0.0001192808547026,0.416117402283881,-1.4936578304270584e-05,0.416117402283881,-2.735838915213529e-05
0.416911519463812,9.8190784156182e-05,0.416911519463812,0.0001884531473557,0.416911519463812,-1.7958071481127634e-05,0.416911519463812,-2.4339928518872367e-05
0.4177056366437431,2.6049629358330188e-05,0.4177056366437431,0.000224062715782,0.4177056366437431,-1.7624353625561016e-05,0.4177056366437431,-2.568028549775593e-05
0.4184997538236742,-3.942430403312793e-05,0.4184997538236742,0.0002180378736064,0.4184997538236742,-1.6281816329433554e-05,0.4184997538236742,-2.56809e-05
0.4192938710036052,-2.7864881592752186e-05,0.4192938710036052,0.0001831296719422,0.4192938710036052,-1.62814e-05,0.4192938710036052,-2.2995736313246464e-05
0.4200879881835363,1.426657301010224e-05,0.4200879881835363,0.0001399866419881,0.4200879881835363,-1.62814e-05,0.4200879881835363,-2.0645534970184376e-05
0.4208821053634674,2.601570906828197e-05,0.4208821053634674,9.852130795887336e-05,0.4208821053634674,-1.4937887245336602e-05,0.4208821053634674,-1.4937753603588403e-05
0.4216762225433985,1.9296497858247856e-05,0.4216762225433985,5.18522439704942e-05,0.4216762225433985,-9.56802080184914e-06,0.4216762225433985,-8.558712482711291e-06
0.4224703397233295,-2.8350385127682702e-06,0.4224703397233295,4.906663372445507e-06,0.4224703397233295,-1.1747587777242572e-05,0.4224703397233295,-2.8581797649336987e-06
0.4232644569032606,-3.3716575137401145e-05,0.4232644569032606,-4.176258305962908e-05,0.4232644569032606,-1.0910774013581448e-05,0.4232644569032606,-1.6968594674477309e-07
0.4240585740831917,-3.675737931680984e-05,0.4240585740831917,-8.004357145354187e-05,0.4240585740831917,-1.2923319544539896e-05,0.4240585740831917,-1.5099197011877033e-06
0.4248526912631227,-2.8034193850392745e-05,0.4248526912631227,-0.0001210030752041,0.4248526912631227,-1.4434412622258507e-05,0.4248526912631227,-4.195185742229067e-06
0.4256468084430538,-7.558160330842703e-06,0.4256468084430538,-0.0001518965488208,0.4256468084430538,-1.5945335535165577e-05,0.4256468084430538,-6.88117208637408e-06
0.4264409256229849,6.02515478731784e-05,0.4264409256229849,-0.0001626449937557,0.4264409256229849,-1.7624042768488854e-05,0.4264409256229849,-6.88182e-06
0.4272350428029159,8.090016020126195e-05,0.4272350428029159,-0.0001848016742342,0.4272350428029159,-1.93027e-05,0.4272350428029159,-9.064050016914857e-06
0.428029159982847,2.265297964818291e-05,0.428029159982847,-0.0001787548792845,0.428029159982847,-1.930249733493681e-05,0.428029159982847,-1.2589037775105324e-05
0.4288232771627781,-1.0208887813761626e-05,0.4288232771627781,-0.0001583006182865,0.4288232771627781,-1.829651568473727e-05,0.4288232771627781,-1.4265673858771214e-05
0.4296173943427092,-3.4390663075042445e-05,0.4296173943427092,-0.0001368133885981,0.4296173943427092,-1.561204855569298e-05,0.4296173943427092,-1.812475523933097e-05
0.4304115115226402,-3.977699557985533e-05,0.4304115115226402,-0.0001008990983712,0.4304115115226402,-1.2926052210072336e-05,0.4304115115226402,-2.0979444496037606e-05
0.4312056287025713,-4.665888187072495e-05,0.4312056287025713,-7.940274668179603e-05,0.4312056287025713,-1.6950916203323026e-05,0.4312056287025713,-2.09812e-05
0.4319997458825024,-5.7233215660606587e-05,0.4319997458825024,-7.905710743985383e-05,0.4319997458825024,-1.8295170240584664e-05,0.4319997458825024,-2.1148946296075443e-05
0.4327938630624334,-5.22019684497688e-05,0.4327938630624334,-5.9589857988526175e-05,0.4327938630624334,-1.5610463173210033e-05,0.4327938630624334,-1.963866052630737e-05
0.4335879802423645,-4.917987518103764e-05,0.4335879802423645,-5.085851718966429e-05,0.4335879802423645,-1.8966916465513736e-05,0.4335879802423645,-1.896701670689725e-05
0.4343820974222956,-2.768533807739213e-05,0.4343820974222956,-6.798038283114234e-05,0.4343820974222956,-2.165218810246046e-05,0.4343820974222956,-2.3331370707785585e-05
0.4351762146022266,5.188760163961619e-05,0.4351762146022266,-8.006690915664392e-05,0.4351762146022266,-1.8295690618827032e-05,0.4351762146022266,-2.6351756287037823e-05
0.4359703317821577,0.0001340428696281,0.4359703317821577,-9.0461952986419e-05,0.4359703317821577,-1.863101783556021e-05,0.4359703317821577,-2.4339792986638754e-05
0.4367644489620888,8.04370763960874e-05,0.4367644489620888,-6.26271369196671e-05,0.4367644489620888,-1.3934761672512606e-05,0.4367644489620888,-1.9306194579720406e-05
0.4375585661420199,2.604631610239705e-05,0.4375585661420199,8.85693884310341e-06,0.4375585661420199,-9.569794628806504e-06,0.4375585661420199,-1.4940984634270711e-05
0.438352683321951,1.1587357238838035e-05,0.438352683321951,0.0001189610842567,0.438352683321951,-9.735193054898584e-06,0.438352683321951,-1.49386e-05
0.439146800501882,-9.56209616159707e-06,0.439146800501882,0.0002621450260169,0.439146800501882,-1.4266061318009129e-05,0.439146800501882,-1.829475652999745e-05
0.4399409176818131,3.0199848627709696e-06,0.4399409176818131,0.0003563342376228,0.4399409176818131,-1.42672e-05,0.4399409176818131,-1.896693039240465e-05
0.4407350348617442,-1.3596536965856992e-05,0.4407350348617442,0.0003784978185944,0.4407350348617442,-1.1581570521190091e-05,0.4407350348617442,-1.3595505212779072e-05
0.4415291520416752,-3.0376334304023983e-05,0.4415291520416752,0.0003288019767525,0.4415291520416752,-1.0910007394753276e-05,0.4415291520416752,-6.880568071251232e-06
0.4423232692216063,-7.574203432913617e-06,0.4423232692216063,0.000250335208259,0.4423232692216063,-9.904025744553814e-06,0.4423232692216063,-3.4171531386168705e-07
0.4431173864015373,-7.55322e-06,0.4431173864015373,0.0001684162995592,0.4431173864015373,-1.0238540573042932e-05,0.4431173864015373,-2.5160537309614108e-06
0.4439115035814684,-1.694692326737991e-05,0.4439115035814684,7.844184872114762e-05,0.4439115035814684,-9.735574819379538e-06,0.4439115035814684,-1.6931818065417381e-07
0.4447056207613995,-3.909831757134028e-05,0.4447056207613995,-1.120308926370554e-05,0.4447056207613995,-4.869954928449363e-06,0.4447056207613995,9.227220484130768e-06
0.4454997379413306,-4.112243521590432e-05,0.4454997379413306,-8.037697584506299e-05,0.4454997379413306,2.179713265566588e-06,0.4454997379413306,8.89612079734928e-06
0.4462938551212617,-3.306777009952022e-05,0.4462938551212617,-0.0001210115883394,0.4462938551212617,5.202778714504587e-06,0.4462938551212617,-2.180018622283045e-06
0.4470879723011927,-3.4409053156223715e-05,0.4470879723011927,-0.0001498879928657,0.4470879723011927,5.539018289055928e-06,0.4470879723011927,-8.22439920405326e-06
0.4478820894811238,-2.9707257069310204e-05,0.4478820894811238,-0.0001735559810669,0.4478820894811238,-4.1968731450137455e-06,0.4478820894811238,-5.875552307433255e-06
0.4486762066610549,-1.1581512734445128e-05,0.4486762066610549,-0.0001733890473426,0.4486762066610549,-9.905543435536416e-06,0.4486762066610549,-1.326053632777436e-05
0.4494703238409859,-1.1246185517711972e-05,0.4494703238409859,-0.0001774135732771,0.4494703238409859,-1.9294705504064744e-05,0.4494703238409859,-1.4937172411440132e-05
0.450264441020917,-2.650944683349146e-05,0.450264441020917,-0.0001760749454772,0.450264441020917,-2.7018264386020148e-05,0.450264441020917,-1.3596745336413954e-05
0.4510585582008481,-2.0648768812943968e-05,0.4510585582008481,-0.0001586277129042,0.4510585582008481,-3.004331888189225e-05,0.4510585582008481,-1.5776585886965505e-05
0.4518526753807791,-5.545206134157432e-06,0.4518526753807791,-0.0001193570580215,0.4518526753807791,-3.306506477071547e-05,0.4518526753807791,-1.7791176513810312e-05
0.4526467925607102,-5.874632298116885e-06,0.4526467925607102,-8.242364749452705e-05,0.4526467925607102,-2.601844179440971e-05,0.4526467925607102,-1.6449550817982803e-05
0.4534409097406413,1.4936234008923608e-05,0.4534409097406413,-5.656813840819896e-05,0.4534409097406413,-1.4268535633889882e-05,0.4534409097406413,-1.5274433558841918e-05
0.4542350269205724,3.2729279704600055e-05,0.4542350269205724,-4.380922356444684e-05,0.4542350269205724,-1.091023414572852e-05,0.4542350269205724,-1.5609943090452465e-05
0.4550291441005034,-6.217356686469962e-06,0.4550291441005034,-5.9252503739222496e-05,0.4550291441005034,-1.1918395272581078e-05,0.4550291441005034,-1.3932108484767266e-05
0.4558232612804345,-4.444443963835199e-05,0.4558232612804345,-6.864156591879736e-05,0.4558232612804345,-1.795428517377786e-05,0.4558232612804345,-1.728538065209881e-05
0.4566173784603656,-1.6638910952997563e-05,0.4566173784603656,-7.401729544876016e-05,0.4566173784603656,-1.846300586246104e-05,0.4566173784603656,-2.500345603587228e-05
0.4574114956402966,-7.055747362917478e-06,0.4574114956402966,-9.113122475977716e-05,0.4574114956402966,-2.16505741763654e-05,0.4574114956402966,-3.23902086925025e-05
0.4582056128202277,-2.198101544664754e-05,0.4582056128202277,-0.0001153002139844,0.4582056128202277,-2.0478172967547165e-05,0.4582056128202277,-3.172382739609461e-05
0.4589997300001588,-1.3263068025962243e-05,0.4589997300001588,-0.0001418239815292,0.4589997300001588,-2.165220044104104e-05,0.4589997300001588,-2.970998492906821e-05
0.4597938471800898,2.7687217418157735e-05,0.4597938471800898,-0.0001602924464559,0.4597938471800898,-2.064569383492629e-05,0.4597938471800898,-2.9038029223284195e-05
0.4605879643600209,1.997444656962024e-05,0.4605879643600209,-0.0001582820904016,0.4605879643600209,-1.527454109503228e-05,0.4605879643600209,-2.836653013687904e-05
0.461382081539952,-4.24678995259895e-05,0.461382081539952,-0.0001119478293314,0.461382081539952,-1.561020684857852e-05,0.461382081539952,-2.7359572373815435e-05
0.4621761987198831,-6.193321133325685e-05,0.4621761987198831,-4.211073242539884e-05,0.4621761987198831,-1.7624116087717285e-05,0.4621761987198831,-2.903739652630371e-05
0.4629703158998141,-4.919077709739786e-05,0.4629703158998141,3.568488218982721e-05,0.4629703158998141,-1.7288788870984152e-05,0.4629703158998141,-2.7025433225904924e-05
0.4637644330797452,-8.25385222512313e-06,0.4637644330797452,0.0001239779611094,0.4637644330797452,-1.6617579383197774e-05,0.4637644330797452,-2.6017319074796663e-05
0.4645585502596763,6.22321690010384e-05,0.4645585502596763,0.000177721576823,0.4645585502596763,-1.6952609851603695e-05,0.4645585502596763,-2.433905074198153e-05
0.4653526674396073,0.0001273707225505,0.4653526674396073,0.0001851349064344,0.4653526674396073,-1.69528e-05,0.4653526674396073,-1.9808098149173217e-05
0.4661467846195384,0.0001106175530995,0.4661467846195384,0.000185138,0.4661467846195384,-1.3932319557919891e-05,0.4661467846195384,-1.4939920385307936e-05
0.4669409017994695,2.871233058439857e-05,0.4669409017994695,0.0001858089170118,0.4669409017994695,-1.2924524556365557e-05,0.4669409017994695,-1.1582015187885184e-05
0.4677350189794005,-2.43386135601096e-05,0.4677350189794005,0.0001868158234724,0.4677350189794005,-1.2252919756098415e-05,0.4677350189794005,-5.538965804926541e-06
0.4685291361593316,-4.582101766578459e-05,0.4685291361593316,0.0001794279527712,0.4685291361593316,-8.895895009590814e-06,0.4685291361593316,-2.8538137171171563e-06
0.4693232533392627,-3.542597383601098e-05,0.4693232533392627,0.0001616557101733,0.4693232533392627,-8.225240576124553e-06,0.4693232533392627,-5.033430636987162e-06
0.4701173705191938,-1.092962828291788e-05,0.4701173705191938,0.0001280956141947,0.4701173705191938,-1.191437244650094e-05,0.4701173705191938,-3.190603772785546e-06
0.4709114876991248,4.354224802252476e-06,0.4709114876991248,9.854656062506764e-05,0.4709114876991248,-1.4936650611292016e-05,0.4709114876991248,-3.0213982993726656e-06
0.4717056048790559,-2.868574511363901e-05,0.4717056048790559,6.832963494908215e-05,0.4717056048790559,-1.5609665888914547e-05,0.4717056048790559,-4.1956453105767874e-06
0.472499722058987,-5.319962163417613e-05,0.472499722058987,1.0594712017485796e-05,0.472499722058987,-1.0576262685101856e-05,0.472499722058987,3.1865547390188257e-06
0.473293839238918,-7.804487030406879e-05,0.473293839238918,-5.252402186288281e-05,0.473293839238918,-3.861889376676772e-06,0.473293839238918,1.2251164841385123e-05
0.4740879564188491,-9.047001824589604e-05,0.4740879564188491,-0.0001243720568828,0.4740879564188491,-1.6805168424146092e-07,0.4740879564188491,1.997367620349639e-05
0.4748820735987802,-8.962687910892875e-05,0.4748820735987802,-0.0001831265204337,0.4748820735987802,-7.553733428427518e-06,0.4748820735987802,1.5273179782072673e-05
0.4756761907787112,-3.976193261759025e-05,0.4756761907787112,-0.0002103148389779,0.4756761907787112,-1.309248196853553e-05,0.4756761907787112,3.186360726135244e-06
0.4764703079586423,3.669237313071396e-05,0.4764703079586423,-0.0002096445841003,0.4764703079586423,-1.4266177171578378e-05,0.4764703079586423,-8.38237830668267e-06
0.4772644251385734,5.487357542130671e-05,0.4772644251385734,-0.0001512742906872,0.4772644251385734,-1.0241716589131992e-05,0.4772644251385734,-1.2921118844466576e-05
0.4780585423185045,2.7207564149605814e-05,0.4780585423185045,-9.15122438181619e-05,0.4780585423185045,-7.21926154149727e-06,0.4780585423185045,-1.7956997411623714e-05
0.4788526594984356,7.76925337224975e-05,0.4788526594984356,-5.99357324070091e-05,0.4788526594984356,-1.157972849361824e-05,0.4788526594984356,-2.097990433579788e-05
0.4796467766783666,0.0001151344721569,0.4796467766783666,-2.3173538891587404e-05,0.4796467766783666,-2.0642950673863297e-05,0.4796467766783666,-2.500836699428761e-05
0.4804408938582977,5.9258271921332e-05,0.4804408938582977,1.842996731549436e-06,0.4804408938582977,-2.1652465371148107e-05,0.4804408938582977,-2.4673844876283964e-05
0.4812350110382288,-2.5681562699666427e-05,0.4812350110382288,2.047807602431104e-05,0.4812350110382288,-1.628138133232544e-05,0.4812350110382288,-2.299530933383728e-05
0.4820291282181598,-7.334720343080808e-05,0.4820291282181598,5.4725424062535455e-05,0.4820291282181598,-1.493865414193241e-05,0.4820291282181598,-2.36663751645336e-05
0.4828232453980909,-5.540734716901448e-05,0.4828232453980909,9.513210395649694e-05,0.4828232453980909,-1.5273981358665566e-05,0.4828232453980909,-2.1654511753088124e-05
0.483617362578022,-3.00653471678318e-05,0.483617362578022,0.0001293845109765,0.483617362578022,-1.795774400445333e-05,0.483617362578022,-2.064630849833e-05
0.484411479757953,-2.367087916857432e-05,0.484411479757953,0.0001359537109515,0.484411479757953,-1.9637300218796236e-05,0.484411479757953,-2.06455e-05
0.4852055969378841,-3.1995351242596804e-06,0.4852055969378841,0.0001166647988766,0.4852055969378841,-2.299359592038176e-05,0.4852055969378841,-2.265857757253445e-05
0.4859997141178152,2.0636918263277764e-05,0.4859997141178152,8.242632857920681e-05,0.4859997141178152,-2.1988662573501395e-05,0.4859997141178152,-2.1652962573501397e-05
0.4867938312977463,1.9302985306531863e-05,0.4867938312977463,3.660083605352908e-05,0.4867938312977463,-2.19883e-05,0.4867938312977463,-1.9638827959797796e-05
0.4875879484776773,1.0082871937115049e-06,0.4875879484776773,-1.6277969125936754e-05,0.4875879484776773,-2.3330912872767418e-05,0.4875879484776773,-1.8967043566860768e-05
0.4883820656576084,-1.0910033442193609e-05,0.4883820656576084,-5.287596995498892e-05,0.4883820656576084,-2.0980603160762685e-05,0.4883820656576084,-1.7624047317118186e-05
0.4891761828375395,-8.895701179346338e-06,0.4891761828375395,-9.48448367919858e-05,0.4891761828375395,-1.3762326119115848e-05,0.4891761828375395,-1.5777220968461392e-05
0.4899703000174705,-7.554402301309064e-06,0.4899703000174705,-0.0001384375747452,0.4899703000174705,-8.229486976390868e-06,0.4899703000174705,-1.326231678743946e-05
0.4907644171974016,-1.1578643135602825e-05,0.4907644171974016,-0.0001629640123923,0.4907644171974016,-8.560063593410222e-06,0.4907644171974016,-1.2924646406589778e-05
0.4915585343773327,-1.2252606273225653e-05,0.4915585343773327,-0.0001864672195628,0.4915585343773327,-8.224806863387174e-06,0.4915585343773327,-1.6279431366128253e-05
0.4923526515572637,-1.4601868758708006e-05,0.4923526515572637,-0.0001921844959518,0.4923526515572637,-6.8824092763498345e-06,0.4923526515572637,-1.4939189280738282e-05
0.4931467687371948,-1.1246877769819902e-05,0.4931467687371948,-0.000191852097573,0.4931467687371948,-7.5530244460360195e-06,0.4931467687371948,-9.568974428799211e-06
0.4939408859171259,-9.903292935117544e-06,0.4939408859171259,-0.0001707060387137,0.4939408859171259,-1.0238414132638534e-05,0.4939408859171259,-1.2420390021496088e-05
0.494735003097057,-8.560300834076482e-06,0.494735003097057,-0.0001250477675771,0.494735003097057,-1.2588701309423216e-05,0.494735003097057,-1.628141047538574e-05
0.495529120276988,-6.210927885089393e-06,0.495529120276988,-6.545284530321495e-05,0.495529120276988,-1.2924704731961386e-05,0.495529120276988,-1.8967355520621616e-05
0.4963232374569191,-9.564190063525826e-06,0.4963232374569191,-1.02917678729908e-05,0.4963232374569191,-1.4936668032360451e-05,0.4963232374569191,-2.131464603775386e-05
0.4971173546368502,-1.2250817152617762e-05,0.4971173546368502,-8.897101419627118e-06,0.4971173546368502,-1.762201714448976e-05,0.4971173546368502,-2.2993935796586097e-05
0.4979114718167812,-1.2253e-05,0.4979114718167812,-1.225076686929019e-05,0.4979114718167812,-2.131444354890181e-05,0.4979114718167812,-2.165349318842298e-05
0.4987055889967123,-9.7365632738256e-06,0.4987055889967123,-1.359510491786562e-05,0.4987055889967123,-2.064584754106719e-05,0.4987055889967123,-2.2323552510696448e-05
0.4994997061766434,-8.896320568327479e-06,0.4994997061766434,3.51849443202326e-06,0.4994997061766434,-1.829646959131694e-05,0.4994997061766434,-1.829709069096644e-05
0.5002938233565745,-1.2923503792683796e-05,0.5002938233565745,3.440222908910766e-05,0.5002938233565745,-1.6953098736513647e-05,0.5002938233565745,-1.561059747302729e-05
0.5010879405365055,-1.393142457722258e-05,0.5010879405365055,8.039635570814265e-05,0.5010879405365055,-1.7624149718148387e-05,0.5010879405365055,-1.4267300563703228e-05
0.5018820577164366,-1.6953336842819427e-05,0.5018820577164366,0.0001193423420888,0.5018820577164366,-1.829536817473634e-05,0.5018820577164366,-7.552707554223592e-06
0.5026761748963677,-2.433780459013512e-05,0.5026761748963677,0.0001378051815954,0.5026761748963677,-1.5106067674901786e-05,0.5026761748963677,-5.040649655035702e-07
0.5034702920762988,-2.2996495723202503e-05,0.5034702920762988,0.0001431702172852,0.5034702920762988,-1.3597145144079315e-05,0.5034702920762988,-2.851347491519376e-06
0.5042644092562298,-1.4944594263643268e-05,0.5042644092562298,0.000147871503154,0.5042644092562298,-7.893155982007911e-06,0.5042644092562298,-4.19523095109939e-06
0.5050585264361609,-2.8606479279171987e-06,0.5050585264361609,0.0001344550088353,0.5050585264361609,-1.023739845978594e-05,0.5050585264361609,-4.867229558234761e-06
0.505852643616092,-2.182341355360032e-06,0.505852643616092,8.579284803917923e-05,0.505852643616092,-1.174872197288224e-05,0.505852643616092,-8.894201876816731e-06
0.506646760796023,-4.866820927193347e-06,0.506646760796023,1.9322724536148284e-05,0.506646760796023,-1.4266441476356186e-05,0.506646760796023,-1.2251988658238522e-05
0.507440877975954,-7.21715886261284e-06,0.507440877975954,-2.5002689982455647e-05,0.507440877975954,-1.628109045235087e-05,0.507440877975954,-1.091040636509942e-05
0.5082349951558852,-5.539040240300013e-06,0.5082349951558852,-5.018674639519475e-05,0.5082349951558852,-1.4267212288433224e-05,0.5082349951558852,-1.2588689759638978e-05
0.5090291123358163,-8.38866518873464e-07,0.5090291123358163,-6.361798328609602e-05,0.5090291123358163,-1.1917537176940484e-05,0.5090291123358163,-1.2252620518308253e-05
0.5098232295157473,1.8437372305379144e-06,0.5098232295157473,-8.541415248479457e-05,0.5098232295157473,-1.3594173260606024e-05,0.5098232295157473,-9.570012773338736e-06
0.5106173466956784,-1.0047521855371002e-06,0.5106173466956784,-0.0001136107980698,0.5106173466956784,-1.49374951422631e-05,0.5106173466956784,-6.548605921680012e-06
0.5114114638756094,4.528189938182642e-06,0.5114114638756094,-0.0001283950263307,0.5114114638756094,-1.1751553410461384e-05,0.5114114638756094,-8.894423308130847e-06
0.5122055810555405,7.887138730262115e-06,0.5122055810555405,-0.0001257204172352,0.5122055810555405,-1.3259302897487318e-05,0.5122055810555405,-8.89601e-06
0.5129996982354716,1.177491685126587e-06,0.5129996982354716,-0.0001377994070222,0.5129996982354716,-1.5273534491041522e-05,0.5129996982354716,-1.1580579325189252e-05
0.5137938154154027,1.6808312277915988e-07,0.5137938154154027,-0.000130588677767,0.5137938154154027,-1.628116587512857e-05,0.5137938154154027,-2.097901483453333e-05
0.5145879325953338,-8.39160505160705e-07,0.5145879325953338,-0.0001042362371727,0.5145879325953338,-1.3931699488948767e-05,0.5145879325953338,-2.517704377397897e-05
0.5153820497752648,1.1246278806064324e-05,0.5153820497752648,-6.998897524354259e-05,0.5153820497752648,-1.4267284179125404e-05,0.5153820497752648,-2.7695205223906755e-05
0.5161761669551959,1.728842950080596e-05,0.5161761669551959,-4.1826942114464135e-06,0.5161761669551959,-1.5610281996776155e-05,0.5161761669551959,-2.9372965507253652e-05
0.5169702841351269,1.6953102284072808e-05,0.5169702841351269,6.019986170114494e-05,0.5169702841351269,-1.695159086370877e-05,0.5169702841351269,-2.6355020556655263e-05
0.5177644013150581,1.5946459364741865e-05,0.5177644013150581,9.24606004790625e-05,0.5177644013150581,-1.69528e-05,0.5177644013150581,-2.3165604617315347e-05
0.5185585184949891,1.2255239362158204e-05,0.5185585184949891,0.0001072470423694,0.5185585184949891,-1.4939821470268111e-05,0.5185585184949891,-1.7795257254048296e-05
0.5193526356749202,4.871018760093691e-06,0.5193526356749202,0.0001153083035228,0.5193526356749202,-1.5274145964824584e-05,0.5193526356749202,-1.4604363311224054e-05
0.5201467528548512,2.5184714406973443e-06,0.5201467528548512,9.316319631457564e-05,0.5201467528548512,-1.3596322459864288e-05,0.5201467528548512,-1.0408006134097424e-05
0.5209408700347823,-3.523840927045957e-06,0.5209408700347823,5.539648169573251e-05,0.5209408700347823,-1.4099217585028828e-05,0.5209408700347823,-1.2252697789947811e-05
0.5217349872147133,-1.5106724332448756e-06,0.5217349872147133,2.803124055295835e-05,0.5217349872147133,-1.4267197296411057e-05,0.5217349872147133,-1.15816108111353e-05
0.5225291043946444,-8.399513104397462e-07,0.5225291043946444,-8.223728361622032e-06,0.5225291043946444,-9.566792853004109e-06,0.5225291043946444,-9.902967754965532e-06
0.5233232215745756,-6.205160807043072e-06,0.5233232215745756,-1.5172139936440397e-06,0.5233232215745756,-4.87223179652998e-06,0.5233232215745756,-8.896996093661273e-06
0.5241173387545066,-8.89377343289104e-06,0.5241173387545066,-9.225279870602742e-06,0.5241173387545066,-5.538470856140753e-06,0.5241173387545066,-1.0908522576750286e-05
0.5249114559344377,-7.218670136783122e-06,0.5249114559344377,-6.883430194237256e-06,0.5249114559344377,-1.2248399446015298e-05,0.5249114559344377,-7.89098025169139e-06
0.5257055731143687,-1.157925369893477e-05,0.5257055731143687,2.9689627174608627e-05,0.5257055731143687,-1.4937156115804298e-05,0.5257055731143687,-4.869254358967379e-06
0.5264996902942998,-2.9366660095947232e-05,0.5264996902942998,7.333307757616984e-05,0.5264996902942998,-1.6280876230712564e-05,0.5264996902942998,-6.20989623461314e-06
0.5272938074742308,-3.7764065022017447e-05,0.5272938074742308,0.0001018770812203,0.5272938074742308,-1.4938925596477209e-05,0.5272938074742308,-5.874801399119303e-06
0.528087924654162,8.355825841987932e-07,0.528087924654162,8.040183872172928e-05,0.528087924654162,-1.56099362881667e-05,0.528087924654162,-8.397238362825239e-07
0.528882041834093,4.531744284551252e-06,0.528882041834093,5.421503469071072e-05,0.528882041834093,-1.695292381100167e-05,0.528882041834093,-3.525360616997949e-06
0.5296761590140241,1.0172725571569985e-06,0.5296761590140241,4.917513338843355e-05,0.5296761590140241,-1.930243141631257e-05,0.5296761590140241,-1.3596471459218574e-05
0.5304702761939551,5.181909616984628e-05,0.5304702761939551,2.5870041658909488e-05,0.5304702761939551,-1.7961122549379952e-05,0.5304702761939551,-1.694974362655012e-05
0.5312643933738862,1.5973143108336722e-05,0.5312643933738862,-1.7590986074251105e-05,0.5312643933738862,-1.494090831168461e-05,0.5312643933738862,-1.661735647907607e-05
0.5320585105538173,-2.766819845973585e-05,0.5320585105538173,-7.264476270168118e-05,0.5320585105538173,-1.7622544513012287e-05,0.5320585105538173,-2.0307523705391896e-05
0.5328526277337483,-2.2661960890063605e-05,0.5328526277337483,-0.0001220028635586,0.5328526277337483,-1.963745564397456e-05,0.5328526277337483,-2.232295569085948e-05
0.5336467449136795,-1.8297002010960596e-05,0.5336467449136795,-0.0001216911076245,0.5336467449136795,-1.8967215698936512e-05,0.5336467449136795,-2.3666268602126977e-05
0.5344408620936105,-3.64201514790208e-05,0.5344408620936105,-0.0001153131079406,0.5344408620936105,-1.426801628771979e-05,0.5344408620936105,-2.1652949820225637e-05
0.5352349792735416,-2.1317294335228912e-05,0.5352349792735416,-0.0001237047809103,0.5352349792735416,-1.2588743815315478e-05,0.5352349792735416,-1.6281540209009526e-05
0.5360290964534726,-9.567532185317956e-06,0.5360290964534726,-0.0001109429904128,0.5360290964534726,-1.1245777813468794e-05,0.5360290964534726,-1.678483891280065e-05
0.5368232136334037,-1.0573503846622071e-05,0.5368232136334037,-6.969824219947235e-05,0.5368232136334037,-1.023979616326933e-05,0.5368232136334037,-1.6281898032177645e-05
0.5376173308133347,-1.225158535287442e-05,0.5376173308133347,-3.410339035050144e-05,0.5376173308133347,-1.0406558493147223e-05,0.5376173308133347,-1.0914726870801856e-05
0.5384114479932659,-1.5272199523997813e-05,0.5384114479932659,-7.236190814370513e-06,0.5384114479932659,-1.3593582865647708e-05,0.5384114479932659,-9.568343537937635e-06
0.539205565173197,-1.560981615698014e-05,0.539205565173197,5.867550155083853e-06,0.539205565173197,-1.6615445412821246e-05,0.539205565173197,-9.56741e-06
0.539999682353128,9.221771849524784e-06,0.539999682353128,1.426384251256857e-05,0.539999682353128,-1.6952665700182698e-05,0.539999682353128,-1.62787140076545e-05
0.5407937995330591,2.8026053657349267e-05,0.5407937995330591,-4.191568403864875e-06,0.5407937995330591,-1.4939108539688204e-05,0.5407937995330591,-2.0308782920623592e-05
0.5415879167129901,2.1988933830928197e-05,0.5415879167129901,-6.797220948631713e-05,0.5415879167129901,-1.0239292987769352e-05,0.5415879167129901,-1.980625282536292e-05
0.5423820338929212,-5.538929691893642e-06,0.5423820338929212,-0.0001326032712525,0.5423820338929212,-1.0910042373158665e-05,0.5423820338929212,-2.0645227733981256e-05
0.5431761510728523,-3.188438283133386e-06,0.5431761510728523,-0.0001858115517059,0.5431761510728523,-7.216563114054721e-06,0.5431761510728523,-1.4265796565506655e-05
0.5439702682527834,5.001491142568998e-07,0.5439702682527834,-0.0001992246403753,0.5439702682527834,-2.1866748408480934e-06,0.5439702682527834,-6.888617775167947e-06
0.5447643854327144,-8.217854281649248e-06,0.5447643854327144,-0.0001972245588646,0.5447643854327144,-1.511159673143027e-06,0.5447643854327144,-6.210939673143028e-06
0.5455585026126455,-2.4998985400462085e-05,0.5455585026126455,-0.0001925259442324,0.5455585026126455,-8.388149004730328e-06,0.5455585026126455,-9.565307072575228e-06
0.5463526197925765,-2.266072525116414e-05,0.5463526197925765,-0.0001532648078173,0.5463526197925765,-1.896193637454988e-05,0.5463526197925765,-1.3593871002792836e-05
0.5471467369725076,-1.5108902140120902e-05,0.5471467369725076,-0.0001052569025626,0.5471467369725076,-2.165171034429001e-05,0.5471467369725076,-1.4938155172145004e-05
0.5479408541524387,-5.70859657245396e-06,0.5479408541524387,-5.6741910294088816e-05,0.5479408541524387,-2.16526e-05,0.5479408541524387,-1.6952430017433133e-05
0.5487349713323698,-1.6281018203129544e-05,0.5487349713323698,1.997133046502099e-05,0.5487349713323698,-2.098122424111699e-05,0.5487349713323698,-2.0981054553298075e-05
0.5495290885123009,-3.03807e-05,0.5495290885123009,7.234894268247632e-05,0.5495290885123009,-2.3666550497713783e-05,0.5495290885123009,-2.517745605779052e-05
0.5503232056922319,-3.03807e-05,0.5503232056922319,0.0001256656704761,0.5503232056922319,-2.2325241630781163e-05,0.5503232056922319,-2.568039693841353e-05
0.551117322872163,-3.876604282698713e-05,0.551117322872163,0.0001815653332703,0.551117322872163,-2.064693134932199e-05,0.551117322872163,-2.366841772152309e-05
0.551911440052094,-2.971569208038359e-05,0.551911440052094,0.000183793461201,0.551911440052094,-1.9303646974871644e-05,0.551911440052094,-2.2995773487435823e-05
0.5527055572320251,-1.7630939162788512e-05,0.5527055572320251,0.0001428628382398,0.5527055572320251,-1.8967187200515356e-05,0.5527055572320251,-2.2324274401030708e-05
0.5534996744119562,-1.091295314625406e-05,0.5534996744119562,0.0001334438545687,0.5534996744119562,-1.510798307959911e-05,0.5534996744119562,-1.7626127161371792e-05
0.5542937915918873,-4.197992274327621e-06,0.5542937915918873,0.0001663303647122,0.5542937915918873,-1.0575689527362402e-05,0.5542937915918873,-1.3596857369321187e-05
0.5550879087718184,-2.182271424296284e-06,0.5550879087718184,0.0001871496086496,0.5550879087718184,-8.560541424296285e-06,0.5550879087718184,-1.2924477141815084e-05
0.5558820259517494,-6.88192972229692e-06,0.5558820259517494,0.0001965504843315,0.5558820259517494,-1.0910221944590125e-05,0.5558820259517494,-7.049488957785179e-06
0.5566761431316805,-1.023946483315297e-05,0.5566761431316805,0.0001807654779937,0.5566761431316805,-1.158208351502034e-05,0.5566761431316805,-1.5108213181326282e-06
0.5574702603116115,-1.3928064217217155e-05,0.5574702603116115,0.0001334840407675,0.5574702603116115,-1.4264701248885202e-05,0.5574702603116115,-2.5168029683319517e-06
0.5582643774915427,-1.6279557641531616e-05,0.5582643774915427,9.520050388842328e-05,0.5582643774915427,-1.42672e-05,0.5582643774915427,-8.220135724382965e-06
0.5590584946714737,4.928654898791546e-07,0.5590584946714737,4.686066559717359e-05,0.5590584946714737,-1.2254281905185849e-05,0.5590584946714737,-1.225043619599264e-05
0.5598526118514048,3.1708238059807255e-05,0.5598526118514048,4.552607452944662e-06,0.5598526118514048,-1.0239784645970508e-05,0.5598526118514048,-1.191746410766175e-05
0.5606467290313358,2.6018547595805503e-05,0.5606467290313358,-2.4328247514529294e-05,0.5606467290313358,-1.02388e-05,0.5606467290313358,-6.8835384600618025e-06
0.5614408462112669,4.5360913352392666e-06,0.5614408462112669,-7.938203655266459e-05,0.5614408462112669,-6.5468352299482055e-06,0.5614408462112669,-2.854220251204749e-06
0.5622349633911979,1.1245590440303476e-05,0.5622349633911979,-0.0001955386446348,0.5622349633911979,-5.539076433700891e-06,0.5622349633911979,-2.85344e-06
0.563029080571129,3.0044217487114404e-05,0.563029080571129,-0.000240025071748,0.563029080571129,-8.225171361858829e-06,0.563029080571129,-6.210930332463662e-06
0.5638231977510602,2.233169150225077e-05,0.5638231977510602,-0.0002505883285754,0.5638231977510602,-1.375801050458458e-05,0.5638231977510602,-1.1240818605670992e-05
0.5646173149309912,1.729284457995797e-05,0.5646173149309912,-0.0003052707880464,0.5646173149309912,-1.5608406912572112e-05,0.5646173149309912,-1.8960338178433995e-05
0.5654114321109223,1.3766121098501518e-05,0.5654114321109223,-0.0003137039978272,0.5654114321109223,-1.4268160404853425e-05,0.5654114321109223,-2.165067919029315e-05
0.5662055492908533,1.057631027271996e-05,0.5662055492908533,-0.0002650616306277,0.5662055492908533,-1.560923776795699e-05,0.5662055492908533,-2.114928586539832e-05
0.5669996664707844,5.205586224328518e-06,0.5669996664707844,-0.0001650380221607,0.5669996664707844,-1.561e-05,0.5669996664707844,-2.500787835070939e-05
0.5677937836507154,-2.0122233686541856e-06,0.5677937836507154,-1.0280968273937636e-05,0.5677937836507154,-1.4938782943211184e-05,0.5677937836507154,-2.6351934113577632e-05
