X [s].2,L DELTOID ANTERIOR: EMG 3 [V],X [s].3,L BICEPS BRACHII: EMG 4 [V],X [s].4,L DELTOID POSTERIOR: EMG 5 [V],X [s].7,L DELTOID MEDIUS: EMG 8 [V]
0.0,0.000180102,0.0,2.93736e-05,0.0,-9.56741e-06,0.0,9.9031e-06
0.000794117179931,0.00018110899896,0.000794117179931,1.2253017680082952e-05,0.000794117179931,-7.217522426681898e-06,0.000794117179931,-1.5609973653159097e-05
0.0015882343598621,0.0001542531907408,0.0015882343598621,-1.963817349589545e-05,0.0015882343598621,-9.73524211811196e-06,0.0015882343598621,-1.9638371388865503e-05
0.0023823515397932,0.0001294121379942,0.0023823515397932,-6.428630976360592e-05,0.0023823515397932,-1.0238790887178332e-05,0.0023823515397932,-1.5945704881802962e-05
0.0031764687197242,0.0002005798852633,0.0031764687197242,-6.932169188195696e-05,0.0031764687197242,-5.539037576942287e-06,0.0031764687197242,-1.846339594097848e-05
0.0039705858996553,0.0002086369583986,0.0039705858996553,-5.018699880027547e-05,0.0039705858996553,-6.210416533357185e-06,0.0039705858996553,-1.7288506066457116e-05
0.0047647030795864,0.000187823181385,0.0047647030795864,-4.1794573136149326e-05,0.0047647030795864,-6.21042e-06,0.0047647030795864,-1.124595265865496e-05
0.0055588202595174,0.0001314259572146,0.0055588202595174,-3.6759000219412736e-05,0.0055588202595174,-9.567411865005027e-06,0.0055588202595174,-8.224610438825481e-06
0.0063529374394485,5.039701448551347e-07,0.0063529374394485,-3.743039783514553e-05,0.0063529374394485,-1.5274281598769232e-05,0.0063529374394485,-9.567405670291055e-06
0.0071470546193796,-5.0186556543020176e-05,0.0071470546193796,-4.481564996033901e-05,0.0071470546193796,-1.7959881803513257e-05,0.0071470546193796,-1.4938563607094268e-05
0.0079411717993107,-5.857931333263876e-05,0.0079411717993107,-3.944465546607851e-05,0.0079411717993107,-1.896698959991665e-05,0.0079411717993107,-1.2253027733555594e-05
0.0087352889792417,-6.86502870547481e-05,0.0087352889792417,-3.2730608630253624e-05,0.0087352889792417,-1.661710302058877e-05,0.0087352889792417,-8.224615178139321e-06
0.0095294061591728,-8.677801232339387e-05,0.0095294061591728,-3.407339350543658e-05,0.0095294061591728,-1.6952798376359147e-05,0.0095294061591728,-1.1917282139998969e-05
0.0103235233391039,-9.819191839135928e-05,0.0103235233391039,-3.524824573606905e-05,0.0103235233391039,-1.6952839465745804e-05,0.0103235233391039,-1.35958e-05
0.0111176405190349,-0.0001022203425394,0.0111176405190349,-3.3401931492117626e-05,0.0111176405190349,-1.8295668507882376e-05,0.0111176405190349,-1.3595748619088218e-05
0.011911757698966,-0.0001089336423959,0.011911757698966,-3.2059271520811354e-05,0.011911757698966,-1.963832847918865e-05,0.011911757698966,-1.2588753640608514e-05
0.0127058748788971,-0.00011732673449,0.0127058748788971,-2.970937433834484e-05,0.0127058748788971,-1.8127747790517697e-05,0.0127058748788971,-1.4938525661655165e-05
0.0134999920588282,-0.0001270619026478,0.0134999920588282,-2.9373603357072625e-05,0.0134999920588282,-1.846339664292737e-05,0.0134999920588282,-1.762417314341898e-05
0.0142941092387592,-0.0001250477109819,0.0142941092387592,-3.172350781123659e-05,0.0142941092387592,-1.62814e-05,0.0142941092387592,-1.997413514940121e-05
0.0150882264186903,-0.0001002048888981,0.0150882264186903,-3.2394955834514906e-05,0.0150882264186903,-1.6281455834514905e-05,0.0150882264186903,-2.299516600049068e-05
0.0158823435986214,-6.680637209625738e-05,0.0158823435986214,-3.4073280798647745e-05,0.0158823435986214,-1.7959780798647744e-05,0.0158823435986214,-1.896728607614375e-05
0.0166764607785524,-1.4269794848688965e-05,0.0166764607785524,-2.735973161163409e-05,0.0166764607785524,-1.7624216580581705e-05,0.0166764607785524,-1.2421123323812788e-05
0.0174705779584835,-3.0216021482309645e-06,0.0174705779584835,-2.0981377037149218e-05,0.0174705779584835,-1.661712795367235e-05,0.0174705779584835,-1.2924386021775997e-05
0.0182646951384146,-1.560992293025008e-05,0.0182646951384146,-1.829561644159889e-05,0.0182646951384146,-1.7624193834400414e-05,0.0182646951384146,-1.4938587668800833e-05
0.0190588123183456,-4.666219113031791e-05,0.0190588123183456,-1.4602863547562591e-05,0.0190588123183456,-1.644916875505365e-05,0.0190588123183456,-1.3595768755053648e-05
0.0198529294982767,-5.253562795791701e-05,0.0198529294982767,-1.2253224435012822e-05,0.0198529294982767,-1.4435018704774842e-05,0.0198529294982767,-1.1581712217506412e-05
0.0206470466782078,-2.0983318611363467e-05,0.0206470466782078,-1.8295194305891035e-05,0.0206470466782078,-1.4938566188800635e-05,0.0206470466782078,-1.4602697152945516e-05
0.0214411638581389,4.01132192840755e-05,0.0214411638581389,-2.098107777032848e-05,0.0214411638581389,-1.359586111483576e-05,0.0214411638581389,-2.2994918036827795e-05
0.0222352810380699,8.811975371419903e-05,0.0222352810380699,-1.8967048096108117e-05,0.0222352810380699,-1.4267183967963965e-05,0.0222352810380699,-3.105190761556755e-05
0.023029398218001,0.0001341118967937,0.023029398218001,-2.383458907686929e-05,0.023029398218001,-1.1581606026616778e-05,0.023029398218001,-3.205919774001871e-05
0.0238235153979321,0.0001146393336106,0.0238235153979321,-1.7959568023337e-05,0.0238235153979321,-9.56742301853374e-06,0.0238235153979321,-2.702365443445324e-05
0.0246176325778631,2.870002430164081e-05,0.0246176325778631,-8.390050203728318e-07,0.0246176325778631,-1.023899966759866e-05,0.0246176325778631,-2.467357967897133e-05
0.0254117497577942,-2.4334744596241385e-05,0.0254117497577942,5.035108356594868e-06,0.0254117497577942,-1.5106092068797963e-05,0.0254117497577942,-1.930303978331812e-05
0.0262058669377253,-4.716464957930354e-05,0.0262058669377253,2.1821588026911453e-06,0.0262058669377253,-1.5609979032663993e-05,0.0262058669377253,-1.4938781698870286e-05
0.0269999841176564,-6.160041129175407e-05,0.0269999841176564,6.210339430656956e-06,0.0269999841176564,-1.4267226856581017e-05,0.0269999841176564,-1.3595826856581017e-05
0.0277941012975874,-6.999304898557977e-05,0.0277941012975874,8.224613565612196e-06,0.0277941012975874,-1.4602895063088998e-05,0.0277941012975874,-1.17493975316262e-05
0.0285882184775185,-3.8772543941070206e-05,0.0285882184775185,1.0406641422171489e-05,0.0285882184775185,-1.15816e-05,0.0285882184775185,-1.0238784379726551e-05
0.0293823356574496,-1.0576784533210316e-05,0.0293823356574496,7.889113980143468e-06,0.0293823356574496,-1.15816e-05,0.0293823356574496,-9.567464393030604e-06
0.0301764528373806,5.02890060495404e-07,0.0301764528373806,-1.673704987310858e-07,0.0301764528373806,-9.567529625332076e-06,0.0301764528373806,-1.1917160437013592e-05
0.0309705700173117,-6.881541152013163e-06,0.0309705700173117,-1.0574107077984326e-05,0.0309705700173117,-8.560348024890236e-06,0.0309705700173117,-1.2252987325036588e-05
0.0317646871972428,-6.88182e-06,0.0317646871972428,-1.4267140465002625e-05,0.0317646871972428,-1.1581551289708824e-05,0.0317646871972428,-7.553295771492394e-06
0.0325588043771738,1.2420969313010857e-05,0.0325588043771738,-1.1581577795089068e-05,0.0325588043771738,-1.0574509252092157e-05,0.0325588043771738,-1.0910203700836862e-05
0.0333529215571049,4.313756424418068e-05,0.0333529215571049,-7.55314710457626e-06,0.0333529215571049,-1.2253072895695173e-05,0.0333529215571049,-1.158152710457626e-05
0.034147038737036,5.28717490465792e-05,0.034147038737036,-4.8678371609209225e-06,0.034147038737036,-1.4938392838307695e-05,0.034147038737036,-8.896217160920923e-06
0.0349411559169671,4.246647770367722e-05,0.0349411559169671,-4.86763e-06,0.0349411559169671,-2.0645183191713385e-05,0.0349411559169671,-1.1749241599187485e-05
0.0357352730968981,1.3261089455498314e-05,0.0357352730968981,-1.0909995285384736e-05,0.0357352730968981,-2.1316877253818708e-05,0.0357352730968981,-1.426711470012622e-05
0.0365293902768292,-1.359547116924659e-05,0.0365293902768292,-1.2252983558401108e-05,0.0365293902768292,-1.69528534351964e-05,0.0365293902768292,-1.1245936993597506e-05
0.0373235074567603,-3.2059291416444625e-05,0.0373235074567603,-1.2253009456873582e-05,0.0373235074567603,-2.030981576145597e-05,0.0373235074567603,-1.0574481086346738e-05
0.0381176246366913,-4.179437503595116e-05,0.0381176246366913,-1.3260141654682948e-05,0.0381176246366913,-2.1988029244560848e-05,0.0381176246366913,-8.560315206835369e-06
0.0389117418166224,-3.7766395122032366e-05,0.0389117418166224,-1.4602801625989211e-05,0.0389117418166224,-1.3260739431070136e-05,0.0389117418166224,-8.728147703248651e-06
0.0397058589965535,-2.0982066690276643e-05,0.0397058589965535,-1.7288361328729576e-05,0.0397058589965535,-6.882149343234556e-06,0.0397058589965535,-1.0238721997926735e-05
0.0404999761764846,-1.684734140387167e-07,0.0404999761764846,-2.433788850742452e-05,0.0404999761764846,-4.196310569443058e-06,0.0404999761764846,-1.1581559715128468e-05
0.0412940933564156,8.895934170115087e-06,0.0412940933564156,-2.903786068062256e-05,0.0412940933564156,-8.895970680789882e-06,0.0412940933564156,-1.225299438294608e-05
0.0420882105363467,1.930264655676252e-05,0.0420882105363467,-1.9302579752715672e-05,0.0420882105363467,-1.15816e-05,0.0420882105363467,-1.6281364371175012e-05
0.0428823277162778,1.5274666642843697e-05,0.0428823277162778,-1.0239624946398316e-05,0.0428823277162778,-1.15816e-05,0.0428823277162778,-1.3596044428562464e-05
0.0436764448962088,-1.930030065006225e-05,0.0436764448962088,-3.3638519111453414e-07,0.0436764448962088,-1.4267013642184315e-05,0.0436764448962088,-1.091038635781568e-05
0.0444705620761399,-6.52912036206143e-05,0.0444705620761399,8.559885153050808e-06,0.0444705620761399,-1.5274251903891887e-05,0.0444705620761399,-1.0406724045666205e-05
0.045264679256071,-9.013435107368584e-05,0.045264679256071,9.903064922880756e-06,0.045264679256071,-1.6281373691964646e-05,0.045264679256071,-1.2252951769907982e-05
0.046058796436002,-8.744951205278474e-05,0.046058796436002,6.5461350664521824e-06,0.046058796436002,-1.5274304519962584e-05,0.046058796436002,-1.3260095480037415e-05
0.0468529136159331,-5.7571258292992106e-05,0.0468529136159331,-1.680561903906186e-07,0.0468529136159331,-1.4938588489376072e-05,0.0468529136159331,-1.510646618694479e-05
0.0476470307958642,3.1838454357304563e-06,0.0476470307958642,-1.2251946937256974e-05,0.0476470307958642,-1.426725850372293e-05,0.0476470307958642,-1.896666359923631e-05
0.0484411479757953,-2.853044129934768e-06,0.0484411479757953,-1.577756907830663e-05,0.0484411479757953,-1.3092276978265352e-05,0.0484411479757953,-1.762428797141678e-05
0.0492352651557263,-4.196058394431552e-05,0.0492352651557263,-1.628137790256114e-05,0.0492352651557263,-8.224823584734744e-06,0.0492352651557263,-1.829557053967345e-05
0.0500293823356574,-5.539840216746461e-06,0.0500293823356574,-1.4435041072210174e-05,0.0500293823356574,-7.553234934722264e-06,0.0500293823356574,-2.19882178578041e-05
0.0508234995155885,0.0001438469088725,0.0508234995155885,-8.89601337885702e-06,0.0508234995155885,-8.560309385661805e-06,0.0508234995155885,-2.1652600204781437e-05
0.0516176166955195,0.0002247500776335,0.0516176166955195,1.1750670259541366e-06,0.0516176166955195,-9.5674241138314e-06,0.0516176166955195,-1.560998588595838e-05
0.0524117338754506,0.0002284426925233,0.0524117338754506,7.217016898917944e-06,0.0524117338754506,-1.0238744100527343e-05,0.0524117338754506,-1.4938655900305248e-05
0.0532058510553817,0.0001609711589057,0.0532058510553817,6.546161381962857e-06,0.0532058510553817,-1.325991378116714e-05,0.0532058510553817,-1.863107239920428e-05
0.0539999682353128,3.195451250938145e-06,0.0539999682353128,3.860637425924062e-06,0.0539999682353128,-1.9134565006916135e-05,0.0539999682353128,-1.6952867141452545e-05
0.0547940854152438,-6.495644838805933e-05,0.0547940854152438,-5.538857363946252e-06,0.0547940854152438,-1.695284007547899e-05,0.0547940854152438,-1.3595861655995858e-05
0.0555882025951749,-8.358891261512514e-05,0.0555882025951749,-1.1581618648204332e-05,0.0555882025951749,-1.4938598354406822e-05,0.0555882025951749,-1.3931495612187216e-05
0.056382319775106,-8.744911002741663e-05,0.056382319775106,-1.7287923526256e-05,0.056382319775106,-1.4435050870381026e-05,0.056382319775106,-1.258883564088094e-05
0.057176436955037,-6.193842552882937e-05,0.057176436955037,-2.2659173579145795e-05,0.057176436955037,-1.2924519929128553e-05,0.057176436955037,-1.02389865625971e-05
0.0579705541349681,-1.2591550187422018e-05,0.0579705541349681,-1.896721327441957e-05,0.0579705541349681,-1.0910316334651975e-05,0.0579705541349681,-8.560406944965743e-06
0.0587646713148992,4.514931426698453e-05,0.0587646713148992,-1.6617184884924224e-05,0.0587646713148992,-9.567458505309756e-06,0.0587646713148992,-8.224622126417746e-06
0.0595587884948302,9.181282394486924e-05,0.0595587884948302,-1.4267234046087762e-05,0.0595587884948302,-1.091018054523759e-05,0.0595587884948302,-9.903075681510768e-06
0.0603529056747613,2.53447466550187e-05,0.0603529056747613,-1.3092191605040136e-05,0.0603529056747613,-1.15816107936219e-05,0.0603529056747613,-1.1245911993310184e-05
0.0611470228546924,-3.8095637020487135e-05,0.0611470228546924,-1.191741412493309e-05,0.0611470228546924,-1.3092053266555516e-05,0.0611470228546924,-1.2924236957443024e-05
0.0619411400346235,-1.6283047737692142e-05,0.0619411400346235,-5.707338972135956e-06,0.0619411400346235,-1.3763549300146354e-05,0.0619411400346235,-1.527412255051224e-05
0.0627352572145545,1.9972146583910687e-05,0.0627352572145545,-9.23152008456184e-06,0.0627352572145545,-1.4938536691980393e-05,0.0627352572145545,-1.1581798959594904e-05
0.0635293743944856,9.735590148299363e-06,0.0635293743944856,-1.2924280930327695e-05,0.0635293743944856,-1.4267221649089954e-05,0.0635293743944856,-8.392562832854838e-06
0.0643234915744167,-1.9805886558328125e-05,0.0643234915744167,-7.217580551306821e-06,0.0643234915744167,-1.493859287629188e-05,0.0643234915744167,-9.23170109536485e-06
0.0651176087543477,-2.0309977616699933e-05,0.0651176087543477,-4.699841055788827e-06,0.0651176087543477,-1.359578519851648e-05,0.0651176087543477,-9.903118501854398e-06
0.0659117259342788,-3.642179728280307e-05,0.0659117259342788,-1.0238283440555548e-05,0.0659117259342788,-1.225312522721023e-05,0.0659117259342788,-1.1581443465987212e-05
0.0667058431142099,-5.824213688365001e-05,0.0667058431142099,-1.5777403210689878e-05,0.0667058431142099,-1.5106195595122314e-05,0.0667058431142099,-1.5609711423351347e-05
0.067499960294141,-5.857938321463686e-05,0.067499960294141,-2.030957339509759e-05,0.067499960294141,-1.5609974819455242e-05,0.067499960294141,-1.4938633570726277e-05
0.068294077474072,-5.287266188542765e-05,0.068294077474072,-2.2491738104048932e-05,0.068294077474072,-1.5274309522672216e-05,0.068294077474072,-1.5945671431983353e-05
0.0690881946540031,-5.1865406779943895e-05,0.0690881946540031,-2.064551242956053e-05,0.0690881946540031,-1.4938602259981296e-05,0.0690881946540031,-1.2253024859794271e-05
0.0698823118339342,-4.884443540183146e-05,0.0698823118339342,-2.030983726687016e-05,0.0698823118339342,-1.5945588199389512e-05,0.0698823118339342,3.1874257306332843e-06
0.0706764290138652,-4.1123790195121744e-05,0.0706764290138652,-2.03098e-05,0.0706764290138652,-1.527436001774443e-05,0.0706764290138652,5.2031499476606326e-06
0.0714705461937963,-3.608794119271938e-05,0.0714705461937963,-1.7288704715631625e-05,0.0714705461937963,-1.4267268238543876e-05,0.0714705461937963,-1.51018507840689e-06
0.0722646633737274,-3.390560064499359e-05,0.0722646633737274,-1.4267339351413371e-05,0.0722646633737274,-1.493856903301925e-05,0.0722646633737274,-7.888615815066571e-06
0.0730587805536585,-3.1387861654771415e-05,0.0730587805536585,-1.2756536994821934e-05,0.0730587805536585,-1.7624134233604432e-05,0.0730587805536585,-1.8295345155462063e-05
0.0738528977335895,-2.9037906706759705e-05,0.0738528977335895,-1.225300143702009e-05,0.0738528977335895,-1.6281403832434115e-05,0.0738528977335895,-2.232388850298306e-05
0.0746470149135206,-2.5009931581935864e-05,0.0746470149135206,-1.1581671930322644e-05,0.0746470149135206,-1.5274407895483967e-05,0.0746470149135206,-2.4337884209032067e-05
0.0754411320934517,-1.7289160252436006e-05,0.0754411320934517,-1.2252942586001095e-05,0.0754411320934517,-1.52743e-05,0.0754411320934517,-3.054806891623445e-05
0.0762352492733827,-1.158196455324499e-05,0.0762352492733827,-1.4602749889840296e-05,0.0762352492733827,-1.3931585777234117e-05,0.0762352492733827,-3.306613917088e-05
0.0770293664533138,-6.378489814227995e-06,0.0770293664533138,-2.333063128216673e-05,0.0770293664533138,-1.1078220541637403e-05,0.0770293664533138,-2.5009840358822545e-05
0.0778234836332449,7.217239784705719e-06,0.0778234836332449,-3.004486162146622e-05,0.0778234836332449,-8.39251535223793e-06,0.0778234836332449,-2.568088616214662e-05
0.078617600813176,1.4602908592921497e-05,0.078617600813176,-3.8101798968837135e-05,0.078617600813176,-8.896014124641226e-06,0.078617600813176,-4.61584907196366e-05
0.079411717993107,2.299443342401368e-05,0.079411717993107,-3.7094803990357445e-05,0.079411717993107,-1.2923984039602791e-05,0.079411717993107,-3.709563590289129e-05
0.0802058351730381,1.8631656258483304e-05,0.0802058351730381,-2.7863753636902e-05,0.0802058351730381,-1.3931417784619951e-05,0.0802058351730381,-1.3933390945577564e-05
0.0809999523529692,1.1917702848715322e-05,0.0809999523529692,-1.8967533771547737e-05,0.0809999523529692,-1.6281259002949637e-05,0.0809999523529692,-1.0910381281921894e-05
0.0817940695329002,3.860839112725093e-06,0.0817940695329002,-1.158188335438642e-05,0.0817940695329002,-1.6952774240510327e-05,0.0817940695329002,-9.23177439834052e-06
0.0825881867128313,-4.196095191375207e-06,0.0825881867128313,-9.567443702156198e-06,0.0825881867128313,-1.628141123410784e-05,0.0825881867128313,-1.1245866297843802e-05
0.0833823038927624,-1.695125630986684e-05,0.0833823038927624,-8.896091247040184e-06,0.0833823038927624,-1.829535625887945e-05,0.0833823038927624,-9.567613116390349e-06
0.0841764210726934,-4.380603073435176e-05,0.0841764210726934,-4.196697121239963e-06,0.0841764210726934,-1.8966933268110312e-05,0.0841764210726934,-3.525430585019336e-06
0.0849705382526245,-9.51665062254784e-05,0.0849705382526245,-8.39507031295022e-07,0.0849705382526245,-1.8631326103253916e-05,0.0849705382526245,-9.566940142984692e-06
0.0857646554325556,-0.0001270602101465,0.0857646554325556,1.17482695740774e-06,0.0857646554325556,-1.9134771741961664e-05,0.0857646554325556,-1.7959428986486296e-05
0.0865587726124866,-0.0001250480694603,0.0865587726124866,3.860437377368244e-06,0.0865587726124866,-1.6617186832316166e-05,0.0865587726124866,-1.846338263491632e-05
0.0873528897924177,-0.0001109481812453,0.0873528897924177,6.21038979386044e-06,0.0873528897924177,-1.6281404315181157e-05,0.0873528897924177,-1.628142804803481e-05
0.0881470069723488,-9.819329418197406e-05,0.0881470069723488,1.1748751198313707e-05,0.0881470069723488,-1.5610078643622506e-05,0.0881470069723488,-1.2253471861735025e-05
0.0889411241522799,-8.51008504892595e-05,0.0889411241522799,1.3595623642827885e-05,0.0889411241522799,-1.561e-05,0.0889411241522799,-8.403361740568897e-07
0.0897352413322109,-7.687560763014437e-05,0.0897352413322109,1.225309920552463e-05,0.0897352413322109,-1.695270079447537e-05,0.0897352413322109,8.895290763197133e-06
0.090529358512142,-2.904039925552167e-05,0.090529358512142,1.1755187746879412e-06,0.090529358512142,-1.762416492261953e-05,0.090529358512142,5.874877847689661e-06
0.0913234756920731,9.718083624262518e-05,0.0913234756920731,-1.930207316587862e-05,0.0913234756920731,-1.359592331199174e-05,0.0913234756920731,-9.231247582173713e-06
0.0921175928720041,0.0002633535084231,0.0921175928720041,-4.112290413585234e-05,0.0921175928720041,-6.210486292605032e-06,0.0921175928720041,-1.9638306587529707e-05
0.0929117100519352,0.0003180678027346,0.0929117100519352,-5.656345108661468e-05,0.0929117100519352,-3.0216511887077877e-06,0.0929117100519352,-2.7526406533256132e-05
0.0937058272318663,0.0002267723672815,0.0937058272318663,-6.411770785509729e-05,0.0937058272318663,-7.552804712142009e-06,0.0937058272318663,-2.7023746147880768e-05
0.0944999444117974,5.187764316686897e-05,0.0944999444117974,-5.220193422904773e-05,0.0944999444117974,-1.1245641506807753e-05,0.0944999444117974,-1.6617828477759907e-05
0.0952940615917284,5.205586906504179e-06,0.0952940615917284,-3.373859302012425e-05,0.0952940615917284,-1.3595686342277695e-05,0.0952940615917284,-1.493868118408736e-05
0.0960881787716595,0.0001324295988228,0.0960881787716595,-2.232420512030267e-05,0.0960881787716595,-1.1581653844759292e-05,0.0960881787716595,-1.6952746155240706e-05
0.0968822959515906,0.000272400660387,0.0968822959515906,-1.9303095808429168e-05,0.0968822959515906,-1.292422407931991e-05,0.0968822959515906,-1.527451990085011e-05
0.0976764131315216,0.0003452580310942,0.0976764131315216,-1.493907739922706e-05,0.0976764131315216,-1.4267053107930137e-05,0.0976764131315216,-1.62812898309476e-05
0.0984705303114527,0.0002460757054957,0.0984705303114527,-4.868513807163735e-06,0.0984705303114527,-1.4938541079346902e-05,0.0984705303114527,-1.661707053967345e-05
0.0992646474913838,4.986417446181855e-05,0.0992646474913838,8.388686417813182e-07,0.0992646474913838,-1.2253177581085009e-05,0.0992646474913838,-1.963820022127937e-05
0.1000587646713148,-4.747245720028076e-05,0.1000587646713148,-6.208331382814767e-06,0.1000587646713148,-1.376315245182963e-05,0.1000587646713148,-2.047735136871139e-05
0.1008528818512459,-8.106620473317643e-05,0.1008528818512459,-1.4601651182550097e-05,0.1008528818512459,-1.6616675393615084e-05,0.1008528818512459,-1.7624624591504723e-05
0.101646999031177,-0.0001008769758333,0.101646999031177,-2.366668894053199e-05,0.101646999031177,-1.6281400409614447e-05,0.101646999031177,-1.5610002457686674e-05
0.1024411162111081,-0.0001126300954014,0.1024411162111081,-2.1652501732823703e-05,0.1024411162111081,-1.4938649133588146e-05,0.1024411162111081,-1.5609213862589654e-05
0.1032352333910391,-0.0001337823153733,0.1032352333910391,-2.09812e-05,0.1032352333910391,-1.527459603037225e-05,0.1032352333910391,-1.0237319856957042e-05
0.1040293505709702,-0.0001552648487841,0.1040293505709702,-2.09816441006593e-05,0.1040293505709702,-1.62814e-05,0.1040293505709702,-5.201109505081935e-06
0.1048234677509013,-0.0001639831566413,0.1048234677509013,-2.1987625750858764e-05,0.1048234677509013,-1.62814e-05,0.1048234677509013,-1.7122023298577257e-07
0.1056175849308323,-0.0001775778925939,0.1056175849308323,-2.903421477127953e-05,0.1056175849308323,-1.5778063260494726e-05,0.1056175849308323,-1.677700301634204e-06
0.1064117021107634,-0.0001935240178288,0.1064117021107634,-3.927285865451498e-05,0.1064117021107634,-1.6952359168950962e-05,0.1064117021107634,-2.1818510804470265e-06
0.1072058192906945,-0.0001601356020808,0.1072058192906945,-4.145830336804099e-05,0.1072058192906945,-1.661717640316605e-05,0.1072058192906945,-5.20264237378148e-06
0.1079999364706256,-0.0001156515589251,0.1079999364706256,-1.7626107049404375e-05,0.1079999364706256,-1.3596041739671129e-05,0.1079999364706256,-8.560041401965651e-06
0.1087940536505566,-8.946119559016582e-05,0.1087940536505566,2.803368075785597e-05,0.1087940536505566,-1.1917322683239134e-05,0.1087940536505566,-1.1078202071197602e-05
0.1095881708304877,-5.3863421341597634e-05,0.1095881708304877,7.066738905766927e-05,0.1095881708304877,-1.2253288905766926e-05,0.1095881708304877,-1.2590072302392902e-05
0.1103822880104188,2.131884827803592e-05,0.1103822880104188,8.40916476124897e-05,0.1103822880104188,-1.359628707857732e-05,0.1103822880104188,-1.89696788959019e-05
0.1111764051903498,2.667619434848212e-05,0.1111764051903498,8.172908335960129e-05,0.1111764051903498,-1.4938428902640935e-05,0.1111764051903498,-2.6354353168308768e-05
0.1119705223702809,3.538746249533944e-06,0.1119705223702809,5.5238333126635525e-05,0.1119705223702809,-1.4603101685907782e-05,0.1119705223702809,-3.0378279769106624e-05
0.112764639550212,4.412596005617864e-05,0.112764639550212,2.80431440887339e-05,0.112764639550212,-1.2254066777023632e-05,0.112764639550212,-2.9038509586870645e-05
0.1135587567301431,0.0001001888235548,0.1135587567301431,9.908654059174916e-06,0.1135587567301431,-1.1581805707030126e-05,0.1135587567301431,-2.366834565624102e-05
0.1143528739100741,8.040294529255548e-05,0.1143528739100741,-1.3592068294007336e-05,0.1143528739100741,-1.510584024965922e-05,0.1143528739100741,-1.8296452949119203e-05
0.1151469910900052,4.615888424408553e-05,0.1151469910900052,-2.9877017295731933e-05,0.1151469910900052,-1.7959867979004943e-05,0.1151469910900052,-9.567507944744647e-06
0.1159411082699363,-2.501682414756296e-05,0.1159411082699363,-4.04517e-05,0.1159411082699363,-1.795969400076476e-05,0.1159411082699363,-7.552945344807289e-06
0.1167352254498673,-7.87186310597313e-05,0.1167352254498673,-4.044698170907921e-05,0.1167352254498673,-1.6448866396663508e-05,0.1167352254498673,-5.536932984021419e-06
0.1175293426297984,-6.930925758203617e-05,0.1175293426297984,-2.382729367598168e-05,0.1175293426297984,-1.527386595915721e-05,0.1175293426297984,1.847497437937634e-06
0.1183234598097295,-4.0471316720891775e-05,0.1183234598097295,-6.893339153224791e-06,0.1183234598097295,-1.4267884308957743e-05,0.1183234598097295,4.530105182907526e-06
0.1191175769896605,-1.0925938488591508e-05,0.1191175769896605,3.3515251911043524e-06,0.1191175769896605,-1.242178368550464e-05,0.1191175769896605,-8.36384459719412e-07
0.1199116941695916,3.8082921712879325e-05,0.1199116941695916,1.057171997847753e-05,0.1199116941695916,-1.5608771594032374e-05,0.1199116941695916,-1.1745197661394294e-05
0.1207058113495227,3.37387368885993e-05,0.1207058113495227,8.896408800931472e-06,0.1207058113495227,-1.5274379760661485e-05,0.1207058113495227,-1.4937842261836144e-05
0.1214999285294538,1.3261943255991104e-05,0.1214999285294538,-1.5097032632750026e-06,0.1214999285294538,-1.1749717287819033e-05,0.1214999285294538,-1.4267260434917785e-05
0.1222940457093848,-3.944729592685482e-05,0.1222940457093848,-1.2253753698247672e-05,0.1222940457093848,-6.881665394626039e-06,0.1222940457093848,-1.1245880674256294e-05
0.1230881628893159,-8.62733636726436e-05,0.1230881628893159,-2.534705946155004e-05,0.1230881628893159,-4.19567905048112e-06,0.1230881628893159,-1.0911715116818553e-05
0.123882280069247,-8.071584365383066e-05,0.123882280069247,-3.4412178715871144e-05,0.123882280069247,-1.5113504693660195e-06,0.123882280069247,-1.8296784121488903e-05
0.124676397249178,-2.4985177257305577e-05,0.124676397249178,-4.314099031994324e-05,0.124676397249178,-3.5271784072228395e-06,0.124676397249178,-2.164790316556694e-05
0.1254705144291091,2.363696950214148e-05,0.1254705144291091,-5.05180891991192e-05,0.1254705144291091,-8.221739463696311e-06,0.1254705144291091,-1.2258741097038614e-05
0.1262646316090402,-8.209813437910497e-06,0.1262646316090402,-5.589130793259056e-05,0.1262646316090402,-1.2251130954082608e-05,0.1262646316090402,-2.0977150390459677e-05
0.1270587487889713,-6.829558832720082e-05,0.1270587487889713,-6.260567577979004e-05,0.1270587487889713,-1.4266562733937014e-05,0.1270587487889713,-2.769297581142872e-05
0.1278528659689023,-0.0001347717798077,0.1278528659689023,-6.395037332876838e-05,0.1278528659689023,-1.829491998630514e-05,0.1278528659689023,-2.433866667807905e-05
0.1286469831488334,-0.0001831229740525,0.1286469831488334,-5.589397099052751e-05,0.1286469831488334,-2.030975725236812e-05,0.1286469831488334,-2.198834987011488e-05
0.1294411003287645,-0.0001485384314307,0.1294411003287645,-5.874683944824096e-05,0.1294411003287645,-1.930329384772621e-05,0.1294411003287645,-1.6448500099462637e-05
0.1302352175086955,-8.07303501666006e-05,0.1302352175086955,-5.588975370819919e-05,0.1302352175086955,-2.400249196179988e-05,0.1302352175086955,-1.0909556270140224e-05
0.1310293346886266,-6.193767194307886e-05,0.1310293346886266,-4.111038061131068e-05,0.1310293346886266,-2.433386023183636e-05,0.1310293346886266,-8.563348505428848e-06
0.1318234518685577,-6.495561689367724e-05,0.1318234518685577,-1.093103099428023e-05,0.1318234518685577,-1.4274143618795177e-05,0.1318234518685577,-1.57728237318196e-05
0.1326175690484888,-4.868513689412453e-05,0.1326175690484888,2.3983450834092125e-05,0.1326175690484888,-1.0240986454745371e-05,0.1326175690484888,-2.0978375802149224e-05
0.1334116862284198,7.095290644268261e-05,0.1334116862284198,5.000881876439685e-05,0.1334116862284198,-1.4936742740966852e-05,0.1334116862284198,-2.702131213504664e-05
0.1342058034083509,0.0002868005553469,0.1342058034083509,6.42827674907108e-05,0.1342058034083509,-1.2253664945255346e-05,0.1342058034083509,-2.70237e-05
0.134999920588282,0.0004031623662833,0.134999920588282,6.831419711054956e-05,0.134999920588282,-9.567678598634462e-06,0.134999920588282,-3.105169710054809e-05
0.135794037768213,0.0005362739920029,0.135794037768213,4.682924530657731e-05,0.135794037768213,-1.2588652095255168e-05,0.135794037768213,-3.7094476444524114e-05
0.1365881549481441,0.000451982230982,0.1365881549481441,3.306348302712747e-05,0.1365881549481441,-1.158133795419652e-05,0.1365881549481441,-3.2393098444858513e-05
0.1373822721280752,0.0002686902976683,0.1373822721280752,1.8627963418476903e-05,0.1373822721280752,-1.0240065601188082e-05,0.1373822721280752,-2.3158655358324772e-05
0.1381763893080062,0.0001615941214055,0.1381763893080062,8.893955124609838e-06,0.1381763893080062,-1.3932650735703082e-05,0.1381763893080062,-9.900305370840527e-06
0.1389705064879373,7.004999101527468e-05,0.1389705064879373,4.702384893236097e-06,0.1389705064879373,-1.6279941252835163e-05,0.1389705064879373,-4.199772653062936e-06
0.1397646236678684,1.966226661408754e-05,0.1397646236678684,-6.540789781462962e-06,0.1397646236678684,-1.7959104441457383e-05,0.1397646236678684,-2.8540764420943944e-06
0.1405587408477994,-3.8082954282257455e-05,0.1405587408477994,-1.4264679930891344e-05,0.1405587408477994,-1.846323566356051e-05,0.1405587408477994,1.8448060474447252e-06
0.1413528580277305,-0.0001211721438357,0.1413528580277305,-2.4336299258780468e-05,0.1413528580277305,-2.098074980128464e-05,0.1413528580277305,-1.174399775846076e-06
0.1421469752076616,-0.0001626447054589,0.1421469752076616,-3.642292264437353e-05,0.1421469752076616,-1.7959994338906618e-05,0.1421469752076616,-1.678804460211842e-07
0.1429410923875927,-0.0001686869844346,0.1429410923875927,-3.4408904694490776e-05,0.1429410923875927,-1.4434667986452174e-05,0.1429410923875927,-1.6878646190635598e-07
0.1437352095675237,-0.0001599571647678,0.1437352095675237,-3.2731929064566737e-05,0.1437352095675237,-1.1581068376812694e-05,0.1437352095675237,-8.225496040405101e-06
0.1445293267474548,-0.0001492138607879,0.1445293267474548,-3.776472026263408e-05,0.1445293267474548,-9.5686517595193e-06,0.1445293267474548,-1.1582151894946369e-05
0.1453234439273859,-0.0001391540442859,0.1453234439273859,-3.4411448095302535e-05,0.1453234439273859,-1.2586586721222345e-05,0.1453234439273859,-1.2923460761878988e-05
0.146117561107317,-0.0001371341132617,0.146117561107317,-3.038292674469044e-05,0.146117561107317,-1.4937301065597245e-05,0.146117561107317,-1.29244e-05
0.146911678287248,-0.0001388103201083,0.146911678287248,-2.73606241696945e-05,0.146911678287248,-1.7958675830305503e-05,0.146911678287248,-7.219832312430456e-06
0.1477057954671791,-0.0001347840376047,0.1477057954671791,-2.937308114608589e-05,0.1477057954671791,-1.8966740573042944e-05,0.1477057954671791,-1.5121100809380242e-06
0.1484999126471102,-0.0001287406648281,0.1484999126471102,-3.306589374305277e-05,0.1484999126471102,-1.5106824728672917e-05,0.1484999126471102,-2.8532922702010072e-06
0.1492940298270412,-0.0001203477729914,0.1492940298270412,-3.273061261075284e-05,0.1492940298270412,-1.326026393978682e-05,0.1492940298270412,-6.881794778494336e-06
0.1500881470069723,-0.0001143054039914,0.1500881470069723,-3.306580276835651e-05,0.1500881470069723,-1.7624075692089128e-05,0.1500881470069723,-6.209052620386298e-06
0.1508822641869034,-0.0001164854920717,0.1508822641869034,-3.0381370182948168e-05,0.1508822641869034,-1.695168302841972e-05,0.1508822641869034,1.1764479049788004e-06
0.1516763813668344,-0.0001119438886973,0.1516763813668344,-3.240037527644693e-05,0.1516763813668344,-1.3596444150170228e-05,0.1516763813668344,5.7045349681053006e-06
0.1524704985467655,-8.880691007651983e-05,0.1524704985467655,-4.3801500645374586e-05,0.1524704985467655,-1.4937753017102892e-05,0.1524704985467655,8.423162966022881e-07
0.1532646157266966,-5.825848464916403e-05,0.1532646157266966,-5.756563881103441e-05,0.1532646157266966,-1.4267524938407937e-05,0.1532646157266966,-8.220223352787582e-06
0.1540587329066277,-4.8511674854039584e-05,0.1540587329066277,-6.831098640159528e-05,0.1540587329066277,-1.44349435538188e-05,0.1540587329066277,-1.2251644891347516e-05
0.1548528500865587,-5.790622528163469e-05,0.1548528500865587,-6.328015072310063e-05,0.1548528500865587,-1.2924685213154033e-05,0.1548528500865587,-8.896643826099532e-06
0.1556469672664898,-5.992211696242292e-05,0.1556469672664898,-4.532004041633436e-05,0.1556469672664898,-1.4267144641615275e-05,0.1556469672664898,-1.6952467850103923e-05
0.1564410844464209,-9.819579878264824e-05,0.1564410844464209,-3.0379396823683337e-05,0.1564410844464209,-1.4267021481967884e-05,0.1564410844464209,-2.1652314371148612e-05
0.157235201626352,-0.0001357942623404,0.157235201626352,-1.8122201611291007e-05,0.157235201626352,-1.2588614753190984e-05,0.157235201626352,-1.896874754688794e-05
0.158029318806283,-0.0001525523838421,0.158029318806283,3.528195499580152e-06,0.158029318806283,-1.2253e-05,0.158029318806283,-2.5853848247365155e-05
0.1588234359862141,-9.621761120891472e-05,0.1588234359862141,1.191134595122327e-05,0.1588234359862141,-1.2253e-05,0.1588234359862141,-3.842856893038217e-05
0.1596175531661451,5.983435280179754e-05,0.1596175531661451,-2.845127573434578e-06,0.1596175531661451,-8.897899189902189e-06,0.1596175531661451,-4.21281218849172e-05
0.1604116703460762,0.000243472761593,0.1604116703460762,-2.1980355564635707e-05,0.1604116703460762,-8.560449376350378e-06,0.1604116703460762,-4.045239688175189e-05
0.1612057875260073,0.0003543003550612,0.1612057875260073,-4.111797953733683e-05,0.1612057875260073,-9.9027406700849e-06,0.1612057875260073,-4.582136269639556e-05
0.1619999047059384,0.0004013223594076,0.1619999047059384,-3.843782231956155e-05,0.1619999047059384,-1.426667623071248e-05,0.1619999047059384,-4.3473282017614586e-05
0.1627940218858694,0.0003315018519533,0.1627940218858694,-1.6637773899035792e-07,0.1627940218858694,-1.628138149348518e-05,0.1627940218858694,-2.5009370457152663e-05
0.1635881390658005,0.000326114772212,0.1635881390658005,5.321366805326564e-05,0.1635881390658005,-1.561e-05,0.1635881390658005,-2.030909444247997e-05
0.1643822562457316,0.0002334372646741,0.1643822562457316,8.443686710846203e-05,0.1643822562457316,-1.5607887379806685e-05,0.1643822562457316,-1.6279449886073298e-05
0.1651763734256627,0.000107225093883,0.1651763734256627,0.000111285261662,0.1651763734256627,-9.063623473594402e-06,0.1651763734256627,-1.0240061474163196e-05
0.1659704906055937,4.150095940330572e-05,0.1659704906055937,0.0001139682789517,0.1659704906055937,-8.560632648494687e-06,0.1659704906055937,-1.2922679208028336e-05
0.1667646077855248,-1.9272685466204808e-05,0.1667646077855248,9.182444471035168e-05,0.1667646077855248,-1.2251175911246427e-05,0.1667646077855248,-1.2588865826699393e-05
0.1675587249654559,-7.148571800284556e-05,0.1675587249654559,6.76515723771304e-05,0.1675587249654559,-1.3259751149509603e-05,0.1675587249654559,-7.55496424552416e-06
0.1683528421453869,-0.0001210091559159,0.1683528421453869,4.4149071780832594e-05,0.1683528421453869,-1.3595733259705792e-05,0.1683528421453869,-2.8543743601427067e-06
0.169146959325318,-0.0001478736242326,0.169146959325318,1.930397257965585e-05,0.169146959325318,-1.3092225798198782e-05,0.169146959325318,-7.72082064319631e-06
0.1699410765052491,-0.0001710391968157,0.1699410765052491,-8.227715216056018e-06,0.1699410765052491,-1.2924480860459765e-05,0.1699410765052491,-1.846178270312241e-06
0.1707351936851801,-0.000183456297677,0.1707351936851801,-4.045685900236204e-05,0.1707351936851801,-1.376421418204866e-05,0.1707351936851801,-1.7063322470890917e-07
0.1715293108651112,-0.0001723640666495,0.1715293108651112,-6.160266900788399e-05,0.1715293108651112,-1.628166253438453e-05,0.1715293108651112,-1.1585012946998908e-05
0.1723234280450423,-0.0001291071553577,0.1723234280450423,-6.663257725888113e-05,0.1723234280450423,-1.6952316967850817e-05,0.1723234280450423,-2.030352058206062e-05
0.1731175452249733,-0.0001414898856919,0.1731175452249733,-6.596508461137326e-05,0.1731175452249733,-1.863033861475798e-05,0.1731175452249733,-1.930327683114521e-05
0.1739116624049044,-0.0001532410045279,0.1739116624049044,-6.831360086307931e-05,0.1739116624049044,-1.6282399136920683e-05,0.1739116624049044,-1.8967142733845813e-05
0.1747057795848355,-0.0001581126486385,0.1747057795848355,-8.341690642105512e-05,0.1747057795848355,-1.493897276257288e-05,0.1747057795848355,-2.23229681213279e-05
0.1754998967647666,-0.0001196819975474,0.1754998967647666,-9.986816128841174e-05,0.1754998967647666,-1.896647623071261e-05,0.1754998967647666,-1.863178010884485e-05
0.1762940139446976,-4.984948434204616e-05,0.1762940139446976,-9.41631170051814e-05,0.1762940139446976,-2.1316835146618257e-05,0.1762940139446976,2.5178579147126504e-06
0.1770881311246287,4.7842987391658975e-05,0.1770881311246287,-7.804618560588834e-05,0.1770881311246287,-1.762386736621259e-05,0.1770881311246287,9.230656664627529e-06
0.1778822483045598,8.409806386722384e-05,0.1778822483045598,-5.555300838052901e-05,0.1778822483045598,-1.560863523182691e-05,0.1778822483045598,2.8520752380814333e-06
0.1786763654844909,0.0001019103907386,0.1786763654844909,-3.926458508559826e-05,0.1786763654844909,-1.1245128349606135e-05,0.1786763654844909,-1.5137266061727394e-06
0.1794704826644219,0.0001592516444668,0.1794704826644219,-1.2941548405475804e-05,0.1794704826644219,-9.56850225483571e-06,0.1794704826644219,-8.220240974149795e-06
0.180264599844353,0.0001542555380149,0.180264599844353,2.33127282077538e-05,0.180264599844353,-1.0909523268260444e-05,0.180264599844353,-1.2586500610507022e-05
0.181058717024284,0.0001874761552922,0.181058717024284,3.4405151847256327e-05,0.181058717024284,-9.567888560405003e-06,0.181058717024284,-1.7118984864424488e-05
0.1818528342042151,0.0001156630009687,0.1818528342042151,4.598828163669835e-05,0.1818528342042151,-8.896150195579257e-06,0.1818528342042151,-1.2925276211929818e-05
0.1826469513841462,8.980088269095601e-05,0.1826469513841462,6.428517977806796e-05,0.1826469513841462,-1.1581435563915998e-05,0.1826469513841462,5.202220056586062e-06
0.1834410685640773,0.0001368036093525,0.1834410685640773,6.59642941680175e-05,0.1834410685640773,-1.0909939103323526e-05,0.1834410685640773,-4.867745953598695e-06
0.1842351857440083,0.0002133603448636,0.1842351857440083,6.126225138636483e-05,0.1842351857440083,-7.889067063636296e-06,0.1842351857440083,-6.210655595454444e-06
0.1850293029239394,0.0003173628353339,0.1850293029239394,4.950577858017629e-05,0.1850293029239394,-8.561461221470506e-06,0.1850293029239394,-7.224171478120656e-06
0.1858234201038705,0.0002120708883913,0.1858234201038705,2.4021009997410004e-05,0.1858234201038705,-1.157939618317355e-05,0.1858234201038705,-2.4661066881500555e-05
0.1866175372838016,9.590958949389123e-05,0.1866175372838016,2.865764894674536e-06,0.1866175372838016,-1.15816e-05,0.1866175372838016,-3.00418698472986e-05
0.1874116544637326,-1.6232605709616093e-05,0.1874116544637326,-1.862195018027133e-05,0.1874116544637326,-1.2923815634635017e-05,0.1874116544637326,-2.232726010084865e-05
0.1882057716436637,-5.5211200473436703e-05,0.1882057716436637,-3.3901107102831635e-05,0.1882057716436637,-1.8294055229781548e-05,0.1882057716436637,-1.7122096481769005e-05
0.1889998888235948,-6.545976635645152e-05,0.1889998888235948,-4.984896727253868e-05,0.1889998888235948,-1.7288641014808146e-05,0.1889998888235948,-1.1582375574443783e-05
0.1897940060035258,-6.932160862316059e-05,0.1897940060035258,-6.059366091764092e-05,0.1897940060035258,-1.628136954080149e-05,0.1897940060035258,-1.2924460918397023e-05
0.1905881231834569,-5.724935994442373e-05,0.1905881231834569,-6.865011772261517e-05,0.1905881231834569,-1.2252921870039152e-05,0.1905881231834569,-2.0981304162938276e-05
0.191382240363388,-0.000139498954801,0.191382240363388,-6.747128421593081e-05,0.191382240363388,-1.175046707418949e-05,0.191382240363388,-2.165117725459566e-05
0.192176357543319,-0.000192187,0.192176357543319,-5.38777882672874e-05,0.192176357543319,-1.52752058663563e-05,0.192176357543319,-1.69534039109042e-05
0.1929704747232501,-0.000192187,0.1929704747232501,-4.985386166648941e-05,0.1929704747232501,-1.7287169166755293e-05,0.1929704747232501,-1.8294712777836863e-05
0.1937645919031812,-0.000186148105442,0.1937645919031812,-5.287094712478767e-05,0.1937645919031812,-2.0308247124787677e-05,0.1937645919031812,-2.0308764749858447e-05
0.1945587090831123,-0.0001730577968311,0.1945587090831123,-5.5892693013611e-05,0.1945587090831123,-1.9974222998487666e-05,0.1945587090831123,-2.4672201056299742e-05
0.1953528262630433,-0.0001445242438086,0.1953528262630433,-5.656505308942987e-05,0.1953528262630433,-2.0309726544714936e-05,0.1953528262630433,-2.098200798625446e-05
0.1961469434429744,-0.0001122932955456,0.1961469434429744,-4.24669043003407e-05,0.1961469434429744,-2.1316828263752587e-05,0.1961469434429744,-1.963849564832988e-05
0.1969410606229055,-0.0001304239211445,0.1969410606229055,-1.090786757570404e-05,0.1969410606229055,-2.0981507565806335e-05,0.1969410606229055,-2.09806104842372e-05
0.1977351778028366,-0.0001948856291518,0.1977351778028366,1.9644113203740548e-05,0.1977351778028366,-2.5008748279166045e-05,0.1977351778028366,-1.325810788716576e-05
0.1985292949827676,-0.0002512974033425,0.1985292949827676,4.5157254350452045e-05,0.1985292949827676,-2.165110527222501e-05,0.1985292949827676,-4.364017719676042e-06
0.1993234121626987,-0.0003250693910238,0.1993234121626987,6.091763353691085e-05,0.1993234121626987,-1.7627178671427015e-05,0.1993234121626987,-4.19635411130946e-06
0.2001175293426297,-0.0003580024991358,0.2001175293426297,6.428431007960728e-05,0.2001175293426297,-1.6617696976117815e-05,0.2001175293426297,-1.512231930386497e-06
0.2009116465225608,-0.0002882280850909,0.2009116465225608,5.942076703039114e-05,0.2009116465225608,-1.4268246141856756e-05,0.2009116465225608,1.795123199418374e-05
0.2017057637024919,-9.891954648001463e-05,0.2017057637024919,4.750484663512948e-05,0.2017057637024919,-1.29247996225363e-05,0.2017057637024919,1.1919098301413358e-05
0.202499880882423,0.000160928019718,0.202499880882423,3.1390217381709546e-05,0.202499880882423,-1.2588750362431495e-05,0.202499880882423,-1.157807464479756e-05
0.203293998062354,0.0002989386632986,0.203293998062354,-9.567310054538949e-06,0.203293998062354,-1.2924399180771109e-05,0.203293998062354,-1.6281388530795524e-05
0.2040881152422851,0.0003761374780693,0.2040881152422851,-4.1123928293038974e-05,0.2040881152422851,-1.2252805104105148e-05,0.2040881152422851,-2.047757564527021e-05
0.2048822324222162,0.0002898395919672,0.2048822324222162,-4.682881909033309e-05,0.2048822324222162,-1.09102e-05,0.2048822324222162,-2.03098e-05
0.2056763496021472,0.0001654633490241,0.2056763496021472,-4.3139809571741054e-05,0.2056763496021472,-1.0908207078667478e-05,0.2056763496021472,-2.031540968527279e-05
0.2064704667820783,8.448257535028962e-05,0.2064704667820783,-4.884027236725143e-05,0.2064704667820783,-6.381309630560425e-06,0.2064704667820783,-3.3057744032179656e-05
0.2072645839620094,-3.45145440268596e-05,0.2072645839620094,-4.582438309267123e-05,0.2072645839620094,-5.539469742724458e-06,0.2072645839620094,-3.944125791547185e-05
0.2080587011419405,-0.0001699800156807,0.2080587011419405,-5.75678775405919e-05,0.2080587011419405,-6.210167291797779e-06,0.2080587011419405,-2.9712964323509563e-05
0.2088528183218715,-0.0001847986201918,0.2088528183218715,-7.066150432444156e-05,0.2088528183218715,-5.539183623272878e-06,0.2088528183218715,-3.843550286770679e-05
0.2096469355018026,1.5929392865522127e-05,0.2096469355018026,-8.476275467772802e-05,0.2096469355018026,-4.532011808733712e-06,0.2096469355018026,-4.481518188614302e-05
0.2104410526817337,0.0003482949293971,0.2104410526817337,-9.147606267054336e-05,0.2104410526817337,-6.210776376668201e-06,0.2104410526817337,-3.3065453608896385e-05
0.2112351698616647,0.0004677865919314,0.2112351698616647,-6.528506926942865e-05,0.2112351698616647,-1.1582461801927362e-05,0.2112351698616647,-2.030879456441808e-05
0.2120292870415958,0.0004237385792491,0.2120292870415958,-2.6340664156917737e-05,0.2120292870415958,-1.5611333281133343e-05,0.2120292870415958,-1.56085455114909e-05
0.2128234042215269,0.0002012499198917,0.2128234042215269,5.850568849348881e-06,0.2128234042215269,-1.929993266519804e-05,0.2128234042215269,-1.1584618910693043e-05
0.2136175214014579,1.807028091772056e-05,0.2136175214014579,2.835294265350702e-05,0.2136175214014579,-2.1651183553257063e-05,0.2136175214014579,-4.200681671680449e-06
0.214411638581389,-5.418244677515435e-05,0.214411638581389,4.0781746165712254e-05,0.214411638581389,-2.16526e-05,0.214411638581389,-1.6968266733666106e-07
0.2152057557613201,-8.039174550665791e-05,0.2152057557613201,3.4746658736331374e-05,0.2152057557613201,-2.0310213052518085e-05,0.2152057557613201,-5.537377795772167e-06
0.2159998729412512,-8.107109256014616e-05,0.2159998729412512,2.5011057877880597e-05,0.2159998729412512,-1.7624629759415337e-05,0.2159998729412512,-1.5608388406993197e-05
0.2167939901211822,-5.455132995997656e-05,0.2167939901211822,1.4267333653933838e-05,0.2167939901211822,-1.4267241767243131e-05,0.2167939901211822,-1.9974045702583928e-05
0.2175881073011133,-3.945408160747184e-05,0.2175881073011133,-1.5105492678543052e-06,0.2175881073011133,-1.3260190732956535e-05,0.2175881073011133,-1.2253362931826136e-05
0.2183822244810444,-0.0001096227037645,0.2183822244810444,-8.375376325296411e-07,0.2183822244810444,-1.3930835632233902e-05,0.2183822244810444,-1.4939738916170452e-05
0.2191763416609755,-0.0001686734289114,0.2191763416609755,5.201743021298669e-06,0.2191763416609755,-1.1581311457636554e-05,0.2191763416609755,-1.8967288542363447e-05
0.2199704588409065,-0.0001348060792441,0.2199704588409065,1.5131536261293134e-06,0.2199704588409065,-1.0910657024170244e-05,0.2199704588409065,-1.963794297582976e-05
0.2207645760208376,-1.6512387739802363e-05,0.2207645760208376,-1.1574609021475264e-05,0.2207645760208376,-1.3594365946551084e-05,0.2207645760208376,-1.427006810689783e-05
0.2215586932007686,6.274498777362478e-05,0.2215586932007686,-1.8460740893009903e-05,0.2215586932007686,-1.124680799434974e-05,0.2215586932007686,5.866937222199723e-06
0.2223528103806997,0.0001119432552098,0.2223528103806997,-9.737344412845267e-06,0.2223528103806997,-5.5403928875263535e-06,0.2223528103806997,1.0573377620913284e-05
0.2231469275606308,3.0388142305834333e-05,0.2231469275606308,7.215973339182778e-06,0.2231469275606308,-8.224364985237965e-06,0.2231469275606308,-1.6773721172971754e-06
0.2239410447405619,-7.67083673750252e-05,0.2239410447405619,2.0645972897596527e-05,0.2239410447405619,-1.225322699355105e-05,0.2239410447405619,1.1753183208946355e-06
0.2247351619204929,-9.919992680840584e-05,0.2247351619204929,2.9036873110022125e-05,0.2247351619204929,-1.628122884147385e-05,0.2247351619204929,7.888088492096305e-06
0.225529279100424,-0.0001042268110752,0.225529279100424,2.3998392995584934e-05,0.225529279100424,-1.54419232363981e-05,0.225529279100424,3.859469318684812e-06
0.2263233962803551,-8.377235029926073e-05,0.2263233962803551,1.259736751561113e-05,0.2263233962803551,-1.4938982355775096e-05,0.2263233962803551,8.415403503189727e-07
0.2271175134602862,-6.597560247259676e-05,0.2271175134602862,4.536866950339944e-06,0.2271175134602862,-1.644827434900295e-05,0.2271175134602862,-8.382174697515265e-07
0.2279116306402172,-6.59647e-05,0.2279116306402172,-6.876510453122835e-06,0.2279116306402172,-1.5778112327655095e-05,0.2279116306402172,-8.221174412540757e-06
0.2287057478201483,-3.4419122275223275e-05,0.2287057478201483,-2.7688489559366356e-05,0.2287057478201483,-1.2589712880056616e-05,0.2287057478201483,-1.8292401384427777e-05
0.2294998650000794,-1.6620125086382086e-05,0.2294998650000794,-4.984743290712736e-05,0.2294998650000794,-1.5609486303198844e-05,0.2294998650000794,-1.82956e-05
0.2302939821800104,-4.8507684253611584e-05,0.2302939821800104,-7.133541781217977e-05,0.2302939821800104,-1.7624154794681446e-05,0.2302939821800104,-1.4267290410637105e-05
0.2310880993599415,-9.315898856238824e-05,0.2310880993599415,-8.274827169458327e-05,0.2310880993599415,-1.82956e-05,0.2310880993599415,-1.6282744274937197e-05
0.2318822165398726,-0.0001146457606045,0.2318822165398726,-7.13324210442254e-05,0.2318822165398726,-1.82963324174835e-05,0.2318822165398726,-2.7024157760927183e-05
0.2326763337198036,-0.0001320923497509,0.2326763337198036,-5.857672255971847e-05,0.2326763337198036,-2.098373648039464e-05,0.2326763337198036,-2.8700508985085354e-05
0.2334704508997347,-0.0001210266514877,0.2334704508997347,-5.220550544178853e-05,0.2334704508997347,-2.701952649263797e-05,0.2334704508997347,-2.46765823842875e-05
0.2342645680796658,-9.166167849565684e-05,0.2342645680796658,-4.918144352758893e-05,0.2342645680796658,-2.5681630456706196e-05,0.2342645680796658,-2.3499539122418905e-05
0.2350586852595969,-9.114229962628086e-05,0.2350586852595969,-4.079072673470905e-05,0.2350586852595969,-1.896966137983927e-05,0.2350586852595969,-1.6619827935146173e-05
0.2358528024395279,-9.651196355565818e-05,0.2358528024395279,-1.4945031613513348e-05,0.2358528024395279,-1.2925903499884548e-05,0.2358528024395279,-8.22669819179593e-06
0.236646919619459,-0.0001042332183954,0.236646919619459,2.869778202630666e-05,0.236646919619459,-7.553763751075648e-06,0.236646919619459,2.5166524988610533e-06
0.2374410367993901,-8.475962139331116e-05,0.2374410367993901,7.46937246029578e-05,0.2374410367993901,-1.0238768883195826e-05,0.2374410367993901,1.1245837765464716e-05
0.2382351539793211,7.590783542416808e-06,0.2382351539793211,9.248216574226304e-05,0.2382351539793211,-9.567279796327153e-06,0.2382351539793211,9.89802207615176e-06
0.2390292711592522,0.0002013073342726,0.2390292711592522,7.837019972344419e-05,0.2390292711592522,-8.895666497505739e-06,0.2390292711592522,-1.628666700413725e-05
0.2398233883391833,0.0003662879253495,0.2398233883391833,3.3268938795218525e-05,0.2398233883391833,-7.889684847306276e-06,0.2398233883391833,-3.1711619084908915e-05
0.2406175055191144,0.0004623652076702,0.2406175055191144,-9.205263424704588e-06,0.2406175055191144,-6.211465316400087e-06,0.2406175055191144,-2.165887187348965e-05
0.2414116226990454,0.0004072282414239,0.2414116226990454,-2.2988759678029183e-05,0.2414116226990454,-1.0572426232305205e-05,0.2414116226990454,-1.9303816649260783e-05
0.2422057398789765,0.000145610727568,0.2422057398789765,-2.4337660087518493e-05,0.2422057398789765,-1.2923630153157362e-05,0.2422057398789765,-1.7624749890601884e-05
0.2429998570589076,-7.525661853916243e-06,0.2429998570589076,-3.373600782230203e-05,0.2429998570589076,-1.1917481304753354e-05,0.2429998570589076,-1.4267804349177849e-05
0.2437939742388386,-1.5777533155248918e-05,0.2437939742388386,-5.25361900671937e-05,0.2437939742388386,-9.5674862416819e-06,0.2437939742388386,-1.560995643313923e-05
0.2445880914187697,3.172670806194145e-05,0.2445880914187697,-7.032860674256294e-05,0.2445880914187697,-8.224803256285688e-06,0.2445880914187697,-2.0646157063772292e-05
0.2453822085987008,5.957979722983161e-05,0.2453822085987008,-6.864289169858345e-05,0.2453822085987008,-9.903011807937184e-06,0.2453822085987008,-2.6353402446760985e-05
0.2461763257786318,3.405193999852484e-05,0.2461763257786318,-4.044028217607549e-05,0.2461763257786318,-9.56809781908908e-06,0.2461763257786318,-3.054619259835654e-05
0.2469704429585629,-1.8258906033942188e-05,0.2469704429585629,-1.2608223076176152e-05,0.2469704429585629,-1.1244723913859566e-05,0.2469704429585629,-2.467791636104941e-05
0.247764560138494,-9.646996882201816e-05,0.247764560138494,1.8383432513431764e-06,0.247764560138494,-1.4265526254952055e-05,0.247764560138494,-1.8299133406369707e-05
0.2485586773184251,-0.0001673172135929,0.2485586773184251,1.1752128569387796e-06,0.2485586773184251,-1.7622835715306103e-05,0.2485586773184251,-9.906510711734745e-06
0.2493527944983561,-0.0001988928329919,0.2493527944983561,-1.560565575218921e-05,0.2493527944983561,-1.628174754106719e-05,0.2493527944983561,-1.0909939344199606e-05
0.2501469116782872,-0.0001710410993802,0.2501469116782872,-3.64209848031429e-05,0.2501469116782872,-2.0309351895229534e-05,0.2501469116782872,-1.6448583861502432e-05
0.2509410288582183,-0.0001008775612814,0.2509410288582183,-5.354374138520113e-05,0.2509410288582183,-2.1820467104443796e-05,0.2509410288582183,-1.5945492580647624e-05
0.2517351460381494,-0.0001163367943871,0.2517351460381494,-4.917634233529658e-05,0.2517351460381494,-2.366682348868201e-05,0.2517351460381494,-1.0235990645359294e-05
0.2525292632180804,-0.0002076565638362,0.2525292632180804,-3.037386446152616e-05,0.2525292632180804,-2.433665511483893e-05,0.2525292632180804,5.036313603383464e-06
0.2533233803980115,-0.000287798470079,0.2533233803980115,-9.751350510285956e-06,0.2533233803980115,-1.997750118626137e-05,0.2533233803980115,7.551257739986778e-06
0.2541174975779426,-0.0002210992717923,0.2541174975779426,2.5323002019032973e-05,0.2541174975779426,-1.9638612422021e-05,0.2541174975779426,2.520926317659456e-06
0.2549116147578736,-5.4799605848034896e-05,0.2549116147578736,3.474023939308439e-05,0.2549116147578736,-1.96384e-05,0.2549116147578736,-5.5351209229138e-06
0.2557057319378047,7.095775599756432e-05,0.2557057319378047,1.9643500068950497e-05,0.2557057319378047,-1.6953706684926487e-05,0.2557057319378047,-2.852663653732576e-05
0.2564998491177358,0.0001193318138924,0.2564998491177358,-1.2918212154921747e-05,0.2564998491177358,-1.4603346546892449e-05,0.2564998491177358,-5.823805439993541e-05
0.2572939662976669,-5.0347597047373845e-05,0.2572939662976669,-3.39046094307028e-05,0.2572939662976669,-1.0910356741316887e-05,0.2572939662976669,-6.730711527555772e-05
0.2580880834775979,-4.043341780677756e-05,0.2580880834775979,-3.105247058165899e-05,0.2580880834775979,-1.527479411588769e-05,0.2580880834775979,-6.74742529505175e-05
0.258882200657529,0.0001334851332864,0.258882200657529,-3.457439731539571e-05,0.258882200657529,-1.997367581402709e-05,0.258882200657529,-5.655841304970521e-05
0.2596763178374601,0.0003120611235064,0.2596763178374601,-2.465970788661145e-05,0.2596763178374601,-1.8291842085771916e-05,0.2596763178374601,-2.9703730248333323e-05
0.2604704350173911,0.0003848262305369,0.2604704350173911,1.054945009246287e-05,0.2604704350173911,-8.902690006138932e-06,0.2604704350173911,-1.5787700698384135e-05
0.2612645521973222,0.0003902459708461,0.2612645521973222,5.452619799186211e-05,0.2612645521973222,-5.8764239568671214e-06,0.2612645521973222,-1.3093714633339513e-05
0.2620586693772533,0.0002899177954621,0.2620586693772533,9.179798384118616e-05,0.2620586693772533,1.1720045113950078e-06,0.2620586693772533,1.3249126864222493e-05
0.2628527865571843,0.0001479131726615,0.2628527865571843,0.0001065800293991,0.2628527865571843,8.393362411493135e-07,0.2628527865571843,3.473902449009916e-05
0.2636469037371154,5.2884017902638496e-05,0.2636469037371154,9.970323431066338e-05,0.2636469037371154,-4.195619509514944e-06,0.2636469037371154,2.2661065184147436e-05
0.2644410209170465,4.2802201365088e-05,0.2644410209170465,6.008868672560399e-05,0.2644410209170465,-5.539118435902886e-06,0.2644410209170465,4.363934080681207e-06
0.2652351380969776,6.562448745659358e-05,0.2652351380969776,1.0232435868619444e-05,0.2652351380969776,-8.896126773691113e-06,0.2652351380969776,-1.1747648410286606e-06
0.2660292552769086,3.91165533622717e-05,0.2660292552769086,-2.6360168950845832e-05,0.2660292552769086,-9.56784117393725e-06,0.2660292552769086,-1.7000487642941978e-07
0.2668233724568397,6.292468586137389e-05,0.2668233724568397,-5.083895588341438e-05,0.2668233724568397,-1.0909140051974616e-05,0.2668233724568397,-6.876520243296479e-06
0.2676174896367708,2.067268809051652e-05,0.2676174896367708,-8.155495627066193e-05,0.2676174896367708,-1.6277947527736953e-05,0.2676174896367708,-1.224954754059245e-05
0.2684116068167018,-0.0001212846823363,0.2684116068167018,-0.0001062367814576,0.2684116068167018,-2.030780516423396e-05,0.2684116068167018,-1.0910864945255346e-05
0.2692057239966329,-0.0001659874798509,0.2692057239966329,-0.0001153088495988,0.2692057239966329,-2.03098e-05,0.2692057239966329,-1.2252533227555068e-05
0.269999841176564,-0.0001962099565082,0.269999841176564,-9.785959169523517e-05,0.269999841176564,-1.9638534299817305e-05,0.269999841176564,-1.040706931449611e-05
0.270793958356495,-0.0002210556971457,0.270793958356495,-5.925282476070601e-05,0.270793958356495,-1.8967035213412095e-05,0.270793958356495,-4.1965557251108495e-06
0.2715880755364261,-0.0002103137864702,0.2715880755364261,-2.73574518851262e-05,0.2715880755364261,-1.863112434451224e-05,0.2715880755364261,-7.218573902483652e-06
0.2723821927163572,-0.0001975570444386,0.2723821927163572,-6.884834744013715e-06,0.2723821927163572,-1.6784451873790543e-05,0.2723821927163572,-1.829641479699136e-05
0.2731763098962882,-0.0001894983358174,0.2731763098962882,-1.931702886373824e-05,0.2731763098962882,-1.4938338283813882e-05,0.2731763098962882,-2.1653123393391568e-05
0.2739704270762193,-0.0001801087741931,0.2739704270762193,-5.603510937363246e-05,0.2739704270762193,-1.426768385034762e-05,0.2739704270762193,-2.2994332371370644e-05
0.2747645442561504,-0.0001978837876642,0.2747645442561504,-8.139235218565497e-05,0.2747645442561504,-1.5273721940011486e-05,0.2747645442561504,-2.131786337591572e-05
0.2755586614360815,-0.0001921894334814,0.2755586614360815,-7.570243343882437e-05,0.2755586614360815,-1.4938743143460257e-05,0.2755586614360815,-2.0477957879970787e-05
0.2763527786160125,-0.0001613116111121,0.2763527786160125,-6.143677799701021e-05,0.2763527786160125,-1.49386e-05,0.2763527786160125,-1.5275750790052936e-05
0.2771468957959436,-0.000141331621375,0.2771468957959436,-5.522321504895645e-05,0.2771468957959436,-1.3595976228220198e-05,0.2771468957959436,-5.540307650659257e-06
0.2779410129758747,-0.0001413287009992,0.2779410129758747,-6.730810895910744e-05,0.2779410129758747,-1.3092197257743356e-05,0.2779410129758747,-1.6785448613118844e-07
0.2787351301558057,-0.0001230314592765,0.2787351301558057,-0.0001045713758157,0.2787351301558057,-1.2924124853249443e-05,0.2787351301558057,-5.032728552165339e-07
0.2795292473357368,-0.0001136122763622,0.2795292473357368,-0.0001129381430073,0.2795292473357368,-1.12459e-05,0.2795292473357368,1.172537869101566e-06
0.2803233645156679,-4.386451494859655e-05,0.2803233645156679,-3.3130165535895067e-05,0.2803233645156679,-1.12459e-05,0.2803233645156679,-6.539948160179608e-06
0.2811174816955989,0.0002322906511531,0.2811174816955989,6.757745922282942e-05,0.2811174816955989,-9.065284384049343e-06,0.2811174816955989,-1.3255717272818276e-05
0.2819115988755301,0.0005354538573459,0.2819115988755301,0.0001723280870346,0.2819115988755301,-1.0573736832910282e-05,0.2819115988755301,-1.4937752030953706e-05
0.2827057160554611,0.000581245673189,0.2827057160554611,0.000260302546884,0.2827057160554611,-1.2252399746966608e-05,0.2827057160554611,-1.9636719291506507e-05
0.2834998332353922,0.0004174754074871,0.2834998332353922,0.0002905406543336,0.2834998332353922,-1.0239223044424443e-05,0.2834998332353922,-2.970718479888087e-05
0.2842939504153233,0.000234161446379,0.2842939504153233,0.0002761129014544,0.2842939504153233,-1.3259911322186767e-05,0.2842939504153233,-3.306609035798529e-05
0.2850880675952543,7.23350407865005e-05,0.2850880675952543,0.0002353200129345,0.2850880675952543,-1.258872857900111e-05,0.2850880675952543,-3.038029989398446e-05
0.2858821847751854,-2.1157163735378504e-05,0.2858821847751854,0.0001767269539105,0.2858821847751854,-1.29244e-05,0.2858821847751854,-2.5679650068012382e-05
0.2866763019551165,-5.622707740840288e-05,0.2866763019551165,9.916804398526904e-05,0.2866763019551165,-1.2923762475895494e-05,0.2866763019551165,-2.030610236019387e-05
0.2874704191350475,-4.985586029047294e-05,0.2874704191350475,1.8019257091659462e-05,0.2874704191350475,-1.1247126392229723e-05,0.2874704191350475,-1.058161307493239e-05
0.2882645363149786,-4.247021291308362e-05,0.2882645363149786,-5.1489119034431205e-05,0.2882645363149786,-8.897382303268122e-06,0.2882645363149786,-3.528946909804364e-06
0.2890586534949096,-5.857236799776669e-05,0.2890586534949096,-9.850698995348246e-05,0.2890586534949096,-8.560456500955704e-06,0.2890586534949096,1.172888999712292e-06
0.2898527706748408,-8.676995557762194e-05,0.2898527706748408,-0.000112958830701,0.2898527706748408,-9.231516084493803e-06,0.2898527706748408,2.517352168987604e-06
0.2906468878547718,-0.0001042315345139,0.2906468878547718,-0.0001156476207683,0.2906468878547718,-1.2252573270457952e-05,0.2906468878547718,1.8464348291009903e-06
0.2914410050347029,-9.684885525229228e-05,0.2914410050347029,-0.0001106129765829,0.2914410050347029,-1.2420798935991005e-05,0.2914410050347029,-4.196268315547308e-06
0.292235122214634,-7.402377356160632e-05,0.292235122214634,-0.0001069208267188,0.292235122214634,-1.2253413374837511e-05,0.292235122214634,-1.02388e-05
0.293029239394565,-8.879978046285138e-05,0.293029239394565,-0.0001122922132335,0.293029239394565,-1.49386e-05,0.293029239394565,-1.0239406526456534e-05
0.2938233565744961,-0.0001136138946121,0.2938233565744961,-0.0001163167391681,0.2938233565744961,-1.49386e-05,0.2938233565744961,-1.225136982685546e-05
0.2946174737544272,-0.0001257109903302,0.2946174737544272,-0.000111957893025,0.2946174737544272,-1.5274077505492716e-05,0.2946174737544272,-1.1917522494507283e-05
0.2954115909343582,-0.000132765367868,0.2954115909343582,-0.0001015543611298,0.2954115909343582,-1.628088114608589e-05,0.2954115909343582,-9.568620653980969e-06
0.2962057081142893,-0.0001371313957314,0.2962057081142893,-8.946804276519929e-05,0.2962057081142893,-1.7623706367591505e-05,0.2962057081142893,-1.0909706371267647e-05
0.2969998252942204,-0.0001331048865108,0.2969998252942204,-8.275117727598668e-05,0.2969998252942204,-1.8966704540402013e-05,0.2969998252942204,-1.4937713621206044e-05
0.2977939424741515,-9.71873023780996e-05,0.2977939424741515,-7.536483507733215e-05,0.2977939424741515,-1.9302675678303085e-05,0.2977939424741515,-2.5848009548472765e-05
0.2985880596540825,-5.673089401554668e-05,0.2985880596540825,-6.327839291181874e-05,0.2985880596540825,-1.8967063050007608e-05,0.2985880596540825,-3.59195612854754e-05
0.2993821768340136,-2.8698013198606943e-05,0.2993821768340136,-5.253440755160595e-05,0.2993821768340136,-1.980668598173954e-05,0.2993821768340136,-3.4071717805199075e-05
0.3001762940139447,-9.920853597501224e-06,0.3001762940139447,-4.179152036283071e-05,0.3001762940139447,-2.198730678761024e-05,0.3001762940139447,-2.651796527212304e-05
0.3009704111938757,-5.787244581243542e-05,0.3009704111938757,-3.374366716123501e-05,0.3009704111938757,-1.9304689053745e-05,0.3009704111938757,-2.048207537092625e-05
0.3017645283738068,-0.0001276915248124,0.3017645283738068,-3.675720538511644e-05,0.3017645283738068,-1.5276692819844745e-05,0.3017645283738068,-1.729039428601104e-05
0.3025586455537379,-0.000100888988676,0.3025586455537379,-3.776565042464663e-05,0.3025586455537379,-1.2422073819154855e-05,0.3025586455537379,-1.3597448442962374e-05
0.3033527627336689,-1.5403330625499812e-06,0.3033527627336689,-3.910849873900592e-05,0.3033527627336689,-1.0239452034174182e-05,0.3033527627336689,-1.4602599054254438e-05
0.3041468799136,0.0001163021790209,0.3041468799136,-5.085652299351631e-05,0.3041468799136,-1.3595292279540591e-05,0.3041468799136,-1.5945496911816237e-05
0.3049409970935311,0.0001948727124535,0.3049409970935311,-4.548711966149339e-05,0.3049409970935311,-1.2924402457686674e-05,0.3049409970935311,-2.6352261906222612e-05
0.3057351142734621,0.0002811342934818,0.3057351142734621,-2.7693360697458505e-05,0.3057351142734621,-1.4268069658466808e-05,0.3057351142734621,-2.769258766771023e-05
0.3065292314533932,0.0001928041711454,0.3065292314533932,-1.560569969668698e-05,0.3065292314533932,-2.031067958112154e-05,0.3065292314533932,-1.0237138522734318e-05
0.3073233486333243,4.6862318585173324e-06,0.3073233486333243,-8.513481093457357e-07,0.3073233486333243,-2.332852464276669e-05,0.3073233486333243,-4.536605804956328e-06
0.3081174658132554,-4.31052291299848e-05,0.3081174658132554,8.218512025528577e-06,0.3081174658132554,-2.232457755600819e-05,0.3081174658132554,-9.564022233414635e-06
0.3089115829931864,-6.326862152451078e-05,0.3089115829931864,5.076030824459383e-07,0.3089115829931864,-1.863323934428189e-05,0.3089115829931864,-8.225315235200599e-06
0.3097057001731175,-5.791002824956036e-05,0.3097057001731175,-4.194455289942234e-06,0.3097057001731175,-1.7624580296792565e-05,0.3097057001731175,-1.5942784395033143e-05
0.3104998173530486,3.774409170945514e-05,0.3104998173530486,-1.3929260557447703e-05,0.3104998173530486,-1.2421996958623297e-05,0.3104998173530486,-3.0041756682415835e-05
0.3112939345329796,0.0001330961391835,0.3112939345329796,-2.4337241953282013e-05,0.3112939345329796,-8.224955984957387e-06,0.3112939345329796,-4.649284372781951e-05
0.3120880517129107,0.0001391428567928,0.3120880517129107,-2.299399910050732e-05,0.3120880517129107,-1.393176236812319e-05,0.3120880517129107,-5.253636271979469e-05
0.3128821688928418,7.550402997152337e-05,0.3128821688928418,-3.017255505236864e-06,0.3128821688928418,-1.7959828592787155e-05,0.3128821688928418,-4.581815855243612e-05
0.3136762860727728,-5.6923006084606726e-05,0.3136762860727728,1.5948719920929488e-05,0.3136762860727728,-1.762371680689384e-05,0.3136762860727728,-2.3998172096305115e-05
0.314470403252704,-0.0001182878867467,0.314470403252704,2.433180045030549e-05,0.314470403252704,-1.628240793996113e-05,0.314470403252704,-1.2261819399597336e-05
0.315264520432635,-0.0001491993463998,0.315264520432635,2.43381e-05,0.315264520432635,-1.661689724085085e-05,0.315264520432635,-1.0911011036596603e-05
0.3160586376125661,-0.0001547544719597,0.3160586376125661,1.561398356896949e-05,0.3160586376125661,-1.9301474272427623e-05,0.3160586376125661,8.71919690820366e-06
0.3168527547924971,-0.000129419827184,0.3168527547924971,7.2201118124226514e-06,0.3168527547924971,-1.84636591973012e-05,0.3168527547924971,1.527227838458091e-05
0.3176468719724282,-6.73175139651521e-05,0.3176468719724282,-2.851816120208872e-06,0.3176468719724282,-1.6449524777248177e-05,0.3176468719724282,6.044058559162597e-06
0.3184409891523593,5.7570593890178944e-05,0.3184409891523593,-2.1820140873089708e-05,0.3184409891523593,-9.567504019124835e-06,0.3184409891523593,-8.560110495220334e-06
0.3192351063322903,0.0001388154956863,0.3192351063322903,-1.7958506339899926e-05,0.3192351063322903,-3.5250547843191085e-06,0.3192351063322903,-1.762271642617228e-05
0.3200292235122214,0.000172375337128,0.3200292235122214,-7.552464953224135e-06,0.3200292235122214,-5.2041794251628085e-06,0.3200292235122214,-6.538286383023146e-06
0.3208233406921525,0.0001522557041241,0.3208233406921525,-4.869857208254244e-06,0.3208233406921525,-8.222104397970509e-06,0.3208233406921525,2.129379269466592e-05
0.3216174578720835,0.0001398264808197,0.3216174578720835,-5.065277111862291e-07,0.3216174578720835,-9.566493162007296e-06,0.3216174578720835,2.735527429731092e-05
0.3224115750520147,0.0001763904159991,0.3224115750520147,1.0568571040077255e-05,0.3224115750520147,-1.0238440672760892e-05,0.3224115750520147,1.997805260498216e-05
0.3232056922319457,0.0001418464026398,0.3232056922319457,6.212111592456238e-06,0.3232056922319457,-1.2923359015256256e-05,0.3232056922319457,-2.844591652935224e-06
0.3239998094118768,0.0001106204939058,0.3239998094118768,-2.851264352560958e-06,0.3239998094118768,-1.2253161159780776e-05,0.3239998094118768,-2.735351770160668e-05
0.3247939265918079,7.100386234764919e-05,0.3247939265918079,-2.50074515915498e-05,0.3247939265918079,-4.532643841045411e-06,0.3247939265918079,-3.608679304611763e-05
0.3255880437717389,4.279933295965244e-05,0.3255880437717389,-4.917918929052374e-05,0.3255880437717389,-2.8538286346061037e-06,0.3255880437717389,-5.186491883612748e-05
0.32638216095167,1.6687249182575566e-06,0.32638216095167,-3.809846558411835e-05,0.32638216095167,-9.904018661049416e-06,0.32638216095167,-4.313199214231372e-05
0.3271762781316011,-4.650758869551445e-05,0.3271762781316011,-2.1651425549956178e-05,0.3271762781316011,-1.4435763410021035e-05,0.3271762781316011,-1.6950685989921123e-05
0.3279703953115321,-8.473479151414061e-05,0.3279703953115321,-1.8298153382624635e-05,0.3279703953115321,-1.6615440263263267e-05,0.3279703953115321,-1.091479608872434e-05
0.3287645124914632,-0.0001035514575293,0.3287645124914632,-2.7689328795351014e-05,0.3287645124914632,-1.426864281651201e-05,0.3287645124914632,-8.561752810372106e-06
0.3295586296713942,-0.0001042336870396,0.3295586296713942,-2.95406388227486e-05,0.3295586296713942,-1.292502629376797e-05,0.3295586296713942,-3.191645161079615e-06
0.3303527468513254,-0.0001079258225717,0.3303527468513254,-2.2997387105609432e-05,0.3303527468513254,-1.4937957818563667e-05,0.3303527468513254,-1.1755821814363315e-06
0.3311468640312564,-0.0001052414599647,0.3311468640312564,-2.064590239213313e-05,0.3311468640312564,-1.3596029948147232e-05,0.3311468640312564,-3.5244275924547955e-06
0.3319409812111875,-9.953473503334972e-05,0.3319409812111875,-1.5610119157513065e-05,0.3319409812111875,-1.309221191693448e-05,0.3319409812111875,-8.22449878679441e-06
0.3327350983911186,-9.449606325849866e-05,0.3327350983911186,-9.90210162011514e-06,0.3327350983911186,-1.4267366397473596e-05,0.3327350983911186,-9.567701194339617e-06
0.3335292155710496,-6.999369169507847e-05,0.3335292155710496,-1.8437457149485971e-06,0.3335292155710496,-1.561e-05,0.3335292155710496,-1.1918028223409892e-05
0.3343233327509807,-7.21733685483207e-05,0.3343233327509807,7.713040006364924e-06,0.3343233327509807,-1.561e-05,0.3343233327509807,-1.460064595727513e-05
0.3351174499309118,-0.00010354125509,0.3351174499309118,1.4598132390486894e-05,0.3351174499309118,-1.561e-05,0.3351174499309118,-2.4331355626463893e-05
0.3359115671108428,-0.0001201709404041,0.3359115671108428,1.5944967904836024e-05,0.3359115671108428,-1.628103395241801e-05,0.3359115671108428,-2.8364303714508077e-05
0.3367056842907739,-9.45093112053708e-05,0.3367056842907739,1.863023215529269e-05,0.3367056842907739,-1.62814e-05,0.3367056842907739,-2.501083480588413e-05
0.337499801470705,-5.691030093720328e-05,0.337499801470705,3.474077103048484e-05,0.337499801470705,-1.62814e-05,0.337499801470705,-2.232457149908648e-05
0.338293918650636,-3.239741076512849e-05,0.338293918650636,5.471685355122203e-05,0.338293918650636,-1.7624062423267177e-05,0.338293918650636,-1.7624681508319365e-05
0.3390880358305671,-2.7360543748706477e-05,0.3390880358305671,7.032931506665874e-05,0.3390880358305671,-1.7624321192155e-05,0.3390880358305671,-1.3259903063199391e-05
0.3398821530104982,-5.271353044012299e-05,0.3398821530104982,8.17411444346409e-05,0.3398821530104982,-2.030866787647995e-05,0.3398821530104982,-8.895654194706201e-06
0.3406762701904293,-9.851803042021156e-05,0.3406762701904293,7.418398065971244e-05,0.3406762701904293,-1.44340872661422e-05,0.3406762701904293,-7.049441816535551e-06
0.3414703873703603,-7.068597132031513e-05,0.3414703873703603,5.825598780936544e-05,0.3414703873703603,-1.1751469532277152e-05,0.3414703873703603,-6.3787873830692885e-06
0.3422645045502914,-4.237705673801627e-06,0.3422645045502914,3.5765934704980456e-05,0.3422645045502914,-1.309136210344002e-05,0.3422645045502914,-1.2584824740889937e-05
0.3430586217302225,8.639921882316988e-05,0.3430586217302225,2.2665837306559167e-05,0.3430586217302225,-1.4266640217898534e-05,0.3430586217302225,-1.3763040265539563e-05
0.3438527389101535,0.0001448347925999,0.3438527389101535,9.236125473222228e-06,0.3438527389101535,-1.695191689812133e-05,0.3438527389101535,-9.23320021469055e-06
0.3446468560900846,7.403433816005123e-05,0.3446468560900846,-1.0235271033442852e-05,0.3446468560900846,-1.594588253359669e-05,0.3446468560900846,-4.197142664358518e-06
0.3454409732700157,-4.193596802653106e-06,0.3454409732700157,-2.4337625347522196e-05,0.3454409732700157,-1.0910369519944392e-05,0.3454409732700157,-2.1821078076411085e-06
0.3462350904499467,-1.9631784178762302e-05,0.3462350904499467,-3.2731785498061576e-05,0.3462350904499467,-1.35958e-05,0.3462350904499467,-1.6787194500985565e-06
0.3470292076298778,3.843723697603776e-05,0.3470292076298778,-4.313975486419725e-05,0.3470292076298778,-1.3595186277421444e-05,0.3470292076298778,-3.694915695843932e-06
0.3478233248098089,3.74312553258383e-05,0.3478233248098089,-5.252881704377213e-05,0.3478233248098089,-1.1247895760289364e-05,0.3478233248098089,-1.2245729755853338e-05
0.34861744198974,-2.42946901048555e-05,0.34861744198974,-5.488504852857686e-05,0.34861744198974,-9.23312553990628e-06,0.34861744198974,-1.5272176679598823e-05
0.349411559169671,-9.84863099022575e-05,0.349411559169671,-6.730060394792194e-05,0.349411559169671,-1.02382408616927e-05,0.349411559169671,-1.2925704669005077e-05
0.3502056763496021,-0.0001253720531571,0.3502056763496021,-9.885033726088148e-05,0.3502056763496021,-1.1245489485748497e-05,0.3502056763496021,-1.0407726265247756e-05
0.3509997935295332,-8.544568793484352e-05,0.3509997935295332,-0.0001332630523916,0.3509997935295332,-8.896621061568236e-06,0.3509997935295332,-7.889564722010772e-06
0.3517939107094642,-2.191402378070214e-06,0.3517939107094642,-0.0001525728292503,0.3517939107094642,-6.88204650894734e-06,0.3517939107094642,-1.6280456209158287e-05
0.3525880278893953,9.903850505245476e-05,0.3525880278893953,-0.0001660038489756,0.3525880278893953,-4.531941791523953e-06,0.3525880278893953,-3.004490566780838e-05
0.3533821450693264,0.0003098708536243,0.3533821450693264,-0.0001901717120986,0.3533821450693264,-4.867998006532271e-06,0.3533821450693264,-2.735921599582033e-05
0.3541762622492574,0.0004239929245241,0.3541762622492574,-0.0001831185735845,0.3541762622492574,-6.882816639542929e-06,0.3541762622492574,-2.635451476920088e-05
0.3549703794291886,0.0004419329805638,0.3549703794291886,-0.0001666868407419,0.3549703794291886,-9.900741612350842e-06,0.3549703794291886,-3.306105910386444e-05
0.3557644966091196,0.0003399597003099,0.3557644966091196,-0.0001297704114798,0.3557644966091196,-1.4935407525468392e-05,0.3557644966091196,-3.273081283163544e-05
0.3565586137890507,0.0001140798925802,0.3565586137890507,-3.4455473477161674e-05,0.3565586137890507,-1.695182026940284e-05,0.3565586137890507,-2.4342182210821503e-05
0.3573527309689818,6.58251843301486e-06,0.3573527309689818,9.88180433468956e-05,0.3573527309689818,-1.7959558764309302e-05,0.3573527309689818,-1.7290888615951884e-05
0.3581468481489128,-3.742198956880222e-05,0.3581468481489128,0.0002252298279844,0.3581468481489128,-1.628172101013826e-05,0.3581468481489128,-1.6281592606082955e-05
0.3589409653288439,-7.972655299677423e-05,0.3589409653288439,0.0003009506944502,0.3589409653288439,-1.6952770682349857e-05,0.3589409653288439,-1.795982670587464e-05
0.3597350825087749,-9.416448140531125e-05,0.3597350825087749,0.0003073273603881,0.3597350825087749,-1.779177325674196e-05,0.3597350825087749,-1.7623990693734948e-05
0.360529199688706,-0.0001045729933211,0.360529199688706,0.0002626689065479,0.360529199688706,-1.5609747035854236e-05,0.360529199688706,-1.5610168642763845e-05
0.3613233168686371,-0.0001164767599038,0.3613233168686371,0.0002026456344196,0.3613233168686371,-1.4603765385654772e-05,0.3613233168686371,-1.628082307623015e-05
0.3621174340485681,-0.0001176611624774,0.3621174340485681,0.000133153531442,0.3621174340485681,-1.6280203590077675e-05,0.3621174340485681,-1.3262253537860189e-05
0.3629115512284993,-0.0001190042409318,0.3629115512284993,5.828601129619235e-05,0.3629115512284993,-1.62814e-05,0.3629115512284993,-1.0240507649036752e-05
0.3637056684084303,-0.0001237030371783,0.3637056684084303,-7.861291591996559e-06,0.3637056684084303,-1.493916078231703e-05,0.3637056684084303,-6.883221947440141e-06
0.3644997855883614,-0.0001292425042492,0.3644997855883614,-5.990814893832344e-05,0.3644997855883614,-1.2924943914260062e-05,0.3644997855883614,8.371610045177843e-07
0.3652939027682925,-0.0001220268839023,0.3652939027682925,-7.435543231776065e-05,0.3652939027682925,-1.2253082218348143e-05,0.3652939027682925,-2.8529878007996087e-06
0.3660880199482235,-0.0001104448608397,0.3660880199482235,-5.740432831201388e-05,0.3660880199482235,-1.3260125302085522e-05,0.3660880199482235,-8.392426264137208e-06
0.3668821371281546,-0.0001049052172987,0.3668821371281546,-5.455192763569778e-05,0.3668821371281546,-1.4266504273226665e-05,0.3668821371281546,-7.05033673470367e-06
0.3676762543080857,-0.0001003707247037,0.3676762543080857,-5.992316646669098e-05,0.3676762543080857,-1.0239014770375772e-05,0.3676762543080857,-1.091036106178761e-05
0.3684703714880167,-9.014309475999542e-05,0.3684703714880167,-6.294111141728937e-05,0.3684703714880167,-1.0909669203842082e-05,0.3684703714880167,-1.1413301942410618e-05
0.3692644886679478,-7.503832844649036e-05,0.3692644886679478,-6.730468960569799e-05,0.3692644886679478,-1.7116600533278362e-05,0.3692644886679478,-9.568599001580171e-06
0.3700586058478789,-5.405791529605565e-05,0.3700586058478789,-6.965623347850202e-05,0.3700586058478789,-1.8630550068502062e-05,0.3700586058478789,-1.0909533421251004e-05
0.3708527230278099,-3.542269918383357e-05,0.3708527230278099,-6.999298289727432e-05,0.3708527230278099,-1.242296641786662e-05,0.3708527230278099,-1.292369738364593e-05
0.371646840207741,-3.44093026785693e-05,0.371646840207741,-6.46230809322446e-05,0.371646840207741,-1.3595563531606673e-05,0.371646840207741,-1.3595664880953804e-05
0.3724409573876721,-3.944432975519224e-05,0.3724409573876721,-6.630030992376421e-05,0.3724409573876721,-1.4267163967358965e-05,0.3724409573876721,-1.3763590994523138e-05
0.3732350745676032,-3.70943847311789e-05,0.3732350745676032,-7.099922267604598e-05,0.3732350745676032,-1.39315e-05,0.3732350745676032,-2.4337847794334506e-05
0.3740291917475342,-3.373624257402466e-05,0.3740291917475342,-6.059198063780518e-05,0.3740291917475342,-1.3931823872438964e-05,0.3740291917475342,-2.164782289117295e-05
0.3748233089274653,-2.770035267282788e-05,0.3748233089274653,-5.388543630314208e-05,0.3748233089274653,-1.5273132739371582e-05,0.3748233089274653,-1.8635570594982123e-06
0.3756174261073964,-2.2998696952718423e-05,0.3756174261073964,-5.1195941115839095e-05,0.3756174261073964,-1.5945214721040224e-05,0.3756174261073964,-2.1817973605201127e-06
0.3764115432873274,-1.9640330905252586e-05,0.3764115432873274,-4.5825889540436905e-05,0.3764115432873274,-1.493917928883192e-05,0.3764115432873274,-1.4260248557025149e-05
0.3772056604672585,-1.0913932379942276e-05,0.3772056604672585,-3.927949926357555e-05,0.3772056604672585,-1.4603043553074705e-05,0.3772056604672585,-2.8024914366699487e-05
0.3779997776471896,-3.526898208784939e-06,0.3779997776471896,-3.239682718837596e-05,0.3779997776471896,-1.6616535940767407e-05,0.3779997776471896,-2.70239820296163e-05
0.3787938948271206,-5.203107666652408e-06,0.3787938948271206,-2.668875593338181e-05,0.3787938948271206,-1.980577757326255e-05,0.3787938948271206,-1.896806718682249e-05
0.3795880120070517,-5.203284311353455e-06,0.3795880120070517,-1.863122385200372e-05,0.3795880120070517,-2.165256954080149e-05,0.3795880120070517,-1.6281379693867658e-05
0.3803821291869828,-2.181821522033467e-06,0.3803821291869828,-1.3596346197356893e-05,0.3803821291869828,-1.96379084223788e-05,0.3803821291869828,-1.4937398369068918e-05
0.3811762463669139,-8.345645805275984e-07,0.3811762463669139,-1.695477657540886e-05,0.3811762463669139,-1.6615851617011532e-05,0.3811762463669139,-7.551139369743168e-06
0.3819703635468449,1.4255106232429491e-05,0.3819703635468449,-2.3325893804385347e-05,0.3819703635468449,-1.2591925016213677e-05,0.3819703635468449,-8.446210062079751e-07
0.382764480726776,5.083436954853173e-05,0.382764480726776,-3.507281586807921e-05,0.382764480726776,-3.1952872793767643e-06,0.382764480726776,-6.877868177730363e-06
0.3835585979067071,7.702953978359255e-05,0.3835585979067071,-4.447523995477776e-05,0.3835585979067071,-8.404360209274408e-07,0.3835585979067071,-1.8960879886874944e-05
0.3843527150866381,6.831773196574922e-05,0.3843527150866381,-4.481557953977888e-05,0.3843527150866381,-1.174548507726144e-05,0.3843527150866381,-5.543848398079961e-06
0.3851468322665692,4.0625350622340215e-05,0.3851468322665692,-3.10550075766342e-05,0.3851468322665692,-1.7287329858631863e-05,0.3851468322665692,1.676965290439358e-06
0.3859409494465003,3.0717030524386056e-05,0.3859409494465003,-1.930344807719012e-05,0.3859409494465003,-1.544221755917101e-05,0.3859409494465003,-8.559658101798033e-06
0.3867350666264313,4.313686337031108e-05,0.3867350666264313,-2.2995581693866644e-05,0.3867350666264313,-1.4938445064177724e-05,0.3867350666264313,-9.567635354254192e-06
0.3875291838063624,3.7928661033145126e-05,0.3875291838063624,-2.6349117814780323e-05,0.3875291838063624,-1.309247166349161e-05,0.3875291838063624,-1.2254707526426324e-05
0.3883233009862935,1.529422373708579e-05,0.3883233009862935,-1.260080181767348e-05,0.3883233009862935,-1.4266166866534456e-05,0.3883233009862935,-1.9631906294556243e-05
0.3891174181662246,-1.3239190330375533e-05,0.3891174181662246,1.5003081710033127e-06,0.3891174181662246,-1.4938108006049334e-05,0.3891174181662246,-1.594840596672866e-05
0.3899115353461556,-2.768665254629329e-05,0.3899115353461556,1.4259734780044555e-05,0.3899115353461556,-1.49386e-05,0.3899115353461556,-1.0913146806590934e-05
0.3907056525260867,-2.735954691057013e-05,0.3907056525260867,1.3931646910570123e-05,0.3907056525260867,-1.5609706178859752e-05,0.3907056525260867,-8.225785280184754e-06
0.3914997697060178,1.4590729137065493e-05,0.3914997697060178,4.534656277589963e-06,0.3914997697060178,-1.3260781571572811e-05,0.3914997697060178,-2.1984307940831104e-05
0.3922938868859488,5.3538352425359086e-05,0.3922938868859488,-1.694973926341607e-05,0.3922938868859488,-1.0239230417484465e-05,0.3922938868859488,-3.9945541428544825e-05
0.3930880040658799,5.673294842938218e-05,0.3930880040658799,-3.7094686247698696e-05,0.3930880040658799,-6.0425846117689295e-06,0.3930880040658799,-5.6565224066527286e-05
0.393882121245811,4.666099786946989e-05,0.393882121245811,-3.4405562920693444e-05,0.393882121245811,-8.896394457639676e-06,0.393882121245811,-6.126366718175366e-05
0.394676238425742,3.944349253492122e-05,0.394676238425742,-1.1241772193609876e-05,0.394676238425742,-1.141294492816796e-05,0.394676238425742,-5.253247084831909e-05
0.3954703556056732,3.575489315085627e-05,0.3954703556056732,2.5065837590783547e-06,0.3954703556056732,-8.898050736041194e-06,0.3954703556056732,-3.811350041774589e-05
0.3962644727856042,1.9313622235564976e-05,0.3962644727856042,1.3588444190542823e-05,0.3962644727856042,-1.3592679348935757e-05,0.3962644727856042,-2.1998999331443248e-05
0.3970585899655353,1.855354747139133e-06,0.3970585899655353,1.6951066390808504e-05,0.3970585899655353,-1.6280013112646802e-05,0.3970585899655353,1.8340314057253408e-06
0.3978527071454664,-1.6710609775790374e-07,0.3978527071454664,1.0912428718897824e-05,0.3978527071454664,-1.4939095270866183e-05,0.3978527071454664,1.9296261493493e-05
0.3986468243253974,6.209008791093936e-06,0.3986468243253974,4.365528346384287e-06,0.3986468243253974,-1.7287980078402406e-05,0.3986468243253974,2.802886888476277e-05
0.3994409415053285,2.5180120429515582e-06,0.3994409415053285,-3.69208645147416e-06,0.3994409415053285,-1.6617149462622722e-05,0.3994409415053285,2.1653069887548782e-05
0.4002350586852595,-1.1246718785019135e-05,0.4002350586852595,-1.6953345854215728e-05,0.4002350586852595,-1.3931624059456097e-05,0.4002350586852595,1.4265959409873708e-05
0.4010291758651906,-2.2323788618712603e-05,0.4010291758651906,-2.4336466267682544e-05,0.4010291758651906,-1.5609851476869196e-05,0.4010291758651906,-2.520487669071345e-06
0.4018232930451217,-2.182084773808959e-05,0.4018232930451217,-1.6959367388506598e-05,0.4018232930451217,-1.4939197043402884e-05,0.4018232930451217,-1.4927554732616682e-05
0.4026174102250527,-2.970344020707674e-05,0.4026174102250527,-1.0914688380473586e-05,0.4026174102250527,-1.49386e-05,0.4026174102250527,-1.560950129105849e-05
0.4034115274049838,-3.675480396336883e-05,0.4034115274049838,-3.864726018774935e-06,0.4034115274049838,-1.8964602264782188e-05,0.4034115274049838,-1.6281000377463698e-05
0.4042056445849149,-4.346999463868859e-05,0.4042056445849149,3.857073852396921e-06,0.4042056445849149,-1.997364919580329e-05,0.4042056445849149,-1.62814e-05
0.404999761764846,-4.7164492056511535e-05,0.404999761764846,5.20292710054804e-06,0.404999761764846,-1.963850072486299e-05,0.404999761764846,-1.359660579890392e-05
0.4057938789447771,-5.1193385820075645e-05,0.4057938789447771,3.860734726641451e-06,0.4057938789447771,-1.8967102363320724e-05,0.4057938789447771,-1.7623585820075647e-05
0.4065879961247081,-5.0522603276915567e-05,0.4065879961247081,1.124586395407521e-05,0.4065879961247081,-1.5610016384577825e-05,0.4065879961247081,-2.1988278700048832e-05
0.4073821133046392,-4.884254310292912e-05,0.4073821133046392,1.0238081433109058e-05,0.4073821133046392,-1.3931356285765606e-05,0.4073821133046392,-1.023832095540604e-05
0.4081762304845703,-3.793190484438237e-05,0.4081762304845703,5.203719298586388e-06,0.4081762304845703,-1.2924205349257218e-05,0.4081762304845703,-6.886929561703788e-06
0.4089703476645013,-3.105774684582943e-05,0.4089703476645013,6.545018176623659e-06,0.4089703476645013,-1.2253550915790908e-05,0.4089703476645013,-2.4491538517926984e-05
0.4097644648444324,-3.407136364544542e-05,0.4097644648444324,7.552541215148472e-06,0.4097644648444324,-1.057563130808588e-05,0.4097644648444324,-2.987357981412519e-05
0.4105585820243635,-3.105369046573115e-05,0.4105585820243635,1.0572909544797209e-05,0.4105585820243635,-1.3761921201382453e-05,0.4105585820243635,-2.434101588016132e-05
0.4113526992042945,-2.1656160868052166e-05,0.4113526992042945,9.903354350423985e-06,0.4113526992042945,-1.4938154867816237e-05,0.4113526992042945,-1.4271015218476149e-05
0.4121468163842256,9.895802614242994e-06,0.4121468163842256,6.21127394747818e-06,0.4121468163842256,-9.736463293832964e-06,0.4121468163842256,-1.3931577632009388e-05
0.4129409335641567,3.742809672621098e-05,0.4129409335641567,-7.887730275972156e-06,0.4129409335641567,-9.567424044403391e-06,0.4129409335641567,-2.735827645609589e-05
0.4137350507440878,3.843709236647986e-05,0.4137350507440878,-1.7792118002372354e-05,0.4137350507440878,-1.3764018363913513e-05,0.4137350507440878,-2.53440414702961e-05
0.4145291679240188,3.2059448189587615e-05,0.4145291679240188,-1.963903815351669e-05,0.4145291679240188,-2.030894910048105e-05,0.4145291679240188,-7.217307275120263e-06
0.4153232851039499,3.32331433926303e-05,0.4153232851039499,-2.2656883215161425e-05,0.4153232851039499,-1.628502249968348e-05,0.4153232851039499,-6.2113256249208704e-06
0.416117402283881,3.004740080131824e-05,0.416117402283881,-3.339391321708234e-05,0.416117402283881,-1.091424339145883e-05,0.416117402283881,-1.2919345775732282e-05
0.416911519463812,-2.8335295580010384e-06,0.416911519463812,-4.715727014121348e-05,0.416911519463812,-1.292318098741842e-05,0.416911519463812,-8.227454356638258e-06
0.4177056366437431,-3.607239113352728e-05,0.4177056366437431,-3.810594784438468e-05,0.4177056366437431,-1.627986374438984e-05,0.4177056366437431,-6.8824344976677885e-06
0.4184997538236742,-3.810117550584967e-05,0.4184997538236742,-2.63559428825436e-05,0.4184997538236742,-1.5106764303756647e-05,0.4184997538236742,-4.197062655766652e-06
0.4192938710036052,-3.418336309837577e-07,0.4192938710036052,-2.2995845391558084e-05,0.4192938710036052,-1.2924754496389552e-05,0.4192938710036052,-1.685034667828836e-07
0.4200879881835363,1.3595592668714918e-05,0.4200879881835363,-1.2588854873061844e-05,0.4200879881835363,-1.4267180016187087e-05,0.4200879881835363,-1.0910040130225935e-05
0.4208821053634674,2.047610767510709e-05,0.4208821053634674,-5.874408170581199e-06,0.4208821053634674,-1.7792e-05,0.4208821053634674,1.1784146668752231e-06
0.4216762225433985,9.2406373186328e-06,0.4216762225433985,-3.527461210380021e-06,0.4216762225433985,-1.7790496446412636e-05,0.4216762225433985,2.7361185469885e-05
0.4224703397233295,4.109661303043368e-05,0.4224703397233295,-1.291659331222231e-05,0.4224703397233295,-1.2425260978682164e-05,0.4224703397233295,3.373240258781493e-05
0.4232644569032606,8.238575698595068e-05,0.4232644569032606,-4.378757511004111e-05,0.4232644569032606,-1.2924055537131057e-05,0.4232644569032606,-3.163882007054405e-06
0.4240585740831917,0.0001253599506053,0.4240585740831917,-4.917691883908164e-05,0.4240585740831917,-1.5608559392719863e-05,0.4240585740831917,-4.210931126953668e-05
0.4248526912631227,0.0001468596458289,0.4248526912631227,-3.1059148727316584e-05,0.4248526912631227,-1.4267722130829654e-05,0.4248526912631227,-4.733147676247696e-05
0.4256468084430538,7.303221759455585e-05,0.4256468084430538,-4.873947150011913e-06,0.4256468084430538,-1.3260342968514428e-05,0.4256468084430538,-3.810402719931949e-05
0.4264409256229849,8.566347660989108e-06,0.4264409256229849,7.887715046135726e-06,0.4264409256229849,-1.4267105661093313e-05,0.4264409256229849,-2.853529621492984e-05
0.4272350428029159,-6.496090311902157e-05,0.4272350428029159,1.1917444775203e-05,0.4272350428029159,-1.29244e-05,0.4272350428029159,-2.4337249451612257e-05
0.428029159982847,-0.00012437708084,0.428029159982847,1.4604115990379166e-05,0.428029159982847,-1.292412977991574e-05,0.428029159982847,-8.557270038138627e-06
0.4288232771627781,-0.0001297421165299,0.4288232771627781,2.064000589157637e-05,0.4288232771627781,-1.1582820912983027e-05,0.4288232771627781,6.532384792586967e-06
0.4296173943427092,-8.31209931212107e-05,0.4296173943427092,1.1253069944925429e-05,0.4296173943427092,-1.0239824277846489e-05,0.4296173943427092,-8.336124977792549e-07
0.4304115115226402,-5.322658077553366e-05,0.4304115115226402,-8.212631532344535e-06,0.4304115115226402,-4.367694191076911e-06,0.4304115115226402,-7.884572970707707e-06
0.4312056287025713,-4.5490710610297534e-05,0.4312056287025713,-1.96330625807582e-05,0.4312056287025713,-1.8475173682468197e-06,0.4312056287025713,-5.204585855098737e-06
0.4319997458825024,-5.857520984570046e-05,0.4319997458825024,-3.306200243785136e-05,0.4319997458825024,-6.376819568374183e-06,0.4319997458825024,-2.164733545676354e-05
0.4327938630624334,-6.478872892057507e-05,0.4327938630624334,-3.74296473435337e-05,0.4327938630624334,-6.881733155023119e-06,0.4327938630624334,-4.581863147560282e-05
0.4335879802423645,-0.0001035620351804,0.4335879802423645,-4.884381598523508e-05,0.4335879802423645,-8.22457658645433e-06,0.4335879802423645,-5.001899558064799e-05
0.4343820974222956,-0.0001032243639048,0.4343820974222956,-5.3374596580115584e-05,0.4343820974222956,-1.0239479624805336e-05,0.4343820974222956,-3.977889954836556e-05
0.4351762146022266,-8.17278291851822e-05,0.4351762146022266,-4.11231e-05,0.4351762146022266,-1.5778389035872687e-05,0.4351762146022266,-2.836541257407565e-05
0.4359703317821577,-2.706969263558108e-05,0.4359703317821577,-4.11231e-05,0.4359703317821577,-1.795806588911507e-05,0.4359703317821577,-2.4341485973277512e-05
0.4367644489620888,-5.553940412694453e-06,0.4367644489620888,-4.950967565419916e-05,0.4367644489620888,-1.494069678947239e-05,0.4367644489620888,-2.43381e-05
0.4375585661420199,2.7173715308540135e-05,0.4375585661420199,-5.823893073145857e-05,0.4375585661420199,-1.2254467467243515e-05,0.4375585661420199,-1.2259603547953752e-05
0.438352683321951,7.433838852621133e-05,0.438352683321951,-5.1196811694259545e-05,0.438352683321951,-9.568481117634295e-06,0.438352683321951,-9.23291500783713e-06
0.439146800501882,0.0001767192743408,0.439146800501882,-4.44816869400051e-05,0.439146800501882,-7.553726079488959e-06,0.439146800501882,-1.376246133057198e-05
0.4399409176818131,0.0003153746260419,0.4399409176818131,-4.397655220051275e-05,0.4399409176818131,-9.567201178250706e-06,0.4399409176818131,-1.158182621950112e-05
0.4407350348617442,0.0003284721416483,0.4407350348617442,-2.635126824780021e-05,0.4407350348617442,-1.3595895803936867e-05,0.4407350348617442,-1.7624244218214857e-05
0.4415291520416752,0.0001267078952215,0.4415291520416752,-2.8485606976826206e-06,0.4415291520416752,-1.577866673317262e-05,0.4415291520416752,-1.863149260524672e-05
0.4423232692216063,3.214621943652768e-05,0.4423232692216063,2.2636147951711603e-05,0.4423232692216063,-2.030563410354693e-05,0.4423232692216063,-1.963747425544619e-05
0.4431173864015373,-3.502861484042462e-05,0.4431173864015373,4.7482102482456376e-05,0.4431173864015373,-2.0980681146085867e-05,0.4431173864015373,-1.4271350831313088e-05
0.4439115035814684,-2.803520755884325e-05,0.4439115035814684,6.226286511480462e-05,0.4439115035814684,-1.7626298837544405e-05,0.4439115035814684,-1.2589749418772205e-05
0.4447056207613995,9.884981613165906e-06,0.4447056207613995,7.066049153396654e-05,0.4447056207613995,-1.661758102165558e-05,0.4447056207613995,-1.76217948917221e-05
0.4454997379413306,-3.053524896891911e-05,0.4454997379413306,7.838305166096657e-05,0.4454997379413306,-1.762386760795216e-05,0.4454997379413306,-2.1651270431808643e-05
0.4462938551212617,-7.199973515850227e-05,0.4462938551212617,8.107070996682659e-05,0.4462938551212617,-1.930239372926662e-05,0.4462938551212617,-1.963876752488005e-05
0.4470879723011927,-0.0001366267456624,0.4470879723011927,7.234330448454586e-05,0.4470879723011927,-2.299517118310372e-05,0.4470879723011927,-1.426738737510515e-05
0.4478820894811238,-0.0001149689795724,0.4478820894811238,5.7570711056412304e-05,0.4478820894811238,-1.829546758146039e-05,0.4478820894811238,-7.552236365786644e-06
0.4486762066610549,-4.3792817721003496e-05,0.4486762066610549,4.346689143715406e-05,0.4486762066610549,-1.7122301665322455e-05,0.4486762066610549,1.17624897812406e-06
0.4494703238409859,1.7236535946523722e-05,0.4494703238409859,1.9994086154786693e-05,0.4494703238409859,-2.366113244714224e-05,0.4494703238409859,6.206137251330688e-06
0.450264441020917,4.077085668315618e-05,0.450264441020917,-6.359717829196449e-06,0.450264441020917,-1.8299381275255436e-05,0.450264441020917,1.2584209666113793e-05
0.4510585582008481,-3.43672590051337e-05,0.4510585582008481,-3.1709397353755616e-05,0.4510585582008481,-1.0914309399818953e-05,0.4510585582008481,9.904594327206891e-06
0.4518526753807791,-0.0001357485513995,0.4518526753807791,-5.387054169279749e-05,0.4518526753807791,-5.541225950907286e-06,0.4518526753807791,3.1918849376120056e-06
0.4526467925607102,-0.0001659951065953,0.4526467925607102,-7.032450250583653e-05,0.4526467925607102,-6.881469184629783e-06,0.4526467925607102,-4.865525099940945e-06
0.4534409097406413,-0.0001608005914602,0.4534409097406413,-7.200710919353463e-05,0.4534409097406413,-1.0909742066756655e-05,0.4534409097406413,-1.7287088035566595e-05
0.4542350269205724,-0.0001519035219394,0.4542350269205724,-6.999319105527606e-05,0.4542350269205724,-1.2253045527638028e-05,0.4542350269205724,-2.349900812644507e-05
0.4550291441005034,-0.000137806738272,0.4550291441005034,-7.267967357562763e-05,0.4550291441005034,-1.359583041517544e-05,0.4550291441005034,-2.6687695757616366e-05
0.4558232612804345,-0.0001528969624698,0.4558232612804345,-7.80449090433581e-05,0.4558232612804345,-1.376344407906529e-05,0.4558232612804345,-2.5011059673950597e-05
0.4566173784603656,-0.0001747139194019,0.4566173784603656,-7.687591970644394e-05,0.4566173784603656,-1.661486629301406e-05,0.4566173784603656,-2.064891611960282e-05
0.4574114956402966,-0.0001579566620624,0.4574114956402966,-5.9261995133858334e-05,0.4574114956402966,-1.6281613241249887e-05,0.4574114956402966,-1.6284172136248518e-05
0.4582056128202277,-5.929892693332869e-05,0.4582056128202277,-4.247408485360209e-05,0.4582056128202277,-1.3093755155831e-05,0.4582056128202277,-1.62814e-05
0.4589997300001588,7.833879671770237e-05,0.4589997300001588,-3.139156710987516e-05,0.4589997300001588,-1.4602386286196334e-05,0.4589997300001588,-1.6616985845155298e-05
0.4597938471800898,0.0001505471085161,0.4597938471800898,-1.0242870514205328e-05,0.4597938471800898,-1.628107694178951e-05,0.4597938471800898,-1.0240027621199858e-05
0.4605879643600209,0.0002004097623569,0.4605879643600209,1.292336028216196e-05,0.4605879643600209,-1.762413972624193e-05,0.4605879643600209,-6.881970683497442e-06
0.461382081539952,0.0001562564509749,0.461382081539952,3.1856925401225787e-06,0.461382081539952,-1.9302458676658394e-05,0.461382081539952,-2.8535778980253942e-06
0.4621761987198831,4.378797374115812e-05,0.4621761987198831,-3.0389930301106183e-05,0.4621761987198831,-1.6951960877172856e-05,0.4621761987198831,-4.200341694354154e-06
0.4629703158998141,-3.90375491250649e-05,0.4629703158998141,-6.727572436384371e-05,0.4629703158998141,-1.3598688709841545e-05,0.4629703158998141,-2.0631345347591544e-05
0.4637644330797452,-6.275870184937924e-05,0.4637644330797452,-9.951158967790736e-05,0.4637644330797452,-1.5608561850406678e-05,0.4637644330797452,-3.1715590248637256e-05
0.4645585502596763,-3.1741088641694855e-05,0.4645585502596763,-0.0001146324433788,0.4645585502596763,-1.4938980296792614e-05,0.4645585502596763,-3.2394519703207385e-05
0.4653526674396073,-8.234452317488253e-06,0.4653526674396073,-8.578309196289211e-05,0.4653526674396073,-1.3596362420774906e-05,0.4653526674396073,-2.434147452464944e-05
0.4661467846195384,-4.0442958078693085e-05,0.4661467846195384,4.801451637710544e-07,0.4661467846195384,-1.4938235752035605e-05,0.4661467846195384,-1.8968456964731583e-05
0.4669409017994695,-2.836799467638667e-05,0.4669409017994695,0.0001152978006915,0.4669409017994695,-1.2253332150308147e-05,0.4669409017994695,-5.037203026013178e-06
0.4677350189794005,3.642497307240423e-05,0.4677350189794005,0.0002004127422523,0.4677350189794005,-1.0238912341796863e-05,0.4677350189794005,3.860433707533233e-06
0.4685291361593316,0.0001064222383238,0.4685291361593316,0.0002314596303987,0.4685291361593316,-1.4939174952045928e-05,0.4685291361593316,-1.679639898953765e-07
0.4693232533392627,0.0001428057907286,0.4693232533392627,0.0002059749617048,0.4693232533392627,-1.829244711937724e-05,0.4693232533392627,-8.386154266930352e-07
0.4701173705191938,0.0001253968398569,0.4701173705191938,0.000146579107204,0.4701173705191938,-1.56121291355833e-05,0.4701173705191938,-3.1872770111213977e-06
0.4709114876991248,0.0001005580277909,0.4709114876991248,8.983590480083191e-05,0.4709114876991248,-1.158419918494398e-05,0.4709114876991248,-3.18914e-06
0.4717056048790559,1.9175310944229788e-05,0.4717056048790559,4.416711940452094e-05,0.4717056048790559,-8.561813494908216e-06,0.4717056048790559,-7.551048287897207e-06
0.472499722058987,-1.694016747594444e-05,0.472499722058987,4.545796410627894e-06,0.472499722058987,-6.882407558200102e-06,0.472499722058987,-1.3593684784878804e-05
0.473293839238918,7.23249202904014e-05,0.473293839238918,-6.343323631443783e-05,0.473293839238918,-6.88182e-06,0.473293839238918,-9.064777581332138e-06
0.4740879564188491,0.0001750613616748,0.4740879564188491,-0.000106581632292,0.4740879564188491,-6.88182e-06,0.4740879564188491,-4.532178749023921e-06
0.4748820735987802,0.0001629734738686,0.4748820735987802,-9.953469337961102e-05,0.4748820735987802,-9.56765893721419e-06,0.4748820735987802,-4.1961833240985385e-06
0.4756761907787112,7.094848140320515e-05,0.4756761907787112,-0.000100542241653,0.4756761907787112,-1.2253966708126403e-05,0.4756761907787112,-3.693525867210873e-06
0.4764703079586423,-0.000144330393072,0.4764703079586423,-0.0001015481234142,0.4764703079586423,-1.627789330892454e-05,0.4764703079586423,-7.214451654013896e-06
0.4772644251385734,-0.0003021817676496,0.4772644251385734,-9.2826919421254e-05,0.4772644251385734,-1.5442707658936172e-05,0.4772644251385734,-1.1242983425348142e-05
0.4780585423185045,-0.0002603581879482,0.4780585423185045,-8.275550511911006e-05,0.4780585423185045,-1.560990321823287e-05,0.4780585423185045,-2.0304575340922684e-05
0.4788526594984356,-8.014140753521688e-05,0.4788526594984356,-7.033412661949762e-05,0.4788526594984356,-1.71199521893411e-05,0.4788526594984356,-2.1987580186554376e-05
0.4796467766783666,1.823301746537261e-06,0.4796467766783666,-5.3884226526714536e-05,0.4796467766783666,-1.5610424873626378e-05,0.4796467766783666,-1.6618610711784714e-05
0.4804408938582977,7.300488627325069e-05,0.4804408938582977,-5.00196160705816e-05,0.4804408938582977,-1.3596069257703784e-05,0.4804408938582977,-2.400141273512076e-05
0.4812350110382288,4.280043327451069e-05,0.4812350110382288,-5.11939066616272e-05,0.4812350110382288,-1.4602944335031975e-05,0.4812350110382288,-3.0044985999244084e-05
0.4820291282181598,-4.111319205862477e-05,0.4820291282181598,-4.4479891732263245e-05,0.4820291282181598,-1.7791593943570944e-05,0.4820291282181598,-2.903703372908141e-05
0.4828232453980909,2.02514888256356e-05,0.4828232453980909,-4.380933718775039e-05,0.4828232453980909,-1.5276689762549013e-05,0.4828232453980909,-2.367179826135094e-05
0.483617362578022,7.163036682600943e-05,0.483617362578022,-5.605176339073807e-05,0.483617362578022,-1.52743e-05,0.483617362578022,-1.6958189908586838e-05
0.484411479757953,-4.562576388742346e-07,0.484411479757953,-7.568713259267674e-05,0.484411479757953,-1.426785986872226e-05,0.484411479757953,-1.0243199124815071e-05
0.4852055969378841,-0.0001998067753396,0.4852055969378841,-5.892362060114517e-05,0.4852055969378841,-1.225402247822904e-05,0.4852055969378841,-1.2923036695694614e-05
0.4859997141178152,-0.0002609840014738,0.4859997141178152,-1.0927484314475784e-05,0.4859997141178152,-1.292415826032886e-05,0.4859997141178152,-2.181719696736007e-05
0.4867938312977463,-0.0002037811612227,0.4867938312977463,1.2415842830879604e-05,0.4867938312977463,-1.2588771326632963e-05,0.4867938312977463,-2.2995050367408187e-05
0.4875879484776773,-1.125839274216967e-05,0.4875879484776773,2.6015717774313887e-05,0.4875879484776773,-1.1581665350291155e-05,0.4875879484776773,-3.64224286627846e-05
0.4883820656576084,0.0001757475215936,0.4883820656576084,3.743070535749441e-05,0.4883820656576084,-1.4267477597722188e-05,0.4883820656576084,-4.850828896091113e-05
0.4891761828375395,0.0002908745846435,0.4891761828375395,4.111893089012767e-05,0.4891761828375395,-1.762512646886052e-05,0.4891761828375395,-4.716347685369386e-05
0.4899703000174705,0.0002543242176864,0.4899703000174705,2.3011261186537327e-05,0.4899703000174705,-2.164905306965837e-05,0.4899703000174705,-3.794202833800884e-05
0.4907644171974016,0.0002022961933884,0.4907644171974016,7.564554615048807e-06,0.4907644171974016,-1.762715687907734e-05,0.4907644171974016,-4.179166628751714e-05
0.4915585343773327,0.0001811214023347,0.4915585343773327,1.2585747060920913e-05,0.4915585343773327,-1.6282187453548697e-05,0.4915585343773327,-4.17945e-05
0.4923526515572637,3.2672191975393727e-06,0.4923526515572637,1.3930910719261718e-05,0.4923526515572637,-1.8294716078892578e-05,0.4923526515572637,-2.518469232719401e-05
0.4931467687371948,-0.0001179627026726,0.4931467687371948,7.890669982763193e-06,0.4931467687371948,-1.9302406669054032e-05,0.4931467687371948,-5.544749930145387e-06
0.4939408859171259,-0.0001740519449444,0.4939408859171259,1.9972363585378904e-05,0.4939408859171259,-1.6449609994308846e-05,0.4939408859171259,1.4264354217073891e-05
0.494735003097057,-0.000159288668717,0.494735003097057,4.548713600933352e-05,0.494735003097057,-6.210378098652064e-06,0.494735003097057,5.220112095077148e-05
0.495529120276988,-7.434115085901289e-05,0.495529120276988,5.471704622146616e-05,0.495529120276988,4.5317268468719945e-06,0.495529120276988,5.757075095342754e-05
0.4963232374569191,3.162175018390409e-05,0.4963232374569191,4.247765275518189e-05,0.4963232374569191,3.190427968834627e-06,0.4963232374569191,4.734332078754234e-05
0.4971173546368502,0.0001222883290329,0.4971173546368502,2.2675698559388e-05,0.4971173546368502,-6.20278003822617e-06,0.4971173546368502,4.381156495721719e-05
0.4979114718167812,0.0001059239421735,0.4979114718167812,-1.5416754057245938e-05,0.4979114718167812,-9.732915212422093e-06,0.4979114718167812,3.88710424812934e-06
0.4987055889967123,0.0002119390886149,0.4987055889967123,-5.218207220421677e-05,0.4987055889967123,-9.903013119909566e-06,0.4987055889967123,-2.1974919705147712e-05
0.4994997061766434,0.0003106524774607,0.4994997061766434,-6.327510049807729e-05,0.4994997061766434,-1.7956918544056208e-05,0.4994997061766434,-1.7961390727971895e-05
0.5002938233565745,0.0002341670278477,0.5002938233565745,-6.663545315871589e-05,0.5002938233565745,-2.0644902526972717e-05,0.5002938233565745,-2.4672306339679064e-05
0.5010879405365055,0.0001515741846527,0.5010879405365055,-7.67063457797149e-05,0.5010879405365055,-2.198819943629677e-05,0.5010879405365055,-2.702352401351935e-05
0.5018820577164366,-4.0461168061571744e-05,0.5018820577164366,-8.274786983651283e-05,0.5018820577164366,-2.366650478905508e-05,0.5018820577164366,-2.500920717994807e-05
0.5026761748963677,-0.0001707134130437,0.5026761748963677,-5.756343774805279e-05,0.5026761748963677,-2.0980166065472933e-05,0.5026761748963677,-2.098171694526399e-05
0.5034702920762988,-0.0002179938513804,0.5034702920762988,-1.7324371517981153e-05,0.5034702920762988,-1.628558503120877e-05,0.5034702920762988,-2.3328907573442625e-05
0.5042644092562298,-0.0002272611313016,0.5042644092562298,1.2566471070820231e-05,0.5042644092562298,-1.2926897640851768e-05,0.5042644092562298,-2.3666450235914825e-05
0.5050585264361609,-0.0001938859218883,0.5050585264361609,2.5002091886985863e-05,0.5050585264361609,-1.258890022088262e-05,0.5050585264361609,-1.896980303271388e-05
0.505852643616092,-0.0001324605739705,0.505852643616092,1.964081079799564e-05,0.505852643616092,-1.0239854743760113e-05,0.505852643616092,-2.1986943900879857e-05
0.506646760796023,-7.806628369496145e-05,0.506646760796023,-2.846664008089252e-06,0.506646760796023,-7.21843020427142e-06,0.506646760796023,-3.172056713028149e-05
0.507440877975954,-2.6024596616866032e-05,0.507440877975954,-2.869822749335172e-05,0.507440877975954,-5.539287954837449e-06,0.507440877975954,-4.951276567780094e-05
0.5082349951558852,-3.440904879819489e-05,0.5082349951558852,-3.944453446168946e-05,0.5082349951558852,-8.224593615544382e-06,0.5082349951558852,-4.330513788903074e-05
0.5090291123358163,-7.939715885582967e-05,0.5090291123358163,-4.515064104792074e-05,0.5090291123358163,-6.546357175527456e-06,0.5090291123358163,-3.642360832295749e-05
0.5098232295157473,-0.0001109174177839,0.5098232295157473,-3.978550546914447e-05,0.5098232295157473,-8.22298327029765e-06,0.5098232295157473,-3.860318528724597e-05
0.5106173466956784,-0.0001399621074925,0.5106173466956784,-3.374267185981605e-05,0.5106173466956784,-1.493307571954351e-05,0.5106173466956784,-2.233729635891985e-05
0.5114114638756094,-0.0001505538595523,0.5114114638756094,-3.105391336985297e-05,0.5114114638756094,-1.829333328768379e-05,0.5114114638756094,-1.3601693384500188e-05
0.5122055810555405,-0.0001445211885155,0.5122055810555405,-2.316736248230112e-05,0.5122055810555405,-2.047644869419297e-05,0.5122055810555405,-8.898489787130521e-06
0.5129996982354716,-0.0001170014618037,0.5129996982354716,-1.661958788511226e-05,0.5129996982354716,-2.0981008603757576e-05,0.5129996982354716,-8.89601e-06
0.5137938154154027,-6.127795486305752e-05,0.5137938154154027,-1.4938990208119048e-05,0.5137938154154027,-2.0309956083247614e-05,0.5137938154154027,-1.829341483685808e-05
0.5145879325953338,-6.462171501578748e-05,0.5145879325953338,-1.0574870479476284e-05,0.5145879325953338,-2.0645471501578747e-05,0.5145879325953338,-1.8966943003157492e-05
0.5153820497752648,-0.0001376392514406,0.5153820497752648,-7.55303059759473e-06,0.5153820497752648,-2.030967373131189e-05,0.5153820497752648,-2.333077903293028e-05
0.5161761669551959,-0.0001895086267562,0.5161761669551959,-4.5327054869342905e-06,0.5161761669551959,-1.8295212243932465e-05,0.5161761669551959,-1.9805318770574848e-05
0.5169702841351269,-0.0002210285860175,0.5169702841351269,-8.2212848932083e-06,0.5169702841351269,-1.6450862607423388e-05,0.5169702841351269,-1.5613778505887144e-05
0.5177644013150581,-0.0002223989873628,0.5177644013150581,-9.56639751367751e-06,0.5177644013150581,-1.7623314036767257e-05,0.5177644013150581,-7.559294902854711e-06
0.5185585184949891,-0.0001261134264487,0.5185585184949891,-7.722189675014806e-06,0.5185585184949891,-1.3598242940536224e-05,0.5185585184949891,4.189104787090825e-06
0.5193526356749202,6.688333004944519e-05,0.5193526356749202,-6.8822050879385365e-06,0.5193526356749202,-1.426689192964917e-05,0.5193526356749202,8.558307551896565e-06
0.5201467528548512,0.0003005452739292,0.5201467528548512,-1.4600496690849592e-05,0.5201467528548512,-1.5106138785631153e-05,0.5201467528548512,1.2587446099438368e-05
0.5209408700347823,0.000529191580002,0.5209408700347823,-2.4336506502031057e-05,0.5209408700347823,-1.0910886851443964e-05,0.5209408700347823,1.3595635153689236e-05
0.5217349872147133,0.000512779264884,0.5217349872147133,-2.83664351331882e-05,0.5217349872147133,-1.2420775675750694e-05,0.5217349872147133,1.42671891888647e-05
0.5225291043946444,0.0002864972235398,0.5225291043946444,-1.8630374275566742e-05,0.5225291043946444,-1.3595755917884133e-05,0.5225291043946444,4.530783870239956e-06
0.5233232215745756,0.0001208463775852,0.5233232215745756,-1.1588502724169512e-05,0.5233232215745756,-1.326042870115093e-05,0.5233232215745756,-4.187683809241899e-06
0.5241173387545066,4.923934890429014e-05,0.5241173387545066,-1.1749260255675332e-05,0.5241173387545066,-1.225383871578887e-05,0.5241173387545066,-8.221255153500573e-06
0.5249114559344377,-2.663601378177136e-05,0.5249114559344377,-1.493641469283181e-05,0.5249114559344377,-1.12465900861812e-05,0.5249114559344377,-1.30888646245708e-05
0.5257055731143687,-9.681127868667906e-05,0.5257055731143687,-2.1648990289510743e-05,0.5257055731143687,-1.1581419514475536e-05,0.5257055731143687,-2.4332053761812463e-05
0.5264996902942998,-0.0001357748107686,0.5264996902942998,-1.829690942321859e-05,0.5264996902942998,-9.568195650030576e-06,0.5264996902942998,-3.5747447961056794e-05
0.5272938074742308,-0.0001492147440352,0.5272938074742308,-2.165178600880698e-05,0.5272938074742308,-8.560554197357906e-06,0.5272938074742308,-4.1960794128416703e-05
0.528087924654162,-9.819664208035218e-05,0.528087924654162,-4.514917010481322e-05,0.528087924654162,-1.2252649585865775e-05,0.528087924654162,-3.9109170770546834e-05
0.528882041834093,-4.749972584208776e-05,0.528882041834093,-7.469339524400668e-05,0.528882041834093,-1.2253176872859526e-05,0.528882041834093,-2.9037298637546384e-05
0.5296761590140241,-1.76366890814602e-05,0.5296761590140241,-8.40906534971498e-05,0.5296761590140241,-1.5609798562234428e-05,0.5296761590140241,-1.762043984037704e-05
0.5304702761939551,-8.000725172696658e-05,0.5304702761939551,-7.486920498146478e-05,0.5304702761939551,-1.4603816912034963e-05,0.5304702761939551,1.157824363307542e-06
0.5312643933738862,-0.0001471527042611,0.5312643933738862,-6.999681898480362e-05,0.5312643933738862,-1.124846479076068e-05,0.5312643933738862,2.901661234364814e-05
0.5320585105538173,-9.503487849750212e-05,0.5320585105538173,-6.361883171995272e-05,0.5320585105538173,-1.359435144888575e-05,0.5320585105538173,3.1721844513012286e-05
0.5328526277337483,-4.7188028385276886e-05,0.5328526277337483,-6.260827217801272e-05,0.5328526277337483,-1.560905564397456e-05,0.5328526277337483,1.1255500906040414e-05
0.5336467449136795,-4.817237645159523e-05,0.5336467449136795,-6.160102354840477e-05,0.5336467449136795,-1.77912989945197e-05,0.5336467449136795,-7.547180455479038e-06
0.5344408620936105,-0.000111943921931,0.5344408620936105,-4.6496823781956464e-05,0.5344408620936105,-2.030936269432297e-05,0.5344408620936105,-1.913278844599137e-05
0.5352349792735416,-0.0001975567654058,0.5352349792735416,-1.5946497433520914e-05,0.5352349792735416,-2.03098e-05,0.5352349792735416,-2.7694876543196255e-05
0.5360290964534726,-0.0001847807396418,0.5360290964534726,4.1803419519717975e-05,0.5360290964534726,-1.6281318542312528e-05,0.5360290964534726,-2.9877016714136933e-05
0.5368232136334037,-9.74074160765972e-06,0.5368232136334037,0.0001152392808726,0.5368232136334037,-1.561066410884622e-05,0.5368232136334037,-2.836799429436101e-05
0.5376173308133347,0.0002263969604473,0.5376173308133347,0.0001669664286999,0.5376173308133347,-1.9131829283176492e-05,0.5376173308133347,-2.4341495153101392e-05
0.5384114479932659,0.0004112695214754,0.5384114479932659,0.0001958599289239,0.5384114479932659,-1.7792933544889858e-05,0.5384114479932659,-1.2596868448264027e-05
0.539205565173197,0.0005412428526965,0.539205565173197,0.0002190303149959,0.539205565173197,-1.3598098010366229e-05,0.539205565173197,-1.25887e-05
0.539999682353128,0.0003872896434961,0.539999682353128,0.0001958892665673,0.539999682353128,-1.1582405798903829e-05,0.539999682353128,-3.809159325389077e-05
0.5407937995330591,9.725792933638542e-05,0.5407937995330591,0.0001280861207351,0.5407937995330591,-1.2252830486770598e-05,0.5407937995330591,-7.13275091456401e-05
0.5415879167129901,-7.987762501428018e-05,0.5415879167129901,7.889425874913785e-05,0.5415879167129901,-1.1581670426824192e-05,0.5415879167129901,-7.670653658540646e-05
0.5423820338929212,-0.0002116608946005,0.5423820338929212,4.3471738982708127e-05,0.5423820338929212,-1.4938728968114142e-05,0.5423820338929212,-4.884272434865308e-05
0.5431761510728523,-0.0002794571346051,0.5431761510728523,1.3930479319504711e-05,0.5431761510728523,-1.796028275589834e-05,0.5431761510728523,-1.661056128190765e-05
0.5439702682527834,-0.0002170864720706,0.5439702682527834,8.565253840669584e-06,0.5439702682527834,-1.9972246056297263e-05,0.5439702682527834,1.7760328599810508e-05
0.5447643854327144,-0.000192206228061,0.5447643854327144,-1.5255851673083823e-05,0.5447643854327144,-1.0917215587430865e-05,0.5447643854327144,5.083270621380806e-05
0.5455585026126455,-0.0001848066262035,0.5455585026126455,-8.002351356773019e-05,0.5455585026126455,-1.5165281892721717e-06,0.5455585026126455,5.018732058673782e-05
0.5463526197925765,-0.0001626566094152,0.5463526197925765,-0.0001527081976608,0.5463526197925765,1.1736540082465676e-06,0.5463526197925765,2.133072441853216e-05
0.5471467369725076,4.776727353187157e-05,0.5471467369725076,-0.0001968723764664,0.5471467369725076,6.544340695205397e-06,0.5471467369725076,7.054396289333941e-06
0.5479408541524387,0.0002849644347456,0.5479408541524387,-0.0002002433833623,0.5479408541524387,2.18284162522114e-06,0.5479408541524387,-3.1872592626325665e-06
0.5487349713323698,0.0004630895700744,0.5487349713323698,-0.0001995730242266,0.5487349713323698,-6.881492746364875e-06,0.5487349713323698,-7.720906373182438e-06
0.5495290885123009,0.0005856290647523,0.5495290885123009,-0.0001861436545016,0.5495290885123009,-9.736063573675065e-06,0.5495290885123009,-7.219276638502722e-06
0.5503232056922319,0.0006131254969686,0.5503232056922319,-0.0001740720744772,0.5503232056922319,-1.694558874454254e-05,0.5503232056922319,-2.2979535958216845e-05
0.551117322872163,0.000431694880627,0.551117322872163,-0.0001492391854026,0.551117322872163,-1.9636109704635885e-05,0.551117322872163,-3.708267594933838e-05
0.551911440052094,0.0002825951136465,0.551911440052094,-9.28603728035642e-05,0.551911440052094,-2.0309326512564177e-05,0.551911440052094,-3.8772016281410445e-05
0.5527055572320251,0.0001053398415375,0.5527055572320251,-1.2968953499597314e-05,0.5527055572320251,-2.2322776852672107e-05,0.5527055572320251,-3.642461040360748e-05
0.5534996744119562,-0.0001249535675755,0.5534996744119562,6.693913768259483e-05,0.5534996744119562,-2.165287527361936e-05,0.5534996744119562,-3.306767657312703e-05
0.5542937915918873,-0.0001747179592691,0.5542937915918873,0.0001257035801357,0.5542937915918873,-1.9303316798770696e-05,0.5542937915918873,-2.635406228220198e-05
0.5550879087718184,-0.0001042420998905,0.5550879087718184,0.0001641525835908,0.5550879087718184,-2.0309684287277373e-05,0.5550879087718184,-2.366700856726034e-05
0.5558820259517494,-5.522656945904952e-05,0.5558820259517494,0.0001658337382024,0.5558820259517494,-2.0981101249344447e-05,0.5558820259517494,-2.433801770942128e-05
0.5566761431316805,-0.0001828061316332,0.5566761431316805,0.0001272215686978,0.5566761431316805,-1.795959780311229e-05,0.5566761431316805,-2.181988627429288e-05
0.5574702603116115,-0.0002834032977636,0.5574702603116115,8.044337201908556e-05,0.5574702603116115,-1.628296171944675e-05,0.5574702603116115,-1.8969654876538188e-05
0.5582643774915427,-0.0002663904223486,0.5582643774915427,4.78625297460889e-05,0.5582643774915427,-1.62814e-05,0.5582643774915427,-1.6283505552535297e-05
0.5590584946714737,-0.00024658360521,0.5590584946714737,3.4417645970928935e-05,0.5590584946714737,-1.6449093206389544e-05,0.5590584946714737,-1.057813206469324e-05
0.5598526118514048,-0.0001720814321942,0.5598526118514048,3.5918961539964726e-05,0.5598526118514048,-1.376491286129401e-05,0.5598526118514048,-7.554696959178718e-06
0.5606467290313358,-8.68071990654801e-05,0.5606467290313358,3.810105531395203e-05,0.5606467290313358,-1.2589100958543498e-05,0.5606467290313358,-7.55322e-06
0.5614408462112669,-6.596873131790569e-05,0.5614408462112669,4.414322961738222e-05,0.5614408462112669,-1.4938144851204195e-05,0.5614408462112669,-7.55322e-06
0.5622349633911979,-0.000113799794375,0.5622349633911979,4.934746009246855e-05,0.5622349633911979,-1.5106392263278346e-05,0.5622349633911979,-1.4938259483734436e-05
0.563029080571129,-0.000175068088673,0.563029080571129,3.2729034984363535e-05,0.563029080571129,-1.628141700608232e-05,0.563029080571129,-2.2659293809440367e-05
0.5638231977510602,-0.0001857981600526,0.5638231977510602,1.7304082903589723e-05,0.5638231977510602,-1.64490306699722e-05,0.5638231977510602,-1.9641448747795007e-05
0.5646173149309912,-0.0001848028688469,0.5646173149309912,-8.202597102043242e-06,0.5646173149309912,-1.896482762374028e-05,0.5646173149309912,-1.2427027398082502e-05
0.5654114321109223,-0.0001869824393778,0.5654114321109223,-4.378324935005903e-05,0.5654114321109223,-1.7625160404853427e-05,0.5654114321109223,-1.6278638800285125e-05
0.5662055492908533,-0.0001918492367101,0.5662055492908533,-6.058407215622676e-05,0.5662055492908533,-1.846292363335531e-05,0.5662055492908533,-1.963649441989248e-05
0.5669996664707844,-0.0001935292951359,0.5669996664707844,-6.344580139513385e-05,0.5669996664707844,-2.0309024397552085e-05,0.5669996664707844,-2.433612583469212e-05
0.5677937836507154,-0.000183126835429,0.5677937836507154,-6.025876896662911e-05,0.5677937836507154,-1.309416665314423e-05,0.5677937836507154,-1.2256292950553277e-05
0.5685879008306466,-0.0001586210607609,0.5685879008306466,-4.649591906452057e-05,0.5685879008306466,-1.158178867156831e-05,0.5685879008306466,1.2921255382269284e-05
0.5693820180105776,-0.0001519035278688,0.5693820180105776,-4.313723908160307e-05,0.5693820180105776,-1.8966908622404605e-05,0.5693820180105776,1.9638217244809213e-05
0.5701761351905087,-0.0001310784687087,0.5701761351905087,-4.045261336068069e-05,0.5701761351905087,-1.493802913894638e-05,0.5701761351905087,1.1580144311115308e-05
0.5709702523704397,-6.334297026237097e-05,0.5709702523704397,-4.581774893945772e-05,0.5709702523704397,-1.1584756971614835e-05,0.5709702523704397,3.0293402400012488e-06
0.5717643695503708,-1.866675119899013e-05,0.5717643695503708,-7.399910974816368e-05,0.5717643695503708,-1.0910733103124715e-05,0.5717643695503708,-1.1570005054678472e-05
