X [s].2,L DELTOID ANTERIOR: EMG 3 [V],X [s].3,L BICEPS BRACHII: EMG 4 [V],X [s].4,L DELTOID POSTERIOR: EMG 5 [V],X [s].7,L DELTOID MEDIUS: EMG 8 [V]
0.0,-9.23171e-06,0.0,-1.2253e-05,0.0,-1.8967e-05,0.0,-2.43381e-05
0.000794117179931,-8.224611040010954e-06,0.000794117179931,-2.030979167991237e-05,0.000794117179931,-1.8967e-05,0.000794117179931,-2.7695096533296817e-05
0.0015882343598621,-6.546131921235018e-06,0.0015882343598621,-2.0477598808224516e-05,0.0015882343598621,-1.9302697615738796e-05,0.0015882343598621,-2.36667286111345e-05
0.0023823515397932,-7.04967618370111e-06,0.0023823515397932,-1.6782491605931769e-07,0.0023823515397932,-2.4673820178519643e-05,0.0023823515397932,-1.762419218896014e-05
0.0031764687197242,-1.0238794858502872e-05,0.0031764687197242,1.2252979975178356e-05,0.0031764687197242,-3.508048322237784e-05,0.0031764687197242,-1.3595806494563416e-05
0.0039705858996553,-1.2252989599916653e-05,0.0039705858996553,7.888932533462288e-06,0.0039705858996553,-3.944457746648608e-05,0.0039705858996553,-2.114896099994561e-05
0.0047647030795864,-1.0910211701923325e-05,0.0047647030795864,7.88891e-06,0.0047647030795864,-3.524833656894612e-05,0.0047647030795864,-2.1988292685862197e-05
0.0055588202595174,-1.023880010970637e-05,0.0055588202595174,1.5106398957805822e-05,0.0055588202595174,-3.373770065823822e-05,0.0055588202595174,-2.333099797044849e-05
0.0063529374394485,-1.0574498917572763e-05,0.0063529374394485,1.1917310282897525e-05,0.0063529374394485,-3.575189350543658e-05,0.0063529374394485,-1.7120620024742647e-05
0.0071470546193796,-1.0910197725439156e-05,0.0071470546193796,-1.5105490179728203e-06,0.0071470546193796,-3.172352729473012e-05,0.0071470546193796,-2.2323864744645715e-05
0.0079411717993107,-8.728182533410653e-06,0.0079411717993107,-9.56732679964302e-06,0.0079411717993107,-1.9302828266661948e-05,0.0079411717993107,-2.23239e-05
0.0087352889792417,-1.0910197195180424e-05,0.0087352889792417,-1.963838705463241e-05,0.0087352889792417,-6.881835965943501e-06,0.0087352889792417,-1.6952806904074363e-05
0.0095294061591728,-1.2588691881795727e-05,0.0095294061591728,-1.896700324728171e-05,0.0095294061591728,-7.888905129125804e-06,0.0095294061591728,-7.553265461847188e-06
0.0103235233391039,-8.895842271462057e-06,0.0103235233391039,-1.86315071922264e-05,0.0103235233391039,-1.2253128263673858e-05,0.0103235233391039,1.292454799654676e-05
0.0111176405190349,-3.1892256343427823e-06,0.0111176405190349,-2.568093425394119e-05,0.0111176405190349,-1.6616894476352875e-05,0.0111176405190349,1.795945469927475e-05
0.011911757698966,-4.867540599518434e-06,0.011911757698966,-2.635226423959432e-05,0.011911757698966,-1.258891456243406e-05,0.011911757698966,9.23217488474117e-06
0.0127058748788971,-2.8535037182649405e-06,0.0127058748788971,-4.532620280518108e-06,0.0127058748788971,1.6780386619472971e-06,0.0127058748788971,9.903078760789252e-06
0.0134999920588282,-3.524823285954748e-06,0.0134999920588282,-3.1891534281905065e-06,0.0134999920588282,1.5274164038958605e-05,0.0134999920588282,2.0981089216603304e-05
0.0142941092387592,8.393045839719118e-07,0.0142941092387592,-1.829577965727808e-05,0.0142941092387592,3.608766053650184e-05,0.0142941092387592,3.1387671115759736e-05
0.0150882264186903,5.8747646676119245e-06,0.0150882264186903,-3.373778933522385e-05,0.0150882264186903,4.129039190757759e-05,0.0150882264186903,2.0309007152216863e-05
0.0158823435986214,7.217424638918196e-06,0.0158823435986214,-3.642310927783639e-05,0.0158823435986214,2.601768472875469e-05,0.0158823435986214,-3.523137345769144e-06
0.0166764607785524,8.395610297682152e-07,0.0166764607785524,-3.2562990674220044e-05,0.0166764607785524,2.2659765805817043e-05,0.0166764607785524,-2.366570517151858e-05
0.0174705779584835,1.8463120464941909e-06,0.0174705779584835,-2.198859351217183e-05,0.0174705779584835,2.2323909317890784e-05,0.0174705779584835,-3.373742046327651e-05
0.0182646951384146,1.174944110399723e-06,0.0182646951384146,-1.829562260719848e-05,0.0182646951384146,7.21761248325911e-06,0.0182646951384146,-4.380863834400416e-05
0.0190588123183456,1.1749556224731754e-06,0.0190588123183456,-1.5945741659928466e-05,0.0190588123183456,-8.896093319701812e-06,0.0190588123183456,-4.380859845314874e-05
0.0198529294982767,2.1819776572380194e-06,0.0198529294982767,-1.863159924296955e-05,0.0198529294982767,-1.4267611460475962e-05,0.0198529294982767,-3.726296757108627e-05
0.0206470466782078,5.036606922709339e-07,0.0206470466782078,-2.668745908123528e-05,0.0206470466782078,-2.5344456234180795e-05,0.0206470466782078,-4.9850354807296606e-05
0.0214411638581389,-8.391848854373175e-07,0.0214411638581389,-2.2491990981586103e-05,0.0214411638581389,-3.860469649327252e-05,0.0214411638581389,-6.16001652451871e-05
0.0222352810380699,-3.860457856219888e-06,0.0222352810380699,-1.695293226310338e-05,0.0222352810380699,-3.978027194274301e-05,0.0222352810380699,-4.884440460868472e-05
0.023029398218001,-2.1820437666130454e-06,0.023029398218001,-1.829559698669161e-05,0.023029398218001,-3.97803e-05,0.023029398218001,-3.978032033960722e-05
0.0238235153979321,-1.5106595280914685e-06,0.0238235153979321,-1.6449131652649385e-05,0.0238235153979321,-4.246588698127236e-05,0.0238235153979321,-2.9709247925089417e-05
0.0246176325778631,-2.517946553989584e-06,0.0246176325778631,-1.2924441310961995e-05,0.0246176325778631,-4.1794513770320666e-05,0.0246176325778631,-2.70237e-05
0.0254117497577942,-7.552901448473737e-06,0.0254117497577942,-1.3931436289441702e-05,0.0254117497577942,-4.2130178763147234e-05,0.0254117497577942,-2.70237e-05
0.0262058669377253,-1.2924176371453883e-05,0.0262058669377253,-1.3595813976836176e-05,0.0262058669377253,-4.716539035162085e-05,0.0262058669377253,-2.7359386023163823e-05
0.0269999841176564,-1.4267173143418982e-05,0.0269999841176564,-1.3260106714145257e-05,0.0269999841176564,-4.649421342829051e-05,0.0269999841176564,-3.508034557465915e-05
0.0277941012975874,-1.5274295063088996e-05,0.0277941012975874,-9.903097805833672e-06,0.0277941012975874,-4.09551925947152e-05,0.0277941012975874,-3.306628381798452e-05
0.0285882184775185,-1.2252984379493895e-05,0.0285882184775185,-8.560333430759156e-06,0.0285882184775185,-3.642322189746948e-05,0.0285882184775185,-2.3162891496167733e-05
0.0293823356574496,-1.1581654393840758e-05,0.0293823356574496,-9.56732840923886e-06,0.0293823356574496,-3.30665719692038e-05,0.0293823356574496,-9.90417427430421e-06
0.0301764528373806,-1.2252960124691336e-05,0.0301764528373806,-9.56741e-06,0.0301764528373806,-2.870245918950631e-05,0.0301764528373806,-2.853858688365311e-06
0.0309705700173117,-1.0910250699853644e-05,0.0309705700173117,-8.896035349926824e-06,0.0309705700173117,-2.165286617045596e-05,0.0309705700173117,-5.036367244418263e-07
0.0317646871972428,-7.553274122402439e-06,0.0317646871972428,-1.0238778351071268e-05,0.0317646871972428,-1.4938708245449774e-05,0.0317646871972428,-2.1820129387665358e-06
0.0325588043771738,-1.0910218504184312e-05,0.0325588043771738,-1.0238807401673723e-05,0.0325588043771738,-1.493863053162851e-05,0.0325588043771738,2.517777008203262e-06
0.0333529215571049,-1.426714532822862e-05,0.0333529215571049,-1.1581691119618963e-05,0.0333529215571049,-2.047741320613828e-05,0.0333529215571049,9.23173733561426e-06
0.034147038737036,-1.2253155371269223e-05,0.034147038737036,-1.4938341047884622e-05,0.034147038737036,-1.3596330847979624e-05,0.034147038737036,1.0238722315136766e-05
0.0349411559169671,-1.158163727156313e-05,0.0349411559169671,-1.4435027956448008e-05,0.0349411559169671,-6.882192714521053e-06,0.0349411559169671,4.532246806621223e-06
0.0357352730968981,-1.0406739804123324e-05,0.0357352730968981,-1.3931517057942033e-05,0.0357352730968981,-1.0238686269771116e-05,0.0357352730968981,-4.867311554817067e-06
0.0365293902768292,-8.224636718087969e-06,0.0365293902768292,-1.158162877279806e-05,0.0365293902768292,-1.0910191779200551e-05,0.0365293902768292,-1.930252325317924e-05
0.0373235074567603,-6.210407390929126e-06,0.0373235074567603,-1.2588696847708806e-05,0.0373235074567603,-1.2253006304582388e-05,0.0373235074567603,-2.3330943259697528e-05
0.0381176246366913,-4.867619586329263e-06,0.0381176246366913,-1.2253041654682946e-05,0.0381176246366913,-1.29244e-05,0.0381176246366913,-1.7288312553926738e-05
0.0389117418166224,-4.531954593502698e-06,0.0389117418166224,-1.3595701625989209e-05,0.0389117418166224,-1.29244e-05,0.0389117418166224,-1.1246342683048555e-05
0.0397058589965535,-7.217381329245927e-06,0.0397058589965535,-1.460284799827359e-05,0.0397058589965535,-2.0477209989633687e-05,0.0397058589965535,-7.217728005872934e-06
0.0404999761764846,-7.553209928782117e-06,0.0404999761764846,-1.3931520142435766e-05,0.0404999761764846,-2.1148979857564236e-05,0.0404999761764846,-5.874760284871533e-06
0.0412940933564156,-2.8534793192101183e-06,0.0412940933564156,-1.0574528085269602e-05,0.0412940933564156,-1.2924468808492217e-05,0.0412940933564156,-4.531941234024179e-06
0.0420882105363467,1.846304371360747e-06,0.0420882105363467,-1.158161336080937e-05,0.0420882105363467,-1.1917406886474955e-05,0.0420882105363467,-4.8676745357659e-06
0.0428823277162778,-8.390015727117393e-07,0.0428823277162778,-1.2588608339289076e-05,0.0428823277162778,-1.997336671431261e-05,0.0428823277162778,-8.224304466117209e-06
0.0436764448962088,-5.538703874932822e-06,0.0436764448962088,-9.567619651848728e-06,0.0436764448962088,-3.30653915125877e-05,0.0436764448962088,-9.56731682109216e-06
0.0444705620761399,-6.210387936405496e-06,0.0444705620761399,-1.1581503808261346e-05,0.0444705620761399,-4.649355872333421e-05,0.0444705620761399,-1.56097114238289e-05
0.045264679256071,-6.546111230654882e-06,0.045264679256071,-1.0910217538690234e-05,0.045264679256071,-4.1794622768219386e-05,0.045264679256071,-2.83661667674978e-05
0.046058796436002,-8.89599945346552e-06,0.046058796436002,-6.378290339741863e-06,0.046058796436002,-4.481568644056106e-05,0.046058796436002,-3.4073374386878694e-05
0.0468529136159331,-9.567363957675736e-06,0.0468529136159331,-4.196183957675735e-06,0.0468529136159331,-3.642279353460452e-05,0.0468529136159331,-2.9709207915008584e-05
0.0476470307958642,-6.882054014020349e-06,0.0476470307958642,-1.5108740140203495e-06,0.0476470307958642,-6.884394153352481e-06,0.0476470307958642,-2.433856802978344e-05
0.0484411479757953,-4.867761956470033e-06,0.0484411479757953,-2.5176740214374164e-06,0.0484411479757953,8.559298333292993e-06,0.0484411479757953,-2.366674398570839e-05
0.0492352651557263,-5.874675809948966e-06,0.0492352651557263,-7.888674318703976e-06,0.0492352651557263,2.6015834036336408e-05,0.0492352651557263,-1.2421293458275748e-05
0.0500293823356574,-6.210412532527646e-06,0.0500293823356574,-1.0238747727915962e-05,0.0500293823356574,4.06191751660648e-05,0.0500293823356574,-3.5250278862378382e-06
0.0508234995155885,-5.03548071672891e-06,0.0508234995155885,-1.426719754262282e-05,0.0508234995155885,2.937360686014746e-05,0.0508234995155885,-5.53902877131141e-06
0.0516176166955195,2.5179305387209865e-06,0.0516176166955195,-1.5945819969353762e-05,0.0516176166955195,1.426717882893757e-05,0.0516176166955195,4.196374669347032e-06
0.0524117338754506,1.1580845349209508e-05,0.0524117338754506,-2.1652124847405386e-05,0.0524117338754506,1.3260183850457877e-05,0.0524117338754506,1.1077527020206007e-05
0.0532058510553817,3.861005890723802e-06,0.0532058510553817,-2.5680651714386387e-05,0.0532058510553817,1.2420851730535338e-05,0.0532058510553817,7.217757948135491e-06
0.0539999682353128,8.393668539745655e-07,0.0539999682353128,-2.165276113548602e-05,0.0539999682353128,7.889091279521817e-06,0.0539999682353128,1.661672400866577e-05
0.0547940854152438,1.4938341045662246e-05,0.0547940854152438,-2.0309824662398344e-05,0.0547940854152438,1.5274164356992774e-05,0.0547940854152438,1.594571233119917e-05
0.0555882025951749,2.19882714792169e-05,0.0555882025951749,-2.198829232132763e-05,0.0555882025951749,1.4602915357344748e-05,0.0555882025951749,9.73521886441853e-06
0.056382319775106,1.3260981665726114e-05,0.056382319775106,-1.9638637371541648e-05,0.056382319775106,1.930222525691671e-05,0.056382319775106,-2.852168371791855e-06
0.057176436955037,5.5396429890087256e-06,0.057176436955037,-1.72886865625971e-05,0.057176436955037,2.0981066741002076e-05,0.057176436955037,-2.5007740992342165e-05
0.0579705541349681,3.359985301446472e-07,0.0579705541349681,-1.2253290836629944e-05,0.0579705541349681,1.326054594949925e-05,0.0579705541349681,-3.4408557104957435e-05
0.0587646713148992,-6.713606209273758e-07,0.0587646713148992,-5.035740716897856e-06,0.0587646713148992,8.560479769487216e-06,0.0587646713148992,-2.56812152868614e-05
0.0595587884948302,-4.531874067387836e-06,0.0595587884948302,-4.867632431863411e-06,0.0595587884948302,-1.5609649812972683e-05,0.0595587884948302,-2.4338119454907293e-05
0.0603529056747613,-1.0574571959861093e-05,0.0603529056747613,-4.867622804013891e-06,0.0603529056747613,-4.179445322573303e-05,0.0603529056747613,-2.165260959393362e-05
0.0611470228546924,-2.0644521744658156e-05,0.0611470228546924,-3.860627825534184e-06,0.0611470228546924,-3.524893587082899e-05,0.0611470228546924,-2.2995169575668007e-05
0.0619411400346235,-1.963847604978047e-05,0.0619411400346235,-7.049429176450316e-06,0.0619411400346235,-2.702432106943149e-05,0.0619411400346235,-2.584858452184632e-05
0.0627352572145545,-1.3596125570246204e-05,0.0627352572145545,-1.023862817233653e-05,0.0627352572145545,-2.53452904361795e-05,0.0627352572145545,-3.1051819650537504e-05
0.0635293743944856,-1.2420837887519656e-05,0.0635293743944856,-1.2252935052730135e-05,0.0635293743944856,-2.1988408242225303e-05,0.0635293743944856,-2.2995559789079456e-05
0.0643234915744167,-1.6617055476293735e-05,0.0643234915744167,-1.4938571505167516e-05,0.0643234915744167,-2.366668219179072e-05,0.0643234915744167,-2.702365725775128e-05
0.0651176087543477,-1.6952831452601335e-05,0.0651176087543477,-1.4938500090206708e-05,0.0651176087543477,-2.7695307219666968e-05,0.0651176087543477,-2.2995462816318706e-05
0.0659117259342788,-1.980593389684117e-05,0.0659117259342788,-5.875565281803888e-06,0.0659117259342788,-4.649244682838261e-05,0.0659117259342788,-3.7764722500687465e-05
0.0667058431142099,-2.333074749901421e-05,0.0667058431142099,-7.217423807783782e-06,0.0667058431142099,-5.589312665448648e-05,0.0667058431142099,-5.052168618110949e-05
0.067499960294141,-1.9302901419357542e-05,0.067499960294141,-1.443463911819262e-05,0.067499960294141,-4.51519371316204e-05,0.067499960294141,-4.112356998516774e-05
0.068294077474072,-1.5274414272066575e-05,0.068294077474072,-5.539282348544358e-06,0.068294077474072,-4.112321426922992e-05,0.068294077474072,-2.568133804292187e-05
0.0690881946540031,-1.2253020339831678e-05,0.0690881946540031,5.2032576808677645e-06,0.0690881946540031,-3.9108913559887785e-05,0.0690881946540031,-3.860676897909164e-06
0.0698823118339342,-1.040690496223527e-05,0.0698823118339342,5.8746454673698005e-06,0.0698823118339342,-3.2395645337403244e-05,0.0698823118339342,-3.5248672668701624e-06
0.0706764290138652,-1.1581494973416846e-05,0.0706764290138652,2.182370095806522e-06,0.0706764290138652,-2.5681500177444293e-05,0.0706764290138652,-1.3930569727643105e-05
0.0714705461937963,-4.868084921593111e-06,0.0714705461937963,-4.195797824588181e-06,0.0714705461937963,-1.3596618855750757e-05,0.0714705461937963,-1.5609886269093544e-05
0.0722646633737274,1.0068290398409024e-06,0.0722646633737274,-1.2923997430633948e-05,0.0722646633737274,-8.224857735384764e-06,0.0722646633737274,-1.5112903047508155e-06
0.0730587805536585,7.720905584745735e-06,0.0730587805536585,-2.3834332825242432e-05,0.0730587805536585,-3.642260945554028e-05,0.0730587805536585,1.728803963670034e-05
0.0738528977335895,2.064546311287872e-05,0.0738528977335895,-3.105207940080933e-05,0.0738528977335895,-5.2536754011076015e-05,0.0738528977335895,1.2588713413519404e-05
0.0746470149135206,1.6617531581935866e-05,0.0746470149135206,-3.10521e-05,0.0746470149135206,-5.220113596516132e-05,0.0746470149135206,-2.1648931564258645e-05
0.0754411320934517,1.8476031045553285e-06,0.0754411320934517,-2.702404448399342e-05,0.0754411320934517,-3.776733439242504e-05,0.0754411320934517,-3.507935172857331e-05
0.0762352492733827,-3.86016544867139e-06,0.0762352492733827,-1.7624800434250872e-05,0.0762352492733827,1.8438095818142824e-06,0.0762352492733827,-1.6953957986272624e-05
0.0770293664533138,5.874308735201672e-06,0.0770293664533138,-1.1581855269116908e-05,0.0770293664533138,3.877164002797762e-05,0.0770293664533138,2.5169174687135446e-06
0.0778234836332449,1.7959650919051405e-05,0.0778234836332449,-1.15816e-05,0.0778234836332449,5.9921764109679634e-05,0.0778234836332449,3.860502324499349e-06
0.078617600813176,1.0574490032139392e-05,0.078617600813176,-2.0981203780828123e-05,0.078617600813176,5.270468504818963e-05,0.078617600813176,-3.860528281405462e-06
0.079411717993107,8.402512353721368e-07,0.079411717993107,-2.4673418712348423e-05,0.079411717993107,3.810330785502009e-05,0.079411717993107,-2.182213316229836e-06
0.0802058351730381,-4.867164114805645e-06,0.0802058351730381,-2.4338127405126684e-05,0.0802058351730381,2.8031622153800493e-05,0.0802058351730381,2.5173563298591507e-06
0.0809999523529692,-8.560088434406598e-06,0.0809999523529692,-2.06457215607933e-05,0.0809999523529692,2.333128199410073e-05,0.0809999523529692,3.860449430856949e-06
0.0817940695329002,-3.189346074766393e-06,0.0817940695329002,-1.1246260632855449e-05,0.0817940695329002,1.460323486952909e-05,0.0817940695329002,1.846417278085356e-06
0.0825881867128313,-4.531907531951642e-06,0.0825881867128313,-1.4938538212406876e-05,0.0825881867128313,-6.881460509887685e-06,0.0825881867128313,-5.874590808429127e-06
0.0833823038927624,-8.224163143699213e-06,0.0833823038927624,-2.2994325047618925e-05,0.0833823038927624,-1.9636856308656724e-05,0.0833823038927624,-1.4601843790897832e-05
0.0841764210726934,-9.567276536220628e-06,0.0841764210726934,-1.6617733943012807e-05,0.0841764210726934,-2.165239980433094e-05,0.0841764210726934,-2.0980566047047975e-05
0.0849705382526245,-1.1917117278000175e-05,0.0849705382526245,2.851926015938416e-06,0.0849705382526245,-2.4337891181744453e-05,0.0849705382526245,-1.796013492928523e-05
0.0857646554325556,-1.1581618840562996e-05,0.0857646554325556,6.210231595492489e-06,0.0857646554325556,-3.239444782648806e-05,0.0857646554325556,-2.232365507829336e-05
0.0865587726124866,-1.5106278434067592e-05,0.0865587726124866,1.1751136673914322e-06,0.0865587726124866,-3.978004528681423e-05,0.0865587726124866,-4.179382848341933e-05
0.0873528897924177,-1.963834174441166e-05,0.0873528897924177,-5.874629381709863e-06,0.0873528897924177,-4.548702664320575e-05,0.0873528897924177,-4.313728273927537e-05
0.0881470069723488,-2.131670339094374e-05,0.0881470069723488,-1.2587913566117636e-05,0.0881470069723488,-4.666196236780393e-05,0.0881470069723488,-3.038219422882757e-05
0.0889411241522799,-1.762455270479282e-05,0.0889411241522799,-1.0239024448504522e-05,0.0889411241522799,-4.448020842124419e-05,0.0889411241522799,-1.259039938626855e-05
0.0897352413322109,-1.76242e-05,0.0897352413322109,-6.882068012333984e-06,0.0897352413322109,-4.531923799285312e-05,0.0897352413322109,1.6690655128387016e-07
0.090529358512142,-1.4267375386902346e-05,0.090529358512142,-3.525005386379896e-06,0.090529358512142,-5.387915276601127e-05,0.090529358512142,-1.6783146141425557e-07
0.0913234756920731,-1.628133834400413e-05,0.0913234756920731,5.034246886816929e-07,0.0913234756920731,-5.589373834400413e-05,0.0913234756920731,-8.392254480932084e-07
0.0921175928720041,-1.6449198493794617e-05,0.0921175928720041,5.03548e-07,0.0921175928720041,-6.663610357413156e-05,0.0921175928720041,6.546053707520634e-06
0.0929117100519352,-1.359612316520769e-05,0.0929117100519352,-1.846073860642192e-06,0.0929117100519352,-7.150324871417784e-05,0.0929117100519352,6.378289010051206e-06
0.0937058272318663,-1.6281153902405504e-05,0.0937058272318663,-5.7065162365406335e-06,0.0937058272318663,-6.46226306205041e-05,0.0937058272318663,-9.230279564146516e-06
0.0944999444117974,-1.6952753000983225e-05,0.0944999444117974,-1.1916865260494836e-05,0.0944999444117974,-5.270553422904773e-05,0.0944999444117974,-1.3595494507090955e-05
0.0952940615917284,-1.3260278604992192e-05,0.0952940615917284,-1.2252983763182528e-05,0.0952940615917284,-2.702494211411825e-05,0.0952940615917284,-1.023896236817472e-05
0.0960881787716595,-5.5392364041086495e-06,0.0960881787716595,-1.0910235896506195e-05,0.0960881787716595,-1.5113220298751642e-06,0.0960881787716595,-7.55329179247774e-06
0.0968822959515906,-4.196405920680089e-06,0.0968822959515906,-1.0238887960340044e-05,0.0968822959515906,2.265643344872005e-05,0.0968822959515906,-8.224522040970058e-06
0.0976764131315216,-1.6828967413113866e-07,0.0976764131315216,-1.2924106215860272e-05,0.0976764131315216,4.179240678800444e-05,0.0976764131315216,-3.6931757585479448e-06
0.0984705303114527,-1.510522159483625e-06,0.0984705303114527,-2.030915187281592e-05,0.0984705303114527,4.280151161902036e-05,0.0984705303114527,-2.5178431102653426e-06
0.0992646474913838,3.860174839813684e-06,0.0992646474913838,-2.702325605389982e-05,0.0992646474913838,4.817234484444233e-05,0.0992646474913838,-1.6785454940890657e-06
0.1000587646713148,1.5942119505016483e-05,0.1000587646713148,-2.70237e-05,0.1000587646713148,5.756951516365536e-05,0.1000587646713148,-1.0907464904726675e-05
0.1008528818512459,2.1316100754927395e-05,0.1008528818512459,-2.7862875110517307e-05,0.1008528818512459,2.9377796021750974e-05,0.1008528818512459,-2.7021302279662385e-05
0.101646999031177,8.896025155722284e-06,0.101646999031177,-2.836649938563934e-05,0.101646999031177,-1.0910150846510564e-05,0.101646999031177,-3.709468771156664e-05
0.1024411162111081,-2.853734800065264e-06,0.1024411162111081,-2.920567715871156e-05,0.1024411162111081,-3.3066496534352586e-05,0.1024411162111081,-4.8005759830474485e-05
0.1032352333910391,-4.86753132320925e-06,0.1032352333910391,-2.8363638402462573e-05,0.1032352333910391,-3.4406386402951535e-05,0.1032352333910391,-5.388029073753525e-05
0.1040293505709702,-4.531633932893802e-06,0.1040293505709702,-1.862552670465821e-05,0.1040293505709702,-2.517258893157276e-05,0.1040293505709702,-5.6224022802632296e-05
0.1048234677509013,-3.860979499427492e-06,0.1048234677509013,-5.547795218751225e-06,0.1048234677509013,-1.427450433222196e-05,0.1048234677509013,-4.381701567245903e-05
0.1056175849308323,-1.0906514734686532e-05,0.1056175849308323,-3.190368421771156e-06,0.1056175849308323,-1.711910836478226e-05,0.1056175849308323,-2.1999706769855325e-05
0.1064117021107634,-1.1581348107262704e-05,0.1064117021107634,-1.325632162394755e-05,0.1064117021107634,-1.8966307276213664e-05,0.1064117021107634,-1.896813351731784e-05
0.1072058192906945,-1.17730848904383e-06,0.1072058192906945,-1.4266970790501848e-05,0.1072058192906945,-9.233925689539536e-06,0.1072058192906945,-1.0240786482317316e-05
0.1079999364706256,2.517444542002191e-06,0.1079999364706256,-2.1830069554840345e-06,0.1079999364706256,-2.332987189033604e-05,0.1079999364706256,1.1915527250412918e-05
0.1087940536505566,-1.846884395036408e-06,0.1087940536505566,7.049590608663032e-06,0.1087940536505566,-4.7501640248587e-05,0.1087940536505566,1.930206486930426e-05
0.1095881708304877,-9.903677811533852e-06,0.1095881708304877,5.873708834118792e-06,0.1095881708304877,-5.253586105625749e-05,0.1095881708304877,9.900572087448498e-06
0.1103822880104188,-1.2589308848221648e-05,0.1103822880104188,1.172991696572731e-06,0.1103822880104188,-4.816819455943316e-05,0.1103822880104188,-1.8544985153873943e-06
0.1111764051903498,-1.4268226584154384e-05,0.1111764051903498,-4.198283158115301e-06,0.1111764051903498,-3.574556939771463e-05,0.1111764051903498,-2.4346654867953203e-05
0.1119705223702809,-1.6280189884553312e-05,0.1119705223702809,-8.222189781122465e-06,0.1119705223702809,-2.333846237858791e-05,0.1119705223702809,-4.111301570461093e-05
0.112764639550212,-1.7959138016411693e-05,0.112764639550212,-1.1580076037363052e-05,0.112764639550212,-8.231467802358409e-06,0.112764639550212,-3.776762396717661e-05
0.1135587567301431,-9.56998133481274e-06,0.1135587567301431,-1.3091737174501474e-05,0.1135587567301431,1.6609488867459954e-05,0.1135587567301431,-1.0247233957596704e-05
0.1143528739100741,-4.197082961823476e-06,0.1143528739100741,-1.628089354409135e-05,0.1143528739100741,2.3329933809630912e-05,0.1143528739100741,4.697407702211256e-06
0.1151469910900052,-8.392836709192472e-07,0.1151469910900052,-1.7959881164450605e-05,0.1151469910900052,1.7959960272635906e-05,0.1151469910900052,3.189156951882241e-06
0.1159411082699363,5.203192671721844e-06,0.1159411082699363,-1.4938096462980094e-05,0.1159411082699363,7.88744517185101e-06,0.1159411082699363,-2.1837794860689045e-06
0.1167352254498673,4.195372129181621e-06,0.1167352254498673,-1.1246185957885933e-05,0.1167352254498673,-2.856204248206338e-06,0.1167352254498673,-1.494450976791508e-05
0.1175293426297984,1.173203845248453e-06,0.1175293426297984,-1.2255314884494885e-05,0.1175293426297984,-1.2591087203086308e-05,0.1175293426297984,-3.5746546829605576e-05
0.1183234598097295,-2.850702777758711e-06,0.1183234598097295,-1.7620550352225358e-05,0.1183234598097295,-1.812393633470663e-05,0.1183234598097295,-2.333943981047886e-05
0.1191175769896605,-8.403190792034964e-07,0.1191175769896605,-2.399900195900904e-05,0.1191175769896605,-2.0979679773295332e-05,0.1191175769896605,-1.896932495859091e-05
0.1199116941695916,-2.8526641791265658e-06,0.1199116941695916,-2.1989075784666813e-05,0.1199116941695916,-2.09812e-05,0.1199116941695916,-2.366488978442053e-05
0.1207058113495227,-6.209622398137057e-06,0.1207058113495227,-1.4940274973891171e-05,0.1207058113495227,-1.426879521322969e-05,0.1207058113495227,-1.6283154710793154e-05
0.1214999285294538,-7.217429347623323e-06,0.1214999285294538,-1.4602930217458891e-05,0.1214999285294538,-9.232163260983252e-06,0.1214999285294538,-1.2924702174588922e-05
0.1222940457093848,-2.3495324754684997e-06,0.1222940457093848,-1.5274473931693352e-05,0.1222940457093848,-8.224030230567254e-06,0.1222940457093848,-7.552524276105019e-06
0.1230881628893159,3.861012080572582e-06,0.1230881628893159,-1.8297700492604573e-05,0.1230881628893159,1.844962627228551e-06,0.1230881628893159,4.531654526266311e-06
0.123882280069247,6.209827942782871e-06,0.123882280069247,-2.85344e-05,0.123882280069247,-4.871774414629189e-06,0.123882280069247,3.18914e-06
0.124676397249178,4.5289106214264254e-06,0.124676397249178,-2.8531129015289773e-05,0.124676397249178,-1.6616261279565527e-05,0.124676397249178,3.1872948210403693e-06
0.1254705144291091,-1.5069493130843208e-06,0.1254705144291091,-2.1992298233469982e-05,0.1254705144291091,-1.4939625195899752e-05,0.1254705144291091,-5.01292576349916e-07
0.1262646316090402,-9.899206163231495e-06,0.1262646316090402,-1.8968401787917805e-05,0.1262646316090402,-1.49386e-05,0.1262646316090402,-6.207772191368594e-06
0.1270587487889713,-8.22514105188862e-06,0.1270587487889713,-1.2255124220209948e-05,0.1270587487889713,-2.5216697947329387e-06,0.1270587487889713,-8.895160315079886e-06
0.1278528659689023,8.377159766139735e-07,0.1278528659689023,-1.023914000684743e-05,0.1278528659689023,7.887153306395181e-06,0.1278528659689023,-1.5273223313337847e-05
0.1286469831488334,5.035551245628668e-07,0.1286469831488334,-1.8966814760261856e-05,0.1286469831488334,5.0370474051041e-07,0.1286469831488334,-3.189104733309816e-05
0.1294411003287645,-4.868308693765893e-06,0.1294411003287645,-1.913342140316957e-05,0.1294411003287645,-1.1248742033382617e-05,0.1294411003287645,-3.13878e-05
0.1302352175086955,-1.0239811579798713e-05,0.1302352175086955,-8.220563699980981e-06,0.1302352175086955,-3.37428498333994e-05,0.1302352175086955,-3.138568487860269e-05
0.1310293346886266,-1.3932771943078852e-05,0.1310293346886266,6.546402654017522e-06,0.1310293346886266,-5.253849592410514e-05,0.1310293346886266,-2.3659775027089735e-05
0.1318234518685577,-1.6950716893677243e-05,0.1318234518685577,7.217057087483831e-06,0.1318234518685577,-5.656242252490299e-05,0.1318234518685577,-7.228861273909304e-06
0.1326175690484888,-1.913361569748426e-05,0.1326175690484888,1.7167528006435808e-07,0.1326175690484888,-5.89138245680652e-05,0.1326175690484888,-2.0302694032932744e-05
0.1334116862284198,-2.332934175276504e-05,0.1334116862284198,-2.5166787134708776e-06,0.1334116862284198,-5.555942661359511e-05,0.1334116862284198,-2.165206935456196e-05
0.1342058034083509,-2.568031817290157e-05,0.1342058034083509,2.3486847916766155e-06,0.1342058034083509,-4.3811609110732485e-05,0.1342058034083509,-7.892317841957686e-06
0.134999920588282,-2.2659902174588932e-05,0.134999920588282,1.0238010992573926e-05,0.134999920588282,-2.366871449725957e-05,0.134999920588282,-3.189610046360123e-06
0.135794037768213,-1.5442060081757656e-05,0.135794037768213,1.6768931804045946e-07,0.135794037768213,-8.22468185711725e-06,0.135794037768213,3.86152002520951e-06
0.1365881549481441,-1.460165528438496e-05,0.1365881549481441,-3.1880263092381868e-06,0.1365881549481441,-9.735882356831776e-06,0.1365881549481441,2.467347244274565e-05
0.1373822721280752,-8.221848701683402e-06,0.1373822721280752,2.514058268225741e-06,0.1373822721280752,-1.292336450811884e-05,0.1373822721280752,2.2984599982346837e-05
0.1381763893080062,-1.6094461075598874e-07,0.1381763893080062,-8.229541719544821e-06,0.1381763893080062,-9.900305370840527e-06,0.1381763893080062,-8.224774390814725e-06
0.1389705064879373,1.3922747548670242e-05,0.1389705064879373,-1.828934823264411e-05,0.1389705064879373,-4.199772653062936e-06,0.1389705064879373,-8.56010160754788e-06
0.1397646236678684,1.9300154212663623e-05,0.1397646236678684,-1.863114088829148e-05,0.1397646236678684,8.554263783514308e-06,0.1397646236678684,8.347908930160199e-07
0.1405587408477994,1.712131221160796e-05,0.1405587408477994,-1.9638071294482207e-05,0.1405587408477994,2.8024445062558684e-05,0.1405587408477994,-8.557242096195004e-06
0.1413528580277305,3.205652888294173e-05,0.1413528580277305,-2.719024943961519e-05,0.1413528580277305,2.870207994939332e-05,0.1413528580277305,-2.634911867859173e-05
0.1421469752076616,3.77659218042875e-05,0.1421469752076616,-2.5680947171014534e-05,0.1421469752076616,1.7960235424101066e-05,0.1421469752076616,-4.5150813005481296e-05
0.1429410923875927,2.500942187779631e-05,0.1429410923875927,-2.5681681222036903e-05,0.1429410923875927,1.191698751234881e-05,0.1429410923875927,-4.044779390377834e-05
0.1437352095675237,2.4336239336000463e-05,0.1437352095675237,-3.2392419079475425e-05,0.1437352095675237,9.22409005357188e-06,0.1437352095675237,-6.880756753625389e-06
0.1445293267474548,1.7281325386658362e-05,0.1445293267474548,-2.299474814615394e-05,0.1445293267474548,-1.9645574593202485e-05,0.1445293267474548,-2.864201893913757e-06
0.1453234439273859,-1.5563894009941126e-07,0.1453234439273859,-2.165353916817477e-05,0.1453234439273859,-3.708248997437307e-05,0.1453234439273859,-2.9019584954564975e-05
0.146117561107317,-5.871565461051967e-06,0.146117561107317,-2.5007644434700796e-05,0.146117561107317,-2.166113579937052e-05,0.146117561107317,-4.312950639358347e-05
0.146911678287248,-1.1243723706424489e-05,0.146911678287248,-2.50095e-05,0.146911678287248,-2.1988163981145056e-05,0.146911678287248,-4.045278815083955e-05
0.1477057954671791,-1.930062458434355e-05,0.1477057954671791,-1.8968556535982537e-05,0.1477057954671791,-1.4436945715057822e-05,0.1477057954671791,-2.702715902609408e-05
0.1484999126471102,-2.2994893754054395e-05,0.1484999126471102,-5.540507294689442e-06,0.1484999126471102,-2.854714159614849e-06,0.1484999126471102,-1.896788636779233e-05
0.1492940298270412,-3.0045151329033988e-05,0.1492940298270412,-1.5107913286583317e-06,0.1492940298270412,4.531576900423319e-06,0.1492940298270412,-3.0044735174190523e-05
0.1500881470069723,-3.407361752958666e-05,0.1500881470069723,-5.53859492416342e-06,0.1500881470069723,-4.8748398347614426e-06,0.1500881470069723,-2.299486494082668e-05
0.1508822641869034,-3.524556343626476e-05,0.1508822641869034,-3.1892516938307374e-06,0.1508822641869034,-4.381205088146794e-05,0.1508822641869034,-2.064818069851977e-05
0.1516763813668344,-2.7024022075085115e-05,0.1516763813668344,-3.526440370628501e-06,0.1516763813668344,-5.3878633774744655e-05,0.1516763813668344,-2.869076639684034e-05
0.1524704985467655,-2.7694676508551445e-05,0.1524704985467655,-6.879702549064818e-06,0.1524704985467655,-5.186667047434566e-05,0.1524704985467655,-4.882663864425023e-06
0.1532646157266966,-3.1218294049159755e-05,0.1532646157266966,-8.8950351896159e-06,0.1532646157266966,-3.005556044986084e-05,0.1532646157266966,1.4929014350843832e-05
0.1540587329066277,-1.6622012264239897e-05,0.1540587329066277,-8.22483585200273e-06,0.1540587329066277,2.968919927267392e-05,0.1540587329066277,2.3999351031602107e-05
0.1548528500865587,-7.2192947145891535e-06,0.1548528500865587,-1.0238419705095511e-05,0.1548528500865587,5.085430690255884e-05,0.1548528500865587,1.393340146508205e-05
0.1556469672664898,-1.292416472768945e-05,0.1556469672664898,-1.5945464726864925e-05,0.1556469672664898,3.70952674193208e-05,0.1556469672664898,-1.6951526761273985e-05
0.1564410844464209,-6.881105930955852e-06,0.1564410844464209,-1.762414643927258e-05,0.1564410844464209,3.2730421481967885e-05,0.1564410844464209,-1.8295885628851383e-05
0.157235201626352,-1.6563259337703746e-07,0.157235201626352,-1.7121068870146457e-05,0.157235201626352,3.105295246809016e-05,0.157235201626352,-2.098384262568573e-05
0.158029318806283,8.559233040294758e-06,0.158029318806283,-1.8970769332902427e-05,0.158029318806283,3.439846502742214e-05,0.158029318806283,-3.138578069303365e-05
0.1588234359862141,5.876625295324773e-06,0.1588234359862141,-2.835983151247763e-05,0.1588234359862141,7.907724783350796e-06,0.1588234359862141,-2.635587244203616e-05
0.1596175531661451,3.526152431243243e-06,0.1596175531661451,-3.373467728715229e-05,0.1596175531661451,-1.7945353245069072e-05,0.1596175531661451,-1.695808969120719e-05
0.1604116703460762,2.518158124899321e-06,0.1604116703460762,-2.4342002537810584e-05,0.1604116703460762,-4.34624074388894e-05,0.1604116703460762,-1.930172436554736e-05
0.1612057875260073,-1.5095620075787004e-06,0.1612057875260073,-6.886491291572316e-06,0.1612057875260073,-7.132844390225465e-05,0.1612057875260073,-1.762464916573887e-05
0.1619999047059384,-6.209855943167643e-06,0.1619999047059384,1.6700291487148217e-07,0.1619999047059384,-7.872041362120575e-05,0.1619999047059384,-3.862181884152411e-06
0.1627940218858694,-9.23157120169013e-06,0.1627940218858694,-8.896218196637886e-06,0.1627940218858694,-7.737825941530733e-05,0.1627940218858694,-1.225338863405482e-05
0.1635881390658005,-4.1961712035399975e-06,0.1635881390658005,-1.644881783176728e-05,0.1635881390658005,-6.864968264592727e-05,0.1635881390658005,-2.6352711575220016e-05
0.1643822562457316,-3.86139671407348e-06,0.1643822562457316,-1.4264816533877472e-05,0.1643822562457316,-6.512089558047613e-05,0.1643822562457316,-2.869905818205752e-05
0.1651763734256627,-6.545016214804382e-06,0.1651763734256627,-6.879297061067965e-06,0.1651763734256627,-5.0848365937936615e-05,0.1651763734256627,-1.895982537978836e-05
0.1659704906055937,-4.197735686567728e-06,0.1659704906055937,-1.5140815711283702e-06,0.1659704906055937,-2.9722851172702072e-05,0.1659704906055937,-3.7024669851164015e-06
0.1667646077855248,-8.222620089486767e-06,0.1667646077855248,2.347983002836462e-06,0.1667646077855248,-1.628803301857835e-05,0.1667646077855248,1.325172578625886e-05
0.1675587249654559,-4.197625395033764e-06,0.1675587249654559,3.860006727728316e-06,0.1675587249654559,1.324986708692082e-05,0.1675587249654559,4.480476942057913e-05
0.1683528421453869,5.026136402549116e-07,0.1683528421453869,-6.5440510608200605e-06,0.1683528421453869,2.316123117126137e-05,0.1683528421453869,5.2535264973233246e-05
0.169146959325318,-6.881441665624021e-06,0.169146959325318,-9.56725522668785e-06,0.169146959325318,-3.5234628373648865e-06,0.169146959325318,3.474571144073219e-05
0.1699410765052491,-8.392136540817191e-07,0.1699410765052491,-1.846178270312241e-06,0.1699410765052491,-1.896609430985584e-05,0.1699410765052491,1.8293950352193712e-05
0.1707351936851801,-5.041212232435829e-07,0.1707351936851801,-1.6981433401245356e-07,0.1707351936851801,-9.565935997234252e-06,0.1707351936851801,1.1706817703299187e-06
0.1715293108651112,-2.851864801513317e-06,0.1715293108651112,-8.228285477473187e-06,0.1715293108651112,-3.5269302672557458e-06,0.1715293108651112,-1.6286125579819035e-05
0.1723234280450423,1.1720418214937058e-06,0.1723234280450423,-1.761743755710584e-05,0.1723234280450423,-8.892145757195341e-06,0.1723234280450423,-2.835780549325873e-05
0.1731175452249733,3.187986337709576e-06,0.1731175452249733,-1.426912277048404e-05,0.1731175452249733,-1.2586584958195202e-05,0.1731175452249733,-4.0444778026257455e-05
0.1739116624049044,-4.864204400456e-06,0.1739116624049044,-1.258941366922906e-05,0.1739116624049044,-1.6447558582032303e-05,0.1739116624049044,-5.253166162406905e-05
0.1747057795848355,-5.203236809356781e-06,0.1747057795848355,-1.5609161284211026e-05,0.1747057795848355,-1.8295087437582247e-05,0.1747057795848355,-5.7906508949708486e-05
0.1754998967647666,-4.196360942321847e-06,0.1754998967647666,-1.628131270511877e-05,0.1754998967647666,-1.359641106416862e-05,0.1754998967647666,-4.80061875929972e-05
0.1762940139446976,-6.210325668265005e-06,0.1762940139446976,-1.6617023355094307e-05,0.1762940139446976,-6.881578274812721e-06,0.1762940139446976,-4.246587052119012e-05
0.1770881311246287,-8.398558259679445e-07,0.1770881311246287,-1.2253055438964567e-05,0.1770881311246287,6.87954701236135e-06,0.1770881311246287,-4.078667929346061e-05
0.1778822483045598,-4.532559889875703e-06,0.1778822483045598,-1.2588909964334322e-05,0.1778822483045598,-6.886754124329417e-06,0.1778822483045598,-3.642120035665679e-05
0.1786763654844909,-6.54627433099823e-06,0.1786763654844909,-1.3260871654991152e-05,0.1786763654844909,-2.2660525985989383e-05,0.1786763654844909,-2.9708374014010617e-05
0.1794704826644219,-6.881601547731384e-06,0.1794704826644219,-1.4937507738656924e-05,0.1794704826644219,-2.467248928638831e-05,0.1794704826644219,-2.769641071361169e-05
0.180264599844353,-1.1075985182445458e-05,0.180264599844353,-1.1247761026143071e-05,0.180264599844353,-3.2391008763519026e-05,0.180264599844353,-2.719185375109352e-05
0.181058717024284,-1.3594902710377884e-05,0.181058717024284,-8.225686765366167e-06,0.181058717024284,-3.5750703590077674e-05,0.181058717024284,-2.6688179479307975e-05
0.1818528342042151,-1.2588910293368889e-05,0.1818528342042151,-9.567129608841483e-06,0.1818528342042151,-2.7696782346951088e-05,0.1818528342042151,-2.0982391641542608e-05
0.1826469513841462,-1.4938456117890744e-05,0.1826469513841462,-1.1245797227677108e-05,0.1826469513841462,-2.40026261004574e-05,0.1826469513841462,-1.3596252200914803e-05
0.1834410685640773,-1.3595568091075554e-05,0.1834410685640773,-1.2253347863386669e-05,0.1834410685640773,-2.6016817418934304e-05,0.1834410685640773,-1.6617128988615555e-05
0.1842351857440083,-1.09102e-05,0.1842351857440083,-1.6282028254545182e-05,0.1842351857440083,-2.853828728990813e-05,0.1842351857440083,-1.6954095763302714e-05
0.1850293029239394,-1.091051976574842e-05,0.1850293029239394,-1.896290675836727e-05,0.1850293029239394,-4.516086559198352e-05,0.1850293029239394,-2.249800380607287e-05
0.1858234201038705,-1.1748787863104582e-05,0.1858234201038705,-8.232445811801673e-06,0.1858234201038705,-6.99749797412835e-05,0.1858234201038705,-3.876132387315413e-05
0.1866175372838016,-1.4265732711782916e-05,0.1866175372838016,-1.850057038849937e-06,0.1866175372838016,-8.005823096368488e-05,0.1866175372838016,-4.783171792559298e-05
0.1874116544637326,-1.2924984365364982e-05,0.1874116544637326,-5.872966912608738e-06,0.1874116544637326,-6.999748274023737e-05,0.1874116544637326,-3.642826706208393e-05
0.1882057716436637,-1.2253193096277306e-05,0.1882057716436637,-1.2251165591117632e-05,0.1882057716436637,-5.119940666700435e-05,0.1882057716436637,-2.2495806733374e-05
0.1889998888235948,-1.2253e-05,0.1889998888235948,-1.29243059901279e-05,0.1889998888235948,-2.2327942410498192e-05,0.1889998888235948,-6.212699729596955e-06
0.1897940060035258,-1.0574454311429064e-05,0.1897940060035258,-3.5248414221994418e-06,0.1897940060035258,9.567714590397282e-06,0.1897940060035258,2.2995505598833843e-05
0.1905881231834569,-4.530107156337427e-06,0.1905881231834569,-5.03680807280865e-06,0.1905881231834569,4.985484568732515e-05,0.1905881231834569,5.018846244407404e-05
0.191382240363388,7.220771983441144e-06,0.191382240363388,-1.3595291876641306e-05,0.191382240363388,7.33514211207326e-05,0.191382240363388,6.026501369674924e-05
0.192176357543319,1.7962240132266768e-05,0.192176357543319,-1.1913072641660214e-05,0.192176357543319,7.77099726236706e-05,0.192176357543319,8.374713747050683e-05
0.1929704747232501,2.315976204715412e-05,0.1929704747232501,-2.523950528712937e-06,0.1929704747232501,6.832081055514196e-05,0.1929704747232501,6.228629548853764e-05
0.1937645919031812,1.930468420373918e-05,0.1937645919031812,-6.879576968306156e-06,0.1937645919031812,3.274888931637224e-05,0.1937645919031812,1.1607653692433877e-05
0.1945587090831123,8.564245947941383e-06,0.1945587090831123,-1.9298149063284225e-05,0.1945587090831123,3.1999638156194686e-06,0.1945587090831123,-2.935859425778351e-05
0.1953528262630433,-5.015647164934288e-07,0.1953528262630433,-2.8028890184469605e-05,0.1953528262630433,-2.1808647198152457e-06,0.1953528262630433,-4.6826080347057975e-05
0.1961469434429744,4.195895232412486e-06,0.1961469434429744,-3.340161740668048e-05,0.1961469434429744,4.867127848405039e-06,0.1961469434429744,-4.112350649827895e-05
0.1969410606229055,-1.8468526201118985e-06,0.1969410606229055,-2.702339242655854e-05,0.1969410606229055,2.1818349519552404e-06,0.1969410606229055,-3.508008990207805e-05
0.1977351778028366,-8.560385174322727e-06,0.1977351778028366,-2.299563829564892e-05,0.1977351778028366,-5.038486954994385e-07,0.1977351778028366,-2.970734549000244e-05
0.1985292949827676,-8.897131042120768e-06,0.1985292949827676,-2.4506186822419496e-05,0.1985292949827676,-1.8499522439476587e-06,0.1985292949827676,-2.0978459665745854e-05
0.1993234121626987,-1.1915066003823918e-05,0.1993234121626987,-2.500912770304252e-05,0.1993234121626987,-1.1574401573628098e-05,0.1993234121626987,-1.3601260897616197e-05
0.2001175293426297,-1.829181915125384e-05,0.2001175293426297,-2.4338497984078544e-05,0.2001175293426297,-1.62786141114502e-05,0.2001175293426297,-1.2253795968157086e-05
0.2009116465225608,-2.5677612170111625e-05,0.2009116465225608,-2.031159334152158e-05,0.2009116465225608,-2.4334513272438265e-05,0.2009116465225608,-2.4668270437561432e-05
0.2017057637024919,-2.383514946610722e-05,0.2017057637024919,-1.2590997829583735e-05,0.2017057637024919,-2.836530113239109e-05,0.2017057637024919,-2.5009400094365923e-05
0.202499880882423,-1.7625131697481552e-05,0.202499880882423,-8.225264710109213e-06,0.202499880882423,-3.5415142388938604e-05,0.202499880882423,-2.568079927513701e-05
0.203293998062354,-9.06388089031232e-06,0.203293998062354,-4.531939011468995e-06,0.203293998062354,-6.193633528116164e-05,0.203293998062354,-3.306628197696439e-05
0.2040881152422851,-3.189091276026287e-06,0.2040881152422851,-1.09092742488537e-05,0.2040881152422851,-6.965359955907869e-05,0.2040881152422851,-3.306449722748677e-05
0.2048822324222162,-2.8532434656474136e-06,0.2048822324222162,-4.530947331164301e-06,0.2048822324222162,-4.346779183965646e-05,0.2048822324222162,-2.0642551984711204e-05
0.2056763496021472,-2.1830733667797337e-06,0.2056763496021472,-1.175087624453892e-06,0.2056763496021472,-2.5670418725338816e-05,0.2056763496021472,-1.0571695148568583e-05
0.2064704667820783,-4.530353895016553e-06,0.2064704667820783,-1.5104148411870585e-06,0.2064704667820783,-1.8623261818188428e-06,0.2064704667820783,-4.200507997324459e-06
0.2072645839620094,-5.538502302442923e-06,0.2072645839620094,-9.563188435262704e-06,0.2072645839620094,5.87067433968817e-06,0.2072645839620094,-2.854143591502996e-06
0.2080587011419405,5.012736005851097e-07,0.2080587011419405,-1.1580841867865424e-05,0.2080587011419405,-1.1575029518991042e-05,0.2080587011419405,-1.96320822159014e-05
0.2088528183218715,-1.6779907196724634e-06,0.2088528183218715,-4.869166248745748e-06,0.2088528183218715,-1.930093330604832e-05,0.2088528183218715,-2.098089274887797e-05
0.2096469355018026,-8.393141734573685e-07,0.2096469355018026,-2.8536036166551047e-06,0.2096469355018026,-1.762433634788952e-05,0.2096469355018026,-2.1835670931133496e-06
0.2104410526817337,3.5247186325399997e-06,0.2104410526817337,-5.037039148421001e-07,0.2104410526817337,-2.2997037336091603e-05,0.2104410526817337,1.1736926809978002e-06
0.2112351698616647,1.8452986602830684e-06,0.2112351698616647,-2.854804513300377e-06,0.2112351698616647,-4.918324720770945e-05,0.2112351698616647,-1.7625995399288848e-05
0.2120292870415958,-3.022199051707602e-06,0.2120292870415958,-9.2321342402575e-06,0.2120292870415958,-6.528788508245592e-05,0.2120292870415958,-2.601284260745735e-05
0.2128234042215269,-5.5371431883109164e-06,0.2128234042215269,-1.040581945440492e-05,0.2128234042215269,-5.003054666557412e-05,0.2128234042215269,-1.561779877768301e-05
0.2136175214014579,-8.390740041010384e-06,0.2136175214014579,-6.883944688197474e-06,0.2136175214014579,-2.066320549387137e-05,0.2136175214014579,-8.900056984666415e-06
0.214411638581389,-1.090905395706111e-05,0.214411638581389,-1.174718434004763e-05,0.214411638581389,2.507196390396233e-06,0.214411638581389,-8.224915612664204e-06
0.2152057557613201,-9.73562141787727e-06,0.2152057557613201,-1.8964779827335028e-05,0.2152057557613201,1.157881190780715e-05,0.2152057557613201,-1.3929744529874196e-05
0.2159998729412512,-7.553569177924725e-06,0.2159998729412512,-2.6351118177610183e-05,0.2159998729412512,1.2588538840219249e-05,0.2159998729412512,-2.769289749899876e-05
0.2167939901211822,-1.6952683051968068e-05,0.2167939901211822,-3.239482481896236e-05,0.2167939901211822,3.5249427711832007e-06,0.2167939901211822,-3.709458305171923e-05
0.2175881073011133,-1.5106037068173862e-05,0.2175881073011133,-2.4672302919731176e-05,0.2175881073011133,5.202740237944766e-06,0.2175881073011133,-3.642184827269545e-05
0.2183822244810444,-1.2422460933551333e-05,0.2183822244810444,-1.359489837216781e-05,0.2183822244810444,8.333616150529634e-07,0.2183822244810444,-2.567999837216781e-05
0.2191763416609755,-1.8297908295931348e-05,0.2191763416609755,-1.040720492764792e-05,0.2191763416609755,-1.9971935932274152e-05,0.2191763416609755,-2.248653412335522e-05
0.2199704588409065,-2.366304387470837e-05,0.2199704588409065,-1.1580800241737234e-05,0.2199704588409065,-1.4942027681276837e-05,0.2199704588409065,-1.0247140657071804e-05
0.2207645760208376,-2.0311592513413265e-05,0.2207645760208376,-1.0910558513362228e-05,0.2207645760208376,3.1794601712585486e-06,0.2207645760208376,1.0898906882487673e-05
0.2215586932007686,-1.2927253696527748e-05,0.2215586932007686,-5.541105404064634e-06,0.2215586932007686,1.325620861109986e-05,0.2215586932007686,2.198401945520838e-05
0.2223528103806997,-2.855845098725292e-06,0.2223528103806997,4.361714986412673e-06,0.2223528103806997,1.3763479756526867e-05,0.2223528103806997,3.0378695766983276e-05
0.2231469275606308,1.174572476944614e-06,0.2231469275606308,-3.0206162071235698e-06,0.2231469275606308,1.7959517157021602e-05,0.2231469275606308,3.03807e-05
0.2239410447405619,4.531967832258509e-06,0.2239410447405619,-2.1149340490326577e-05,0.2239410447405619,8.386974347309525e-07,0.2239410447405619,2.0980632516122374e-05
0.2247351619204929,5.203877670576264e-06,0.2247351619204929,-2.718940930138054e-05,0.2247351619204929,-8.89768724139472e-06,0.2247351619204929,1.090739317962962e-05
0.225529279100424,7.890265301127095e-06,0.225529279100424,-1.6445369769718926e-05,0.225529279100424,-1.7126905176988545e-05,0.225529279100424,-2.860157669861805e-06
0.2263233962803551,1.17464683601863e-05,0.2263233962803551,-5.547315137054162e-06,0.2263233962803551,-3.506686132773558e-05,0.2263233962803551,-2.197376906807024e-05
0.2271175134602862,1.6278622924454758e-05,0.2271175134602862,-4.868041414060255e-06,0.2271175134602862,-3.709346575781924e-05,0.2271175134602862,-4.077588046758991e-05
0.2279116306402172,6.550648741695089e-06,0.2279116306402172,-7.55197069403151e-06,0.2279116306402172,-4.732873702651925e-05,0.2279116306402172,-3.810304931062038e-05
0.2287057478201483,-2.8504546352058688e-06,0.2287057478201483,-9.231176900051352e-06,0.2287057478201483,-5.3206334154943846e-05,0.2287057478201483,-3.172552579187392e-05
0.2294998650000794,-6.2098492291769935e-06,0.2294998650000794,-4.1970861579347615e-06,0.2294998650000794,-5.690027214835415e-05,0.2294998650000794,-4.749861737815202e-05
0.2302939821800104,-7.553189863120965e-06,0.2302939821800104,-2.5177776708743603e-06,0.2302939821800104,-5.824366986312096e-05,0.2302939821800104,-5.656499657606651e-05
0.2310880993599415,-1.0238589956337156e-05,0.2310880993599415,-3.1890979910171542e-06,0.2310880993599415,-5.387821371607996e-05,0.2310880993599415,-7.032720367116573e-05
0.2318822165398726,-8.560218447814563e-06,0.2318822165398726,-2.854538620770843e-06,0.2318822165398726,-4.279555758303316e-05,0.2318822165398726,-5.75621377619605e-05
0.2326763337198036,-8.225878256988253e-06,0.2326763337198036,-6.883792842338289e-06,0.2326763337198036,-2.0636058525246285e-05,0.2326763337198036,-2.029063524825533e-05
0.2334704508997347,-1.1243813218691298e-05,0.2334704508997347,-1.1578353898811762e-05,0.2334704508997347,1.830805062502998e-06,0.2334704508997347,2.5313666449546787e-05
0.2342645680796658,-2.186970561007589e-06,0.2342645680796658,-1.2588152157470357e-05,0.2342645680796658,3.539793865850243e-05,0.2342645680796658,4.748924751874585e-05
0.2350586852595969,5.0326189859519e-06,0.2350586852595969,-2.030673936759901e-05,0.2350586852595969,3.508063307097396e-05,0.2350586852595969,5.622604015467714e-05
0.2358528024395279,-1.1733947436942705e-06,0.2358528024395279,-2.836449535836894e-05,0.2358528024395279,3.0381869388799093e-05,0.2358528024395279,6.24383547486706e-05
0.236646919619459,4.53135226536793e-06,0.236646919619459,-2.83665e-05,0.236646919619459,3.1219915033516325e-05,0.236646919619459,4.0621708986846665e-05
0.2374410367993901,3.188735476911073e-06,0.2374410367993901,-3.642298882732359e-05,0.2374410367993901,-3.928034848340951e-05,0.2374410367993901,-1.3597667026789087e-05
0.2382351539793211,-5.539160201733563e-06,0.2382351539793211,-2.970617513124449e-05,0.2382351539793211,-0.000117994582202,0.2382351539793211,-5.3882724868755504e-05
0.2390292711592522,-6.209732998422287e-06,0.2390292711592522,-1.3591105483306893e-05,0.2390292711592522,-0.0001003604316685,0.2390292711592522,-6.999561901829124e-05
0.2398233883391833,-4.197779686918705e-06,0.2398233883391833,1.5725945938618494e-07,0.2398233883391833,-6.0624206430128655e-05,0.2398233883391833,-7.737281778642064e-05
0.2406175055191144,-6.209165619074352e-06,0.2406175055191144,-1.6763993671998265e-07,0.2406175055191144,-1.5638014521870816e-05,0.2406175055191144,-5.993307129305199e-05
0.2414116226990454,-1.225012862569036e-05,0.2414116226990454,-5.536477667861109e-06,0.2414116226990454,3.7405195726008926e-05,0.2414116226990454,-1.3617813847531691e-05
0.2422057398789765,-9.903869846842638e-06,0.2422057398789765,-9.230500247228022e-06,0.2422057398789765,7.736541266919683e-05,0.2422057398789765,1.4593661870649177e-05
0.2429998570589076,1.172945658514701e-06,0.2429998570589076,-1.3595014347869063e-05,0.2429998570589076,8.979706392604463e-05,0.2429998570589076,1.1917783479342275e-05
0.2437939742388386,-8.559994141881657e-06,0.2437939742388386,-1.913462028832156e-05,0.2437939742388386,7.956083219569113e-05,0.2437939742388386,1.19173e-05
0.2445880914187697,1.17521055926051e-06,0.2445880914187697,-2.182084448634838e-05,0.2445880914187697,8.979682631631937e-05,0.2445880914187697,2.3664342275387085e-05
0.2453822085987008,3.523330698151503e-06,0.2453822085987008,-2.568187014159004e-05,0.2453822085987008,6.830190004345511e-05,0.2453822085987008,3.181555298694697e-06
0.2461763257786318,-2.1810770520459345e-06,0.2461763257786318,-2.937208678898877e-05,0.2461763257786318,1.9965571014610496e-05,0.2461763257786318,-2.5683926422022468e-05
0.2469704429585629,1.6620247730134998e-07,0.2469704429585629,-2.5683487404923935e-05,0.2469704429585629,-8.246624828109468e-07,0.2469704429585629,-3.306112519015212e-05
0.247764560138494,1.1743820899698547e-06,0.247764560138494,-2.299678777337595e-05,0.247764560138494,-1.2246676988635375e-05,0.247764560138494,-2.987896670318485e-05
0.2485586773184251,-5.028658625298506e-07,0.2485586773184251,-1.6451860334833105e-05,0.2485586773184251,-1.8293144287550985e-05,0.2485586773184251,-3.7259498614313416e-05
0.2493527944983561,-1.845992461003355e-06,0.2493527944983561,-1.510674754106719e-05,0.2493527944983561,-2.8699506582611096e-05,0.2493527944983561,-4.850548935650319e-05
0.2501469116782872,1.174603923646879e-06,0.2501469116782872,-1.695259461308505e-05,0.2501469116782872,-4.917752214520711e-05,0.2501469116782872,-5.555731581665168e-05
0.2509410288582183,3.86053e-06,0.2509410288582183,-1.0910090190118078e-05,0.2509410288582183,-7.301494905122688e-05,0.2509410288582183,-5.8243687798861625e-05
0.2517351460381494,3.858801165809021e-06,0.2517351460381494,-7.888107327245513e-06,0.2517351460381494,-8.812207312408633e-05,0.2517351460381494,-5.790540675607062e-05
0.2525292632180804,-5.538585409762995e-06,0.2525292632180804,-3.523829677926394e-06,0.2525292632180804,-9.449726608182695e-05,0.2525292632180804,-4.380669934393348e-05
0.2533233803980115,-4.197276542830377e-06,0.2533233803980115,-5.059027073396241e-07,0.2533233803980115,-8.896441695020662e-05,0.2533233803980115,-3.777080944273669e-05
0.2541174975779426,-9.564011260319547e-06,0.2541174975779426,5.029107364681086e-07,0.2541174975779426,-8.409558008766576e-05,0.2541174975779426,-3.10563484404199e-05
0.2549116147578736,-1.22516969743046e-05,0.2549116147578736,8.390831221519687e-07,0.2549116147578736,-7.805283181873147e-05,0.2549116147578736,-2.1824879143246815e-05
0.2557057319378047,-1.6615626636994464e-05,0.2557057319378047,2.5171733239466056e-06,0.2557057319378047,-6.194184007579793e-05,0.2557057319378047,-2.869987663675637e-05
0.2564998491177358,-2.0309098283454727e-05,0.2564998491177358,5.874082079668495e-06,0.2564998491177358,-4.4651185299778746e-05,0.2564998491177358,-3.1051653453107554e-05
0.2572939662976669,-1.7959999744474386e-05,0.2572939662976669,4.531986996418043e-06,0.2572939662976669,-1.913588293576297e-05,0.2572939662976669,-1.2925169453129194e-05
0.2580880834775979,-1.4938458824032087e-05,0.2580880834775979,-2.350719404606053e-06,0.2580880834775979,-2.854287051602042e-06,0.2580880834775979,-6.210931766037741e-06
0.258882200657529,-1.3594442607413869e-05,0.258882200657529,-1.0239818046334978e-05,0.258882200657529,-1.0905449139847992e-05,0.258882200657529,-1.1072288664807032e-05
0.2596763178374601,-8.224207369902308e-06,0.2596763178374601,-1.4266931577269568e-05,0.2596763178374601,7.890386321019419e-06,0.2596763178374601,1.1922534203263865e-05
0.2604704350173911,-7.218235708598189e-06,0.2604704350173911,-1.359627714380326e-05,0.2604704350173911,1.1578975716188771e-05,0.2604704350173911,2.5000195766903435e-05
0.2612645521973222,-1.3256692086265758e-05,0.2612645521973222,-1.326028932916744e-05,0.2612645521973222,-1.0897515002179898e-05,0.2612645521973222,1.9305918539448145e-05
0.2620586693772533,-1.6280141926316694e-05,0.2620586693772533,-1.7622382782457446e-05,0.2620586693772533,-4.534585920839383e-06,0.2620586693772533,2.9369406462695783e-05
0.2628527865571843,-1.0240424369720164e-05,0.2628527865571843,-2.6014343957826185e-05,0.2628527865571843,6.878751759525113e-06,0.2628527865571843,3.407213660132876e-05
0.2636469037371154,-9.0640024472464e-06,0.2636469037371154,-2.8366215103082443e-05,0.2636469037371154,3.189587692731403e-06,0.2636469037371154,2.920639013755305e-05
0.2644410209170465,-3.5247415640707703e-06,0.2644410209170465,-1.7624235374571907e-05,0.2644410209170465,1.1245811563833677e-05,0.2644410209170465,2.500957074914381e-05
0.2652351380969776,-1.67849e-07,0.2652351380969776,-1.896702918472649e-05,0.2652351380969776,7.889260319334086e-06,0.2652351380969776,2.769743547382227e-05
0.2660292552769086,-1.6763341238916838e-07,0.2660292552769086,-1.9136686383968577e-05,0.2660292552769086,9.90132140389643e-06,0.2660292552769086,4.1120944114258593e-05
0.2668233724568397,5.03018024408584e-07,0.2668233724568397,-2.5004862732322468e-05,0.2668233724568397,4.3684522944850286e-06,0.2668233724568397,3.4414399779595034e-05
0.2676174896367708,-8.383828857908873e-07,0.2676174896367708,-2.635143688193424e-05,0.2676174896367708,-3.237127225222149e-05,0.2676174896367708,3.209207405040485e-06
0.2684116068167018,-3.5235001174123968e-06,0.2684116068167018,-1.980944158336016e-05,0.2684116068167018,-6.4606041363391e-05,0.2684116068167018,-2.7344272574671768e-05
0.2692057239966329,-1.292113260331382e-05,0.2692057239966329,-1.3262375498288472e-05,0.2692057239966329,-4.985633449689424e-05,0.2692057239966329,-5.118571482386361e-05
0.269999841176564,-1.3595665700182696e-05,0.269999841176564,-8.561250096720838e-06,0.269999841176564,-3.40765560257037e-05,0.269999841176564,-5.656412560146156e-05
0.270793958356495,-1.2924435213412096e-05,0.270793958356495,-5.539188459305481e-06,0.270793958356495,-5.5405265631959065e-06,0.270793958356495,-5.723656478658791e-05
0.2715880755364261,-9.902429337377696e-06,0.2715880755364261,-3.860402254965118e-06,0.2715880755364261,2.2660621967889772e-05,0.2715880755364261,-4.514945188322352e-05
0.2723821927163572,-2.851810413298755e-06,0.2723821927163572,-2.5181473960685216e-06,0.2723821927163572,3.340248887819482e-05,0.2723821927163572,-2.466948160507169e-05
0.2731763098962882,3.86053e-06,0.2731763098962882,-4.198323721692802e-06,0.2731763098962882,3.541384455432495e-05,0.2731763098962882,-6.878679421358863e-06
0.2739704270762193,3.86053e-06,0.2739704270762193,-9.56353921163221e-06,0.2739704270762193,2.937795465312859e-05,0.2739704270762193,1.1691338246549024e-06
0.2747645442561504,1.5119888009000175e-06,0.2747645442561504,-1.6948560899157416e-05,0.2747645442561504,1.1759516021099749e-05,0.2747645442561504,-3.018881428194221e-06
0.2755586614360815,5.872859143544713e-06,0.2755586614360815,-2.16505959915564e-05,0.2755586614360815,-1.0229424167313584e-05,0.2755586614360815,-2.1644655555011837e-05
0.2763527786160125,5.87472e-06,0.2763527786160125,-1.3598046406184243e-05,0.2763527786160125,-2.2656136818348068e-05,0.2763527786160125,-2.43373512258207e-05
0.2771468957959436,-1.006196834308665e-06,0.2771468957959436,-4.1974635936042085e-06,0.2771468957959436,-1.963879650037151e-05,0.2771468957959436,-2.198860838626141e-05
0.2779410129758747,-6.5461172569262346e-06,0.2779410129758747,-1.8464277780336452e-06,0.2779410129758747,-1.7959993262873783e-05,0.2779410129758747,-1.8463446633071133e-05
0.2787351301558057,-6.378847804897685e-06,0.2787351301558057,-7.218235378272962e-06,0.2787351301558057,-2.3667800587002225e-05,0.2787351301558057,-2.1317175130358135e-05
0.2795292473357368,-9.904666615223696e-06,0.2795292473357368,-1.1582017764059651e-05,0.2795292473357368,-3.038174441014913e-05,0.2795292473357368,-2.2999686522626343e-05
0.2803233645156679,-1.4934574866221011e-05,0.2803233645156679,-1.292332663099227e-05,0.2803233645156679,-3.3735016577480675e-05,0.2803233645156679,-3.708342962541884e-05
0.2811174816955989,-1.1583791370118623e-05,0.2811174816955989,-1.56082469039051e-05,0.2811174816955989,-3.37377e-05,0.2811174816955989,-3.541729568505931e-05
0.2819115988755301,-5.542082673410819e-06,0.2819115988755301,-4.873056986740438e-06,0.2819115988755301,-4.380361218572224e-05,0.2819115988755301,-2.249832933639673e-05
0.2827057160554611,-5.53903e-06,0.2827057160554611,2.850678846774785e-06,0.2827057160554611,-3.843942080970685e-05,0.2827057160554611,-7.222982277570961e-06
0.2834998332353922,-8.224045944968026e-06,0.2834998332353922,8.396690431642598e-07,0.2834998332353922,-2.66904677591426e-05,0.2834998332353922,7.885737181518826e-06
0.2842939504153233,-1.4938180716595083e-05,0.2842939504153233,-5.538631681670843e-06,0.2842939504153233,-1.1582543382821246e-05,0.2842939504153233,8.22458903579853e-06
0.2850880675952543,-2.1317271518501174e-05,0.2850880675952543,-9.735474341657e-06,0.2850880675952543,2.5169397913742213e-06,0.2850880675952543,4.530543928662071e-06
0.2858821847751854,-2.567980631241977e-05,0.2858821847751854,-1.2254015588647975e-05,0.2858821847751854,-6.8841636614564265e-06,0.2858821847751854,-1.175127493288857e-05
0.2866763019551165,-2.0978394893940178e-05,0.2866763019551165,-1.6617610019283605e-05,0.2866763019551165,-1.6950504913223782e-05,0.2866763019551165,-1.9808431315374883e-05
0.2874704191350475,-1.3601196125810776e-05,0.2874704191350475,-1.795891888621622e-05,0.2874704191350475,-1.0914615012027e-05,0.2874704191350475,-2.567660766372836e-05
0.2882645363149786,-1.2253784176633131e-05,0.2882645363149786,-1.3598348574057684e-05,0.2882645363149786,-1.0239192088316566e-05,0.2882645363149786,-2.8364931646733733e-05
0.2890586534949096,-5.03862975745548e-06,0.2890586534949096,-1.124692550668992e-05,0.2890586534949096,-1.4265441988531566e-05,0.2890586534949096,-2.232653701720265e-05
0.2898527706748408,3.857960631095782e-06,0.2898527706748408,-1.0910296957753098e-05,0.2898527706748408,-2.04758062960088e-05,0.2898527706748408,-1.7793308915225703e-05
0.2906468878547718,1.2587467225924352e-05,0.2906468878547718,-1.4602378439944551e-05,0.2906468878547718,-1.5610687503920138e-05,0.2906468878547718,-7.890308720765156e-06
0.2914410050347029,1.963840638595626e-05,0.2914410050347029,-1.6281406385956257e-05,0.2914410050347029,1.0574431883456658e-05,0.2914410050347029,-1.8465039053228395e-06
0.292235122214634,2.064436321919684e-05,0.292235122214634,-1.7287931609598417e-05,0.292235122214634,-1.719827254406539e-07,0.292235122214634,-2.7705020949923514e-05
0.293029239394565,1.32572695522366e-05,0.293029239394565,-1.359509238580071e-05,0.293029239394565,-2.7028754387137783e-05,0.293029239394565,-9.21520305170222e-05
0.2938233565744961,3.868137450394309e-06,0.2938233565744961,-1.1247801868668627e-05,0.2938233565744961,-4.379511522379551e-05,0.2938233565744961,-0.0001015413923634
0.2946174737544272,4.531485010985431e-06,0.2946174737544272,-9.568522465908643e-06,0.2946174737544272,-3.2737942318740394e-05,0.2946174737544272,-4.988546415412182e-05
0.2954115909343582,-1.654276925532593e-07,0.2954115909343582,-5.541105405352529e-06,0.2954115909343582,-2.6691113123484676e-05,0.2954115909343582,-1.025920815091588e-05
0.2962057081142893,-8.389436515834925e-06,0.2962057081142893,-5.203453408102124e-06,0.2962057081142893,-2.182218939910008e-05,0.2962057081142893,8.55339917936636e-06
0.2969998252942204,-4.197153306843055e-06,0.2969998252942204,-5.538956135100504e-06,0.2969998252942204,-3.528855619419954e-06,0.2969998252942204,3.1382777211037816e-05
0.2977939424741515,-5.874598392239928e-06,0.2977939424741515,-1.510931859638484e-06,0.2977939424741515,-1.6809221559259606e-07,0.2977939424741515,4.8675047436231366e-05
0.2985880596540825,-1.174943783601505e-05,0.2985880596540825,-3.190073192704344e-06,0.2985880596540825,-1.4604488947343757e-05,0.2985880596540825,3.407128140253991e-05
0.2993821768340136,-1.2254570058874129e-05,0.2993821768340136,-1.561224291897747e-05,0.2993821768340136,-3.574988135287612e-05,0.2993821768340136,5.872402305178595e-06
0.3001762940139447,-1.930406563005304e-05,0.3001762940139447,-2.56809e-05,0.3001762940139447,-2.668638602986664e-05,0.3001762940139447,-4.530316036893385e-06
0.3009704111938757,-2.2992565125164285e-05,0.3009704111938757,-2.56809e-05,0.3009704111938757,-2.2327132212335628e-05,0.3009704111938757,-1.71081198263532e-07
0.3017645283738068,-1.829839156375344e-05,0.3017645283738068,-1.7628985580290728e-05,0.3017645283738068,-4.542498210429236e-06,0.3017645283738068,1.9626635332723373e-05
0.3025586455537379,-4.87362432465282e-06,0.3025586455537379,-1.62819994338045e-05,0.3025586455537379,3.0029564655423133e-05,0.3025586455537379,3.574470683898659e-05
0.3033527627336689,1.1731343344913444e-06,0.3033527627336689,-2.567809120292382e-05,0.3033527627336689,3.205859810850887e-05,0.3033527627336689,2.6690708511710063e-05
0.3041468799136,7.887894563618459e-06,0.3041468799136,-3.105128764726495e-05,0.3041468799136,3.1723550772045946e-05,0.3041468799136,1.8632518513978343e-05
0.3049409970935311,1.0406690783528552e-05,0.3049409970935311,-3.7262477266581294e-05,0.3049409970935311,3.743037910966328e-05,0.3049409970935311,1.057452949224008e-05
0.3057351142734621,1.8631010113844395e-05,0.3057351142734621,-3.8605565736172034e-05,0.3057351142734621,4.2128943826659054e-05,0.3057351142734621,-1.6284878619475114e-05
0.3065292314533932,1.6616073773502147e-05,0.3065292314533932,-4.044998963220812e-05,0.3065292314533932,3.339730877452605e-05,0.3065292314533932,-4.045355692582729e-05
0.3073233486333243,1.3095088053327051e-05,0.3073233486333243,-3.4581713394900784e-05,0.3073233486333243,1.730170226028695e-05,0.3073233486333243,-4.682467415480422e-05
0.3081174658132554,1.158261630037332e-05,0.3081174658132554,-1.4448551052885876e-05,0.3081174658132554,-2.3974620338220063e-05,0.3081174658132554,-5.68941244399181e-05
0.3089115829931864,2.5225003165961383e-06,0.3089115829931864,-7.221310602439392e-06,0.3089115829931864,-5.805790473556443e-05,0.3089115829931864,-6.79730818621148e-05
0.3097057001731175,-6.878270578374004e-06,0.3097057001731175,-7.049733382798761e-06,0.3097057001731175,-7.753894763310528e-05,0.3097057001731175,-7.301249851603716e-05
0.3104998173530486,-1.4265501111911957e-05,0.3104998173530486,-1.5119141649158612e-06,0.3104998173530486,-0.0001012075558556,0.3104998173530486,-6.66376672025005e-05
0.3112939345329796,-2.232323570762854e-05,0.3112939345329796,4.8671040978186975e-06,0.3112939345329796,-0.000130416591902,0.3112939345329796,-7.234252946197507e-05
0.3120880517129107,-1.4267025087917872e-05,0.3120880517129107,7.721015339974334e-06,0.3120880517129107,-0.0001055741577047,0.3120880517129107,-6.361330393376355e-05
0.3128821688928418,-1.1583456587534004e-05,0.3128821688928418,6.881034524912917e-06,0.3128821688928418,-6.193011618654065e-05,0.3128821688928418,-3.910461558850036e-05
0.3136762860727728,-2.030798802585191e-05,0.3136762860727728,3.188415210340763e-06,0.3136762860727728,-3.2381370654200373e-05,0.3136762860727728,-1.8954678611776973e-05
0.314470403252704,-1.527807977485424e-05,0.314470403252704,1.1764519099416953e-06,0.314470403252704,5.175107808694688e-06,0.314470403252704,1.524859760605373e-05
0.315264520432635,-8.899862417793975e-06,0.315264520432635,-2.3477610410136984e-06,0.315264520432635,8.222785179737424e-06,0.315264520432635,4.8488326965031886e-05
0.3160586376125661,-1.0238187140777885e-05,0.3160586376125661,-9.56411587084146e-06,0.3160586376125661,3.191438225505985e-06,0.3160586376125661,4.397856839245802e-05
0.3168527547924971,-9.903203672743969e-06,0.3168527547924971,-1.862850083900116e-05,0.3168527547924971,-6.207517175521961e-06,0.3168527547924971,3.944599956660227e-05
0.3176468719724282,-2.8545767139188637e-06,0.3176468719724282,-1.896694587045864e-05,0.3176468719724282,-5.044681976883394e-07,0.3176468719724282,3.8773308259082725e-05
0.3184409891523593,-8.22453661898972e-06,0.3184409891523593,-2.165256330928993e-05,0.3184409891523593,1.1749170684701506e-06,0.3184409891523593,1.1917666905734502e-05
0.3192351063322903,-1.577777752826408e-05,0.3192351063322903,-2.165181324818713e-05,0.3192351063322903,3.862957666628777e-06,0.3192351063322903,-3.522941821093874e-06
0.3200292235122214,-1.5608301141239963e-05,0.3200292235122214,-1.5776053964698124e-05,0.3200292235122214,2.1989810071059937e-05,0.3200292235122214,1.057393371562097e-05
0.3208233406921525,-9.572421228938524e-06,0.3208233406921525,-9.572560388506836e-06,0.3208233406921525,2.735494564983696e-05,0.3208233406921525,8.561980404117389e-06
0.3216174578720835,-2.1870825884764405e-06,0.3216174578720835,-8.896468418996351e-06,0.3216174578720835,3.0378637114516417e-05,0.3216174578720835,-5.529403242043471e-06
0.3224115750520147,-7.885855689031648e-06,0.3224115750520147,-9.902561006465346e-06,0.3224115750520147,-1.4935717875547573e-06,0.3224115750520147,-3.0367404763705296e-05
0.3232056922319457,-7.721135057670311e-06,0.3232056922319457,-7.889690734681636e-06,0.3232056922319457,-2.0302513122298493e-05,0.3232056922319457,-4.313235532246722e-05
0.3239998094118768,-7.5532602899451935e-06,0.3239998094118768,-3.525877533774327e-06,0.3239998094118768,-5.118658669809144e-05,0.3239998094118768,-6.126064870992263e-05
0.3247939265918079,-1.7623268901215568e-05,0.3247939265918079,-1.6815936512121573e-07,0.3247939265918079,-7.871875500084712e-05,0.3247939265918079,-9.785271701952233e-05
0.3255880437717389,-2.0981329540090933e-05,0.3255880437717389,8.392645061840516e-07,0.3255880437717389,-6.19364e-05,0.3255880437717389,-0.0001012110938455
0.32638216095167,-2.33307958508478e-05,0.32638216095167,1.1752121988696034e-06,0.32638216095167,-6.193442655819538e-05,0.32638216095167,-6.662806808917709e-05
0.3271762781316011,-2.23233128099632e-05,0.3271762781316011,2.516095776935672e-06,0.3271762781316011,-5.218653688942684e-05,0.3271762781316011,-2.6507457269502203e-05
0.3279703953115321,-2.064677661525088e-05,0.3279703953115321,-2.1784652795378e-06,0.3279703953115321,-1.0606161792422572e-05,0.3279703953115321,9.875395912614888e-06
0.3287645124914632,-2.3664845011597904e-05,0.3287645124914632,-2.853027766710854e-06,0.3287645124914632,1.7271392379899505e-05,0.3287645124914632,4.4123376163652606e-05
0.3295586296713942,-2.031136568777904e-05,0.3295586296713942,-5.537777417128148e-06,0.3295586296713942,4.513840449759639e-05,0.3295586296713942,6.528353591979535e-05
0.3303527468513254,-5.87932229391717e-06,0.3303527468513254,-1.577453560320481e-05,0.3303527468513254,7.904618997770445e-05,0.3303527468513254,5.589679684670288e-05
0.3311468640312564,1.7284533408159855e-05,0.3311468640312564,-3.239205440024026e-05,0.3311468640312564,7.939264251296319e-05,0.3311468640312564,2.3336576225445876e-05
0.3319409812111875,2.5345009350345444e-05,0.3319409812111875,-5.5557551877806255e-05,0.3319409812111875,7.06647065396893e-05,0.3319409812111875,-4.866962721949632e-06
0.3327350983911186,4.045228237876576e-05,0.3327350983911186,-6.260530405028785e-05,0.3327350983911186,5.287025364649825e-05,0.3327350983911186,-1.29243168012632e-05
0.3335292155710496,4.514766788214016e-05,0.3335292155710496,-4.245861779301693e-05,0.3335292155710496,3.474270635769656e-05,0.3335292155710496,-1.225468400307745e-05
0.3343233327509807,3.139935188503427e-05,0.3343233327509807,-1.5632540343318014e-05,0.3343233327509807,2.7030180372834003e-05,0.3343233327509807,-1.8458187568164083e-05
0.3351174499309118,1.5285463146414466e-05,0.3351174499309118,-8.900661332944131e-06,0.3351174499309118,-6.1873959923346366e-06,0.3351174499309118,-2.5675899844276763e-05
0.3359115671108428,1.0241545356864906e-05,0.3359115671108428,-8.224976047581987e-06,0.3359115671108428,-2.8354420495218465e-05,0.3359115671108428,-2.467434907137298e-05
0.3367056842907739,7.554287836754933e-06,0.3367056842907739,-1.4264797353384747e-05,0.3367056842907739,-3.0044332597057933e-05,0.3367056842907739,-3.776089425705188e-05
0.337499801470705,5.875139686929048e-06,0.337499801470705,-5.541212364529938e-06,0.337499801470705,-3.239431243829933e-05,0.337499801470705,-2.635515387111752e-05
0.338293918650636,-2.516880149518065e-06,0.338293918650636,2.5169145426767217e-06,0.338293918650636,-4.6660638252336525e-05,0.338293918650636,-1.9303422267601803e-05
0.3390880358305671,-2.1317521105281704e-05,0.3390880358305671,-1.51076876621342e-06,0.3390880358305671,-7.889100118162456e-05,0.3390880358305671,-4.649601787781232e-05
0.3398821530104982,-3.508179384443957e-05,0.3398821530104982,-4.362915545785634e-06,0.3398821530104982,-0.0001210287685833,0.3398821530104982,-8.678599235472719e-05
0.3406762701904293,-4.179313089921331e-05,0.3406762701904293,1.6796879597897378e-06,0.3406762701904293,-0.0001717088590826,0.3406762701904293,-0.0001277275238007
0.3414703873703603,-3.7769204298415726e-05,0.3414703873703603,5.200613746592269e-06,0.3414703873703603,-0.0001683555869153,0.3414703873703603,-0.0001116324167313
0.3422645045502914,-3.877257157758001e-05,0.3422645045502914,8.558215271079893e-06,0.3422645045502914,-0.0001670108380213,0.3422645045502914,-5.659955375895918e-05
0.3430586217302225,-3.508225924031156e-05,0.3430586217302225,1.3928941109765472e-05,0.3430586217302225,-0.0001441938750178,0.3430586217302225,5.173902836146487e-06
0.3438527389101535,-2.2999273958454027e-05,0.3438527389101535,1.1246783101878674e-05,0.3438527389101535,-5.1224577435431904e-05,0.3438527389101535,5.9233027650322265e-05
0.3446468560900846,-8.227287139480988e-06,0.3446468560900846,9.90334337812892e-06,0.3446468560900846,2.8016440762892368e-05,0.3446468560900846,0.0001018762728712
0.3454409732700157,-7.217553903652229e-06,0.3454409732700157,-5.031976605321629e-07,0.3454409732700157,6.025681507572236e-05,0.3454409732700157,0.0001381387794429
0.3462350904499467,6.547879123877551e-06,0.3462350904499467,-1.1247582631018298e-05,0.3462350904499467,0.0001196795621029,0.3462350904499467,0.0001576019692978
0.3470292076298778,2.198602045899394e-05,0.3470292076298778,-2.6018791866351984e-05,0.3470292076298778,0.0001421541475352,0.3470292076298778,8.709363490791266e-05
0.3478233248098089,1.3267512823931922e-05,0.3478233248098089,-3.4401972284680845e-05,0.3478233248098089,8.917294673616914e-05,0.3478233248098089,9.968674726147468e-06
0.34861744198974,2.0640309661241567e-05,0.34861744198974,-3.0383531093868235e-05,0.34861744198974,5.9607261214477e-05,0.34861744198974,-3.285023396296534e-07
0.349411559169671,2.299399538651512e-05,0.349411559169671,-2.87031319064322e-05,0.349411559169671,5.690239105029152e-05,0.349411559169671,-1.679421900880177e-07
0.3502056763496021,4.371674460662243e-06,0.3502056763496021,-2.836663683808384e-05,0.3502056763496021,3.978727870151359e-05,0.3502056763496021,-3.103951095702255e-05
0.3509997935295332,-1.2919904331819264e-05,0.3509997935295332,-2.903772541023753e-05,0.3509997935295332,4.3472039756306455e-05,0.3509997935295332,-3.675751598701906e-05
0.3517939107094642,-9.90343976510786e-06,0.3517939107094642,-3.239452248321349e-05,0.3517939107094642,6.898313089491385e-05,0.3517939107094642,-3.575201325503595e-05
0.3525880278893953,-5.539713903822991e-06,0.3525880278893953,-4.347309432867911e-05,0.3525880278893953,6.260593694659174e-05,0.3525880278893953,-5.186606032182884e-05
0.3533821450693264,-2.500986800835934e-05,0.3533821450693264,-4.615647597229432e-05,0.3533821450693264,9.560724549519638e-06,0.3533821450693264,-7.066735205564953e-05
0.3541762622492574,-2.7018606063825307e-05,0.3541762622492574,-3.507496310998513e-05,0.3541762622492574,-2.703643488991772e-05,0.3541762622492574,-8.627854193729794e-05
0.3549703794291886,-1.1593653983052571e-05,0.3549703794291886,-1.8308702162279687e-05,0.3549703794291886,-6.559896492527974e-05,0.3549703794291886,-9.85179354035822e-05
0.3557644966091196,-8.56222547837903e-06,0.3557644966091196,-8.230994942723279e-06,0.3557644966091196,-0.000101526227015,0.3557644966091196,-8.64500618754765e-05
0.3565586137890507,-7.889236576865721e-06,0.3565586137890507,-5.2047995861675055e-06,0.3565586137890507,-0.0001142987953313,0.3565586137890507,-6.127724658382334e-05
0.3573527309689818,-1.5128011492095212e-06,0.3573527309689818,-3.860984980920931e-06,0.3573527309689818,-9.28278795592029e-05,0.3573527309689818,-4.7841549809209314e-05
0.3581468481489128,-1.846275797972348e-06,0.3581468481489128,-2.8536326041704745e-06,0.3581468481489128,-5.72434053766815e-05,0.3581468481489128,-3.441166806198127e-05
0.3589409653288439,-1.679222937323614e-07,0.3589409653288439,4.195922165983485e-06,0.3589409653288439,-4.179517430158666e-05,0.3589409653288439,-3.239498795295043e-05
0.3597350825087749,-7.889503033378493e-06,0.3597350825087749,1.1917020926019086e-05,0.3597350825087749,-4.246827212727905e-05,0.3597350825087749,-3.273199536470881e-05
0.360529199688706,-1.3597739391784204e-05,0.360529199688706,9.23052950567671e-06,0.360529199688706,-6.529643554463112e-05,0.360529199688706,-4.615909024967345e-05
0.3613233168686371,-2.1310265376646755e-05,0.3613233168686371,4.535968449203235e-06,0.3613233168686371,-7.736811545807123e-05,0.3613233168686371,-4.8506380766805536e-05
0.3621174340485681,-3.406430735586884e-05,0.3621174340485681,6.54468431522106e-06,0.3621174340485681,-7.301751066579806e-05,0.3621174340485681,-5.857222154046604e-05
0.3629115512284993,-3.910605391827208e-05,0.3629115512284993,5.707344346954654e-06,0.3629115512284993,-6.59686845144191e-05,0.3629115512284993,-6.193450261218139e-05
0.3637056684084303,-2.1659890128359226e-05,0.3637056684084303,3.8613010715097e-06,0.3637056684084303,-4.9857929346042194e-05,0.3637056684084303,-2.267600284101096e-05
0.3644997855883614,-1.695406913327348e-05,0.3644997855883614,-1.5091895700743629e-06,0.3644997855883614,-1.0249496926439914e-05,0.3644997855883614,3.808539200083342e-05
0.3652939027682925,-1.7624117781651852e-05,0.3652939027682925,-9.566423383495988e-06,0.3652939027682925,4.480895813218944e-05,0.3652939027682925,8.442252695846952e-05
0.3660880199482235,-8.560175056297594e-06,0.3660880199482235,-1.62815939801433e-05,0.3660880199482235,8.308507950691671e-05,0.3660880199482235,9.11416698670585e-05
0.3668821371281546,-3.187748551634495e-06,0.3668821371281546,-2.4001762267728325e-05,0.3668821371281546,7.03241618560522e-05,0.3668821371281546,7.402271752185334e-05
0.3676762543080857,4.871388471979498e-06,0.3676762543080857,-2.0310229540751543e-05,0.3676762543080857,4.344669072493311e-05,0.3676762543080857,8.105928030812147e-05
0.3684703714880167,1.6607811090953873e-05,0.3684703714880167,-2.165153840768417e-05,0.3684703714880167,-3.8708177707829385e-05,0.3684703714880167,4.3838159028648224e-05
0.3692644886679478,9.236466154439543e-06,0.3692644886679478,-1.762679426957063e-05,0.3692644886679478,-0.0001048634108056,0.3692644886679478,-1.708136183374294e-05
0.3700586058478789,5.540863095282838e-06,0.3700586058478789,-1.1584599626709078e-05,0.3700586058478789,-7.269469805875641e-05,0.3700586058478789,-4.916388538831104e-05
0.3708527230278099,1.1243909264128414e-05,0.3708527230278099,-2.185318862365731e-06,0.3708527230278099,-4.4154353661916346e-05,0.3708527230278099,-8.139565817321802e-05
0.371646840207741,1.3595327083338315e-05,0.371646840207741,-3.524559763920106e-06,0.371646840207741,9.892222957031194e-06,0.371646840207741,-9.046887591300133e-05
0.3724409573876721,1.124602611424362e-05,0.3724409573876721,-8.224357772586115e-06,0.3724409573876721,5.622701375850219e-05,0.3724409573876721,-6.865147105546683e-05
0.3732350745676032,1.9304276334714117e-05,0.3732350745676032,-5.036283932676389e-06,0.3732350745676032,9.114370788977038e-05,0.3732350745676032,-1.2249752749925442e-05
0.3740291917475342,3.608630451024415e-05,0.3740291917475342,-1.3600050813701817e-05,0.3740291917475342,0.0001082565225271,0.3740291917475342,2.2326976788170164e-05
0.3748233089274653,3.072106904251367e-05,0.3748233089274653,-3.1204679747715704e-05,0.3748233089274653,8.14302452994957e-05,0.3748233089274653,3.506941102403003e-05
0.3756174261073964,1.9310949670037504e-05,0.3756174261073964,-4.044502745044243e-05,0.3756174261073964,5.7086291326152494e-05,0.3756174261073964,4.950506657464351e-05
0.3764115432873274,2.7354765746865123e-05,0.3764115432873274,-5.303315891836124e-05,0.3764115432873274,3.878372366083249e-05,0.3764115432873274,5.035431723054649e-05
0.3772056604672585,3.138607736310356e-05,0.3772056604672585,-5.606030806508998e-05,0.3772056604672585,-1.6928970275123936e-05,0.3772056604672585,2.370418008434133e-06
0.3779997776471896,1.997729630764724e-05,0.3779997776471896,-5.555824100080608e-05,0.3779997776471896,-7.165627647486025e-05,0.3779997776471896,4.53131893863177e-06
0.3787938948271206,5.876587597470593e-06,0.3787938948271206,-3.575452352025564e-05,0.3787938948271206,-6.730807806670375e-05,0.3787938948271206,1.1916321737244376e-05
0.3795880120070517,-2.853490765028408e-06,0.3795880120070517,-2.0645337550941276e-05,0.3795880120070517,-7.536434568879777e-05,0.3795880120070517,-1.3763612692088825e-05
0.3803821291869828,-6.211403151988325e-06,0.3803821291869828,-9.902608425632878e-06,0.3803821291869828,-7.837516767929457e-05,0.3803821291869828,-1.4604047014449474e-05
0.3811762463669139,-1.2255080638314116e-05,0.3811762463669139,-6.883952632579283e-06,0.3811762463669139,-1.4252843657611706e-05,0.3811762463669139,-2.165676124563868e-05
0.3819703635468449,-1.896162497297721e-05,0.3819703635468449,-1.3758090653341536e-05,0.3819703635468449,3.202211247365672e-05,0.3819703635468449,-3.506975002601141e-05
0.382764480726776,-2.433458731937872e-05,0.382764480726776,-1.5608792460855482e-05,0.382764480726776,3.709140680060538e-05,0.382764480726776,-3.5415980453373694e-05
0.3835585979067071,-2.5680219986305185e-05,0.3835585979067071,-1.0912580047931858e-05,0.3835585979067071,2.1324890110272623e-05,0.3835585979067071,-3.675831998630518e-05
0.3843527150866381,-1.4942454691192663e-05,0.3843527150866381,-5.876526896140198e-06,0.3843527150866381,-1.5596749411559682e-05,0.3843527150866381,-4.581954760991295e-05
0.3851468322665692,-7.554780170182413e-06,0.3851468322665692,-1.8471909999972152e-06,0.3851468322665692,-4.195673304573387e-05,0.3851468322665692,-6.193299598311105e-05
0.3859409494465003,1.174384283332962e-06,0.3859409494465003,5.874228404780709e-06,0.3859409494465003,-9.147464737806974e-05,0.3859409494465003,-6.730715802531229e-05
0.3867350666264313,-1.511090708508384e-06,0.3867350666264313,5.539001830613336e-06,0.3867350666264313,-0.0001136360845513,0.3867350666264313,-4.984963661162698e-05
0.3875291838063624,-6.883837981152508e-06,0.3875291838063624,5.204804674977557e-06,0.3875291838063624,-0.0001384791820464,0.3875291838063624,-3.121592523258824e-05
0.3883233009862935,-1.5602325638424446e-05,0.3883233009862935,1.15759918262219e-05,0.3883233009862935,-0.0001522268987098,0.3883233009862935,-1.3611296298573116e-05
0.3891174181662246,-2.835715218821617e-05,0.3891174181662246,5.878901933924895e-06,0.3891174181662246,-0.0001002441291647,0.3891174181662246,4.932161651410071e-07
0.3899115353461556,-3.440556383209088e-05,0.3899115353461556,7.88773128321569e-06,0.3899115353461556,-5.810045486069652e-05,0.3899115353461556,-9.5615164113968e-06
0.3907056525260867,-2.9040250569122e-05,0.3907056525260867,1.5271067971833498e-05,0.3907056525260867,-3.509056330840988e-05,0.3907056525260867,-3.808931264967808e-05
0.3914997697060178,-2.836669473473509e-05,0.3914997697060178,1.0575863143145624e-05,0.3914997697060178,3.178040166506774e-06,0.3914997697060178,-5.421062639536215e-05
0.3922938868859488,-3.239432611002071e-05,0.3922938868859488,-1.6631863398740977e-07,0.3922938868859488,5.756455251947025e-05,0.3922938868859488,-4.918051736247411e-05
0.3930880040658799,-2.6352241553231523e-05,0.3930880040658799,-3.5248231239005547e-06,0.3930880040658799,8.073557391810745e-05,0.3930880040658799,-1.292433123875975e-05
0.393882121245811,-1.49386e-05,0.393882121245811,-2.183577861099208e-06,0.393882121245811,9.516486118411373e-05,0.393882121245811,5.024202356011207e-07
0.394676238425742,-1.4936183718553532e-05,0.394676238425742,-1.2254711536939925e-05,0.394676238425742,5.8236954560874486e-05,0.394676238425742,-6.8799071141704105e-06
0.3954703556056732,-6.888350494747955e-06,0.3954703556056732,-1.795527422140395e-05,0.3954703556056732,3.5770130928705016e-05,0.3954703556056732,-5.087179651469955e-07
0.3962644727856042,1.35822029016943e-05,0.3962644727856042,-1.4437340526478066e-05,0.3962644727856042,5.219017776443502e-05,0.3962644727856042,1.05671441985108e-05
0.3970585899655353,1.0576060248272347e-05,0.3970585899655353,-2.36619326005442e-05,0.3970585899655353,2.4688015543728656e-05,0.3970585899655353,2.186374002322094e-06
0.3978527071454664,2.5207116104437223e-06,0.3978527071454664,-4.212339002558998e-05,0.3978527071454664,-3.237385109883754e-05,0.3978527071454664,-4.5133941797864e-05
0.3986468243253974,-8.385032579581179e-07,0.3986468243253974,-3.474643403930672e-05,0.3986468243253974,-5.622422653163539e-05,0.3986468243253974,-4.448014854902789e-05
0.3994409415053285,8.559617526523398e-06,0.3994409415053285,-1.8968162364266904e-05,0.3994409415053285,-5.5222474193934086e-05,0.3994409415053285,-1.326239999722244e-05
0.4002350586852595,1.7959354138393183e-05,0.4002350586852595,-1.4267386085488596e-05,0.4002350586852595,-5.25364030097405e-05,0.4002350586852595,-2.3834054138393183e-05
0.4010291758651906,1.0574574261565405e-05,0.4010291758651906,-1.6785679757497435e-05,0.4010291758651906,-4.716337217515932e-05,0.4010291758651906,-1.6438840566929813e-05
0.4018232930451217,1.0909901478298556e-05,0.4018232930451217,-2.030666547767228e-05,0.4018232930451217,-3.710365556211814e-05,0.4018232930451217,3.033905644496162e-05
0.4026174102250527,1.014455919747787e-06,0.4026174102250527,-1.7961645481295285e-05,0.4026174102250527,-2.1831745591279863e-05,0.4026174102250527,5.855845429873555e-05
0.4034115274049838,-9.896606163545488e-06,0.4034115274049838,-1.1585396414094869e-05,0.4034115274049838,-4.715051433853578e-05,0.4034115274049838,7.199930760879475e-05
0.4042056445849149,-1.2251948123541006e-05,0.4042056445849149,-3.86398615207934e-06,0.4042056445849149,-8.743146787689414e-05,0.4042056445849149,4.415687215991714e-05
0.404999761764846,-1.963618405301422e-05,0.404999761764846,-4.363928912705515e-06,0.404999761764846,-9.583938190842967e-05,0.404999761764846,-1.1613421915034229e-06
0.4057938789447771,-2.567997874535972e-05,0.4057938789447771,-1.6279583055630996e-05,0.4057938789447771,-7.671001733939442e-05,0.4057938789447771,-2.1649477924816373e-05
0.4065879961247081,-2.702369344616887e-05,0.4065879961247081,-1.527430491537335e-05,0.4065879961247081,-5.421540977618335e-05,0.4065879961247081,-3.054855658111281e-05
0.4073821133046392,-1.963744190510404e-05,0.4073821133046392,-6.8803349600463104e-06,0.4073821133046392,-3.3059784983247664e-05,0.4073821133046392,-1.6951746097041453e-05
0.4081762304845703,-1.2926054531313646e-05,0.4081762304845703,3.525997901557515e-06,0.4081762304845703,1.2596680651462292e-05,0.4081762304845703,-9.563419677168033e-06
0.4089703476645013,-1.8626617215777275e-05,0.4089703476645013,7.549914513460023e-06,0.4089703476645013,4.009341253462751e-05,0.4089703476645013,4.184936275519236e-06
0.4097644648444324,-6.554265404738333e-06,0.4097644648444324,-1.0013303489820056e-06,0.4097644648444324,6.69537991380259e-05,0.4097644648444324,1.962799198582991e-05
0.4105585820243635,2.8484919054486984e-06,0.4105585820243635,-2.063516199906844e-05,0.4105585820243635,5.489306186292458e-05,0.4105585820243635,-1.5591444619111734e-05
0.4113526992042945,-8.378470779717978e-07,0.4113526992042945,-2.2323264161823637e-05,0.4113526992042945,3.575914894919991e-05,0.4113526992042945,-3.373083257643606e-05
0.4121468163842256,-4.866698419587417e-06,0.4121468163842256,-1.98067822285077e-05,0.4121468163842256,2.803258553621591e-05,0.4121468163842256,-1.5614192105381512e-05
0.4129409335641567,1.6742766965536697e-07,0.4129409335641567,-1.628169492828761e-05,0.4129409335641567,1.9303430300609134e-05,0.4129409335641567,6.208594234252857e-06
0.4137350507440878,5.874248005848846e-06,0.4137350507440878,-1.4267242908791593e-05,0.4137350507440878,5.28707407459356e-05,0.4137350507440878,-1.2257548312736111e-05
0.4145291679240188,-1.5120581595281558e-06,0.4145291679240188,-1.4938670908293246e-05,0.4145291679240188,2.5342009147926468e-05,0.4145291679240188,-8.342762345736601e-05
0.4153232851039499,-8.218572527504743e-06,0.4153232851039499,-1.5273998125026377e-05,0.4153232851039499,1.025238428388902e-05,0.4153232851039499,-0.000114277227952
0.416117402283881,-1.5268993056238197e-05,0.416117402283881,-2.191895736569256e-06,0.416117402283881,1.6276851184608814e-05,0.416117402283881,-7.740629793988392e-05
0.416911519463812,-2.0642249299782457e-05,0.416911519463812,1.8439019869410289e-06,0.416911519463812,-2.095864832776172e-05,0.416911519463812,-3.745457696182612e-05
0.4177056366437431,-1.628339713229321e-05,0.4177056366437431,-1.669272516678064e-07,0.4177056366437431,-5.386454478654593e-05,0.4177056366437431,4.861883811645715e-07
0.4184997538236742,-1.7284493801041474e-07,0.4184997538236742,-4.530576935231817e-06,0.4184997538236742,-6.663224487038124e-05,0.4184997538236742,-2.1812073448534394e-06
0.4192938710036052,7.71978833487489e-06,0.4192938710036052,-1.1580454682601946e-05,0.4192938710036052,-5.05252178794788e-05,0.4192938710036052,9.90113660013874e-06
0.4200879881835363,6.546137485836297e-06,0.4200879881835363,-7.217584947094318e-06,0.4200879881835363,8.559430716547739e-06,0.4200879881835363,4.78364354602617e-05
0.4208821053634674,1.5945343622004803e-05,0.4208821053634674,-1.3597336873469304e-05,0.4208821053634674,3.977713715856259e-05,0.4208821053634674,7.032318707311557e-05
0.4216762225433985,1.3254790598788929e-05,0.4216762225433985,-2.517716505575553e-05,0.4216762225433985,1.5932543962096333e-05,0.4216762225433985,2.802967233480948e-05
0.4224703397233295,-5.691117235471543e-06,0.4224703397233295,-2.4338797069445924e-05,0.4224703397233295,-3.101306660263839e-05,0.4224703397233295,2.4005745734011623e-05
0.4232644569032606,-2.029981158228202e-05,0.4232644569032606,-9.912973553441606e-06,0.4232644569032606,-0.0001189448401344,0.4232644569032606,4.144685980614492e-05
0.4240585740831917,-2.2993859446361777e-05,0.4240585740831917,-1.225173946862988e-05,0.4240585740831917,-0.0001451759538644,0.4240585740831917,1.6630425563699363e-05
0.4248526912631227,-1.2928315942338662e-05,0.4248526912631227,-2.383009664103611e-05,0.4248526912631227,-0.0001062641417162,0.4248526912631227,-3.2040272835192533e-05
0.4256468084430538,-3.191488685989252e-06,0.4256468084430538,-2.8365406653747853e-05,0.4256468084430538,-4.248128803003936e-05,0.4256468084430538,-3.776472317841824e-05
0.4264409256229849,-2.517802892604458e-06,0.4264409256229849,-2.433847735562675e-05,0.4264409256229849,1.7954239684333536e-05,0.4264409256229849,-2.702470628167133e-05
0.4272350428029159,-5.539183822575027e-06,0.4272350428029159,-1.5610063336455917e-05,0.4272350428029159,6.831571295667765e-05,0.4272350428029159,-8.89611858086317e-06
0.428029159982847,-8.39134534818952e-06,0.428029159982847,-1.6785744447825124e-05,0.428029159982847,8.896026887749084e-05,0.428029159982847,-1.091317240080322e-05
0.4288232771627781,-2.8584762387781194e-06,0.4288232771627781,-2.0977384601466576e-05,0.4288232771627781,8.979853697484707e-05,0.4288232771627781,-2.56674700481096e-05
0.4296173943427092,3.001990531480782e-05,0.4296173943427092,-3.205074978404572e-05,0.4296173943427092,8.409685310456833e-05,0.4296173943427092,-9.159538254148936e-05
0.4304115115226402,3.071598694748192e-05,0.4304115115226402,-3.239469347374096e-05,0.4304115115226402,3.8465587448187546e-05,0.4304115115226402,-9.16457e-05
0.4312056287025713,1.5281521173832174e-05,0.4312056287025713,-1.4275677038283489e-05,0.4312056287025713,1.7633932902734804e-05,0.4312056287025713,-4.852857225260492e-05
0.4319997458825024,1.124718927824601e-05,0.4319997458825024,-1.1791301414976457e-06,0.4319997458825024,1.8630977680438496e-05,0.4319997458825024,-3.4413612441856314e-05
0.4327938630624334,5.54001423789735e-06,0.4327938630624334,-2.1818663100462385e-06,0.4327938630624334,-8.891262490119078e-06,0.4327938630624334,-2.56824053129326e-05
0.4335879802423645,-5.538754337190676e-06,0.4335879802423645,-7.217394698768276e-06,0.4335879802423645,-8.140509566281064e-05,0.4335879802423645,-4.313686562067143e-05
0.4343820974222956,-1.0910962004313245e-05,0.4343820974222956,-1.0239788554094895e-05,0.4343820974222956,-9.550488194014328e-05,0.4343820974222956,-9.147920050071368e-05
0.4351762146022266,-1.712354509838146e-05,0.4351762146022266,-1.8295464058262463e-05,0.4351762146022266,-8.477232755091373e-05,0.4351762146022266,-0.0001028853847446
0.4359703317821577,-2.8021629697733015e-05,0.4359703317821577,-1.7792423288685968e-05,0.4359703317821577,-0.000115957758707,0.4359703317821577,-7.840619825626254e-05
0.4367644489620888,-3.0379069163743697e-05,0.4367644489620888,-1.1250443009156722e-05,0.4367644489620888,-0.0001391309248222,0.4367644489620888,-4.400037999822407e-05
0.4375585661420199,-2.970966686681088e-05,0.4375585661420199,1.1681529967839852e-06,0.4375585661420199,-0.0001156608403383,0.4375585661420199,-2.468434739349173e-05
0.438352683321951,-4.044741551350926e-05,0.438352683321951,1.3926412188245807e-05,0.438352683321951,-0.0001532310044568,0.438352683321951,-1.1586821678026696e-05
0.439146800501882,-3.575308085800357e-05,0.439146800501882,1.6952040876997706e-05,0.439146800501882,-0.0001223697598235,0.439146800501882,-4.380060271310122e-05
0.4399409176818131,-2.6017609310132566e-05,0.4399409176818131,-1.6607401160603584e-07,0.4399409176818131,-9.1481001928651e-05,0.4399409176818131,-5.253589511162799e-05
0.4407350348617442,-2.9708857822242063e-05,0.4407350348617442,-9.567085734408232e-06,0.4407350348617442,-8.073110767488666e-05,0.4407350348617442,-4.179029928715105e-05
0.4415291520416752,-1.963397009271271e-05,0.4415291520416752,-2.181783194151854e-06,0.4415291520416752,1.9327353375956745e-05,0.4415291520416752,5.3903932290713246e-05
0.4423232692216063,3.5035379396075387e-06,0.4423232692216063,-8.404803205564437e-07,0.4423232692216063,0.0001480925051567,0.4423232692216063,0.0001809920484319
0.4431173864015373,1.3923457787514716e-05,0.4431173864015373,-8.554343207808024e-06,0.4431173864015373,0.0002166400775189,0.4431173864015373,0.0001891597735984
0.4439115035814684,2.668002447985248e-05,0.4439115035814684,-2.432823553231464e-05,0.4439115035814684,0.0001958930125426,0.4439115035814684,0.0001413589082787
0.4447056207613995,5.151783484692541e-05,0.4447056207613995,-3.27265914862035e-05,0.4447056207613995,0.0001730639028709,0.4447056207613995,7.875120334575125e-05
0.4454997379413306,3.877741026626776e-05,0.4454997379413306,-4.64896573416844e-05,0.4454997379413306,0.0001505684234554,0.4454997379413306,5.2275945105761945e-06
0.4462938551212617,2.19913626890871e-05,0.4462938551212617,-5.320697491706649e-05,0.4462938551212617,7.772749213158196e-05,0.4462938551212617,-3.104548458317839e-05
0.4470879723011927,2.030985855472036e-05,0.4470879723011927,-3.608819725465916e-05,0.4470879723011927,5.541547841463363e-06,0.4470879723011927,-2.1317239613889568e-05
0.4478820894811238,1.9301451536596183e-05,0.4478820894811238,-3.608862145971007e-05,0.4478820894811238,-5.85819347500504e-05,0.4478820894811238,6.381428980061865e-06
0.4486762066610549,8.22417367482515e-06,0.4486762066610549,-4.515131273444513e-05,0.4486762066610549,-8.1063084329392e-05,0.4486762066610549,3.441267786175465e-05
0.4494703238409859,6.547547580054722e-06,0.4494703238409859,-4.481598551771197e-05,0.4494703238409859,-4.987775306216209e-05,0.4494703238409859,4.816099385886054e-05
0.450264441020917,2.3319183379306028e-05,0.450264441020917,-4.0622454141093416e-05,0.450264441020917,-4.381295394346241e-05,0.450264441020917,-1.6571487729227835e-05
0.4510585582008481,1.5278782925978462e-05,0.4510585582008481,-4.212935941312502e-05,0.4510585582008481,-5.957772088330173e-05,0.4510585582008481,-9.646884398816383e-05
0.4518526753807791,5.878562927375062e-06,0.4518526753807791,-3.3741131192457025e-05,0.4518526753807791,-5.790868623849141e-05,0.4518526753807791,-0.0001149694512948
0.4526467925607102,-6.878487244838892e-06,0.4526467925607102,-3.17240262269742e-05,0.4526467925607102,-9.415392796671606e-05,0.4526467925607102,-8.07444458846873e-05
0.4534409097406413,-1.3595036776412071e-05,0.4534409097406413,-2.2492849429875675e-05,0.4534409097406413,-0.0001102751682579,0.4534409097406413,-5.052603450500891e-05
0.4542350269205724,-2.0309782925440487e-05,0.4542350269205724,-1.1917004071709012e-05,0.4542350269205724,-0.000104234318707,0.4542350269205724,-4.5823972333288746e-05
0.4550291441005034,-1.9806778051465977e-05,0.4550291441005034,-3.1878621874264965e-06,0.4550291441005034,-0.00011363941546,0.4550291441005034,-8.040795358712627e-05
0.4558232612804345,-2.2992336665954225e-05,0.4558232612804345,3.853979397283713e-06,0.4558232612804345,-0.0001434832380824,0.4558232612804345,-0.0001253412012956
0.4566173784603656,-2.63496721554751e-05,0.4566173784603656,1.4594490921004189e-05,0.4566173784603656,-0.000167327342069,0.4566173784603656,-0.0001305829263321
0.4574114956402966,-3.3397521933752395e-05,0.4574114956402966,2.399642930852456e-05,0.4574114956402966,-0.0001438619268874,0.4574114956402966,-7.841875904611797e-05
0.4582056128202277,-5.65539048834991e-05,0.4582056128202277,2.869990822733772e-05,0.4582056128202277,-9.771080845712291e-05,0.4582056128202277,-2.117691039515762e-05
0.4589997300001588,-6.730384707897457e-05,0.4589997300001588,3.272923014186358e-05,0.4589997300001588,-2.637655781948657e-05,0.4589997300001588,-4.3800994564985145e-05
0.4597938471800898,-5.522472599986869e-05,0.4597938471800898,4.2464026262379165e-05,0.4597938471800898,6.561139648705253e-05,0.4597938471800898,-4.917876623297327e-05
0.4605879643600209,-4.666248424296336e-05,0.4605879643600209,4.414432465780241e-05,0.4605879643600209,0.0001421645644272,0.4605879643600209,1.6278461667760088e-05
0.461382081539952,-3.272866942353667e-05,0.461382081539952,3.0043827868324576e-05,0.461382081539952,0.0002106516722424,0.461382081539952,6.596690638483753e-05
0.4621761987198831,-1.392722048857928e-05,0.4621761987198831,1.8630796526303712e-05,0.4621761987198831,0.0002171844551512,0.4621761987198831,8.745680026861133e-05
0.4629703158998141,3.174407631438336e-06,0.4629703158998141,1.6618833225904925e-05,0.4629703158998141,0.000167053186083,0.4629703158998141,0.0001166298685685
0.4637644330797452,1.7949353598209175e-05,0.4637644330797452,1.7288020616802225e-05,0.4637644330797452,0.0001130015898476,0.4637644330797452,5.325350135518704e-05
0.4645585502596763,1.79599e-05,0.4645585502596763,3.868135918859568e-06,0.4645585502596763,5.458408593424212e-05,0.4645585502596763,-1.4900000045476768e-05
0.4653526674396073,1.728878121038745e-05,0.4653526674396073,-1.1910691585213782e-05,0.4653526674396073,5.153096544674354e-05,0.4653526674396073,-1.7623075158450187e-05
0.4661467846195384,3.004153967146424e-05,0.4661467846195384,-1.946845111876327e-05,0.4661467846195384,3.474935307242895e-05,0.4661467846195384,-1.6281764247964395e-05
0.4669409017994695,3.038065848121148e-05,0.4669409017994695,-1.3596526572615162e-05,0.4669409017994695,-1.5268113725246366e-05,0.4669409017994695,-2.366578659902041e-05
0.4677350189794005,2.6016632097656246e-05,0.4677350189794005,-5.035058719935005e-06,0.4677350189794005,-5.8748174962722974e-05,0.4677350189794005,-3.3234717571121453e-05
0.4685291361593316,2.7357905141807557e-05,0.4685291361593316,1.2588355028772444e-05,0.4685291361593316,-9.95346e-05,0.4685291361593316,-5.488690122465259e-05
0.4693232533392627,1.863949739569959e-05,0.4693232533392627,1.0576391728373658e-05,0.4693232533392627,-9.95346e-05,0.4693232533392627,-5.606049653874183e-05
0.4701173705191938,1.5947829135583296e-05,0.4701173705191938,-1.5933249809946056e-07,0.4701173705191938,-8.611734559863679e-05,0.4701173705191938,-3.9122340049450006e-05
0.4709114876991248,1.191989918494398e-05,0.4709114876991248,-7.71619654694128e-06,0.4709114876991248,-8.208089918494398e-05,0.4709114876991248,-2.032192946521705e-05
0.4717056048790559,4.535605207011007e-06,0.4717056048790559,-2.164566720492947e-05,0.4717056048790559,-6.261748917171485e-05,0.4717056048790559,-7.72733457289962e-06
0.472499722058987,-1.662038345893515e-07,0.472499722058987,-2.9706479738842195e-05,0.472499722058987,-5.321149034552347e-05,0.472499722058987,1.258159053142664e-05
0.473293839238918,-5.537942497646234e-06,0.473293839238918,-3.642194061724913e-05,0.473293839238918,-5.1194407814825256e-05,0.473293839238918,2.6685145316470167e-05
0.4740879564188491,-4.196303703739758e-06,0.4740879564188491,-4.716501037557075e-05,0.4740879564188491,-8.207660481947439e-05,0.4740879564188491,1.1246747587518407e-05
0.4748820735987802,-4.533268039727751e-06,0.4748820735987802,-4.850790213298711e-05,0.4748820735987802,-0.0001022191909695,0.4748820735987802,-1.2589042289944053e-05
0.4756761907787112,-1.8969940391885823e-05,0.4756761907787112,-4.313359428551544e-05,0.4756761907787112,-9.349111385088411e-05,0.4756761907787112,-1.627946658614692e-05
0.4764703079586423,-3.12093338581701e-05,0.4764703079586423,-2.7708542315789257e-05,0.4764703079586423,-8.980251446681918e-05,0.4764703079586423,-8.231623373445995e-06
0.4772644251385734,-4.413504264606853e-05,0.4772644251385734,-1.6960577498617967e-05,0.4772644251385734,-7.889699905936548e-05,0.4772644251385734,-1.1579169516296738e-05
0.4780585423185045,-4.951240396337447e-05,0.4780585423185045,-2.064337143519072e-05,0.4780585423185045,-6.630765644211947e-05,0.4780585423185045,-1.2252612988216495e-05
0.4788526594984356,-5.0857724149243504e-05,0.4788526594984356,-1.7793223704299724e-05,0.4788526594984356,-5.589826280047855e-05,0.4788526594984356,-3.439959850540208e-05
0.4796467766783666,-5.052269441948655e-05,0.4796467766783666,-1.829545835670711e-05,0.4796467766783666,-3.1730298174905064e-05,0.4796467766783666,-9.381098783526008e-05
0.4804408938582977,-4.548777314425946e-05,0.4804408938582977,-1.9805998063406143e-05,0.4804408938582977,-9.570371820036869e-06,0.4804408938582977,-8.510076677001508e-05
0.4812350110382288,-2.970915065999373e-05,0.4812350110382288,-1.9638446667796192e-05,0.4812350110382288,9.231910675972282e-06,0.4812350110382288,-4.733303097676202e-05
0.4820291282181598,-1.8966566864540704e-05,0.4820291282181598,-2.299443374520948e-05,0.4820291282181598,2.3665563035547423e-05,0.4820291282181598,-1.359376968559859e-05
0.4828232453980909,-1.628394913067547e-05,0.4828232453980909,-1.762929816643246e-05,0.4828232453980909,1.6623791373104627e-05,0.4828232453980909,-1.019049002582021e-06
0.483617362578022,-1.0411416200118422e-05,0.483617362578022,-1.3599033993320008e-05,0.483617362578022,2.701534559753649e-05,0.483617362578022,-1.5102357588629835e-06
0.484411479757953,1.5928433467861672e-05,0.484411479757953,-1.527320021879623e-05,0.484411479757953,4.413318223172156e-05,0.484411479757953,2.2643763255500404e-05
0.4852055969378841,2.9031253942274734e-05,0.4852055969378841,-2.7017735594427427e-05,0.4852055969378841,6.125630898581665e-05,0.4852055969378841,9.238526465687087e-06
0.4859997141178152,1.93062051892262e-05,0.4859997141178152,-3.507759912394633e-05,0.4859997141178152,0.0001005278581932,0.4859997141178152,7.218245215412884e-06
0.4867938312977463,1.728892795979779e-05,0.4867938312977463,-2.9710441226127448e-05,0.4867938312977463,0.0001267204366501,0.4867938312977463,4.6821483504053775e-05
0.4875879484776773,9.232232801680346e-06,0.4875879484776773,-3.0716334649708845e-05,0.4875879484776773,9.550822583955894e-05,0.4875879484776773,6.428516726161997e-05
0.4883820656576084,9.566133056266384e-06,0.4883820656576084,-3.592007476105957e-05,0.4883820656576084,7.737228183913832e-05,0.4883820656576084,5.521626511514729e-05
0.4891761828375395,-5.877576607720243e-06,0.4891761828375395,-4.044895920778685e-05,0.4891761828375395,2.163896734275888e-06,0.4891761828375395,-1.8978271968807667e-05
0.4899703000174705,-1.8284663649056272e-05,0.4899703000174705,-2.8544892958236596e-05,0.4899703000174705,-7.6637639597783e-05,0.4899703000174705,-6.793574594498787e-05
0.4907644171974016,-2.030832156046133e-05,0.4907644171974016,-1.1594043496083394e-05,0.4907644171974016,-0.000144803979609,0.4907644171974016,-4.500047874129857e-05
0.4915585343773327,-2.5677750244447864e-05,0.4915585343773327,2.509471772924264e-06,0.4915585343773327,-0.0001592805349329,0.4915585343773327,-4.045435762640553e-05
0.4923526515572637,-1.4607761522206352e-05,0.4923526515572637,1.0906517012939524e-05,0.4923526515572637,-0.0001029167495277,0.4923526515572637,-1.6963112369035467e-05
0.4931467687371948,-1.1788510676290866e-06,0.4931467687371948,1.6279835568288155e-05,0.4931467687371948,-2.0333853137569565e-05,0.4931467687371948,1.0902084539621114e-05
0.4939408859171259,-6.881000028624058e-06,0.4939408859171259,2.6686504767207143e-05,0.4939408859171259,4.732378092937398e-05,0.4939408859171259,-1.1242716584928628e-05
0.494735003097057,-8.224600834076481e-06,0.494735003097057,1.997406071730347e-05,0.494735003097057,9.651317953384408e-05,0.494735003097057,-1.5777826842980932e-05
0.495529120276988,-5.872485309540261e-06,0.495529120276988,9.901982655526587e-06,0.495529120276988,6.562300537590146e-05,0.495529120276988,-2.2665389892137155e-05
0.4963232374569191,8.881842304452154e-06,0.4963232374569191,2.5248238429780552e-06,0.4963232374569191,2.538383925687355e-05,0.4963232374569191,-6.089259271076599e-05
0.4971173546368502,2.164223144445437e-05,0.4971173546368502,-8.215878618599051e-06,0.4971173546368502,1.1592787053209967e-05,0.4971173546368502,-5.254362142346949e-05
0.4979114718167812,2.400083687036842e-05,0.4979114718167812,-7.553666620820216e-06,0.4979114718167812,4.536619568503638e-06,0.4979114718167812,6.171340282426225e-06
0.4987055889967123,1.9305132735706696e-05,0.4987055889967123,-8.224262464109174e-06,0.4987055889967123,-2.8349470575705853e-05,0.4987055889967123,7.216998688399214e-06
0.4994997061766434,2.198730618135207e-05,0.4994997061766434,-8.22461e-06,0.4994997061766434,-4.212510667942935e-05,0.4994997061766434,-3.573599896824293e-05
0.5002938233565745,1.2255165839723915e-05,0.5002938233565745,-1.0406214544266416e-05,0.5002938233565745,-4.716447976032112e-05,0.5002938233565745,-5.471468035786842e-05
0.5010879405365055,1.560974859074193e-05,0.5010879405365055,-6.2107342638193206e-06,0.5010879405365055,-4.347327654269477e-05,0.5010879405365055,-1.5277254047548673e-05
0.5018820577164366,2.9374112447811747e-05,0.5018820577164366,-4.8679716304206844e-06,0.5018820577164366,-3.138860527513275e-05,0.5018820577164366,2.2662308645450165e-05
0.5026761748963677,3.642278303273647e-05,0.5026761748963677,-9.566376069872842e-06,0.5026761748963677,-4.2469740306243854e-05,0.5026761748963677,5.9939924547893495e-05
0.5034702920762988,3.4075492515604385e-05,0.5034702920762988,-4.871815013399368e-06,0.5034702920762988,-5.990665568741443e-05,0.5034702920762988,0.0001404182567859
0.5042644092562298,3.3067049292255526e-05,0.5042644092562298,-8.222112374028426e-06,0.5042644092562298,-2.570637586228707e-05,0.5042644092562298,0.0001240532382169
0.5050585264361609,4.682169100345538e-05,0.5050585264361609,-2.8689986591767263e-05,0.5050585264361609,1.592087272984073e-05,0.5050585264361609,6.834783678580051e-05
0.505852643616092,2.434819535967645e-05,0.505852643616092,-5.856598973136318e-05,0.505852643616092,-2.2306722834247406e-05,0.505852643616092,2.6035585297912788e-05
0.506646760796023,-1.0228383209079433e-05,0.506646760796023,-6.428458071388399e-05,0.506646760796023,-4.178863420031009e-05,0.506646760796023,-3.2041703825787027e-05
0.507440877975954,-2.467158159054949e-05,0.507440877975954,-4.9517770016093626e-05,0.507440877975954,-1.225754001681899e-05,0.507440877975954,-7.065856703412817e-05
0.5082349951558852,-4.750116073170019e-05,0.5082349951558852,-2.5681045412516423e-05,0.5082349951558852,-1.8464034899943007e-06,0.5082349951558852,-9.433115561121464e-05
0.5090291123358163,-6.411733271083296e-05,0.5090291123358163,-1.3597033305960233e-05,0.5090291123358163,-2.1314765410361688e-05,0.5090291123358163,-0.0001042366090169
0.5098232295157473,-5.657252027881476e-05,0.5098232295157473,-2.231544105206758e-05,0.5098232295157473,-6.2250606351625324e-06,0.5098232295157473,-0.000122680105382
0.5106173466956784,-4.130346771561717e-05,0.5106173466956784,-3.138034221027592e-05,0.5106173466956784,4.858514964810643e-06,0.5106173466956784,-0.0001361149514226
0.5114114638756094,-3.84394266717078e-05,0.5114114638756094,-2.165917339819505e-05,0.5114114638756094,-2.5157113005796256e-05,0.5114114638756094,-0.0001203586536154
0.5122055810555405,-3.072047394466848e-05,0.5122055810555405,-9.909299481017248e-06,0.5122055810555405,-3.406870613361169e-05,0.5122055810555405,-8.89766614443356e-05
0.5129996982354716,-2.434052411170185e-05,0.5129996982354716,-7.218540671010185e-06,0.5129996982354716,-2.194160505301425e-06,0.5129996982354716,-5.825537395460841e-05
0.5137938154154027,-2.7694319583761902e-05,0.5137938154154027,-1.090934154678758e-05,0.5137938154154027,2.5166474219161523e-06,0.5137938154154027,-8.525910604827549e-07
0.5145879325953338,-2.8555488712877337e-06,0.5145879325953338,-7.217833480935927e-06,0.5145879325953338,3.138534914765723e-05,0.5145879325953338,7.065842986632515e-05
0.5153820497752648,1.5776968736778657e-05,0.5153820497752648,-6.881925223279864e-06,0.5153820497752648,5.8241132549212986e-05,0.5153820497752648,4.951322717615191e-05
0.5161761669551959,2.514074054510401e-06,0.5161761669551959,-8.559816507741799e-06,0.5161761669551959,1.7282296091925282e-05,0.5161761669551959,1.3257562037414885e-05
0.5169702841351269,-1.4922881282241563e-05,0.5169702841351269,-6.212535979505061e-06,0.5169702841351269,-1.222639909163886e-05,0.5169702841351269,1.1858221906027012e-06
0.5177644013150581,-1.762217502735502e-05,0.5177644013150581,-5.874973121580623e-06,0.5177644013150581,-5.1164638047450046e-05,0.5177644013150581,-1.9958153385661463e-05
0.5185585184949891,-1.76242e-05,0.5185585184949891,-2.855272193273577e-06,0.5185585184949891,-7.870460663364543e-05,0.5185585184949891,-8.136964533875144e-05
0.5193526356749202,-2.970375477956984e-05,0.5193526356749202,5.870715103793128e-06,0.5193526356749202,-9.163976966868893e-05,0.5193526356749202,-0.0001119409830743
0.5201467528548512,-3.272965957224428e-05,0.5201467528548512,1.1244228134659595e-05,0.5201467528548512,-8.812199715015171e-05,0.5201467528548512,-9.081298283865708e-05
0.5209408700347823,-4.313559658812213e-05,0.5209408700347823,1.8478785590197424e-06,0.5209408700347823,-0.0001189999447622,0.5209408700347823,-6.529757607380247e-05
0.5217349872147133,-4.447997837933964e-05,0.5217349872147133,-1.8462805390778985e-06,0.5217349872147133,-0.0002056136053732,0.5217349872147133,-7.267858107912195e-05
0.5225291043946444,-3.96102399894538e-05,0.5225291043946444,-4.532591229111761e-06,0.5225291043946444,-0.0001669927860059,0.5225291043946444,4.247520124766004e-05
0.5233232215745756,-2.317930625848038e-05,0.5233232215745756,-9.56247950231909e-06,0.5233232215745756,-3.604805726090455e-05,0.5233232215745756,0.0001132286446446
0.5241173387545066,1.5577709567048896e-05,0.5241173387545066,-1.0909081720609534e-05,0.5241173387545066,3.5692211684506346e-05,0.5241173387545066,9.518559663435884e-05
0.5249114559344377,2.315802438790205e-05,0.5249114559344377,-1.19166099138188e-05,0.5249114559344377,0.0001065354643497,0.5249114559344377,0.0001139571181857
0.5257055731143687,2.1988931672453653e-05,0.5257055731143687,-1.2923858543426612e-05,0.5257055731143687,0.0001954961716048,0.5257055731143687,0.0001451732148999
0.5264996902942998,1.3263504500368334e-05,0.5264996902942998,-2.852831120153644e-05,0.5264996902942998,0.0002072894168237,0.5264996902942998,0.0001294181543281
0.5272938074742308,9.232686787006869e-06,0.5272938074742308,-3.944195454074647e-05,0.5272938074742308,0.000167690605193,0.5272938074742308,8.242539587670228e-05
0.528087924654162,7.2177111345509664e-06,0.528087924654162,-3.8437595567749954e-05,0.528087924654162,6.899536556358025e-05,0.528087924654162,-1.3586689245795368e-05
0.528882041834093,-1.7289402046314813e-05,0.528882041834093,-2.836602244854805e-05,0.528882041834093,-1.024040953775292e-05,0.528882041834093,-0.0001062538462742
0.5296761590140241,-3.4412054400559966e-05,0.5296761590140241,-1.9301021351953565e-05,0.5296761590140241,-4.079257021598126e-05,0.5296761590140241,-0.0001982326186309
0.5304702761939551,-4.916635204786532e-05,0.5304702761939551,-1.09178409336247e-05,0.5304702761939551,-6.661266601548071e-05,0.5304702761939551,-0.0002113100804166
0.5312643933738862,-4.985068704184786e-05,0.5312643933738862,-7.052619494094527e-06,0.5312643933738862,-0.0001031990441627,0.5312643933738862,-0.0001398726299668
0.5320585105538173,-3.710256350154854e-05,0.5320585105538173,5.028030339376842e-06,0.5320585105538173,-0.0001139633776821,0.5320585105538173,-6.097792943711929e-05
0.5328526277337483,-2.971276263875996e-05,0.5328526277337483,2.03026386475392e-05,0.5328526277337483,-5.82698272302555e-05,0.5328526277337483,1.238640986550401e-05
0.5336467449136795,-1.292979244128607e-05,0.5336467449136795,2.8028319494356844e-05,0.5336467449136795,-1.865068780127559e-07,0.5336467449136795,7.551192436422129e-05
0.5344408620936105,-6.211586121840274e-06,0.5344408620936105,1.3262665458322208e-05,0.5344408620936105,4.531113715927607e-06,0.5344408620936105,9.348888064083792e-05
0.5352349792735416,-2.1821451562350683e-06,0.5352349792735416,-8.388779527595982e-07,0.5352349792735416,6.025644533753005e-05,0.5352349792735416,7.670753815054439e-05
0.5360290964534726,1.1249056467190733e-05,0.5360290964534726,-9.233787157684749e-06,0.5360290964534726,0.0001119508864595,0.5360290964534726,7.569568276682906e-05
0.5368232136334037,3.723676593058003e-05,0.5368232136334037,-2.633536533322683e-05,0.5368232136334037,7.808343690324988e-05,0.5368232136334037,4.015119757102159e-05
0.5376173308133347,5.6884348670770925e-05,0.5376173308133347,-4.043981696414512e-05,0.5376173308133347,-4.373428111899535e-07,0.5376173308133347,-8.51928539349099e-06
0.5384114479932659,4.6836901586673954e-05,0.5384114479932659,-4.313543291022027e-05,0.5384114479932659,-5.115875885282294e-05,0.5384114479932659,2.4650694896068228e-05
0.539205565173197,2.3343868956626215e-05,0.539205565173197,-5.11895878222874e-05,0.539205565173197,-8.608758038069849e-05,0.539205565173197,-2.632435602527331e-05
0.539999682353128,-5.19191458353916e-06,0.539999682353128,-5.1194e-05,0.539999682353128,-0.0001656351711833,0.539999682353128,-0.0001743357741806
0.5407937995330591,-2.0977216446683397e-05,0.5407937995330591,-2.300241953038713e-05,0.5407937995330591,-0.00020292059194,0.5407937995330591,-0.0001941969991829
0.5415879167129901,-4.179231677893956e-05,0.5415879167129901,9.899649106593618e-06,0.5415879167129901,-0.0001277408878252,0.5415879167129901,-9.56844351312056e-05
0.5423820338929212,-4.6829685057411726e-05,0.5423820338929212,2.6016284748878505e-05,0.5423820338929212,-4.481581463832368e-05,0.5423820338929212,2.5198464689529493e-06
0.5431761510728523,-4.179162933076244e-05,0.5431761510728523,1.8630279317604425e-05,0.5431761510728523,-4.7517566973656507e-05,0.5431761510728523,5.186198710274122e-05
0.5439702682527834,-2.6701904577770484e-05,0.5439702682527834,1.3265043849873952e-05,0.5439702682527834,-0.0001330252081289,0.5439702682527834,3.392203095199419e-05
0.5447643854327144,-9.580661580005622e-06,0.5447643854327144,1.32601e-05,0.5447643854327144,-0.0001079464873558,0.5447643854327144,5.352869959926717e-05
0.5455585026126455,-1.9967580911828125e-05,0.5455585026126455,-1.7604853072703558e-05,0.5455585026126455,-4.7539152618474e-05,0.5455585026126455,2.6033843993607342e-05
0.5463526197925765,-2.500708879539048e-05,0.5463526197925765,-3.641429803857195e-05,0.5463526197925765,9.875611865216916e-06,0.5463526197925765,-2.196531282198842e-05
0.5471467369725076,-6.21664755021766e-06,0.5471467369725076,-8.233951348515313e-06,0.5471467369725076,0.0001146063035929,0.5471467369725076,1.5028555324137253e-06
0.5479408541524387,1.4263438525265133e-05,0.5479408541524387,3.522671779381156e-06,0.5479408541524387,0.0002307716643753,0.5479408541524387,3.2389226959690866e-05
0.5487349713323698,1.3931512120558494e-05,0.5487349713323698,-6.210068505608942e-06,0.5487349713323698,0.0002959156486405,0.5487349713323698,4.7500754578478304e-05
0.5495290885123009,2.8030912126714664e-05,0.5495290885123009,-1.4270563779172676e-05,0.5495290885123009,0.0002594795453069,0.5495290885123009,3.876482790537262e-05
0.5503232056922319,2.9036893776914127e-05,0.5503232056922319,-4.444981350724968e-05,0.5503232056922319,0.0001208226901328,0.5503232056922319,-3.634816897599365e-05
0.551117322872163,3.306286455695382e-05,0.551117322872163,-4.733106651853533e-05,0.551117322872163,5.058243405166817e-05,0.551117322872163,-7.66727457400994e-05
0.551911440052094,3.977556512564178e-05,0.551911440052094,-2.837987598480076e-05,0.551911440052094,6.226381396987312e-05,0.551911440052094,-7.737802651256417e-05
0.5527055572320251,1.931411917567236e-05,0.5527055572320251,-1.8301215959696387e-05,0.5527055572320251,2.872091999577116e-05,0.5527055572320251,-9.38185272305119e-05
0.5534996744119562,-4.954262398736657e-07,0.5534996744119562,-1.393328954506514e-05,0.5534996744119562,-5.451686115047385e-05,0.5534996744119562,-0.0001250351977879
0.5542937915918873,1.5101113184891496e-06,0.5542937915918873,3.5202480846483547e-06,0.5542937915918873,-0.000108583813812,0.5542937915918873,-8.108274297467086e-05
0.5550879087718184,-1.3594064316054416e-05,0.5550879087718184,1.6951257167145222e-05,0.5550879087718184,-0.0002364853044497,0.5550879087718184,-4.045636705683321e-05
0.5558820259517494,-4.716603889180247e-05,0.5558820259517494,2.870270472557284e-05,0.5558820259517494,-0.0003291506504109,0.5558820259517494,-3.037999777671138e-05
0.5566761431316805,-6.059157528985431e-05,0.5566761431316805,4.414174066738812e-05,0.5566761431316805,-0.0002878395743576,0.5566761431316805,-8.901509963552005e-06
0.5574702603116115,-4.935816347377193e-05,0.5574702603116115,2.938734313113138e-05,0.5574702603116115,-0.0001689667253039,0.5574702603116115,-3.941617680841601e-05
0.5582643774915427,-4.079411140950548e-05,0.5582643774915427,3.545095841230193e-06,0.5582643774915427,-2.1768009775124475e-05,0.5582643774915427,-6.091245565811919e-05
0.5590584946714737,-2.2335650797536957e-05,0.5590584946714737,5.20226174567846e-06,0.5590584946714737,0.0001299864303184,0.5590584946714737,4.490268253297057e-06
0.5598526118514048,4.518801470164768e-06,0.5598526118514048,8.223133040821282e-06,0.5598526118514048,0.0002300720962101,0.5598526118514048,0.0001172718598892
0.5606467290313358,4.547312321447621e-05,0.5606467290313358,-6.205493752145588e-06,0.5606467290313358,0.0002462295007694,0.5606467290313358,0.0001622946486354
0.5614408462112669,3.9781405341992384e-05,0.5614408462112669,-2.299204896041546e-05,0.5614408462112669,0.0002010917454267,0.5614408462112669,0.0001609672601237
0.5622349633911979,3.407366312691777e-05,0.5622349633911979,-3.0380359482812296e-05,0.5622349633911979,0.0001515702829783,0.5622349633911979,9.31594265346305e-05
0.563029080571129,3.138620096206416e-05,0.563029080571129,-4.112395054734961e-05,0.563029080571129,6.830299845672191e-05,0.563029080571129,6.374068264269847e-06
0.5638231977510602,1.5625921664557147e-05,0.5638231977510602,-4.950703107672619e-05,0.5638231977510602,-4.604298311557906e-05,0.5638231977510602,-3.5038663202164314e-05
0.5646173149309912,-2.8375096088932044e-06,0.5646173149309912,-4.045952031294892e-05,0.5646173149309912,-0.0001124017954435,0.5646173149309912,-8.472103279900629e-05
0.5654114321109223,-1.6942715777648058e-05,0.5654114321109223,-9.086309384774013e-06,0.5654114321109223,-0.0001428182707329,0.5654114321109223,-0.0001095882322956
0.5662055492908533,-1.426872446408602e-05,0.5662055492908533,8.885815191836245e-06,0.5662055492908533,-0.0002223548382623,0.5662055492908533,-0.0001639581298293
0.5669996664707844,-1.6280553911151108e-05,0.5669996664707844,1.2922707826502835e-05,0.5669996664707844,-0.0003230676955575,0.5669996664707844,-0.0001975448985191
0.5677937836507154,-2.03087023407329e-05,0.5677937836507154,4.8698253103597926e-06,0.5677937836507154,-0.0003466025969876,0.5677937836507154,-0.0001381561905014
