X [s],R BICEPS BRACHII: EMG 1 [V],X [s].1,R DELTOID ANTERIOR: EMG 2 [V],X [s].5,R DELTOID MEDIUS: EMG 6 [V],X [s].6,R DELTOID POSTERIOR: EMG 7 [V]
0.0,-1.09102e-05,0.0,-2.46738e-05,0.0,-4.53193e-06,0.0,2.51774e-06
0.000794117179931,-1.3200858663832776e-05,0.000794117179931,-2.48515236837751e-05,0.000794117179931,-8.352968603947724e-06,0.000794117179931,1.9697569390522407e-05
0.0015882343598621,-1.3319341675521047e-05,0.0015882343598621,-2.2857070050258923e-05,0.0015882343598621,-9.290951675521048e-06,0.0015882343598621,3.938530866422487e-05
0.0023823515397932,-8.264156576214252e-06,0.0023823515397932,-1.9658140179606523e-05,0.0023823515397932,-3.623640850355151e-06,0.0023823515397932,5.670339183240526e-05
0.0031764687197242,3.45561836867569e-07,0.0031764687197242,-1.6064170564480943e-05,0.0031764687197242,8.441823459262329e-06,0.0031764687197242,5.749331675521049e-05
0.0039705858996553,-2.862810114573616e-07,0.0039705858996553,-1.476085256450212e-05,0.0039705858996553,1.6380092999533898e-05,0.0039705858996553,4.848873330088559e-05
0.0047647030795864,-6.763330054110116e-06,0.0047647030795864,-1.545201238844344e-05,0.0047647030795864,1.3220630051158636e-05,0.0047647030795864,3.087443667998582e-05
0.0055588202595174,-1.0771939823718771e-05,0.0055588202595174,-1.5807477098318578e-05,0.0055588202595174,8.590740330960172e-07,0.0055588202595174,1.8663232594749015e-06
0.0063529374394485,-8.066646451537971e-06,0.0063529374394485,-1.5096570877733889e-05,0.0063529374394485,-1.036709772328961e-06,0.0063529374394485,-1.043627012527311e-05
0.0071470546193796,-3.129901187783829e-06,0.0071470546193796,-1.7663675415145406e-05,0.0071470546193796,-6.70405984175548e-06,0.0071470546193796,-8.461565248864683e-06
0.0079411717993107,-4.828138377605242e-06,0.0079411717993107,-2.0606000244758223e-05,0.0079411717993107,-5.499540158823775e-06,0.0079411717993107,-1.277628226538446e-05
0.0087352889792417,-2.142583353535992e-06,0.0087352889792417,-2.2699104662210197e-05,0.0087352889792417,-2.9521603600154538e-06,0.0087352889792417,-2.2837198398922316e-05
0.0095294061591728,1.6488649203105649e-06,0.0095294061591728,-2.6135081390971877e-05,0.0095294061591728,-6.170925187909665e-06,0.0095294061591728,-4.96932016134652e-05
0.0103235233391039,-1.9250678041379174e-06,0.0103235233391039,-2.63523e-05,0.0103235233391039,-8.935297084882565e-06,0.0103235233391039,-7.634119754936359e-05
0.0111176405190349,-7.987669078485675e-06,0.0111176405190349,-2.3893736373012656e-05,0.0111176405190349,-1.6992354405672882e-05,0.0111176405190349,-8.60474585937401e-05
0.011911757698966,-9.9031e-06,0.011911757698966,-2.0398662095419628e-05,0.011911757698966,-1.6083485860854335e-05,0.011911757698966,-6.872843532262594e-05
0.0127058748788971,-7.632360779106748e-06,0.0127058748788971,-1.9500173675067783e-05,0.0127058748788971,-6.190862085560526e-06,0.0127058748788971,-4.766007729100036e-05
0.0134999920588282,-6.378267136572102e-06,0.0134999920588282,-1.829561026907309e-05,0.0134999920588282,-4.867624273144204e-06,0.0134999920588282,-4.01160114537116e-05
0.0142941092387592,-1.1167081320889304e-05,0.0142941092387592,-2.123777568291837e-05,0.0142941092387592,-7.178109190082018e-06,0.0142941092387592,-3.515906412321882e-05
0.0150882264186903,-1.983525189565562e-05,0.0150882264186903,-2.56809e-05,0.0150882264186903,-8.97488994900761e-06,0.0150882264186903,5.634384320942972e-06
0.0158823435986214,-2.3588012737428376e-05,0.0158823435986214,-2.410127487298736e-05,0.0158823435986214,-9.607141193109836e-06,0.0158823435986214,4.783648246175096e-05
0.0166764607785524,-8.007195351778917e-06,0.0166764607785524,-1.8651158653928057e-05,0.0166764607785524,3.4262713241051103e-06,0.0166764607785524,6.316082503510485e-05
0.0174705779584835,8.195204778733016e-07,0.0174705779584835,-1.715033529016124e-05,0.0174705779584835,2.052670839086898e-05,0.0174705779584835,6.551071039484686e-05
0.0182646951384146,-1.6884129625529992e-06,0.0182646951384146,-1.992464563931352e-05,0.0182646951384146,2.9333908149788004e-05,0.0182646951384146,5.5479556662976994e-05
0.0190588123183456,1.0366848649499014e-06,0.0190588123183456,-2.1307052954653684e-05,0.0190588123183456,2.5068818033570378e-05,0.0190588123183456,4.896260541007112e-05
0.0198529294982767,9.181738041583256e-07,0.0198529294982767,-1.999393811578189e-05,0.0198529294982767,4.235206351317792e-06,0.0198529294982767,5.6111324202550336e-05
0.0206470466782078,-4.3340347121290455e-06,0.0206470466782078,-1.999387650134337e-05,0.0206470466782078,-5.203035674469108e-06,0.0206470466782078,5.650684832065813e-05
0.0214411638581389,-1.0199333145615724e-05,0.0214411638581389,-2.271873248980918e-05,0.0214411638581389,-7.731041406786932e-06,0.0214411638581389,3.1645478546216494e-05
0.0222352810380699,-6.743505339483098e-06,0.0222352810380699,-2.3113776446532774e-05,0.0222352810380699,-2.379425339483098e-06,0.0222352810380699,-9.844430126215252e-06
0.023029398218001,-6.427618305928549e-06,0.023029398218001,-2.2106715489139352e-05,0.023029398218001,3.6926383229658767e-06,0.023029398218001,-3.752900266922433e-05
0.0238235153979321,-7.000256687801556e-06,0.0238235153979321,-2.4693535425051035e-05,0.0238235153979321,3.3275677273341736e-06,0.0238235153979321,-4.759973847071011e-05
0.0246176325778631,-7.701321961749378e-06,0.0246176325778631,-2.519711048386008e-05,0.0246176325778631,-1.8265769586293424e-06,0.0246176325778631,-5.356363138799007e-05
0.0254117497577942,-9.152778509290225e-06,0.0254117497577942,-2.1820496881952742e-05,0.0254117497577942,-2.85344e-06,0.0254117497577942,-5.035460980909577e-05
0.0262058669377253,-1.15816e-05,0.0262058669377253,-1.900651876761492e-05,0.0262058669377253,-3.262102801418534e-07,0.0262058669377253,-4.732396439971488e-05
0.0269999841176564,-1.15816e-05,0.0269999841176564,-1.7624220538146172e-05,0.0269999841176564,4.531861278071631e-06,0.0269999841176564,-3.7430640524531566e-05
0.0277941012975874,-5.617825722527851e-06,0.0277941012975874,-1.76242e-05,0.0277941012975874,3.386588807331362e-06,0.0277941012975874,-2.4594595104613085e-05
0.0285882184775185,3.820749009959271e-06,0.0285882184775185,-1.6320864764649364e-05,0.0285882184775185,7.137943903517306e-06,0.0285882184775185,-1.3280348926239132e-05
0.0293823356574496,5.87472e-06,0.0293823356574496,-1.8927280073287784e-05,0.0293823356574496,1.3082292676312222e-05,0.0293823356574496,-1.3042463381561109e-05
0.0301764528373806,5.598269486615852e-06,0.0301764528373806,-2.260022523605713e-05,0.0301764528373806,1.3437823753971892e-05,0.0301764528373806,-2.5878386363982025e-05
0.0309705700173117,3.307704528871131e-06,0.0309705700173117,-2.575994344001883e-05,0.0309705700173117,3.979394750872959e-06,0.0309705700173117,-4.240594811452081e-05
0.0317646871972428,3.583926607304207e-06,0.0317646871972428,-2.6589170740480865e-05,0.0317646871972428,-8.283186717020861e-06,0.0317646871972428,-6.481859465195259e-05
0.0325588043771738,4.551686628534318e-06,0.0325588043771738,-2.9590870715212272e-05,0.0325588043771738,-1.8986593943450917e-05,0.0325588043771738,-6.884786628534317e-05
0.0333529215571049,1.451313568230624e-06,0.0333529215571049,-3.160507125577359e-05,0.0333529215571049,-2.023075524468166e-05,0.0333529215571049,-5.492593412553562e-05
0.034147038737036,-2.2212909597220364e-06,0.034147038737036,-2.929460683337957e-05,0.034147038737036,-8.462856843853056e-06,0.034147038737036,-4.131156331131994e-05
0.0349411559169671,-6.1905293692476085e-06,0.0349411559169671,-2.804057515877572e-05,0.0349411559169671,8.974597291694605e-06,0.0349411559169671,-3.2947932034468e-05
0.0357352730968981,-9.330450721559934e-06,0.0357352730968981,-3.0114113713741104e-05,0.0357352730968981,1.79204221646798e-05,0.0357352730968981,-2.8484964261466888e-05
0.0365293902768292,-1.152229131355128e-05,0.0365293902768292,-3.057831744274593e-05,0.0365293902768292,2.3706100790555948e-05,0.0365293902768292,-2.323239052299533e-05
0.0373235074567603,-1.2292636914775103e-05,0.0373235074567603,-2.8080248001894115e-05,0.0373235074567603,2.9097112617044975e-05,0.0373235074567603,-1.796038551023536e-05
0.0381176246366913,-1.09102e-05,0.0381176246366913,-2.532546837533893e-05,0.0381176246366913,2.7004014426856303e-05,0.0381176246366913,-6.447567947113268e-06
0.0389117418166224,-1.0791664895036238e-05,0.0389117418166224,-2.3074332220029596e-05,0.0389117418166224,1.1502214702022436e-05,0.0389117418166224,-2.7351269139152187e-06
0.0397058589965535,-6.566250541696591e-06,0.0397058589965535,-2.236348635726472e-05,0.0397058589965535,4.25531895933852e-06,0.0397058589965535,-2.244085467262555e-05
0.0404999761764846,-2.182143082892568e-06,0.0404999761764846,-1.829575403609632e-05,0.0404999761764846,2.517877444027352e-06,0.0404999761764846,-3.776582511092173e-05
0.0412940933564156,-1.2736716009694088e-06,0.0412940933564156,-1.7130504024164724e-05,0.0412940933564156,-7.158320870015305e-06,0.0412940933564156,-3.1131047610663496e-05
0.0420882105363467,-5.340701178545042e-06,0.0420882105363467,-1.76833817433644e-05,0.0420882105363467,-9.310551471642188e-06,0.0420882105363467,-3.9285250991173314e-05
0.0428823277162778,-1.5451676748889368e-05,0.0428823277162778,-2.050697789328244e-05,0.0428823277162778,-1.331907442222259e-05,0.0428823277162778,-4.746229779675901e-05
0.0436764448962088,-1.7367528847258342e-05,0.0436764448962088,-2.34991117356656e-05,0.0436764448962088,-1.5175587912719052e-05,0.0436764448962088,-3.300725027993217e-05
0.0444705620761399,-3.367426469634817e-06,0.0444705620761399,-1.804864967437161e-05,0.0444705620761399,-4.196819747715467e-06,0.0444705620761399,-7.959034132215622e-06
0.045264679256071,-1.0817548753365416e-07,0.045264679256071,-1.5748000404669363e-05,0.045264679256071,6.861925908183902e-06,0.045264679256071,1.1561093365250003e-05
0.046058796436002,-5.716622334261017e-06,0.046058796436002,-1.961866343405493e-05,0.046058796436002,7.7309505890041e-06,0.046058796436002,1.7900612933829666e-05
0.0468529136159331,-6.082081589765296e-06,0.0468529136159331,-1.7506047980185642e-05,0.0468529136159331,4.492377475222211e-06,0.0468529136159331,2.6411715897652955e-05
0.0476470307958642,-8.046958496349135e-06,0.0476470307958642,-1.3398346862423444e-05,0.0476470307958642,-1.984386751206224e-06,0.0476470307958642,3.4468706497587554e-05
0.0484411479757953,-4.354430180900988e-06,0.0484411479757953,-1.3082189266896026e-05,0.0484411479757953,-4.314563016900409e-06,0.0484411479757953,2.42399159921782e-05
0.0492352651557263,-3.0508794350429826e-06,0.0492352651557263,-1.53730060306421e-05,0.0492352651557263,-7.237251387990069e-06,0.0492352651557263,1.2154343060049656e-05
0.0500293823356574,-1.3516508112557086e-05,0.0500293823356574,-1.7535159407545256e-05,0.0500293823356574,-9.350102761120407e-06,0.0500293823356574,4.769008252280779e-06
0.0508234995155885,-1.602503109810815e-05,0.0508234995155885,-1.9776570795291456e-05,0.0508234995155885,-1.170001378037837e-05,0.0508234995155885,-1.529600595981528e-06
0.0516176166955195,-1.0001991655471022e-05,0.0516176166955195,-2.3222358331009632e-05,0.0516176166955195,-1.1364422590638496e-05,0.0516176166955195,-1.2924173163251987e-05
0.0524117338754506,-8.422088049385147e-06,0.0524117338754506,-2.434798453835099e-05,0.0524117338754506,-7.059463221913787e-06,0.0524117338754506,-8.382480049065774e-06
0.0532058510553817,-7.829846887956953e-06,0.0532058510553817,-2.226472342446303e-05,0.0532058510553817,-2.063910542054379e-06,0.0532058510553817,-5.755847737064932e-06
0.0539999682353128,-5.70695017598115e-06,0.0539999682353128,-2.265954865769357e-05,0.0539999682353128,5.202963482662019e-06,0.0539999682353128,-1.0238639648720077e-05
0.0547940854152438,-1.0159795276396871e-05,0.0547940854152438,-2.16526e-05,0.0547940854152438,1.1324876033048784e-05,0.0547940854152438,-7.39526205142833e-06
0.0555882025951749,-1.1848191351815526e-05,0.0555882025951749,-2.1336622113251597e-05,0.0555882025951749,1.1779123864231518e-05,0.0555882025951749,-1.019494787317409e-08
0.056382319775106,-1.0080954314039511e-05,0.056382319775106,-2.204741666672187e-05,0.056382319775106,1.1976767992434743e-05,0.056382319775106,-3.4059016641197645e-06
0.057176436955037,-7.513781760128483e-06,0.057176436955037,-2.3034764764649364e-05,0.057176436955037,4.097739745549489e-06,0.057176436955037,-1.1423465659600806e-05
0.0579705541349681,-6.72381470169418e-06,0.0579705541349681,-2.3982655256792045e-05,0.0579705541349681,-7.998659571563015e-07,0.0579705541349681,-2.5679966925012998e-05
0.0587646713148992,-8.510879507234167e-06,0.0587646713148992,-2.4397307416047127e-05,0.0587646713148992,5.281557031730627e-06,0.0587646713148992,-4.4054366202671325e-05
0.0595587884948302,-7.000427904613885e-06,0.0595587884948302,-2.6332527492299133e-05,0.0595587884948302,1.6537670272835977e-05,0.0595587884948302,-5.559727876631141e-05
0.0603529056747613,-1.6686214008857594e-06,0.0603529056747613,-2.7971749662775525e-05,0.0603529056747613,1.901633641694058e-05,0.0603529056747613,-6.067258748676036e-05
0.0611470228546924,-1.09569998242411e-06,0.0611470228546924,-2.617459255654757e-05,0.0611470228546924,1.014084264157532e-05,0.0611470228546924,-6.708900282565832e-05
0.0619411400346235,-4.2159465405437405e-06,0.0619411400346235,-2.56809e-05,0.0619411400346235,7.28652730457689e-06,0.0619411400346235,-8.49211076403315e-05
0.0627352572145545,-4.275227879858286e-06,0.0627352572145545,-2.5128007253752046e-05,0.0627352572145545,7.75071234641724e-06,0.0627352572145545,-9.692783392226742e-05
0.0635293743944856,-6.664488838368063e-06,0.0635293743944856,-2.548324148096172e-05,0.0635293743944856,1.0949404274550896e-05,0.0635293743944856,-0.0001197933168856
0.0643234915744167,-8.372612908333467e-06,0.0643234915744167,-2.81294341471305e-05,0.0643234915744167,1.5116883713332582e-05,0.0643234915744167,-0.0001465314374118
0.0651176087543477,-1.0692878263163229e-05,0.0651176087543477,-2.6925071537307105e-05,0.0651176087543477,6.358836387551036e-06,0.0651176087543477,-0.0001450126960055
0.0659117259342788,-7.691428818375831e-06,0.0659117259342788,-2.439740497224145e-05,0.0659117259342788,7.651965020359496e-06,0.0659117259342788,-0.0001137919304847
0.0667058431142099,-5.973405786123039e-06,0.0667058431142099,-2.391376074037705e-05,0.0667058431142099,5.737239087557826e-06,0.0667058431142099,-6.557419443206659e-05
0.067499960294141,-6.8817627314420296e-06,0.067499960294141,-1.829592090471023e-05,0.067499960294141,-2.18166775607914e-06,0.067499960294141,-8.563373849938968e-06
0.068294077474072,-7.168148472659497e-06,0.068294077474072,-1.3872437457585297e-05,0.068294077474072,-1.9056122187240208e-06,0.068294077474072,6.298200615707028e-05
0.0690881946540031,-6.60547918217464e-06,0.0690881946540031,-1.5116052808435426e-05,0.0690881946540031,-5.202324603847203e-06,0.0690881946540031,0.0001144199884882
0.0698823118339342,-6.249875988510667e-06,0.0698823118339342,-1.79599e-05,0.0698823118339342,-1.3635255988510668e-05,0.0698823118339342,0.0001465900870011
0.0706764290138652,-8.066540389817443e-06,0.0706764290138652,-1.4307247093638118e-05,0.0706764290138652,-1.0337767849367718e-05,0.0706764290138652,0.0001695767317563
0.0714705461937963,-1.5767423617094013e-05,0.0714705461937963,-8.264136764093488e-06,0.0714705461937963,-1.177838422827916e-05,0.0714705461937963,0.000184761903758
0.0722646633737274,-1.877005327569661e-05,0.0722646633737274,-8.797117362495057e-06,0.0722646633737274,-2.4544648940142743e-05,0.0722646633737274,0.0001844668754702
0.0730587805536585,-1.247051190011875e-05,0.0730587805536585,-1.203570342212716e-05,0.0730587805536585,-2.90379e-05,0.0730587805536585,0.0001767559974818
0.0738528977335895,-6.644942853795418e-06,0.0738528977335895,-1.7939979731633416e-05,0.0738528977335895,-1.734785867122866e-05,0.0738528977335895,0.0001525157085337
0.0746470149135206,1.4509470505514538e-06,0.0746470149135206,-1.8967e-05,0.0746470149135206,-6.132120718630764e-06,0.0746470149135206,0.0001245966761647
0.0754411320934517,4.334822450276242e-06,0.0754411320934517,-2.0842404936437895e-05,0.0754411320934517,-3.0702577762560883e-06,0.0754411320934517,8.741307095226166e-05
0.0762352492733827,-3.958964925915713e-06,0.0762352492733827,-2.5542529908699508e-05,0.0762352492733827,-8.086290713114621e-06,0.0762352492733827,4.054166053991729e-05
0.0770293664533138,-8.935617831808766e-06,0.0770293664533138,-2.70237e-05,0.0770293664533138,-7.375468042047808e-06,0.0770293664533138,8.64050105413409e-06
0.0778234836332449,-2.9328789855764985e-06,0.0778234836332449,-2.6135148330044387e-05,0.0778234836332449,-1.116645436477588e-05,0.0778234836332449,-1.1461662203939455e-05
0.078617600813176,1.9054084074614795e-06,0.078617600813176,-2.3864189075711184e-05,0.078617600813176,-1.4968089442321105e-05,0.078617600813176,-2.682569412577584e-05
0.079411717993107,3.061132233352323e-07,0.079411717993107,-2.2402993834468084e-05,0.079411717993107,-1.2628234043264446e-05,0.079411717993107,-3.154573255240911e-05
0.0802058351730381,-2.8930998221982814e-06,0.0802058351730381,-2.2284352044749257e-05,0.0802058351730381,-1.6799002468098228e-06,0.0802058351730381,-4.16358313158958e-05
0.0809999523529692,-1.5107087222695677e-06,0.0809999523529692,-2.29953e-05,0.0809999523529692,1.0238198683211982e-05,0.0809999523529692,-4.582266255546086e-05
0.0817940695329002,-6.249761953905107e-06,0.0817940695329002,-2.1968575683735884e-05,0.0817940695329002,1.2815715775193224e-05,0.0817940695329002,-5.399773168004335e-05
0.0825881867128313,-1.294330262917374e-05,0.0825881867128313,-2.1692017816494e-05,0.0825881867128313,1.760367618468269e-05,0.0825881867128313,-7.757273410284455e-05
0.0833823038927624,-1.892754973834513e-05,0.0833823038927624,-2.271875494627515e-05,0.0833823038927624,2.0882189818287368e-05,0.0833823038927624,-0.000101823829783
0.0841764210726934,-1.5590505746218692e-05,0.0841764210726934,-2.3627245504423732e-05,0.0841764210726934,2.6529701777539847e-05,0.0841764210726934,-0.0001112841575541
0.0849705382526245,-8.145949289377145e-06,0.0849705382526245,-2.2462232103622894e-05,0.0849705382526245,2.3845120922096663e-05,0.0849705382526245,-0.0001187473459069
0.0857646554325556,-7.404874628648402e-06,0.0857646554325556,-2.194856810092712e-05,0.0857646554325556,1.5570986039999327e-05,0.0857646554325556,-0.0001305767757148
0.0865587726124866,-1.0455823373457718e-05,0.0865587726124866,-2.4278803205021445e-05,0.0865587726124866,8.205381986117318e-06,0.0865587726124866,-0.0001293527668256
0.0873528897924177,-1.0515270670607304e-05,0.0873528897924177,-2.3084683672959385e-05,0.0873528897924177,2.2610688472583336e-06,0.0873528897924177,-0.0001289379535794
0.0881470069723488,-8.73847697690049e-06,0.0881470069723488,-2.038880654734687e-05,0.0881470069723488,-2.4971134572148937e-06,0.0881470069723488,-0.000127852358435
0.0889411241522799,-6.131600239656422e-06,0.0889411241522799,-2.135655265069128e-05,0.0889411241522799,-9.409769892327832e-06,0.0889411241522799,-0.0001089764701389
0.0897352413322109,-3.3274936478495785e-06,0.0897352413322109,-1.8710447271643752e-05,0.0897352413322109,-2.518093963548525e-06,0.0897352413322109,-7.143600668204177e-05
0.090529358512142,-9.281269598430196e-07,0.090529358512142,-2.0112100404669364e-05,0.090529358512142,4.492299265687998e-06,0.090529358512142,-4.995085745660602e-05
0.0913234756920731,-2.408640478234328e-06,0.0913234756920731,-2.4535256838170592e-05,0.0913234756920731,4.571243983676296e-06,0.0913234756920731,-2.738235563517609e-05
0.0921175928720041,-8.737653470011034e-06,0.0921175928720041,-2.4022471680542075e-05,0.0921175928720041,1.0425939917362494e-05,0.0921175928720041,1.4047485489840817e-05
0.0929117100519352,-1.1186678262364489e-05,0.0929117100519352,-1.9441150152075024e-05,0.0929117100519352,2.3370467261090156e-05,0.0929117100519352,6.074103780779407e-05
0.0937058272318663,-1.177894866482288e-05,0.0937058272318663,-2.1178471997294025e-05,0.0937058272318663,1.1050635790630194e-05,0.0937058272318663,7.250277375367335e-05
0.0944999444117974,-1.1078240301996198e-05,0.0944999444117974,-2.433786638394055e-05,0.0944999444117974,-4.195428243771027e-06,0.0944999444117974,4.817478457550979e-05
0.0952940615917284,-3.209178996587525e-06,0.0952940615917284,-2.498983302005296e-05,0.0952940615917284,-2.053786854410428e-06,0.0952940615917284,2.2482696409822787e-05
0.0960881787716595,1.6088163491700923e-06,0.0960881787716595,-2.43381e-05,0.0960881787716595,1.0561805283657408e-06,0.0960881787716595,-2.7013721046817604e-06
0.0968822959515906,5.361106964202685e-06,0.0968822959515906,-2.43381e-05,0.0968822959515906,1.4913415367955608e-06,0.0968822959515906,-3.395338057877113e-05
0.0976764131315216,5.16397766245363e-06,0.0976764131315216,-2.36667e-05,0.0976764131315216,-4.768523252722828e-06,0.0976764131315216,-4.272261365620983e-05
0.0984705303114527,1.4516790852971585e-06,0.0984705303114527,-2.258074962491853e-05,0.0984705303114527,-1.1896867579504344e-05,0.0984705303114527,-3.188267205609174e-05
0.0992646474913838,-2.655612594350967e-06,0.0992646474913838,-2.068478085973804e-05,0.0992646474913838,-1.478174600581436e-05,0.0992646474913838,-1.4506000817112428e-05
0.1000587646713148,-3.0900625705679795e-06,0.1000587646713148,-2.259940029666058e-05,0.1000587646713148,-3.266076594064601e-06,0.1000587646713148,-5.411872916993186e-07
0.1008528818512459,-3.0904019008429424e-06,0.1008528818512459,-2.2679980613356532e-05,0.1008528818512459,3.149637238626065e-06,0.1008528818512459,1.1186659994816207e-05
0.101646999031177,7.793208798703194e-07,0.101646999031177,-2.113902553076636e-05,0.101646999031177,8.342299419890692e-06,0.101646999031177,2.3843567199271616e-05
0.1024411162111081,2.282827306443791e-06,0.1024411162111081,-2.2719293169761458e-05,0.1024411162111081,1.1128443653221896e-05,0.1024411162111081,2.365003504167596e-05
0.1032352333910391,-4.590140064653039e-06,0.1032352333910391,-2.380491288315121e-05,0.1032352333910391,6.922086862633564e-06,0.1032352333910391,1.0646076835270649e-05
0.1040293505709702,-6.249756151946038e-06,0.1040293505709702,-2.597740507555941e-05,0.1040293505709702,8.442316251255682e-06,0.1040293505709702,-1.0437547181113742e-05
0.1048234677509013,-5.007197311465812e-06,0.1048234677509013,-2.5188263016756517e-05,0.1048234677509013,1.434589589575362e-05,0.1048234677509013,-1.815603091883996e-05
0.1056175849308323,-9.292421985190769e-06,0.1056175849308323,-2.33903976443914e-05,0.1056175849308323,8.003201045354838e-06,0.1056175849308323,-1.4167205015736375e-05
0.1064117021107634,-8.85563902567321e-06,0.1064117021107634,-2.505001459710398e-05,0.1064117021107634,-1.6296235314419686e-06,0.1064117021107634,-1.2291247342294732e-05
0.1072058192906945,-3.702359438198139e-06,0.1072058192906945,-2.576204087266042e-05,0.1072058192906945,2.75532932858636e-06,0.1072058192906945,8.999809774546824e-07
0.1079999364706256,-3.524692704296857e-06,0.1079999364706256,-2.064595200109424e-05,0.1079999364706256,7.72090982008916e-06,0.1079999364706256,2.198665243520279e-05
0.1087940536505566,-3.722562858099475e-06,0.1087940536505566,-1.8789089575160168e-05,0.1087940536505566,-2.4166431123530742e-06,0.1087940536505566,3.292610356425394e-05
0.1095881708304877,-3.95753993688085e-06,0.1095881708304877,-1.7268984879008214e-05,0.1095881708304877,-2.7377687331488e-06,0.1095881708304877,4.463305802622777e-05
0.1103822880104188,-9.030618125357118e-06,0.1103822880104188,-1.616293344818808e-05,0.1103822880104188,5.141975920006612e-06,0.1103822880104188,5.61681470874907e-05
0.1111764051903498,-1.56268981682511e-05,0.1111764051903498,-1.3437232904611896e-05,0.1111764051903498,3.3507387864751667e-06,0.1111764051903498,5.47912432194288e-05
0.1119705223702809,-1.9183556649177188e-05,0.1119705223702809,-1.3555137106396687e-05,0.1119705223702809,-1.4381853275048068e-05,0.1119705223702809,3.0309564441505387e-05
0.112764639550212,-1.9993868695225952e-05,0.112764639550212,-1.549145126394536e-05,0.112764639550212,-1.5136294010599651e-05,0.112764639550212,-3.0112192143442097e-06
0.1135587567301431,-1.786084052060617e-05,0.1135587567301431,-1.2807672867728176e-05,0.1135587567301431,1.0617877824024975e-05,0.1135587567301431,-1.1936967883206376e-05
0.1143528739100741,-1.5846976896292914e-05,0.1143528739100741,-1.0475291743421365e-05,0.1143528739100741,2.029988497574697e-05,0.1143528739100741,-9.518022520528248e-06
0.1151469910900052,-1.678414102221489e-05,0.1151469910900052,-1.2786592588609895e-05,0.1151469910900052,1.3774957336292014e-05,0.1151469910900052,-2.249922137976216e-05
0.1159411082699363,-1.944269578026627e-05,0.1159411082699363,-1.7803217989637374e-05,0.1159411082699363,8.677731948866692e-06,0.1159411082699363,-3.5393626751573964e-05
0.1167352254498673,-1.03791494448144e-05,0.1167352254498673,-2.31324624838908e-05,0.1167352254498673,1.1600979686871054e-05,0.1167352254498673,-4.32745191388954e-05
0.1175293426297984,2.8933869039083875e-06,0.1175293426297984,-2.593814914087993e-05,0.1175293426297984,9.191760978860969e-06,0.1175293426297984,-5.072055985306164e-05
0.1183234598097295,1.2909998225391172e-06,0.1183234598097295,-2.939146858655686e-05,0.1183234598097295,1.7662215454388904e-06,0.1183234598097295,-5.60126058288678e-05
0.1191175769896605,-4.039071561174942e-06,0.1191175769896605,-3.253304604128914e-05,0.1191175769896605,-7.606665465100069e-07,0.1191175769896605,-6.190058175854429e-05
0.1199116941695916,-3.405877754868847e-06,0.1199116941695916,-3.27306e-05,0.1199116941695916,-1.7677085982704552e-06,0.1199116941695916,-8.690306544266381e-05
0.1207058113495227,-6.910931367108151e-07,0.1207058113495227,-3.30663e-05,0.1207058113495227,-2.478346903450194e-06,0.1207058113495227,-0.0001188095911576
0.1214999285294538,-2.181756826027428e-06,0.1214999285294538,-3.3234176878796326e-05,0.1214999285294538,-6.209956625468169e-06,0.1214999285294538,-0.0001419982238188
0.1222940457093848,-3.1006174599050284e-06,0.1222940457093848,-3.221699471167533e-05,0.1222940457093848,-1.95164959484141e-05,0.1222940457093848,-0.0001569160092054
0.1230881628893159,-2.0533509094947107e-06,0.1230881628893159,-3.034374225712956e-05,0.1230881628893159,-2.962720182195063e-05,0.1230881628893159,-0.0001530977090801
0.123882280069247,-1.3538942183564152e-06,0.123882280069247,-2.6233853994248782e-05,0.123882280069247,-3.788366012416918e-05,0.123882280069247,-0.0001248283459676
0.124676397249178,2.594083077513029e-06,0.124676397249178,-2.4356718629485165e-05,0.124676397249178,-3.463028830850597e-05,0.124676397249178,-8.94221589928356e-05
0.1254705144291091,1.2964624692922868e-06,0.1254705144291091,-2.090321142724526e-05,0.1254705144291091,-1.5852991388630616e-05,0.1254705144291091,-4.137312003328039e-05
0.1262646316090402,-1.446454816030655e-05,0.1262646316090402,-2.0013453842439297e-05,0.1262646316090402,5.598019262784193e-06,0.1262646316090402,1.736632598598261e-05
0.1270587487889713,-1.1283998708181423e-05,0.1270587487889713,-1.5198178692162218e-05,0.1270587487889713,1.37741110702394e-05,0.1270587487889713,7.17768937552366e-05
0.1278528659689023,1.3328031300681022e-06,0.1278528659689023,-6.607317012588575e-06,0.1278528659689023,1.5679005471279476e-05,0.1278528659689023,0.0001114018545646
0.1286469831488334,-3.680479398124288e-06,0.1286469831488334,-4.551937846345945e-06,0.1286469831488334,1.8887526269498724e-05,0.1286469831488334,0.0001445342896594
0.1294411003287645,-1.6516176267516095e-05,0.1294411003287645,-6.971295290758119e-06,0.1294411003287645,2.7454123157112843e-05,0.1294411003287645,0.0001574926235222
0.1302352175086955,-2.1849408764514533e-05,0.1302352175086955,-1.157028327749442e-05,0.1302352175086955,3.3126028994966666e-05,0.1302352175086955,0.0001522600918284
0.1310293346886266,-2.0013205249175972e-05,0.1310293346886266,-1.777283346643595e-05,0.1310293346886266,1.5451005298987355e-05,0.1310293346886266,0.000144379356728
0.1318234518685577,-1.1125740082031048e-05,0.1318234518685577,-1.9558931893364696e-05,0.1318234518685577,9.76068795201634e-07,0.1318234518685577,0.0001227696650244
0.1326175690484888,-5.260584012051923e-06,0.1326175690484888,-1.76048954761302e-05,0.1326175690484888,-2.103448729366377e-06,0.1326175690484888,0.0001034991186587
0.1334116862284198,-1.1154759319489738e-06,0.1334116862284198,-1.7565377265205477e-05,0.1334116862284198,-6.567223825466706e-06,0.1334116862284198,9.232381246444616e-05
0.1342058034083509,-4.314932936415424e-06,0.1342058034083509,-2.1098285589435517e-05,0.1342058034083509,-1.0515150002796678e-05,0.1342058034083509,6.365233974907298e-05
0.134999920588282,-8.224266759037998e-06,0.134999920588282,-2.3330794554694088e-05,0.134999920588282,-5.5397164819240025e-06,0.134999920588282,2.33350044807302e-05
0.135794037768213,-9.132832104922868e-06,0.135794037768213,-2.494067672460908e-05,0.135794037768213,3.819044770683929e-06,0.135794037768213,-5.888193234576461e-06
0.1365881549481441,-6.449211790996962e-06,0.1365881549481441,-2.46738e-05,0.1365881549481441,5.7181148709624965e-06,0.1365881549481441,-3.2925960294799775e-05
0.1373822721280752,-3.091187562393287e-06,0.1373822721280752,-2.487125636492264e-05,0.1373822721280752,7.04770633772855e-07,0.1373822721280752,-6.129086657864412e-05
0.1381763893080062,5.500716621024926e-07,0.1381763893080062,-2.659008912343509e-05,0.1381763893080062,-5.891495858130075e-06,0.1381763893080062,-8.206072803738035e-05
0.1389705064879373,3.347255401425558e-06,0.1389705064879373,-2.8149487421964225e-05,0.1389705064879373,-8.787760278966903e-06,0.1389705064879373,-8.918632643209146e-05
0.1397646236678684,3.4952538905109388e-06,0.1397646236678684,-2.7872892284990947e-05,0.1397646236678684,-4.650532659040024e-06,0.1397646236678684,-9.199125723045736e-05
0.1405587408477994,6.413029756618224e-07,0.1405587408477994,-2.822868114382198e-05,0.1405587408477994,-2.85344e-06,0.1405587408477994,-8.973973348969418e-05
0.1413528580277305,-2.18204e-06,0.1413528580277305,-2.7715518767559517e-05,0.1413528580277305,-1.352841434862449e-06,0.1413528580277305,-8.922663547100113e-05
0.1421469752076616,-4.2739871979355726e-06,0.1421469752076616,-2.643122817492868e-05,0.1421469752076616,6.348238083544225e-06,0.1421469752076616,-8.448826383291155e-05
0.1429410923875927,-1.1542482088108109e-05,0.1429410923875927,-2.538440126241421e-05,0.1429410923875927,8.228805408689418e-07,0.1429410923875927,-8.41316179118919e-05
0.1437352095675237,-6.804487247217395e-06,0.1437352095675237,-2.4535677137898865e-05,0.1437352095675237,-4.86763e-06,0.1437352095675237,-8.27110321576355e-05
0.1445293267474548,-1.411939964980442e-06,0.1445293267474548,-2.5028730108235336e-05,0.1445293267474548,4.611529507980589e-06,0.1445293267474548,-7.891870007003912e-05
0.1453234439273859,-6.804332960933938e-06,0.1453234439273859,-2.1910898750853662e-05,0.1453234439273859,1.67771806221637e-05,0.1453234439273859,-7.82099806221637e-05
0.146117561107317,-8.085416841652514e-06,0.146117561107317,-1.948098539044723e-05,0.146117561107317,2.242380349730573e-05,0.146117561107317,-8.978457613069569e-05
0.146911678287248,2.579025611194824e-06,0.146911678287248,-1.82956e-05,0.146911678287248,2.0032613138486103e-05,0.146911678287248,-0.0001012343722229
0.1477057954671791,6.269378360414883e-06,0.1477057954671791,-1.983672405588421e-05,0.1477057954671791,1.5708379971370922e-05,0.1477057954671791,-0.0001047476659654
0.1484999126471102,-2.8523073029511945e-06,0.1484999126471102,-2.114868924924777e-05,0.1484999126471102,4.365495870373743e-06,0.1484999126471102,-0.0001069197482512
0.1492940298270412,-7.157685487636572e-06,0.1492940298270412,-2.380441495411705e-05,0.1492940298270412,-5.6952223540999496e-06,0.1492940298270412,-9.452481092792044e-05
0.1500881470069723,-9.72398073112608e-06,0.1500881470069723,-2.2922849008860657e-05,0.1500881470069723,-1.0947363959002348e-05,0.1500881470069723,-6.32127675305536e-05
0.1508822641869034,-1.2132757996300552e-05,0.1508822641869034,-2.8672454804174728e-05,0.1508822641869034,-1.7422902904347697e-05,0.1508822641869034,-3.2416595211747344e-05
0.1516763813668344,-1.2797001785635577e-05,0.1516763813668344,-2.617285687884163e-05,0.1516763813668344,-2.401912711410509e-05,0.1516763813668344,1.2050992807597782e-05
0.1524704985467655,-7.880460696498002e-06,0.1524704985467655,-2.05879051111004e-05,0.1524704985467655,-2.224615955506669e-05,0.1524704985467655,7.236540996018605e-05
0.1532646157266966,-3.564312832030096e-06,0.1532646157266966,-1.6626866902172216e-05,0.1532646157266966,-1.8335274687518475e-05,0.1532646157266966,0.0001298446505504
0.1540587329066277,-5.430762047638795e-06,0.1540587329066277,-1.3094023700439444e-05,0.1540587329066277,-1.122516131595987e-05,0.1540587329066277,0.0001575929928018
0.1548528500865587,-8.293576823386514e-06,0.1548528500865587,-9.4097796568101e-06,0.1548528500865587,9.428299527295308e-06,0.1548528500865587,0.0001715907571463
0.1556469672664898,-1.4108137878723278e-05,0.1556469672664898,-1.0051490693282328e-05,0.1556469672664898,2.1611876404817865e-05,0.1556469672664898,0.0001612505727276
0.1564410844464209,-1.616408066240645e-05,0.1564410844464209,-1.3951894501239373e-05,0.1564410844464209,2.826543867518709e-05,0.1564410844464209,0.0001174407538146
0.157235201626352,-1.3753994480831073e-05,0.157235201626352,-1.6438968705007886e-05,0.157235201626352,3.5010093516162714e-05,0.157235201626352,7.700971362263385e-05
0.158029318806283,-1.6083982767827572e-05,0.158029318806283,-1.8394916060326807e-05,0.158029318806283,3.502119082808293e-05,0.158029318806283,5.162769980265046e-05
0.1588234359862141,-1.768358575230061e-05,0.1588234359862141,-1.9066354846863668e-05,0.1588234359862141,3.245182796319026e-05,0.1588234359862141,1.7950078396226525e-05
0.1596175531661451,-1.6774328405376914e-05,0.1596175531661451,-1.640027747302554e-05,0.1596175531661451,2.0176432331123797e-05,0.1596175531661451,-1.98082626091043e-05
0.1604116703460762,-1.49386e-05,0.1604116703460762,-1.7506492892228888e-05,0.1604116703460762,1.3141210665137204e-05,0.1604116703460762,-4.304104948905461e-05
0.1612057875260073,-1.6755296462448755e-05,0.1612057875260073,-1.7980226310286467e-05,0.1612057875260073,8.86621231119041e-06,0.1612057875260073,-4.88441e-05
0.1619999047059384,-1.5945768648533227e-05,0.1619999047059384,-1.863111508545385e-05,0.1619999047059384,3.525413510487493e-06,0.1619999047059384,-4.917973135146677e-05
0.1627940218858694,-1.3991357444418205e-05,0.1627940218858694,-2.4260608909012443e-05,0.1627940218858694,-2.459139574449453e-07,0.1627940218858694,-5.008801063889545e-05
0.1635881390658005,-9.491201817960607e-06,0.1635881390658005,-2.562241627520669e-05,0.1635881390658005,-5.093161370192363e-06,0.1635881390658005,-5.135054044373222e-05
0.1643822562457316,-2.383408225418746e-06,0.1643822562457316,-2.5463584367569183e-05,0.1643822562457316,-8.420456378275358e-06,0.1643822562457316,-5.598896459916795e-05
0.1651763734256627,3.3843473781662697e-06,0.1651763734256627,-2.5581852733045926e-05,0.1651763734256627,-1.1007807802531909e-05,0.1651763734256627,-6.035550780253191e-05
0.1659704906055937,9.196303244783726e-07,0.1659704906055937,-2.5384173441645987e-05,0.1659704906055937,-1.0604978831047354e-05,0.1659704906055937,-6.177826844699103e-05
0.1667646077855248,-2.339959886698213e-06,0.1667646077855248,-2.720146146589992e-05,0.1667646077855248,-7.671892748654656e-06,0.1667646077855248,-6.222265167551566e-05
0.1675587249654559,-3.169449184738801e-06,0.1675587249654559,-2.8504298349629023e-05,0.1675587249654559,-6.822747554216402e-06,0.1675587249654559,-6.734784363668084e-05
0.1683528421453869,-5.973400769873863e-06,0.1683528421453869,-2.888027992984045e-05,0.1683528421453869,-1.6715283776175483e-05,0.1683528421453869,-8.409151307315612e-05
0.169146959325318,-2.814625196855159e-06,0.169146959325318,-2.83665e-05,0.169146959325318,-2.356773610971728e-05,0.169146959325318,-0.0001051582483592
0.1699410765052491,-1.7175849798370989e-06,0.1699410765052491,-3.156657191104918e-05,0.1699410765052491,-2.5382645732692596e-05,0.1699410765052491,-0.0001257907696794
0.1707351936851801,-1.4518003639432558e-06,0.1707351936851801,-3.4961735530308216e-05,0.1707351936851801,-2.8445602961126645e-05,0.1707351936851801,-0.0001470413405266
0.1715293108651112,3.169514913688283e-06,0.1715293108651112,-3.170349215365406e-05,0.1715293108651112,-1.3249708731587806e-05,0.1715293108651112,-0.0001559714223584
0.1723234280450423,7.2769000315894845e-06,0.1723234280450423,-3.2235902267082295e-05,0.1723234280450423,1.3009063606747204e-05,0.1723234280450423,-0.0001408185653236
0.1731175452249733,6.071284171789597e-06,0.1731175452249733,-3.1161404853772775e-05,0.1731175452249733,2.641281015949456e-05,0.1731175452249733,-0.000109239422095
0.1739116624049044,2.51774e-06,0.1739116624049044,-2.7822652343464338e-05,0.1739116624049044,2.17505260465141e-05,0.1739116624049044,-6.874179719877818e-05
0.1747057795848355,3.366802762686946e-06,0.1747057795848355,-3.065539025004952e-05,0.1747057795848355,1.7199467773970203e-05,0.1747057795848355,-2.6272675197726653e-05
0.1754998967647666,2.517665630755689e-06,0.1754998967647666,-3.038096709878881e-05,0.1754998967647666,8.561462709994731e-06,0.1754998967647666,1.843365243519654e-06
0.1762940139446976,3.584717430536366e-06,0.1762940139446976,-3.0420838969055957e-05,0.1762940139446976,-1.5469369554448243e-06,0.1762940139446976,1.256512363303511e-05
0.1770881311246287,-6.003217951170813e-07,0.1770881311246287,-2.7500205615840697e-05,0.1770881311246287,-1.059651788452081e-06,0.1770881311246287,4.5013218894069006e-05
0.1778822483045598,-5.141775265380714e-06,0.1778822483045598,-2.1968867350176745e-05,0.1778822483045598,4.845239041382275e-06,0.1778822483045598,9.072807567548636e-05
0.1786763654844909,-8.59836792288223e-06,0.1786763654844909,-1.450282245273164e-05,0.1786763654844909,5.00815838735215e-06,0.1786763654844909,0.0001153837054751
0.1794704826644219,-1.3002101810239504e-05,0.1794704826644219,-8.858944074648098e-06,0.1794704826644219,-2.656451821160186e-06,0.1794704826644219,0.0001230694469989
0.180264599844353,-1.6518262667914007e-05,0.180264599844353,-2.655903419373384e-06,0.180264599844353,1.0415442772488097e-05,0.180264599844353,0.0001520394243209
0.181058717024284,-1.72885e-05,0.181058717024284,4.330266053391104e-06,0.181058717024284,2.463527145008334e-05,0.181058717024284,0.0001887340050312
0.1818528342042151,-1.497830267928995e-05,0.1818528342042151,1.4048148985646048e-05,0.1818528342042151,2.277877273339764e-05,0.1818528342042151,0.0001945770320703
0.1826469513841462,-1.5204372721173145e-05,0.1826469513841462,1.4049535844741853e-05,0.1826469513841462,5.484401978316302e-07,0.1826469513841462,0.0001798718322005
0.1834410685640773,-1.8748550541429045e-05,0.1834410685640773,5.813752412101179e-06,0.1834410685640773,-1.541458243095159e-05,0.1834410685640773,0.0001392626594476
0.1842351857440083,-2.3467928065075803e-05,0.1842351857440083,-2.4764940203525366e-06,0.1842351857440083,-1.0200277098172852e-05,0.1842351857440083,0.0001001138395151
0.1850293029239394,-2.7468019433342517e-05,0.1850293029239394,-7.870310974705506e-06,0.1850293029239394,-2.16922373748968e-05,0.1850293029239394,7.00322922620948e-05
0.1858234201038705,-2.1492677334420004e-05,0.1858234201038705,-1.3277763521066652e-05,0.1858234201038705,-2.714933547035164e-05,0.1858234201038705,4.090162205189128e-05
0.1866175372838016,-1.051105444567786e-05,0.1866175372838016,-1.4345861076139864e-05,0.1866175372838016,-1.4519780477027207e-05,0.1866175372838016,2.776171337068256e-05
0.1874116544637326,1.195778642174923e-06,0.1874116544637326,-1.6835031254046823e-05,0.1874116544637326,-7.395013715821526e-06,0.1874116544637326,2.59032547446982e-06
0.1882057716436637,1.0959025524210731e-06,0.1882057716436637,-2.235954846425532e-05,0.1882057716436637,-7.790172638577465e-06,0.1882057716436637,-3.677892299941975e-05
0.1889998888235948,-3.524349462653271e-06,0.1889998888235948,-2.836570897666386e-05,0.1889998888235948,-7.217600089955414e-06,0.1889998888235948,-5.253535838080254e-05
0.1897940060035258,-4.245680413565984e-06,0.1897940060035258,-3.077657763449284e-05,0.1897940060035258,-1.1461796329051704e-05,0.1897940060035258,-7.488228893160807e-05
0.1905881231834569,-4.748144431711767e-06,0.1905881231834569,-3.280853720760304e-05,0.1905881231834569,-1.0932960815040688e-05,0.1905881231834569,-0.0001014207048977
0.191382240363388,-4.397735350480626e-06,0.191382240363388,-3.5060579094309845e-05,0.191382240363388,1.006886340693066e-06,0.191382240363388,-0.000116868119285
0.192176357543319,3.0270513852144026e-06,0.192176357543319,-3.717392202804697e-05,0.192176357543319,1.4735955278404554e-05,0.192176357543319,-0.0001254374836162
0.1929704747232501,8.263442733118184e-06,0.1929704747232501,-3.77661e-05,0.1929704747232501,1.249162994431166e-05,0.1929704747232501,-0.0001335375700556
0.1937645919031812,6.743831340196186e-06,0.1937645919031812,-3.673921769622347e-05,0.1937645919031812,1.148239601337144e-05,0.1937645919031812,-0.0001350005149807
0.1945587090831123,3.939339125154464e-06,0.1945587090831123,-3.766713892153999e-05,0.1945587090831123,1.8385018549385106e-05,0.1945587090831123,-0.000128008843676
0.1953528262630433,2.9719628462286872e-06,0.1953528262630433,-3.760850047590111e-05,0.1953528262630433,2.619404007639919e-05,0.1953528262630433,-0.0001158665802424
0.1961469434429744,2.4790004670127068e-06,0.1961469434429744,-3.581094360494688e-05,0.1961469434429744,2.096390348003009e-05,0.1961469434429744,-0.0001027755108877
0.1969410606229055,-3.206881063067999e-06,0.1969410606229055,-3.460672481195915e-05,0.1969410606229055,1.2943936023891132e-05,0.1969410606229055,-9.404977726999276e-05
0.1977351778028366,-4.157742863691149e-06,0.1977351778028366,-3.2870040063009776e-05,0.1977351778028366,1.018108047388648e-05,0.1977351778028366,-7.88239464790138e-05
0.1985292949827676,1.0169657297313277e-06,0.1985292949827676,-2.7536586936405208e-05,0.1985292949827676,-5.025613570863261e-06,0.1985292949827676,-6.944020370117232e-05
0.1993234121626987,-3.328386952837032e-06,0.1993234121626987,-2.3945017805527477e-05,0.1993234121626987,-8.165677316562005e-07,0.1993234121626987,-6.364934266848887e-05
0.2001175293426297,-7.317275369099969e-06,0.2001175293426297,-2.469297611099053e-05,0.2001175293426297,5.242654300385336e-06,0.2001175293426297,-3.479367060938564e-05
0.2009116465225608,-1.1542955461874284e-05,0.2009116465225608,-2.3468432825884908e-05,0.2009116465225608,1.0082780442900836e-05,0.2009116465225608,1.00246538598049e-06
0.2017057637024919,-1.9875323704203137e-05,0.2017057637024919,-2.0370871388132444e-05,0.2017057637024919,2.3587707418407026e-05,0.2017057637024919,3.719336821464526e-05
0.202499880882423,-2.5009156757333843e-05,0.202499880882423,-1.7624585238637834e-05,0.202499880882423,1.8632930377102525e-05,0.202499880882423,4.95155e-05
0.203293998062354,-2.0054942698820157e-05,0.203293998062354,-1.6794974469233644e-05,0.203293998062354,5.463979098237647e-06,0.203293998062354,2.245255758581264e-05
0.2040881152422851,-1.4506217000685976e-05,0.2040881152422851,-1.977475415769923e-05,0.2040881152422851,1.4502627896061786e-07,0.2040881152422851,-1.2939010302442131e-05
0.2048822324222162,-1.134668730644379e-05,0.2048822324222162,-2.119857727061289e-05,0.2048822324222162,1.0353345733259396e-05,0.2048822324222162,-4.793702473860372e-05
0.2056763496021472,-6.529660552889995e-06,0.2056763496021472,-1.9125423549544965e-05,0.2056763496021472,1.1416282929684405e-05,0.2056763496021472,-7.223531139112683e-05
0.2064704667820783,-6.604332420159697e-06,0.2064704667820783,-2.1611656735614685e-05,0.2064704667820783,-3.291455452373791e-06,0.2064704667820783,-8.404927906937509e-05
0.2072645839620094,-5.164239672232181e-06,0.2072645839620094,-2.1711838412421126e-05,0.2072645839620094,-3.00821414746776e-05,0.2072645839620094,-8.551578821987877e-05
0.2080587011419405,-4.4333905155606886e-06,0.2080587011419405,-2.2224963275452367e-05,0.2080587011419405,-5.199483254204768e-05,0.2080587011419405,-6.282325477288159e-05
0.2088528183218715,-7.750499213819143e-06,0.2088528183218715,-2.135794299572592e-05,0.2088528183218715,-4.939697142075759e-05,0.2088528183218715,-3.656403655044471e-05
0.2096469355018026,-4.790216781179155e-06,0.2096469355018026,-1.5965000147559062e-05,0.2096469355018026,-6.203316283726271e-05,0.2096469355018026,8.549126336574105e-06
0.2104410526817337,2.7130417452182256e-06,0.2104410526817337,-1.1857770882630708e-05,0.2104410526817337,-6.032386098279927e-05,0.2104410526817337,4.468148009023917e-05
0.2112351698616647,5.87472e-06,0.2112351698616647,-1.0633897644391394e-05,0.2112351698616647,-3.666736308733843e-05,0.2112351698616647,6.27412272853612e-05
0.2120292870415958,-7.601735389276011e-07,0.2120292870415958,-9.487560592246878e-06,0.2120292870415958,1.214115526705668e-06,0.2120292870415958,9.619701650986636e-05
0.2128234042215269,-1.1130285663889608e-05,0.2128234042215269,-4.514347320595137e-06,0.2128234042215269,3.285346330042296e-05,0.2128234042215269,0.000130402231078
0.2136175214014579,-2.355151104784675e-05,0.2136175214014579,-4.689186400005087e-06,0.2136175214014579,4.754343118144293e-05,0.2136175214014579,0.0001298412877984
0.214411638581389,-1.659502619884108e-05,0.214411638581389,-6.190781602644144e-06,0.214411638581389,6.612626422773309e-05,0.214411638581389,0.0001058313804775
0.2152057557613201,-4.630658836720776e-06,0.2152057557613201,-5.991656797337591e-06,0.2152057557613201,8.614621348983768e-05,0.2152057557613201,9.797464046951304e-05
0.2159998729412512,-1.0237335506137784e-05,0.2159998729412512,-1.090921379398364e-05,0.2159998729412512,6.831926810025876e-05,0.2159998729412512,9.651311693724476e-05
0.2167939901211822,-1.6122538534203105e-05,0.2167939901211822,-1.31423466635924e-05,0.2167939901211822,3.876121143452262e-05,0.2167939901211822,9.710677375895628e-05
0.2175881073011133,-1.3342760013392654e-05,0.2175881073011133,-1.49386e-05,0.2175881073011133,1.7384815906662882e-05,0.2175881073011133,8.463479113182595e-05
0.2183822244810444,-3.0384553821840674e-06,0.2183822244810444,-1.6320578820821297e-05,0.2183822244810444,8.490326442401138e-06,0.2183822244810444,6.293869719070045e-05
0.2191763416609755,5.122210248304053e-06,0.2191763416609755,-2.0626594289518613e-05,0.2191763416609755,1.0888626180515488e-05,0.2191763416609755,3.52746626015765e-05
0.2199704588409065,-3.402437487013524e-06,0.2199704588409065,-2.429719055366856e-05,0.2199704588409065,5.32572345522321e-06,0.2199704588409065,1.6196995900263115e-06
0.2207645760208376,-7.672490265010565e-06,0.2207645760208376,-2.832696637952976e-05,0.2207645760208376,-9.60557887028885e-06,0.2207645760208376,-2.298405740679564e-05
0.2215586932007686,2.571274504841618e-07,0.2215586932007686,-3.018275733653095e-05,0.2215586932007686,-2.2917017178793223e-05,0.2215586932007686,-3.857662882246708e-05
0.2223528103806997,-4.116621783886305e-06,0.2223528103806997,-3.255247897803817e-05,0.2223528103806997,-2.260083918845329e-05,0.2223528103806997,-4.489446374831503e-05
0.2231469275606308,-5.836052788500972e-06,0.2231469275606308,-3.203933597607881e-05,0.2231469275606308,-2.076384512280382e-05,0.2231469275606308,-4.602081950878472e-05
0.2239410447405619,-3.6029282314548633e-06,0.2239410447405619,-3.047950215270506e-05,0.2239410447405619,-1.9107454421362845e-05,0.2239410447405619,-4.090832986349913e-05
0.2247351619204929,-5.38077831205792e-06,0.2247351619204929,-3.2097886095467164e-05,0.2247351619204929,-1.3123384283681444e-05,0.2247351619204929,-3.5121232595739366e-05
0.225529279100424,-7.987574861149077e-06,0.225529279100424,-3.221651263945363e-05,0.225529279100424,-9.685924922205507e-06,0.225529279100424,-3.658108174296644e-05
0.2263233962803551,-8.361797429454719e-06,0.2263233962803551,-2.7973489578449105e-05,0.2263233962803551,-9.606316024435076e-06,0.2263233962803551,-5.246094301611741e-05
0.2271175134602862,-3.2074595542076724e-06,0.2271175134602862,-2.674749010166444e-05,0.2271175134602862,-6.594615543516587e-06,0.2271175134602862,-6.496039197098323e-05
0.2279116306402172,-9.96783284193967e-07,0.2279116306402172,-2.6036243533871047e-05,0.2279116306402172,-6.862438343235784e-06,0.2279116306402172,-7.979027207129764e-05
0.2287057478201483,2.0437862074141736e-06,0.2287057478201483,-2.579780581140457e-05,0.2287057478201483,-7.94810947401501e-06,0.2287057478201483,-9.69871347800064e-05
0.2294998650000794,1.1753290083549064e-06,0.2294998650000794,-2.853391972282581e-05,0.2294998650000794,-1.0574013742453362e-05,0.2294998650000794,-0.0001049047357518
0.2302939821800104,-3.83950676340813e-06,0.2302939821800104,-3.095434937342309e-05,0.2302939821800104,-1.5587385327415973e-05,0.2302939821800104,-0.0001150528801507
0.2310880993599415,-6.7622656355473125e-06,0.2310880993599415,-3.129045553822379e-05,0.2310880993599415,-2.7612359724415592e-05,0.2310880993599415,-0.0001114679286922
0.2318822165398726,-8.588168883522108e-06,0.2318822165398726,-2.931445918136709e-05,0.2318822165398726,-2.427184127738808e-05,0.2318822165398726,-9.952627203197512e-05
0.2326763337198036,-1.241821981993094e-05,0.2326763337198036,-3.158577817055862e-05,0.2326763337198036,-3.792566582932218e-06,0.2326763337198036,-0.000101505415644
0.2334704508997347,-1.740477812122638e-05,0.2334704508997347,-3.350025324485917e-05,0.2334704508997347,2.675900156564468e-06,0.2334704508997347,-0.0001057353014971
0.2342645680796658,-1.997506722350868e-05,0.2342645680796658,-3.350078744243682e-05,0.2342645680796658,-2.2680511259705585e-07,0.2342645680796658,-0.0001052217723841
0.2350586852595969,-1.390921795251407e-06,0.2350586852595969,-2.9554217500461382e-05,0.2350586852595969,2.281107410870874e-06,0.2350586852595969,-0.0001046686267723
0.2358528024395279,2.6014673772129695e-05,0.2358528024395279,-2.2878879943638805e-05,0.2358528024395279,1.7464838913524498e-05,0.2358528024395279,-9.037410631840993e-05
0.236646919619459,2.3948108678007178e-05,0.236646919619459,-1.876938478320933e-05,0.236646919619459,2.6706120608351653e-05,0.236646919619459,-5.430719017042231e-05
0.2374410367993901,1.7760281443182869e-06,0.2374410367993901,-1.5985008921796584e-05,0.2374410367993901,2.5351072873507066e-05,0.2374410367993901,-1.6861997895327312e-06
0.2382351539793211,-1.5883305576992828e-05,0.2382351539793211,-1.4721715834843472e-05,0.2382351539793211,1.420967877618573e-05,0.2382351539793211,4.087588247967521e-05
0.2390292711592522,-1.691352088821303e-05,0.2390292711592522,-1.1462022270762255e-05,0.2390292711592522,2.162243452581532e-05,0.2390292711592522,9.642230009273676e-05
0.2398233883391833,-8.559374629701236e-06,0.2398233883391833,-7.46973854557883e-07,0.2398233883391833,3.437015714016993e-05,0.2398233883391833,0.0001632473053072
0.2406175055191144,-6.803137001147117e-06,0.2406175055191144,1.4129460239442908e-06,0.2406175055191144,3.367739049598509e-05,0.2406175055191144,0.0001850986233428
0.2414116226990454,-1.1147707600708532e-05,0.2414116226990454,-2.2221741692636986e-06,0.2414116226990454,2.1710187934409368e-05,0.2414116226990454,0.000153389772806
0.2422057398789765,-1.4741165258613245e-05,0.2422057398789765,-5.615129535554898e-06,0.2422057398789765,8.16574697800929e-06,0.2422057398789765,0.0001075237461333
0.2429998570589076,-1.2253617836798982e-05,0.2429998570589076,-9.566762801842703e-06,0.2429998570589076,-2.515989468537692e-06,0.2429998570589076,5.355373385637273e-05
0.2437939742388386,-1.195622872243961e-05,0.2437939742388386,-1.3833713417816889e-05,0.2437939742388386,-1.273225040705083e-05,0.2437939742388386,1.5008184340577595e-05
0.2445880914187697,-1.1443644324126871e-05,0.2445880914187697,-1.561e-05,0.2445880914187697,-3.025646919333569e-05,0.2445880914187697,-5.7688711347298185e-06
0.2453822085987008,-1.0300555389245068e-05,0.2453822085987008,-1.679449163680762e-05,0.2453822085987008,-3.452650533279911e-05,0.2453822085987008,-1.889913100462969e-05
0.2461763257786318,-6.015485440819328e-06,0.2461763257786318,-2.231527544672136e-05,0.2461763257786318,-3.90060541427626e-05,0.2461763257786318,-3.540544929645602e-05
0.2469704429585629,-1.294373617158213e-06,0.2469704429585629,-2.720997548880664e-05,0.2469704429585629,-3.60520834227868e-05,0.2469704429585629,-6.129402386508905e-05
0.247764560138494,-2.892368220666552e-06,0.247764560138494,-2.9946192011502432e-05,0.247764560138494,-1.886070339086191e-05,0.247764560138494,-9.210724653374291e-05
0.2485586773184251,-6.151244947554258e-06,0.2485586773184251,-3.2235692074954886e-05,0.2485586773184251,1.1954108975895312e-06,0.2485586773184251,-0.0001167941376196
0.2493527944983561,-3.4760713623923395e-06,0.2493527944983561,-3.644032980785367e-05,0.2493527944983561,7.494482694967058e-06,0.2493527944983561,-0.0001619292282371
0.2501469116782872,1.884941940658333e-06,0.2501469116782872,-4.132068439769964e-05,0.2501469116782872,-4.350637187686346e-06,0.2501469116782872,-0.0001985221308907
0.2509410288582183,3.5053174894294897e-06,0.2509410288582183,-4.027374306630642e-05,0.2509410288582183,-1.690979637754418e-05,0.2509410288582183,-0.0001977302144898
0.2517351460381494,2.419451856179698e-06,0.2517351460381494,-3.751059137755834e-05,0.2517351460381494,-2.2678774432238625e-05,0.2517351460381494,-0.0001546427162364
0.2525292632180804,1.17494e-06,0.2525292632180804,-3.3203799980684344e-05,0.2525292632180804,-2.384428010833257e-05,0.2525292632180804,-0.000107435065339
0.2533233803980115,-6.42613067545294e-07,0.2533233803980115,-2.342662861178322e-05,0.2533233803980115,-3.2187198863468426e-05,0.2533233803980115,-5.880258431157711e-05
0.2541174975779426,-8.187763332362595e-06,0.2541174975779426,-9.589892048250486e-06,0.2541174975779426,-2.5144724125498565e-05,0.2541174975779426,2.8944863950707e-05
0.2549116147578736,-2.1574785210511717e-05,0.2549116147578736,-4.823087980527993e-07,0.2549116147578736,-2.214586562616488e-05,0.2549116147578736,0.0001161888231562
0.2557057319378047,-2.90379e-05,0.2557057319378047,1.0859207484415032e-06,0.2557057319378047,-2.8746265657861686e-06,0.2557057319378047,0.0001527030221073
0.2564998491177358,-2.7024352161065487e-05,0.2564998491177358,2.18174721863534e-06,0.2564998491177358,3.373052626065782e-05,0.2564998491177358,0.0001492200106842
0.2572939662976669,-2.672691152339847e-05,0.2572939662976669,8.192363920555607e-07,0.2572939662976669,6.179195624958367e-05,0.2572939662976669,0.0001182370374895
0.2580880834775979,-2.4972800571405803e-05,0.2580880834775979,-1.8730756136058618e-07,0.2580880834775979,6.075940159993626e-05,0.2580880834775979,8.262594406453118e-05
0.258882200657529,-1.8771353110403253e-05,0.258882200657529,-1.0957737044166429e-06,0.258882200657529,4.369949989490672e-05,0.258882200657529,5.900575990658082e-05
0.2596763178374601,-1.6736226188689493e-05,0.2596763178374601,-3.3870657249969424e-06,0.2596763178374601,5.408524634654245e-05,0.2596763178374601,4.316443342697584e-05
0.2604704350173911,-1.0280836062131867e-05,0.2604704350173911,-6.603354332091491e-06,0.2604704350173911,6.0091682141361264e-05,0.2604704350173911,4.684598675520224e-05
0.2612645521973222,-7.98669387538805e-06,0.2612645521973222,-1.5629210926290017e-05,0.2612645521973222,4.5529487777457935e-05,0.2612645521973222,5.723543827231319e-05
0.2620586693772533,-1.7269042965571852e-05,0.2620586693772533,-2.4592075658549187e-05,0.2620586693772533,2.589766649799934e-05,0.2620586693772533,6.855192505769666e-05
0.2628527865571843,-1.1188394250958848e-05,0.2628527865571843,-2.76951e-05,0.2628527865571843,2.7516684887027705e-05,0.2628527865571843,8.863199354019948e-05
0.2636469037371154,7.627729214682498e-06,0.2636469037371154,-2.718164880713044e-05,0.2636469037371154,2.4123388467912944e-05,0.2636469037371154,8.348938774611855e-05
0.2644410209170465,1.906861169412844e-05,0.2644410209170465,-2.8337228736706127e-05,0.2644410209170465,1.3424310413896582e-05,0.2644410209170465,3.067098138673156e-05
0.2652351380969776,6.5513851348931074e-06,0.2652351380969776,-3.084414518331209e-05,0.2652351380969776,1.0984341468112656e-06,0.2652351380969776,-4.335625844292706e-05
0.2660292552769086,-7.671557746219657e-06,0.2660292552769086,-3.591023328556364e-05,0.2660292552769086,-1.3724973522682063e-06,0.2660292552769086,-8.082345089825475e-05
0.2668233724568397,-3.246795517159047e-06,0.2668233724568397,-3.669056922495077e-05,0.2668233724568397,2.2023781520215187e-06,0.2668233724568397,-8.910757775682208e-05
0.2676174896367708,4.2865750350002015e-06,0.2676174896367708,-3.588998953962227e-05,0.2676174896367708,-1.4736901386279e-06,0.2676174896367708,-8.86348881381845e-05
0.2684116068167018,4.34413735637882e-06,0.2684116068167018,-3.829988739608406e-05,0.2684116068167018,-2.3886585231308785e-05,0.2684116068167018,-9.36107058784242e-05
0.2692057239966329,3.2680518213639507e-06,0.2692057239966329,-4.4083127556104864e-05,0.2692057239966329,-4.451915326231371e-05,0.2692057239966329,-9.673025314199383e-05
0.269999841176564,8.55870820770792e-06,0.269999841176564,-4.548699726969659e-05,0.269999841176564,-4.381007293658218e-05,0.269999841176564,-0.0001002055423431
0.270793958356495,1.2214105675642596e-05,0.270793958356495,-4.71656e-05,0.270793958356495,-2.162213801158545e-05,0.270793958356495,-9.89038290030175e-05
0.2715880755364261,1.01997631394748e-05,0.2715880755364261,-4.51514e-05,0.2715880755364261,-8.380881149923066e-06,0.2715880755364261,-8.080985687817625e-05
0.2723821927163572,9.13705107147293e-06,0.2723821927163572,-4.495399500022907e-05,0.2723821927163572,-2.0988159922070123e-05,0.2723821927163572,-5.414650559226923e-05
0.2731763098962882,9.043841701612728e-07,0.2731763098962882,-4.210967771220047e-05,0.2731763098962882,-3.6052254608851566e-05,0.2731763098962882,-3.8121002356762656e-05
0.2739704270762193,-1.114235377498346e-05,0.2739704270762193,-3.553929816808705e-05,0.2739704270762193,-3.168822369265378e-05,0.2739704270762193,-5.791673163505782e-06
0.2747645442561504,-2.3784441776603104e-05,0.2747645442561504,-2.534570123121522e-05,0.2747645442561504,-8.03174214167674e-06,0.2747645442561504,4.504620061940512e-05
0.2755586614360815,-2.2876703473079325e-05,0.2755586614360815,-1.5674628603954594e-05,0.2755586614360815,2.5266789101790528e-05,0.2755586614360815,8.470521931397422e-05
0.2763527786160125,-9.075758533110532e-06,0.2763527786160125,-1.5180976714583812e-06,0.2763527786160125,2.303785445601166e-05,0.2763527786160125,8.733218059254867e-05
0.2771468957959436,-4.273299239706598e-06,0.2771468957959436,1.1196633597529327e-05,0.2771468957959436,-1.240167124311265e-05,0.2771468957959436,4.519251912319686e-05
0.2779410129758747,-1.2092814632280116e-05,0.2779410129758747,8.283254485085901e-06,0.2779410129758747,-3.160649024514659e-05,0.2779410129758747,-3.452474376517685e-05
0.2787351301558057,-1.3912394907261883e-05,0.2787351301558057,6.170290125746478e-06,0.2787351301558057,-2.8939646180446416e-05,0.2787351301558057,-6.451279124475573e-05
0.2795292473357368,-1.3378413847713095e-05,0.2795292473357368,7.257285609186653e-06,0.2795292473357368,-3.010444338274428e-05,0.2795292473357368,-3.377961469050039e-05
0.2803233645156679,-1.603469256145663e-05,0.2803233645156679,1.0927577614678114e-05,0.2803233645156679,-7.506276402734591e-06,0.2803233645156679,4.221291025935768e-06
0.2811174816955989,-1.570839088398565e-05,0.2811174816955989,7.417593084054788e-06,0.2811174816955989,2.882719419792333e-05,0.2811174816955989,2.886425077033953e-05
0.2819115988755301,-1.42672e-05,0.2819115988755301,-2.6181781186902592e-06,0.2819115988755301,2.4711998950474052e-05,0.2819115988755301,3.6917528102516e-05
0.2827057160554611,-1.590610051495676e-05,0.2827057160554611,-6.566538767559514e-06,0.2827057160554611,1.4997700686609012e-05,0.2827057160554611,3.7273196223650434e-05
0.2834998332353922,-1.695267986506688e-05,0.2834998332353922,-6.881604266362871e-06,0.2834998332353922,2.265719733712395e-05,0.2834998332353922,1.796494563140474e-05
0.2842939504153233,-1.2097491498734644e-05,0.2842939504153233,-1.1167997553587789e-05,0.2842939504153233,1.879377160798456e-05,0.2842939504153233,-3.1130098586618146e-05
0.2850880675952543,-7.948737155316537e-06,0.2850880675952543,-1.659257354071339e-05,0.2850880675952543,1.3830146291488024e-05,0.2850880675952543,-8.762232660486106e-05
0.2858821847751854,-5.936595782020736e-06,0.2858821847751854,-2.4810939009630422e-05,0.2858821847751854,1.583474176216215e-05,0.2858821847751854,-0.0001220200161548
0.2866763019551165,-1.3754139824844462e-06,0.2866763019551165,-3.2000525892938983e-05,0.2866763019551165,1.619378022363257e-06,0.2866763019551165,-0.0001243007453576
0.2874704191350475,5.458177357355952e-06,0.2874704191350475,-3.429035607636891e-05,0.2874704191350475,-1.3117743923858448e-05,0.2874704191350475,-9.659670343802285e-05
0.2882645363149786,3.940799624998882e-06,0.2882645363149786,-3.648193667994164e-05,0.2882645363149786,-2.5244869138983736e-05,0.2882645363149786,-5.876135178169311e-05
0.2890586534949096,-6.802931045404861e-06,0.2890586534949096,-4.666619626145429e-05,0.2890586534949096,-3.622586831136976e-05,0.2890586534949096,-3.314510578964506e-05
0.2898527706748408,-9.291673264108245e-06,0.2898527706748408,-5.6739557096648665e-05,0.2898527706748408,-5.0303424714613735e-05,0.2898527706748408,-3.538344303206888e-05
0.2906468878547718,3.362379613419676e-06,0.2906468878547718,-6.405921863013574e-05,0.2906468878547718,-6.753855723377026e-05,0.2906468878547718,-6.899685347300535e-05
0.2914410050347029,1.6140658927951734e-05,0.2914410050347029,-6.651731726789501e-05,0.2914410050347029,-7.981274120867094e-05,0.2914410050347029,-8.446598638792403e-05
0.292235122214634,1.93027e-05,0.292235122214634,-6.130674156178893e-05,0.292235122214634,-5.86479254825632e-05,0.292235122214634,-6.097734225815565e-05
0.293029239394565,1.6380529511684858e-05,0.293029239394565,-6.065284387361853e-05,0.293029239394565,-1.5869713105885922e-05,0.293029239394565,-3.3581773460761255e-05
0.2938233565744961,7.412803086032513e-06,0.2938233565744961,-5.528721217259513e-05,0.2938233565744961,2.495766244975593e-05,0.2938233565744961,1.3862278180447416e-05
0.2946174737544272,-7.793810843476067e-06,0.2946174737544272,-4.191607653331394e-05,0.2946174737544272,6.684175254275524e-05,0.2946174737544272,7.237481959831757e-05
0.2954115909343582,-1.5136115003578636e-05,0.2954115909343582,-2.544089944142801e-05,0.2954115909343582,8.454831129922804e-05,0.2954115909343582,0.0001298718993684
0.2962057081142893,-1.6014493589991697e-05,0.2962057081142893,4.000782074589532e-06,0.2962057081142893,0.0001150637775455,0.2962057081142893,0.0002259484909909
0.2969998252942204,-2.0476593154846348e-05,0.2969998252942204,2.0307426929991906e-05,0.2969998252942204,0.0001186712025674,0.2969998252942204,0.0002700662313257
0.2977939424741515,-1.9254973529932927e-05,0.2977939424741515,2.256171661996364e-05,0.2977939424741515,8.377114552969312e-05,0.2977939424741515,0.0001929124705986
0.2985880596540825,-2.245684830063128e-05,0.2985880596540825,2.77145432097794e-05,0.2985880596540825,4.787043487245704e-05,0.2985880596540825,0.0001295008479529
0.2993821768340136,-3.181803396766068e-05,0.2993821768340136,2.7142553130132885e-05,0.2993821768340136,5.202848444810992e-05,0.2993821768340136,8.842545567801277e-05
0.3001762940139447,-3.618497897408785e-05,0.3001762940139447,2.8070370000925437e-05,0.3001762940139447,9.335556415472962e-05,0.3001762940139447,3.0060710179856515e-05
0.3009704111938757,-2.6654844862508945e-05,0.3009704111938757,2.5546137781901325e-05,0.3009704111938757,7.907138856609778e-05,0.3009704111938757,-1.0625263731818904e-05
0.3017645283738068,-8.818557798897564e-06,0.3017645283738068,1.5788927365843045e-05,0.3017645283738068,3.031909916775254e-05,0.3017645283738068,-3.321826803272217e-05
0.3025586455537379,-4.354205927300868e-06,0.3025586455537379,-2.250354032422045e-06,0.3025586455537379,-1.4395437469601231e-05,0.3025586455537379,-8.184123577904518e-05
0.3033527627336689,-5.53903e-06,0.3033527627336689,-1.969256727739011e-05,0.3033527627336689,-3.7328901269173285e-05,0.3033527627336689,-0.0001205422477277
0.3041468799136,-5.686185461669335e-06,0.3041468799136,-2.86824324295602e-05,0.3041468799136,-6.299240824030112e-05,0.3041468799136,-0.0001163641587358
0.3049409970935311,-1.1382331118470396e-05,0.3049409970935311,-3.27306e-05,0.3049409970935311,-9.084538031956295e-05,0.3049409970935311,-0.0001049510015655
0.3057351142734621,-1.205656100942589e-05,0.3057351142734621,-2.9139136799968807e-05,0.3057351142734621,-8.737323911117436e-05,0.3057351142734621,-8.443694499949206e-05
0.3065292314533932,-8.817427455991739e-06,0.3065292314533932,-2.184986363685727e-05,0.3065292314533932,-8.038073007819413e-05,0.3065292314533932,-6.245063609383297e-05
0.3073233486333243,-1.0751468160555786e-06,0.3073233486333243,-2.453190346080836e-05,0.3073233486333243,-7.295368915938695e-05,0.3073233486333243,-6.108768437032203e-05
0.3081174658132554,2.962234753257524e-06,0.3081174658132554,-3.339936021130467e-05,0.3081174658132554,-5.345882633247211e-05,0.3081174658132554,-6.082982098696991e-05
0.3089115829931864,2.912758541129812e-06,0.3089115829931864,-3.581092305888619e-05,0.3089115829931864,-1.876747676567718e-05,0.3089115829931864,-5.847081854112981e-05
0.3097057001731175,2.991762588750248e-06,0.3097057001731175,-3.2710160686379794e-05,0.3097057001731175,2.956699989819383e-07,0.3097057001731175,-7.72758218746029e-05
0.3104998173530486,3.860003698498143e-06,0.3104998173530486,-3.776444604211527e-05,0.3104998173530486,5.873601608818619e-06,0.3104998173530486,-0.0001448353161967
0.3112939345329796,1.1874769008069634e-05,0.3112939345329796,-4.373064742011209e-05,0.3112939345329796,3.623192674835784e-05,0.3112939345329796,-0.0002373179145151
0.3120880517129107,1.520531595140275e-05,0.3120880517129107,-4.759849036632122e-05,0.3120880517129107,4.57042926920446e-05,0.3120880517129107,-0.0002697570402159
0.3128821688928418,1.4337239709950843e-05,0.3128821688928418,-4.957457918045088e-05,0.3128821688928418,1.2380433490327684e-05,0.3128821688928418,-0.0002430442411011
0.3136762860727728,1.4424142068432511e-05,0.3136762860727728,-4.91798e-05,0.3136762860727728,-2.5581932847775345e-05,0.3136762860727728,-0.0002073117605882
0.314470403252704,1.555206688498643e-05,0.314470403252704,-4.809507098330705e-05,0.314470403252704,-5.0494047088224346e-05,0.314470403252704,-0.0001705629593996
0.315264520432635,1.4760694031053976e-05,0.315264520432635,-4.461864175129669e-05,0.315264520432635,-6.383450408301009e-05,0.315264520432635,-9.323531515288684e-05
0.3160586376125661,1.0851054297767344e-05,0.3160586376125661,-3.644957323668743e-05,0.3160586376125661,-2.8781789294279435e-05,0.3160586376125661,4.343167678566562e-05
0.3168527547924971,-8.320036993669722e-06,0.3168527547924971,-2.0040070990523503e-05,0.3168527547924971,1.2959764177777154e-05,0.3168527547924971,0.0001658286414206
0.3176468719724282,-2.2874044626041477e-05,0.3176468719724282,-9.25154199199551e-06,0.3176468719724282,1.1488550837733585e-05,0.3176468719724282,0.0002277434281542
0.3184409891523593,-2.8940477866161027e-05,0.3184409891523593,-8.47152566561065e-06,0.3184409891523593,4.440596316850695e-06,0.3184409891523593,0.0002500158752315
0.3192351063322903,-2.4280990667385268e-05,0.3192351063322903,-7.544431280229413e-06,0.3192351063322903,3.546427257855947e-05,0.3192351063322903,0.0002690184982286
0.3200292235122214,-2.575943046668395e-05,0.3200292235122214,-4.630604439103125e-06,0.3200292235122214,6.764065893420357e-05,0.3200292235122214,0.0002810283895509
0.3208233406921525,-2.698329475479146e-05,0.3208233406921525,-6.119533315200993e-06,0.3208233406921525,8.39725750284198e-05,0.3208233406921525,0.000270596935453
0.3216174578720835,-2.0999871348088535e-05,0.3216174578720835,-1.011968186137778e-05,0.3216174578720835,6.420150724843702e-05,0.3216174578720835,0.000216404053603
0.3224115750520147,-1.8176985849794967e-05,0.3224115750520147,-9.014086350640795e-06,0.3224115750520147,3.22150065404094e-05,0.3224115750520147,0.0001456793519728
0.3232056922319457,-1.622236810955541e-05,0.3232056922319457,-6.251323868719894e-06,0.3232056922319457,1.2154893666307213e-06,0.3232056922319457,7.714684916245301e-05
0.3239998094118768,-1.5609862702933548e-05,0.3239998094118768,-4.867876552728199e-06,0.3239998094118768,1.8441432592063575e-06,0.3239998094118768,2.468547020974985e-05
0.3247939265918079,-1.4387465258152166e-05,0.3247939265918079,-1.004280477388613e-05,0.3247939265918079,1.6133886926151616e-06,0.3247939265918079,-2.090585099822849e-05
0.3255880437717389,-5.226772883445651e-06,0.3255880437717389,-1.6782277067976617e-05,0.3255880437717389,-1.2325831447349736e-05,0.3255880437717389,-5.189133622279948e-05
0.32638216095167,-1.963642138552361e-06,0.32638216095167,-2.016137498692148e-05,0.32638216095167,-2.1676853799727384e-05,0.32638216095167,-7.359422281122519e-05
0.3271762781316011,-3.957864983546404e-06,0.3271762781316011,-2.100097398169744e-05,0.3271762781316011,-2.6233116604199503e-05,0.3271762781316011,-9.302521662706504e-05
0.3279703953115321,-4.670830604626524e-06,0.3279703953115321,-2.190826002219485e-05,0.3279703953115321,-2.1733554688409943e-05,0.3279703953115321,-0.0001163699919383
0.3287645124914632,-3.18914e-06,0.3287645124914632,-2.548303747027673e-05,0.3287645124914632,-1.4505521872577471e-05,0.3287645124914632,-0.0001350382137159
0.3295586296713942,-5.400713308629447e-06,0.3295586296713942,-2.864185062066965e-05,0.3295586296713942,-9.80441805138067e-06,0.3295586296713942,-0.0001423064038857
0.3303527468513254,-8.698930705463006e-06,0.3303527468513254,-3.10521e-05,0.3303527468513254,-5.066365228103215e-06,0.3303527468513254,-0.0001656615324911
0.3311468640312564,-1.6512566848915265e-06,0.3311468640312564,-2.8485100861410623e-05,0.3311468640312564,6.264906630216948e-06,0.3311468640312564,-0.0001913160050305
0.3319409812111875,1.807382612491864e-06,0.3319409812111875,-2.7813789116855867e-05,0.3319409812111875,1.5711955674951182e-05,0.3319409812111875,-0.0001884501741754
0.3327350983911186,6.618893325967944e-07,0.3327350983911186,-3.247186126972091e-05,0.3327350983911186,4.22147885618091e-06,0.3327350983911186,-0.0001776669474696
0.3335292155710496,2.359334446039725e-06,0.3335292155710496,-3.7864982034740536e-05,0.3335292155710496,-1.1718703029767274e-05,0.3335292155710496,-0.000153398803794
0.3343233327509807,3.0301748775256937e-06,0.3343233327509807,-4.267946811237712e-05,0.3343233327509807,-2.054704553222505e-05,0.3343233327509807,-9.990262900906308e-05
0.3351174499309118,-5.2839985922754514e-06,0.3351174499309118,-5.015572720551817e-05,0.3351174499309118,-2.580096890388411e-05,0.3351174499309118,-4.0400821220366685e-05
0.3359115671108428,-3.1690622287133225e-06,0.3359115671108428,-4.997915300082822e-05,0.3359115671108428,-3.648279753182569e-05,0.3359115671108428,1.0863052083125392e-05
0.3367056842907739,7.078188734009623e-06,0.3367056842907739,-4.240335217837684e-05,0.3367056842907739,-3.0105982812077422e-05,0.3367056842907739,4.749939675184111e-05
0.337499801470705,1.3930498875557237e-05,0.337499801470705,-3.3068611431826565e-05,0.337499801470705,-1.5613146348502982e-05,0.337499801470705,5.28736441422203e-05
0.338293918650636,8.277967444045561e-06,0.338293918650636,-2.775324585509868e-05,0.338293918650636,-8.08003966348012e-06,0.338293918650636,3.954745002508898e-05
0.3390880358305671,-1.6849121867837373e-06,0.3390880358305671,-2.4892933198596816e-05,0.3390880358305671,-2.218394874495798e-06,0.3390880358305671,2.9747258604892185e-05
0.3398821530104982,-4.750345060488704e-06,0.3398821530104982,-2.0824186307195124e-05,0.3398821530104982,-1.828201766865265e-05,0.3398821530104982,2.1862393618401714e-06
0.3406762701904293,-4.96494032555465e-06,0.3406762701904293,-1.823678234709572e-05,0.3406762701904293,-3.8582295511380514e-05,0.3406762701904293,-2.61018158459472e-05
0.3414703873703603,-7.04967e-06,0.3414703873703603,-2.0960606590924628e-05,0.3414703873703603,-4.922227698929288e-05,0.3414703873703603,-3.788182893296042e-05
0.3422645045502914,-7.98795562756862e-06,0.3422645045502914,-1.7980242480036186e-05,0.3422645045502914,-2.943758709000923e-05,0.3422645045502914,-2.8076374626646687e-05
0.3430586217302225,-3.110388300151819e-06,0.3430586217302225,-1.13883620720474e-05,0.3430586217302225,-1.0831651961546478e-05,0.3430586217302225,1.0454670399286574e-05
0.3438527389101535,-7.55145660554195e-06,0.3438527389101535,-6.566849304113521e-06,0.3438527389101535,-6.093597485078571e-06,0.3438527389101535,3.657848044675404e-05
0.3446468560900846,-1.691122878248495e-05,0.3446468560900846,-4.768945667968758e-06,0.3446468560900846,1.5184708676449467e-05,0.3446468560900846,5.428560218130069e-05
0.3454409732700157,-1.983778927481734e-05,0.3454409732700157,-1.609223138699758e-06,0.3454409732700157,4.853107838447851e-05,0.3454409732700157,7.721805664666341e-05
0.3462350904499467,-1.6598109321483882e-05,0.3462350904499467,3.206594259730052e-06,0.3462350904499467,8.131807882070952e-05,0.3462350904499467,7.82684413125968e-05
0.3470292076298778,-2.2796636279478053e-05,0.3470292076298778,9.3505580735014e-06,0.3470292076298778,9.104380083809032e-05,0.3470292076298778,6.728979372867676e-05
0.3478233248098089,-3.152654529876142e-05,0.3478233248098089,1.2668332159027466e-05,0.3478233248098089,9.325761216595984e-05,0.3478233248098089,4.860579875701947e-05
0.34861744198974,-3.5515575818783464e-05,0.34861744198974,9.350869230437438e-06,0.34861744198974,0.000113972923503,0.34861744198974,3.4504846179010494e-05
0.349411559169671,-3.377697928476199e-05,0.349411559169671,8.24429976250756e-06,0.349411559169671,9.607759336842988e-05,0.349411559169671,1.1876936833509958e-05
0.3502056763496021,-2.8347199453913883e-05,0.3502056763496021,2.5034158550706947e-06,0.3502056763496021,8.335991580474856e-05,0.3502056763496021,-8.479858772873136e-06
0.3509997935295332,-2.635244873848862e-05,0.3509997935295332,-4.865760316036936e-06,0.3509997935295332,8.979959747697725e-05,0.3509997935295332,-1.6951461353602403e-05
0.3517939107094642,-2.066881442031104e-05,0.3517939107094642,-1.4288741383768216e-05,0.3517939107094642,4.507437541413765e-05,0.3517939107094642,-2.4097415508824667e-05
0.3525880278893953,-1.140739617872837e-05,0.3525880278893953,-2.182739818774821e-05,0.3525880278893953,3.4032226533122475e-06,0.3525880278893953,-4.032103176574572e-05
0.3533821450693264,-6.75650181323455e-06,0.3533821450693264,-2.7042290168159e-05,0.3533821450693264,-2.3825482956599137e-05,0.3533821450693264,-6.393682274789486e-05
0.3541762622492574,-3.979736278644923e-06,0.3541762622492574,-3.25135484831292e-05,0.3541762622492574,-4.604892357520829e-05,0.3541762622492574,-7.89912434921957e-05
0.3549703794291886,-3.486281858969669e-06,0.3549703794291886,-3.296813921241387e-05,0.3549703794291886,-4.882482328592873e-05,0.3549703794291886,-8.761532459924183e-05
0.3557644966091196,2.279253248086335e-06,0.3557644966091196,-3.148677235698301e-05,0.3557644966091196,-5.275141648144849e-05,0.3557644966091196,-8.1487622345701e-05
0.3565586137890507,7.770284124232183e-06,0.3565586137890507,-2.7540571177284934e-05,0.3565586137890507,-7.123623386883689e-05,0.3565586137890507,-8.053778922546901e-05
0.3573527309689818,8.136137215708615e-06,0.3573527309689818,-2.309267140872436e-05,0.3573527309689818,-8.383524178803435e-05,0.3573527309689818,-7.157679912615263e-05
0.3581468481489128,8.125485585333524e-06,0.3581468481489128,-2.925472012333004e-05,0.3581468481489128,-7.002222118815651e-05,0.3581468481489128,-6.120253096092104e-05
0.3589409653288439,6.487718896719591e-06,0.3589409653288439,-3.982992580261391e-05,0.3589409653288439,-4.5355592333555816e-05,0.3589409653288439,-7.13359e-05
0.3597350825087749,1.0156312156755637e-05,0.3597350825087749,-4.190469724018753e-05,0.3597350825087749,-2.904452373679122e-05,0.3597350825087749,-7.005331525541047e-05
0.360529199688706,2.1079412078372296e-05,0.360529199688706,-3.255272629097061e-05,0.360529199688706,-1.1167528696371848e-05,0.360529199688706,-6.0260212860615496e-05
0.3613233168686371,1.7524700758756876e-05,0.3613233168686371,-3.36353667323389e-05,0.3613233168686371,-2.351098017589712e-05,0.3613233168686371,-2.7966527983401855e-05
0.3621174340485681,9.783212178236125e-06,0.3621174340485681,-4.169418225614451e-05,0.3621174340485681,-3.610815522760146e-05,0.3621174340485681,2.187862745245852e-05
0.3629115512284993,3.0705905287816685e-06,0.3629115512284993,-4.220897959609086e-05,0.3629115512284993,-1.8136873595266124e-05,0.3629115512284993,5.780992621742472e-05
0.3637056684084303,7.76980608391916e-06,0.3637056684084303,-3.8567479387717055e-05,0.3637056684084303,6.4053960920988686e-06,0.3637056684084303,6.211565298145932e-05
0.3644997855883614,4.869946874192863e-06,0.3644997855883614,-3.77661e-05,0.3644997855883614,2.366268410681769e-05,0.3644997855883614,4.683453377599237e-05
0.3652939027682925,-9.739851006159658e-06,0.3652939027682925,-2.8916827899502733e-05,0.3652939027682925,3.094904358641752e-05,0.3652939027682925,5.3458190023316136e-05
0.3660880199482235,-1.657532855124843e-05,0.3660880199482235,-1.0560686245593133e-05,0.3660880199482235,3.708211026750494e-05,0.3660880199482235,5.20770341937229e-05
0.3668821371281546,-1.5734230806664453e-05,0.3668821371281546,-7.236046771320777e-06,0.3668821371281546,1.2087599242666804e-05,0.3668821371281546,2.140893920048333e-05
0.3676762543080857,-8.820696824676757e-06,0.3676762543080857,-1.2390978161304194e-05,0.3676762543080857,1.2024023581561277e-05,0.3676762543080857,2.5169592474976417e-05
0.3684703714880167,-3.0928089236966784e-06,0.3684703714880167,-8.090184579144055e-06,0.3684703714880167,3.312409581794707e-05,0.3684703714880167,0.0001099774035269
0.3692644886679478,-3.502689737707332e-06,0.3692644886679478,-8.578582281924119e-06,0.3692644886679478,9.47610017197063e-06,0.3692644886679478,0.0001728951107621
0.3700586058478789,-1.789976443642595e-05,0.3700586058478789,-1.7068650477301132e-05,0.3700586058478789,-1.3851888158440626e-05,0.3700586058478789,0.000153425608628
0.3708527230278099,-2.721069677107173e-05,0.3708527230278099,-1.2464519780714412e-05,0.3708527230278099,1.0725316511711365e-06,0.3708527230278099,0.0001295824627073
0.371646840207741,-2.1684691871563727e-05,0.371646840207741,-8.737979008626804e-06,0.371646840207741,1.8914464234963892e-06,0.371646840207741,0.0001126145285583
0.3724409573876721,-1.54251129015834e-05,0.3724409573876721,-1.5155911837257032e-05,0.3724409573876721,-1.272493046299046e-05,0.3724409573876721,9.128804544003876e-05
0.3732350745676032,-1.1266537678494874e-05,0.3732350745676032,-1.7012259282573438e-05,0.3732350745676032,-1.5451622456413705e-05,0.3732350745676032,7.710645297944926e-05
0.3740291917475342,-1.0732402724564912e-05,0.3740291917475342,-1.788096117193874e-05,0.3740291917475342,-1.8907316347389477e-05,0.3740291917475342,5.50483637717544e-05
0.3748233089274653,-1.2490176883691853e-05,0.3748233089274653,-2.3996764206266944e-05,0.3748233089274653,-1.920327512800148e-05,0.3748233089274653,2.4157531499305985e-05
0.3756174261073964,-1.5521713475997706e-05,0.3756174261073964,-3.2768284475009015e-05,0.3756174261073964,-8.498789562259942e-06,0.3756174261073964,-7.953678448005548e-06
0.3764115432873274,-1.3319190917553994e-05,0.3764115432873274,-3.506079996446209e-05,0.3764115432873274,4.334617922639726e-06,0.3764115432873274,-4.561621384222972e-05
0.3772056604672585,-4.986785512862736e-06,0.3772056604672585,-3.839651864245607e-05,0.3772056604672585,7.020199918887372e-06,0.3772056604672585,-7.859958174392149e-05
0.3779997776471896,-2.350130269866244e-06,0.3779997776471896,-3.91089e-05,0.3779997776471896,6.54612e-06,0.3779997776471896,-9.902621453657728e-05
0.3787938948271206,-5.577779680526743e-06,0.3787938948271206,-4.169635386175508e-05,0.3787938948271206,4.710513812633532e-06,0.3787938948271206,-0.0001142599992026
0.3795880120070517,-2.0260523902546777e-06,0.3795880120070517,-4.2507522351855785e-05,0.3795880120070517,5.617020929423093e-06,0.3795880120070517,-0.0001225183079187
0.3803821291869828,-9.174008631508646e-07,0.3803821291869828,-3.847806092350407e-05,0.3803821291869828,7.35429106871744e-06,0.3803821291869828,-0.0001224713309457
0.3811762463669139,-2.062810838510676e-06,0.3811762463669139,-3.492234303559233e-05,0.3811762463669139,7.840297385660288e-06,0.3811762463669139,-0.0001258913603529
0.3819703635468449,-2.321009253159771e-06,0.3819703635468449,-3.37377e-05,0.3819703635468449,4.138473793090934e-06,0.3819703635468449,-0.0001326293778791
0.382764480726776,-2.467171770343067e-07,0.382764480726776,-3.395505672455212e-05,0.382764480726776,2.636042617957233e-06,0.382764480726776,-0.000128563367069
0.3835585979067071,-5.03548e-07,0.3835585979067071,-3.281036737825268e-05,0.3835585979067071,4.284950415370428e-06,0.3835585979067071,-0.0001276835583736
0.3843527150866381,-2.0634368915794147e-06,0.3843527150866381,-3.17235e-05,0.3843527150866381,8.282888665644206e-06,0.3843527150866381,-0.0001262340310842
0.3851468322665692,-8.39246e-07,0.3851468322665692,-3.3520255574587986e-05,0.3851468322665692,1.3771463266393445e-05,0.3851468322665692,-0.0001225951445079
0.3859409494465003,7.252217779681583e-09,0.3859409494465003,-3.6620781266115975e-05,0.3859409494465003,1.4486165429804356e-05,0.3859409494465003,-0.000148526957022
0.3867350666264313,3.6229488815724814e-06,0.3867350666264313,-3.65422288381772e-05,0.3867350666264313,1.1434463420842834e-05,0.3867350666264313,-0.0001772134598464
0.3875291838063624,2.359842996146212e-06,0.3875291838063624,-3.594935160850977e-05,0.3875291838063624,-4.725587963890883e-06,0.3875291838063624,-0.000168967166103
0.3883233009862935,3.1498807349438085e-06,0.3883233009862935,-3.5376368540574504e-05,0.3883233009862935,-3.186291250529697e-05,0.3883233009862935,-0.000161145024451
0.3891174181662246,4.383782281288617e-06,0.3891174181662246,-3.566404122906161e-05,0.3891174181662246,-4.084726806195936e-05,0.3891174181662246,-0.0001631594756539
0.3899115353461556,-1.3922215773139168e-06,0.3899115353461556,-3.0627011715725954e-05,0.3899115353461556,-5.048322155703278e-05,0.3899115353461556,-0.0001466504905114
0.3907056525260867,-7.2764342914065e-06,0.3907056525260867,-2.44611057108134e-05,0.3907056525260867,-5.269853124067925e-05,0.3907056525260867,-8.048139541371572e-05
0.3914997697060178,-8.895678198756093e-06,0.3914997697060178,-1.6284081216546335e-05,0.3914997697060178,-1.092546280780042e-05,0.3914997697060178,7.863278472514507e-06
0.3922938868859488,-1.0040829303994007e-05,0.3922938868859488,-6.406784780646091e-06,0.3922938868859488,8.385986204218752e-06,0.3922938868859488,5.7322758883122254e-05
0.3930880040658799,-9.549341044002444e-06,0.3930880040658799,-3.130918237480369e-06,0.3930880040658799,-7.834723132007333e-06,0.3930880040658799,7.841356036979922e-05
0.393882121245811,-7.256592047782264e-06,0.393882121245811,1.1730414722186142e-06,0.393882121245811,2.7854572661426256e-05,0.393882121245811,0.0001303987957694
0.394676238425742,-8.105371173087875e-06,0.394676238425742,1.0594607030181757e-05,0.394676238425742,6.697450419448411e-05,0.394676238425742,0.0001756749387682
0.3954703556056732,-1.5999137482753494e-05,0.3954703556056732,1.2826270031504888e-05,0.3954703556056732,7.108145924587907e-05,0.3954703556056732,0.0001909836392813
0.3962644727856042,-2.6845725382520792e-05,0.3962644727856042,7.100451764478036e-06,0.3962644727856042,5.8989135441221424e-05,0.3962644727856042,0.0001616526373777
0.3970585899655353,-2.5779841382471014e-05,0.3970585899655353,-2.413555246239417e-06,0.3970585899655353,3.557590171812549e-05,0.3970585899655353,9.962782492079288e-05
0.3978527071454664,-2.891714085418307e-05,0.3978527071454664,-9.326725655474918e-06,0.3978527071454664,1.788365917975735e-05,0.3978527071454664,8.542305409936427e-05
0.3986468243253974,-3.385957050198973e-05,0.3986468243253974,-1.600449077539713e-05,0.3986468243253974,2.4666664952234108e-05,0.3986468243253974,0.0001103368124145
0.3994409415053285,-1.7841003137773008e-05,0.3994409415053285,-1.7663693480737797e-05,0.3994409415053285,3.139284951234572e-05,0.3994409415053285,0.0001265553571101
0.4002350586852595,-3.4888387995425138e-06,0.4002350586852595,-1.640033911120758e-05,0.4002350586852595,2.9094597441415363e-05,0.4002350586852595,0.000135015054184
0.4010291758651906,-1.3726689725787354e-06,0.4010291758651906,-2.082318431957327e-05,0.4010291758651906,3.8851421548284335e-05,0.4010291758651906,0.000142919681601
0.4018232930451217,2.320248610249619e-06,0.4018232930451217,-2.29953e-05,0.4018232930451217,4.2386620543494665e-05,0.4018232930451217,0.0001206807003561
0.4026174102250527,-6.327033658598885e-07,0.4026174102250527,-2.354745269788223e-05,0.4026174102250527,2.5933504483955215e-05,0.4026174102250527,8.173682966176346e-05
0.4034115274049838,-3.18914e-06,0.4034115274049838,-2.43381e-05,0.4034115274049838,-2.2501545221652447e-05,0.4034115274049838,3.8230256265886825e-05
0.4042056445849149,-1.51064e-06,0.4042056445849149,-2.7928243875837105e-05,0.4042056445849149,-5.788591151228022e-05,0.4042056445849149,-1.4308393111038284e-05
0.404999761764846,-3.1882818933346126e-06,0.404999761764846,-3.105148361817947e-05,0.404999761764846,-6.462182837866693e-05,0.404999761764846,-6.058132910024667e-05
0.4057938789447771,-8.775472506029952e-06,0.4057938789447771,-2.8484612892469524e-05,0.4057938789447771,-3.436851603036667e-05,0.4057938789447771,-8.362112691668905e-05
0.4065879961247081,-1.6782137979320618e-06,0.4065879961247081,-2.8541119058922487e-05,0.4065879961247081,-8.776157518834587e-06,0.4065879961247081,-0.0001035815175133
0.4073821133046392,8.482177370462928e-06,0.4073821133046392,-3.13878e-05,0.4073821133046392,-2.1239387319351557e-05,0.4073821133046392,-0.0001442931880579
0.4081762304845703,5.128186669328653e-06,0.4081762304845703,-2.88207869634822e-05,0.4081762304845703,-2.70237e-05,0.4081762304845703,-0.0001550848809559
0.4089703476645013,-6.884369061466802e-07,0.4089703476645013,-3.231221817278839e-05,0.4089703476645013,-2.585836547419122e-05,0.4089703476645013,-0.0001425900033996
0.4097644648444324,-9.586444947984953e-07,0.4097644648444324,-3.4429724988370856e-05,0.4097644648444324,-2.523028528547964e-05,0.4097644648444324,-0.0001135482068962
0.4105585820243635,-2.0038947399164093e-06,0.4105585820243635,-2.8784574151217117e-05,0.4105585820243635,2.689098634556469e-08,0.4105585820243635,-5.021227524460821e-05
0.4113526992042945,-1.4027723085488224e-05,0.4113526992042945,-2.307864220387957e-05,0.4113526992042945,1.2411902021135916e-05,0.4113526992042945,6.544936033849672e-06
0.4121468163842256,-2.0347989163671565e-05,0.4121468163842256,-1.4090287199409829e-05,0.4121468163842256,1.4915475319240136e-06,0.4121468163842256,4.038328891637102e-05
0.4129409335641567,-2.441587718268743e-05,0.4129409335641567,-1.1553126493164746e-06,0.4129409335641567,3.3938692207411534e-06,0.4129409335641567,5.9392057043281424e-05
0.4137350507440878,-2.209005948070966e-05,0.4137350507440878,4.53193e-06,0.4137350507440878,-1.3429993456925345e-05,0.4137350507440878,3.981395617703317e-05
0.4145291679240188,-1.2570316563526011e-05,0.4145291679240188,-5.134081266804496e-06,0.4145291679240188,-1.740287863946127e-07,0.4145291679240188,-1.0664861789743422e-05
0.4153232851039499,-6.446921767284231e-06,0.4153232851039499,-1.43808160221994e-05,0.4153232851039499,3.259330352853059e-05,0.4153232851039499,-5.901611410478921e-05
0.416117402283881,3.6647808931318526e-06,0.416117402283881,-1.7504932151821613e-05,0.416117402283881,4.215057177116311e-05,0.416117402283881,-8.974350648284144e-05
0.416911519463812,1.0781875479622048e-05,0.416911519463812,-1.82956e-05,0.416911519463812,3.4093395513809035e-05,0.416911519463812,-0.0001133869673327
0.4177056366437431,3.5057330478162665e-06,0.4177056366437431,-2.184460257148265e-05,0.4177056366437431,6.698799913956282e-06,0.4177056366437431,-0.0001436618980463
0.4184997538236742,4.530511268929782e-06,0.4184997538236742,-2.836458921635698e-05,0.4184997538236742,-1.2249187161899649e-05,0.4184997538236742,-0.0001881446351359
0.4192938710036052,6.744116576729943e-06,0.4192938710036052,-2.5186731381739225e-05,0.4192938710036052,2.368857015282698e-06,0.4192938710036052,-0.0001887228969095
0.4200879881835363,3.4798238808590514e-06,0.4200879881835363,-2.2129935966641388e-05,0.4200879881835363,2.050165727439105e-05,0.4200879881835363,-0.000144487905897
0.4208821053634674,-4.664954653946251e-06,0.4208821053634674,-1.6697462878222865e-05,0.4208821053634674,3.109226559721508e-05,0.4208821053634674,-9.72523360069623e-05
0.4216762225433985,-1.0709216090438686e-05,0.4216762225433985,-1.2411095444760507e-05,0.4216762225433985,5.463491153404046e-05,0.4216762225433985,-2.956149581869474e-05
0.4224703397233295,-1.2885960986079611e-05,0.4224703397233295,-1.5005648316580148e-05,0.4224703397233295,4.837840050471857e-05,0.4224703397233295,2.998418716928627e-05
0.4232644569032606,-7.317825324582014e-06,0.4232644569032606,-1.69528e-05,0.4232644569032606,3.2140380002589e-05,0.4232644569032606,7.20475728813307e-05
0.4240585740831917,-5.469730901174328e-06,0.4240585740831917,-1.7426103537413295e-05,0.4240585740831917,2.4871797425216208e-05,0.4240585740831917,9.51300048920892e-05
0.4248526912631227,-1.0415561381289388e-05,0.4248526912631227,-2.176830096565835e-05,0.4248526912631227,1.2079748791377608e-05,0.4248526912631227,6.859926280502752e-05
0.4256468084430538,-1.3220030205184517e-05,0.4256468084430538,-2.459476395825275e-05,0.4256468084430538,-9.624638625621936e-06,0.4256468084430538,3.981069710290668e-05
0.4264409256229849,-1.0638061280877503e-05,0.4264409256229849,-2.429857575943865e-05,0.4264409256229849,-6.059840587663691e-07,0.4264409256229849,7.413440014581286e-06
0.4272350428029159,-3.1325751364577564e-06,0.4272350428029159,-2.66668210281952e-05,0.4272350428029159,-6.557378921755097e-06,0.4272350428029159,-1.663215525261116e-05
0.428029159982847,2.437974030759878e-06,0.428029159982847,-2.818881011297982e-05,0.428029159982847,-3.6783140512148e-05,0.428029159982847,-8.721484035240014e-06
0.4288232771627781,2.2806546476856515e-06,0.4288232771627781,-2.8602588836544985e-05,0.4288232771627781,-6.948120657172867e-05,0.4288232771627781,1.1700655423493156e-05
0.4296173943427092,2.063774715144981e-06,0.4296173943427092,-3.201829531008149e-05,0.4296173943427092,-8.541620414543494e-05,0.4296173943427092,2.6137337132983576e-05
0.4304115115226402,1.0376831011128344e-05,0.4304115115226402,-3.403395883680281e-05,0.4304115115226402,-6.083143759877724e-05,0.4304115115226402,6.533178632252829e-05
0.4312056287025713,1.329988867449544e-05,0.4312056287025713,-2.8619838638896197e-05,0.4312056287025713,-9.755658772854024e-06,0.4312056287025713,0.0001252910686762
0.4319997458825024,1.0575598376531472e-05,0.4319997458825024,-1.9305822952260488e-05,0.4319997458825024,4.328999740448974e-05,0.4319997458825024,0.00019367795471
0.4327938630624334,7.664406949842908e-07,0.4327938630624334,-8.499611473096032e-06,0.4327938630624334,3.335535951298437e-05,0.4327938630624334,0.0002019661152829
0.4335879802423645,-1.3865532859943815e-05,0.4335879802423645,-2.4843539236009306e-07,0.4335879802423645,1.436912127686872e-05,0.4335879802423645,0.0001815648858893
0.4343820974222956,-1.841276454622348e-05,0.4343820974222956,3.855730200637401e-07,0.4343820974222956,2.4136305046909527e-05,0.4343820974222956,0.0001379976386889
0.4351762146022266,-2.5099931029736184e-05,0.4351762146022266,-3.840978699219168e-06,0.4351762146022266,4.183201268205461e-05,0.4351762146022266,8.967633232605249e-05
0.4359703317821577,-3.8276939741754354e-05,0.4359703317821577,-1.6555508990421447e-06,0.4359703317821577,-2.154558481541856e-06,0.4359703317821577,2.5295867403293243e-05
0.4367644489620888,-3.3543023925472945e-05,0.4367644489620888,7.446047819455284e-06,0.4367644489620888,-3.350358941745854e-05,0.4367644489620888,-2.294503672675581e-05
0.4375585661420199,-2.33220932962098e-05,0.4375585661420199,-5.852923830856987e-06,0.4375585661420199,-1.0360615615782773e-05,0.4375585661420199,-6.900085185454285e-05
0.438352683321951,-1.5996112972025348e-05,0.438352683321951,-2.0782020382931645e-05,0.438352683321951,-9.918406880031251e-06,0.438352683321951,-9.187159167619696e-05
0.439146800501882,-1.552030449400298e-05,0.439146800501882,-1.9372361777426637e-05,0.439146800501882,-1.5159938897478809e-05,0.439146800501882,-7.760762348160545e-05
0.4399409176818131,-1.68362030221336e-05,0.4399409176818131,-1.809790189763427e-05,0.4399409176818131,-1.101883123942423e-05,0.4399409176818131,-4.863568655870556e-05
0.4407350348617442,-1.0834885645811449e-05,0.4407350348617442,-2.358602296363485e-05,0.4407350348617442,-3.277932433163136e-05,0.4407350348617442,-3.92673347506973e-05
0.4415291520416752,-4.07826409778645e-06,0.4415291520416752,-2.133659965543572e-05,0.4415291520416752,-3.905252461173645e-05,0.4415291520416752,-4.085633469568168e-05
0.4423232692216063,-5.598293851933524e-06,0.4423232692216063,-2.55383882796092e-05,0.4423232692216063,-1.2765259546618258e-05,0.4423232692216063,-5.240001938770839e-05
0.4431173864015373,-3.8008212879384887e-06,0.4431173864015373,-3.081348211940018e-05,0.4431173864015373,7.0215095811412575e-06,0.4431173864015373,-9.23914396689265e-05
0.4439115035814684,-4.512089702139392e-06,0.4439115035814684,-3.1131002872455e-05,0.4439115035814684,1.3753571344706662e-05,0.4439115035814684,-0.0001153321880132
0.4447056207613995,-4.9965574348171455e-06,0.4447056207613995,-3.069585795607635e-05,0.4447056207613995,1.813814312256104e-05,0.4447056207613995,-0.0001153922705086
0.4454997379413306,1.0044570427179838e-06,0.4454997379413306,-3.189097621225192e-05,0.4454997379413306,1.1584620535461909e-05,0.4454997379413306,-0.0001117892270644
0.4462938551212617,5.6380368050401465e-06,0.4462938551212617,-3.043929786843344e-05,0.4462938551212617,-3.674848920029998e-06,0.4462938551212617,-0.0001110470982349
0.4470879723011927,6.234657949541638e-07,0.4470879723011927,-2.6688e-05,0.4470879723011927,-9.135850768522083e-06,0.4470879723011927,-0.0001084665921638
0.4478820894811238,1.2920873471822936e-06,0.4478820894811238,-2.550397064955772e-05,0.4478820894811238,-7.233259715117585e-06,0.4478820894811238,-9.346052754905272e-05
0.4486762066610549,1.353869552900485e-06,0.4486762066610549,-2.43381e-05,0.4486762066610549,-1.1835497709898868e-05,0.4486762066610549,-8.618850229010114e-05
0.4494703238409859,3.2610021653402333e-07,0.4494703238409859,-2.2169220227734605e-05,0.4494703238409859,-4.814714680426071e-06,0.4494703238409859,-6.957082712864529e-05
0.450264441020917,-1.825999233663796e-06,0.450264441020917,-1.62814e-05,0.450264441020917,1.0037923245047066e-05,0.450264441020917,-4.085591555499283e-05
0.4510585582008481,-2.2216624170979947e-06,0.4510585582008481,-1.8174532123457127e-05,0.4510585582008481,1.847281033160802e-05,0.4510585582008481,-2.8776051278337666e-06
0.4518526753807791,-6.840156352133499e-06,0.4518526753807791,-2.1474304336522425e-05,0.4518526753807791,2.2578854056758494e-05,0.4518526753807791,2.1806477454421883e-05
0.4526467925607102,-1.6830562585132515e-05,0.4526467925607102,-2.019172420344317e-05,0.4526467925607102,2.450043587304383e-05,0.4526467925607102,3.807474228448765e-05
0.4534409097406413,-2.0154383226953982e-05,0.4534409097406413,-1.4148880001026314e-05,0.4534409097406413,5.175347993517519e-06,0.4534409097406413,4.7293047081379935e-05
0.4542350269205724,-1.570058502013485e-05,0.4542350269205724,-1.2253e-05,0.4542350269205724,-5.697473832182198e-06,0.4542350269205724,2.304896216421246e-05
0.4550291441005034,-1.3004252797613691e-05,0.4550291441005034,-1.7110434293159117e-05,0.4550291441005034,2.85344e-06,0.4550291441005034,-2.5709856202601264e-05
0.4558232612804345,-4.156191823283601e-06,0.4558232612804345,-2.4175592278767783e-05,0.4558232612804345,-8.18553419591256e-06,0.4558232612804345,-8.500276078239628e-05
0.4566173784603656,1.1859706377535e-05,0.4566173784603656,-2.566044114274286e-05,0.4566173784603656,-1.604480063412549e-05,0.4566173784603656,-0.0001394881169172
0.4574114956402966,1.3299837925858266e-05,0.4574114956402966,-2.9827960599081664e-05,0.4574114956402966,-1.6044630340686613e-05,0.4574114956402966,-0.0001804356335488
0.4582056128202277,6.9026594510795935e-06,0.4582056128202277,-3.4011743049138024e-05,0.4582056128202277,-1.3042005139792503e-05,0.4582056128202277,-0.0002404410625102
0.4589997300001588,6.209447484906723e-06,0.4589997300001588,-3.843575358484213e-05,0.4589997300001588,-3.0371752865777032e-05,0.4589997300001588,-0.0002432225577202
0.4597938471800898,1.641430573928454e-05,0.4597938471800898,-4.223891571007979e-05,0.4597938471800898,-5.152493671409669e-05,0.4597938471800898,-0.0001682532552429
0.4605879643600209,1.916791303109093e-05,0.4605879643600209,-4.1768484284026696e-05,0.4605879643600209,-4.595521105675941e-05,0.4605879643600209,-7.770798585691599e-05
0.461382081539952,1.1589264819954111e-05,0.461382081539952,-3.653333196142029e-05,0.461382081539952,-1.6421522281915826e-05,0.461382081539952,5.042697014194492e-05
0.4621761987198831,2.129318926477034e-06,0.4621761987198831,-3.44091e-05,0.4621761987198831,1.0516261030591404e-05,0.4621761987198831,0.0001729836302066
0.4629703158998141,-6.54134348139752e-06,0.4629703158998141,-3.267398558662659e-05,0.4629703158998141,4.771001044698065e-05,0.4629703158998141,0.0002573658631223
0.4637644330797452,-1.7878445403278334e-05,0.4637644330797452,-2.6867128539139333e-05,0.4637644330797452,7.463180905245875e-05,0.4637644330797452,0.0003025352758051
0.4645585502596763,-2.135653388312545e-05,0.4645585502596763,-2.228546132404996e-05,0.4645585502596763,6.697417601313268e-05,0.4645585502596763,0.000258190367752
0.4653526674396073,-2.7987737350434773e-05,0.4653526674396073,-2.633138812698409e-05,0.4653526674396073,2.379767658194714e-06,0.4653526674396073,0.0001441740142455
0.4661467846195384,-4.502913563441531e-05,0.4661467846195384,-2.517792556186694e-05,0.4661467846195384,-5.085558363800012e-05,0.4661467846195384,6.45431551522567e-05
0.4669409017994695,-4.153367454638286e-05,0.4669409017994695,-2.297576029155099e-05,0.4669409017994695,-6.436117454638286e-05,0.4669409017994695,3.34796854544681e-05
0.4677350189794005,-1.3272353694130066e-05,0.4677350189794005,-1.3859371430850068e-05,0.4677350189794005,-2.6738686065836456e-05,0.4677350189794005,4.372121501409637e-05
0.4685291361593316,1.6285565764404097e-06,0.4685291361593316,6.150089594286816e-06,0.4685291361593316,1.2750739039005918e-05,0.4685291361593316,8.611516200857425e-05
0.4693232533392627,3.248392410852145e-06,0.4693232533392627,2.4001470469332206e-05,0.4693232533392627,6.476230467625607e-05,0.4693232533392627,0.0001316235732727
0.4701173705191938,1.1547558055514888e-06,0.4701173705191938,2.9530274951368283e-05,0.4701173705191938,0.0001406734936666,0.4701173705191938,0.0001328857792131
0.4709114876991248,-1.533246119696012e-05,0.4709114876991248,3.0084471982288256e-05,0.4709114876991248,0.0001342703810239,0.4709114876991248,9.298121090235428e-05
0.4717056048790559,-3.29069389135245e-05,0.4717056048790559,1.8395013669795465e-05,0.4717056048790559,0.0001156334955799,0.4717056048790559,3.5723787718209586e-05
0.472499722058987,-3.239690224888537e-05,0.472499722058987,5.207914296946447e-06,0.472499722058987,7.773101889063712e-05,0.472499722058987,-1.794187981967565e-05
0.473293839238918,-1.73368283360761e-05,0.473293839238918,-5.342233753915545e-06,0.473293839238918,2.483580230096812e-05,0.473293839238918,-3.231762732251884e-05
0.4740879564188491,-4.634004281418185e-06,0.4740879564188491,-1.2563022961315366e-05,0.4740879564188491,-1.6573932349841665e-05,0.4740879564188491,-2.7119465717121e-05
0.4748820735987802,-2.1039647005999004e-06,0.4748820735987802,-2.1965356163913887e-05,0.4748820735987802,-4.334424130388566e-05,0.4748820735987802,-2.8967584655699056e-05
0.4756761907787112,-4.064659035697821e-07,0.4756761907787112,-3.219754025569312e-05,0.4756761907787112,-5.5954034432078486e-05,0.4756761907787112,-2.139876460983748e-05
0.4764703079586423,-2.3978243531786057e-06,0.4764703079586423,-3.9005162477348026e-05,0.4764703079586423,-6.900034768629358e-05,0.4764703079586423,-4.58417018299868e-05
0.4772644251385734,-2.3016433095867486e-06,0.4772644251385734,-4.312863084782946e-05,0.4772644251385734,-6.883108450890773e-05,0.4772644251385734,-8.889824218014602e-05
0.4780585423185045,1.5496433238383755e-06,0.4780585423185045,-3.509719437022314e-05,0.4780585423185045,-5.858068546779972e-05,0.4780585423185045,-0.0001240964880008
0.4788526594984356,2.409211619758255e-06,0.4788526594984356,-3.3139954114155625e-05,0.4788526594984356,-4.3814134801518e-05,0.4788526594984356,-0.0001115091619758
0.4796467766783666,2.458621902228297e-06,0.4796467766783666,-4.187239459507296e-05,0.4796467766783666,-2.3949594136662507e-05,0.4796467766783666,-8.94066094609004e-05
0.4804408938582977,2.0987420411177506e-06,0.4804408938582977,-4.629679050680563e-05,0.4804408938582977,-2.001293126120659e-05,0.4804408938582977,-9.615254430602728e-05
0.4812350110382288,1.031385212084478e-05,0.4812350110382288,-4.029888976962564e-05,0.4812350110382288,-1.423386343704925e-05,0.4812350110382288,-9.185212521391964e-05
0.4820291282181598,1.0023021195809084e-05,0.4820291282181598,-2.721203165659564e-05,0.4820291282181598,7.982625813066877e-07,0.4820291282181598,-4.555726376549772e-05
0.4828232453980909,-2.864704136347625e-07,0.4828232453980909,-1.537187669038597e-05,0.4828232453980909,6.141519537643495e-06,0.4828232453980909,-6.407585469701037e-06
0.483617362578022,-1.0279088426224833e-05,0.483617362578022,-6.27199687954696e-06,0.483617362578022,2.9395848844498373e-05,0.483617362578022,8.758376025919044e-06
0.484411479757953,-1.3605742552958696e-05,0.484411479757953,-1.3526095608746229e-06,0.484411479757953,3.857637465503838e-05,0.484411479757953,-2.6822658304641e-05
0.4852055969378841,-1.09102e-05,0.4852055969378841,-1.7434757671197912e-06,0.4852055969378841,1.176612374439756e-05,0.4852055969378841,-9.683471637283983e-05
0.4859997141178152,-1.5103825710678293e-05,0.4859997141178152,-7.886506121916952e-06,0.4859997141178152,-1.2246409765350089e-05,0.4859997141178152,-0.0001458482316182
0.4867938312977463,-1.3441323441201924e-05,0.4867938312977463,-1.6144032048301563e-05,0.4867938312977463,-7.068002799977628e-06,0.4867938312977463,-0.0001505001281754
0.4875879484776773,-5.779004253407707e-06,0.4875879484776773,-2.778556856847449e-05,0.4875879484776773,1.1968384364775593e-05,0.4875879484776773,-0.000160427508926
0.4883820656576084,-1.3662358292117068e-06,0.4883820656576084,-3.849393349503608e-05,0.4883820656576084,-9.817057215379134e-06,0.4883820656576084,-0.0001557137233325
0.4891761828375395,1.1451116039756008e-06,0.4891761828375395,-4.4776201771996144e-05,0.4891761828375395,-4.1377679757383696e-05,0.4891761828375395,-0.0001366701334634
0.4899703000174705,-8.099699442116836e-06,0.4899703000174705,-4.372095570226172e-05,0.4899703000174705,-7.668726534079161e-05,0.4899703000174705,-0.0001209909334273
0.4907644171974016,-1.4308018829738742e-05,0.4907644171974016,-4.767681091205048e-05,0.4907644171974016,-0.0001009588846196,0.4907644171974016,-9.914299570212266e-05
0.4915585343773327,-3.724504642299582e-06,0.4915585343773327,-5.557446135520373e-05,0.4915585343773327,-8.453010198942995e-05,0.4915585343773327,-9.791420229373803e-05
0.4923526515572637,7.373827343448097e-06,0.4923526515572637,-5.755134703486282e-05,0.4923526515572637,-7.676784075277192e-05,0.4923526515572637,-0.0001231027282258
0.4931467687371948,9.269689253269736e-06,0.4931467687371948,-5.716785125942874e-05,0.4931467687371948,-3.0097348067640943e-05,0.4931467687371948,-0.0001414064138845
0.4939408859171259,1.07800647706165e-05,0.4939408859171259,-5.269520456048069e-05,0.4939408859171259,5.041981877107528e-05,0.4939408859171259,-9.228417434587824e-05
0.494735003097057,-7.069203834968834e-06,0.494735003097057,-4.267022556565921e-05,0.494735003097057,4.087946982155368e-05,0.494735003097057,3.6894352474897945e-06
0.495529120276988,-2.694158095412492e-05,0.495529120276988,-2.5237876448979465e-05,0.495529120276988,3.8768895076091227e-05,0.495529120276988,8.30504587534086e-05
0.4963232374569191,-3.4014130778584424e-05,0.4963232374569191,-3.464386402689494e-06,0.4963232374569191,4.84491837523694e-05,0.4963232374569191,0.0001723815207969
0.4971173546368502,-1.5410507875904645e-05,0.4971173546368502,3.0369113162082813e-05,0.4971173546368502,8.545977656782721e-05,0.4971173546368502,0.0002885802441396
0.4979114718167812,6.071444507371486e-06,0.4979114718167812,3.887193132087219e-05,0.4979114718167812,0.0001545070479164,0.4979114718167812,0.000298942828344
0.4987055889967123,-5.689907438996528e-06,0.4987055889967123,2.626364456683642e-05,0.4987055889967123,0.0001412626481783,0.4987055889967123,0.000225831175875
0.4994997061766434,-3.909620008440753e-05,0.4994997061766434,1.5613610970164426e-05,0.4994997061766434,8.210126595234639e-05,0.4994997061766434,0.0001744102403526
0.5002938233565745,-4.653785761026072e-05,0.5002938233565745,7.315340704145847e-06,0.5002938233565745,2.2371077652788428e-05,0.5002938233565745,0.0001562336537289
0.5010879405365055,-2.597615038045945e-05,0.5010879405365055,-8.23750034004399e-06,0.5010879405365055,-8.352706519491834e-06,0.5010879405365055,0.000142277066661
0.5018820577164366,6.522261879706055e-06,0.5018820577164366,-1.5016717845581529e-05,0.5018820577164366,-2.3174752401612157e-05,0.5018820577164366,0.0001511616496782
0.5026761748963677,2.965750182643676e-05,0.5026761748963677,-1.839432411503273e-05,0.5026761748963677,-2.5054092805734053e-05,0.5026761748963677,0.0001743509005525
0.5034702920762988,3.300183227337866e-05,0.5034702920762988,-2.208628318076947e-05,0.5034702920762988,-3.420067252841237e-06,0.5034702920762988,0.000135921258249
0.5042644092562298,1.6938194580690918e-05,0.5042644092562298,-1.9955047545475604e-05,0.5042644092562298,9.94396694326553e-06,0.5042644092562298,8.02304706469929e-05
0.5050585264361609,4.809606786795506e-06,0.5050585264361609,-1.82956e-05,0.5050585264361609,7.730986479472605e-06,0.5050585264361609,6.827493171879226e-05
0.505852643616092,-4.7257814337597695e-06,0.505852643616092,-1.7280581174734935e-05,0.505852643616092,1.19173e-05,0.505852643616092,6.596769464878854e-05
0.506646760796023,-1.4721124729515965e-05,0.506646760796023,-1.5096733721676624e-05,0.506646760796023,-7.461982956370283e-06,0.506646760796023,4.9684847118673135e-05
0.507440877975954,-9.689655345707727e-06,0.507440877975954,-2.407060038659968e-05,0.507440877975954,-2.139064088812121e-05,0.507440877975954,-3.208461127869467e-06
0.5082349951558852,-5.3128385655456165e-06,0.5082349951558852,-2.918668548297789e-05,0.5082349951558852,-1.340205489101558e-05,0.5082349951558852,-9.337744252726728e-05
0.5090291123358163,-9.30951495510393e-06,0.5090291123358163,-2.228469006634383e-05,0.5090291123358163,-4.040612910981014e-06,0.5090291123358163,-0.0001329023311656
0.5098232295157473,-1.0722670858800643e-05,0.5098232295157473,-2.6305915094044336e-05,0.5098232295157473,-6.811866295773868e-07,0.5098232295157473,-0.0001513014185581
0.5106173466956784,-5.9533173261763935e-06,0.5106173466956784,-3.44091e-05,0.5106173466956784,-1.657893676115926e-05,0.5106173466956784,-0.0001506094097426
0.5114114638756094,-3.5839806697750707e-06,0.5114114638756094,-3.030176820896474e-05,0.5114114638756094,-3.0320749130389734e-05,0.5114114638756094,-0.0001349423234761
0.5122055810555405,-5.123543325288305e-06,0.5122055810555405,-2.5663927045877965e-05,0.5122055810555405,-3.572024065628826e-05,0.5122055810555405,-0.0001293717787589
0.5129996982354716,-8.894488297322832e-06,0.5129996982354716,-1.8634715753515967e-05,0.5129996982354716,-4.58185609854525e-05,0.5129996982354716,-0.000132431478226
0.5137938154154027,-1.095973396076105e-05,0.5137938154154027,-9.152454660016556e-06,0.5137938154154027,-4.243243888715677e-05,0.5137938154154027,-0.0001261588095585
0.5145879325953338,-1.234862812479202e-05,0.5145879325953338,-1.41185419221318e-05,0.5145879325953338,-3.0938666797212966e-05,0.5145879325953338,-0.0001270132664959
0.5153820497752648,-1.4923115944069776e-05,0.5153820497752648,-2.423810033998279e-05,0.5153820497752648,-2.449821378383868e-05,0.5153820497752648,-0.0001408020938636
0.5161761669551959,-8.664641464590874e-06,0.5161761669551959,-2.3893826080656005e-05,0.5161761669551959,-2.192111415768487e-05,0.5161761669551959,-0.0001417952700626
0.5169702841351269,-5.184190582995264e-06,0.5169702841351269,-2.5639312533666e-05,0.5169702841351269,-1.567258320647395e-05,0.5169702841351269,-0.0001337233995551
0.5177644013150581,-6.178235427474289e-06,0.5177644013150581,-2.860298109028889e-05,0.5177644013150581,-1.1937755180557956e-05,0.5177644013150581,-0.0001207451246816
0.5185585184949891,-1.7167882906796996e-05,0.5185585184949891,-2.8999452353262325e-05,0.5185585184949891,-8.857118587513785e-06,0.5185585184949891,-0.0001119770822651
0.5193526356749202,-1.5721514909784e-05,0.5193526356749202,-2.9252935399797523e-05,0.5193526356749202,-2.5598131688220886e-06,0.5193526356749202,-9.833391059837666e-05
0.5201467528548512,-4.872104102594678e-06,0.5201467528548512,-3.3105124021172424e-05,0.5201467528548512,5.595897446953804e-06,0.5201467528548512,-0.0001159947924849
0.5209408700347823,5.474906308319997e-06,0.5209408700347823,-3.5870014933483195e-05,0.5209408700347823,1.7612046361759424e-06,0.5209408700347823,-0.0001982986119528
0.5217349872147133,1.2724031304231577e-05,0.5217349872147133,-3.83184684315193e-05,0.5217349872147133,-2.544842503020579e-05,0.5217349872147133,-0.0002698840121031
0.5225291043946444,1.9853977560912733e-05,0.5225291043946444,-4.151762159448773e-05,0.5225291043946444,-7.18956336724487e-05,0.5225291043946444,-0.0003422645619695
0.5233232215745756,2.41703428306996e-05,0.5233232215745756,-4.554363279988013e-05,0.5233232215745756,-0.0001078974082604,0.5233232215745756,-0.0003679762881631
0.5241173387545066,1.3673896172088416e-05,0.5241173387545066,-4.8545519458340393e-05,0.5241173387545066,-7.861984149583901e-05,0.5241173387545066,-0.0002281463149274
0.5249114559344377,5.28247325373588e-06,0.5249114559344377,-5.241826077677132e-05,0.5249114559344377,-2.438269228489254e-05,0.5249114559344377,-4.115935603832783e-05
0.5257055731143687,2.2430763426625336e-06,0.5257055731143687,-4.643308252509548e-05,0.5257055731143687,4.029667552494944e-05,0.5257055731143687,0.0001530935274825
0.5264996902942998,-4.193998933304144e-06,0.5264996902942998,-3.676280615774097e-05,0.5264996902942998,0.0001025336892267,0.5264996902942998,0.0003656641271657
0.5272938074742308,-8.321031806817016e-06,0.5272938074742308,-3.2118136878435e-05,0.5272938074742308,0.0001610131135176,0.5272938074742308,0.000448920424095
0.528087924654162,-1.1659405847756064e-05,0.528087924654162,-2.517099699880627e-05,0.528087924654162,0.0002012268591547,0.528087924654162,0.0004398153189511
0.528882041834093,-1.5867192805032396e-05,0.528882041834093,-2.2126651368937132e-05,0.528882041834093,0.0001664824995738,0.528882041834093,0.0003877474329382
0.5296761590140241,-2.6620922622834075e-05,0.5296761590140241,-1.9549758950509557e-05,0.5296761590140241,5.848939699895283e-05,0.5296761590140241,0.000279498516462
0.5304702761939551,-3.1457405442797405e-05,0.5304702761939551,-4.1310524474814265e-06,0.5304702761939551,-9.709921079038746e-06,0.5304702761939551,0.0002072523498469
0.5312643933738862,-1.932931742479586e-05,0.5312643933738862,6.073200672495175e-06,0.5312643933738862,-1.2728939674357418e-05,0.5312643933738862,0.0001858388157466
0.5320585105538173,-2.618641572374853e-06,0.5320585105538173,4.333751511217088e-06,0.5320585105538173,-2.0958003767906236e-05,0.5320585105538173,0.000147072980964
0.5328526277337483,-8.536887173234891e-06,0.5328526277337483,1.6254998332573576e-05,0.5328526277337483,-4.675579795622449e-05,0.5328526277337483,9.33545344716214e-05
0.5336467449136795,-2.6598582062094915e-05,0.5336467449136795,1.857312560642345e-05,0.5336467449136795,-2.0218990203011548e-05,0.5336467449136795,1.5211593120449363e-05
0.5344408620936105,-4.077403142612629e-05,0.5344408620936105,5.323132693231765e-06,0.5344408620936105,2.0767880315966068e-05,0.5344408620936105,-5.05985203911893e-05
0.5352349792735416,-2.533568197240149e-05,0.5352349792735416,-4.429560867041371e-06,0.5352349792735416,8.056590048869398e-06,0.5352349792735416,-7.484683869510467e-05
0.5360290964534726,-1.580789777190495e-05,0.5360290964534726,-1.1205836558262626e-05,0.5360290964534726,-1.7321254557082816e-05,0.5360290964534726,-8.35164178247604e-05
0.5368232136334037,-1.8216455723897228e-05,0.5368232136334037,-1.35958e-05,0.5368232136334037,-2.8051001615498364e-05,0.5368232136334037,-9.133988687677487e-05
0.5376173308133347,-1.816694832282357e-05,0.5376173308133347,-1.3614334046594096e-05,0.5376173308133347,-1.7347476257280427e-05,0.5376173308133347,-8.292707913446455e-05
0.5384114479932659,-3.171093404022588e-06,0.5384114479932659,-2.028978987304173e-05,0.5384114479932659,-3.1445924377306844e-05,0.5384114479932659,-0.0001128785568332
0.539205565173197,6.071902488783729e-06,0.539205565173197,-3.207615311066094e-05,0.539205565173197,-1.4906029079846843e-05,0.539205565173197,-0.0001928878026203
0.539999682353128,3.862360620736157e-06,0.539999682353128,-3.038244644575979e-05,0.539999682353128,-1.847484135403927e-06,0.539999682353128,-0.0003138291450931
0.5407937995330591,-7.182468171885056e-07,0.5407937995330591,-3.5910236901670224e-05,0.5407937995330591,-1.5247005698827135e-05,0.5407937995330591,-0.0003729753490727
0.5415879167129901,2.033472842442602e-07,0.5415879167129901,-3.542293720739237e-05,0.5415879167129901,-2.772722613839539e-05,0.5415879167129901,-0.0003450290300992
0.5423820338929212,7.2328985376447055e-06,0.5423820338929212,-2.8269279574792407e-05,0.5423820338929212,-3.321408867726059e-05,0.5423820338929212,-0.0002480137691758
0.5431761510728523,1.128318385361069e-05,0.5431761510728523,-2.7556788607274272e-05,0.5431761510728523,-5.020917183690311e-05,0.5431761510728523,-9.372053000998398e-05
0.5439702682527834,1.2804341335401212e-05,0.5439702682527834,-2.7953607587096546e-05,0.5439702682527834,-4.5757105629894353e-05,0.5439702682527834,6.912840155449311e-05
0.5447643854327144,1.5275890274140194e-05,0.5447643854327144,-1.677770000916199e-05,0.5447643854327144,-1.2188637112148236e-05,0.5447643854327144,0.0002327969497615
0.5455585026126455,2.3534302258541515e-06,0.5455585026126455,-1.302040697664921e-05,0.5455585026126455,3.093583363219436e-05,0.5455585026126455,0.0003284121175917
0.5463526197925765,-1.541859725888079e-05,0.5463526197925765,-2.0760738693063923e-05,0.5463526197925765,2.985473237423276e-05,0.5463526197925765,0.000271397347596
0.5471467369725076,-1.5061479512402736e-05,0.5471467369725076,-2.8463354592323784e-05,0.5471467369725076,8.999967484653894e-06,0.5471467369725076,0.0002245699997476
0.5479408541524387,-5.383934853230772e-06,0.5479408541524387,-4.108245287318763e-05,0.5479408541524387,1.2686651260393369e-05,0.5479408541524387,0.0001376367840934
0.5487349713323698,-4.263835085424176e-06,0.5487349713323698,-4.803219154183519e-05,0.5487349713323698,4.353816655942906e-05,0.5487349713323698,-1.8211495831140532e-05
0.5495290885123009,-1.5409567106412047e-05,0.5495290885123009,-4.948616779280752e-05,0.5495290885123009,6.238475884280128e-05,0.5495290885123009,-7.956553572557988e-05
0.5503232056922319,-1.590682606538896e-05,0.5503232056922319,-4.22965406770038e-05,0.5503232056922319,8.014380408576014e-05,0.5503232056922319,-7.854474565005784e-05
0.551117322872163,-2.556856929793801e-06,0.551117322872163,-2.445676280278655e-05,0.551117322872163,4.781566350584639e-05,0.551117322872163,-3.251119090935543e-05
0.551911440052094,-1.4818186409115094e-05,0.551911440052094,-4.917713862994136e-06,0.551911440052094,4.8485081469507526e-05,0.551911440052094,6.909108746125099e-05
0.5527055572320251,-2.0115175283815867e-05,0.5527055572320251,1.2930117656520474e-05,0.5527055572320251,9.697737311810208e-05,0.5527055572320251,0.0001786962810406
0.5534996744119562,-3.030085565369553e-06,0.5534996744119562,2.3831335775976813e-05,0.5534996744119562,8.9479783961572e-05,0.5534996744119562,0.0002398401120416
0.5542937915918873,3.9815790465791255e-06,0.5542937915918873,2.09808573090898e-05,0.5542937915918873,-2.565683349531353e-05,0.5542937915918873,0.000174020286027
0.5550879087718184,-1.4546741317658958e-05,0.5550879087718184,5.023516930328023e-06,0.5550879087718184,-6.182808266385885e-05,0.5550879087718184,4.594791018992815e-05
0.5558820259517494,-2.482284008289267e-05,0.5558820259517494,-1.5801403776146277e-05,0.5558820259517494,-2.3044023258579373e-05,0.5558820259517494,-4.5382775911869023e-05
0.5566761431316805,-1.056729882164762e-05,0.5566761431316805,-2.9906297085986523e-05,0.5566761431316805,-9.679171084298152e-06,0.5566761431316805,-9.586321710314322e-05
0.5574702603116115,-5.941592540027228e-06,0.5574702603116115,-4.097722026737499e-05,0.5574702603116115,-6.158705913125918e-05,0.5574702603116115,-0.0001458963656668
0.5582643774915427,-1.29244e-05,0.5582643774915427,-4.830983890421378e-05,0.5582643774915427,-9.479375234181776e-05,0.5582643774915427,-0.0001676609883983
0.5590584946714737,-6.765481733818349e-06,0.5590584946714737,-4.957619799066367e-05,0.5590584946714737,-9.811237170936548e-05,0.5590584946714737,-0.0001642669516962
0.5598526118514048,-1.0765991540600973e-06,0.5598526118514048,-3.673357372598595e-05,0.5598526118514048,-8.856154905086995e-05,0.5598526118514048,-0.0001254407710783
0.5606467290313358,-2.418443594922361e-06,0.5606467290313358,-2.157517495142964e-05,0.5606467290313358,-4.920845186950394e-05,0.5606467290313358,-7.317538961618873e-05
0.5614408462112669,-4.370660515351865e-06,0.5614408462112669,-2.2245129729816975e-05,0.5614408462112669,2.854161781744778e-06,0.5614408462112669,-3.755596885252828e-05
0.5622349633911979,-1.0679286895498188e-05,0.5622349633911979,-1.7233899100573597e-05,0.5622349633911979,2.340552182502853e-05,0.5622349633911979,-3.318281796775978e-05
0.563029080571129,-1.7466377365390562e-05,0.563029080571129,-1.575772941528443e-05,0.563029080571129,1.3225225663016729e-05,0.563029080571129,-5.525204861500391e-05
0.5638231977510602,-9.597472130736057e-06,0.5638231977510602,-2.0650279621151422e-05,0.5638231977510602,4.976034218356425e-06,0.5638231977510602,-9.167410763160486e-05
0.5646173149309912,-3.110052920386777e-06,0.5646173149309912,-2.923132458061664e-05,0.5646173149309912,1.2233518246327378e-05,0.5646173149309912,-0.0001106724782774
0.5654114321109223,9.373488573761344e-07,0.5654114321109223,-3.5554180532497194e-05,0.5654114321109223,1.4248295880345649e-05,0.5654114321109223,-0.0001126770546891
0.5662055492908533,5.912041024013925e-06,0.5662055492908533,-3.2601245011966765e-05,0.5662055492908533,4.670470443271185e-06,0.5662055492908533,-9.351997631858808e-05
0.5669996664707844,1.0238079197558545e-05,0.5669996664707844,-2.299918320546832e-05,0.5669996664707844,9.731295561521525e-06,0.5669996664707844,-6.396285369160568e-05
0.5677937836507154,6.133395158205306e-06,0.5677937836507154,-2.1020743133296034e-05,0.5677937836507154,1.1878784054547268e-05,0.5677937836507154,-6.612419382400996e-05
0.5685879008306466,7.45077864650361e-06,0.5685879008306466,-2.7684779346019043e-05,0.5685879008306466,1.8428257605936532e-05,0.5685879008306466,-0.0002077299011241
0.5693820180105776,1.3416090074416604e-05,0.5693820180105776,-4.0486907914492846e-05,0.5693820180105776,2.097588840914277e-05,0.5693820180105776,-0.0004057559458104
0.5701761351905087,1.2118852036300395e-05,0.5701761351905087,-4.3917757717048136e-05,0.5701761351905087,-1.8540694750561855e-05,0.5701761351905087,-0.0004400381842077
0.5709702523704397,1.1797184128289974e-05,0.5709702523704397,-3.496792864719502e-05,0.5709702523704397,-4.494384875154152e-05,0.5709702523704397,-0.0003254552854558
0.5717643695503708,9.927052278621468e-06,0.5717643695503708,-3.52955958976728e-05,0.5717643695503708,-4.364069569107494e-05,0.5717643695503708,-0.0001970133789109
0.5725584867303019,-1.1531112729458972e-06,0.5725584867303019,-3.731524161872893e-05,0.5725584867303019,-8.311934908216411e-06,0.5725584867303019,-4.737593656028878e-05
