X [s].2,L DELTOID ANTERIOR: EMG 3 [V],X [s].3,L BICEPS BRACHII: EMG 4 [V],X [s].4,L DELTOID POSTERIOR: EMG 5 [V],X [s].7,L DELTOID MEDIUS: EMG 8 [V]
0.0,-0.000363561,0.0,-4.17945e-05,0.0,-5.52224e-05,0.0,-5.25368e-05
0.000794117179931,-0.0003513080126534,0.000794117179931,-3.054861161340402e-05,0.000794117179931,-5.253680277336255e-05,0.000794117179931,-5.757229479994523e-05
0.0015882343598621,-0.0001985670848281,0.0015882343598621,-4.850827244309071e-05,0.0015882343598621,-5.65651713888655e-05,0.0015882343598621,-3.105228835592522e-05
0.0023823515397932,2.735967924331773e-05,0.0023823515397932,-6.630039153823404e-05,0.0023823515397932,-6.89859889345541e-05,0.0023823515397932,-5.790818583697805e-05
0.0031764687197242,0.0001713737678204,0.0031764687197242,-6.193640703561581e-05,0.0031764687197242,-6.327920920047029e-05,0.0031764687197242,-0.000153749845484
0.0039705858996553,0.0001408261577309,0.0039705858996553,-3.726262740076284e-05,0.0039705858996553,-5.992221733347225e-05,0.0039705858996553,-0.0001868158292676
0.0047647030795864,-6.327742131114053e-05,0.0047647030795864,1.93022070586586e-05,0.0047647030795864,-6.865022393836984e-05,0.0047647030795864,-0.0001344474563732
0.0055588202595174,-0.0002888690281942,0.0055588202595174,7.301439232058676e-05,0.0055588202595174,-8.006409824469807e-05,0.0055588202595174,-0.0001099409887003
0.0063529374394485,-0.0003751427218191,0.0063529374394485,4.9515575769584086e-05,0.0063529374394485,-7.469291731883578e-05,0.0063529374394485,-7.536441148871557e-05
0.0071470546193796,-0.0003204243707527,0.0071470546193796,-2.232341324668986e-05,0.0071470546193796,-4.313751380736411e-05,0.0071470546193796,1.174880975451028e-05
0.0079411717993107,-0.0001693615600021,0.0079411717993107,-0.0001681834937269,0.0079411717993107,3.3736906130069134e-05,0.0079411717993107,0.0001253818265327
0.0087352889792417,3.5246077718303426e-06,0.0087352889792417,-0.0003170668086253,0.0087352889792417,0.0001015489128345,0.0087352889792417,0.0002599978269643
0.0095294061591728,0.0001958790696582,0.0095294061591728,-0.0003237809675271,0.0095294061591728,0.0001057449797056,0.0095294061591728,0.0002704049496656
0.0103235233391039,0.000382527279753,0.0103235233391039,-0.0002452243494185,0.0103235233391039,8.241308242434915e-05,0.0103235233391039,0.0001656643262133
0.0111176405190349,0.0003580129912746,0.0111176405190349,-0.0001210140417802,0.0111176405190349,5.11925442126014e-05,0.0111176405190349,7.468885805381677e-05
0.011911757698966,0.0001814544049227,0.011911757698966,-2.3839776278774826e-05,0.011911757698966,2.2661119811915e-05,0.011911757698966,-4.527710291837289e-06
0.0127058748788971,-8.475547856546815e-05,0.0127058748788971,-2.030991150593552e-05,0.0127058748788971,-2.0134094524407837e-06,0.0127058748788971,-3.037988228231932e-05
0.0134999920588282,-0.0003049797977713,0.0134999920588282,-2.735932950247485e-05,0.0134999920588282,-1.1581504323830132e-05,0.0134999920588282,-1.2924574566776596e-05
0.0142941092387592,-0.0002965892637845,0.0142941092387592,-2.064541017077925e-05,0.0142941092387592,-2.5177523026394533e-05,0.0142941092387592,1.1749323841374016e-05
0.0150882264186903,-0.0002333089224287,0.0150882264186903,-1.292386399065278e-05,0.0150882264186903,-3.575138632578932e-05,0.0150882264186903,5.20196764349128e-06
0.0158823435986214,-0.0002009183005115,0.0158823435986214,3.187995671279352e-06,0.0158823435986214,-2.0310896645339083e-05,0.0158823435986214,-3.5748991499077804e-05
0.0166764607785524,-0.000196551215592,0.0166764607785524,2.7022522785613746e-05,0.0166764607785524,-2.2323800521448883e-05,0.0166764607785524,-0.0002143341791947
0.0174705779584835,-0.0001589540435926,0.0174705779584835,5.690007071049599e-05,0.0174705779584835,-5.421441480315128e-05,0.0174705779584835,-0.0003472763101208
0.0182646951384146,-8.744993775389722e-05,0.0182646951384146,6.260776506160235e-05,0.0182646951384146,-8.677790064622563e-05,0.0182646951384146,-0.0003002822877279
0.0190588123183456,-9.550413003238728e-05,0.0190588123183456,4.817269479250894e-05,0.0190588123183456,-8.778493441795601e-05,0.0190588123183456,-0.0001096026203429
0.0198529294982767,3.794777125079809e-05,0.0198529294982767,4.78355411802165e-05,0.0198529294982767,-7.06626795938164e-05,0.0198529294982767,0.000108268398868
0.0206470466782078,0.0004113729259945,0.0206470466782078,8.562946997609084e-06,0.0206470466782078,-2.165589060985325e-05,0.0206470466782078,0.0002536102408766
0.0214411638581389,0.0007020997686926,0.0214411638581389,-6.461866925464984e-05,0.0214411638581389,4.917657620606754e-05,0.0214411638581389,0.0003563393247241
0.0222352810380699,0.0008316899058218,0.0222352810380699,-0.0002104795170556,0.0222352810380699,9.718355371419904e-05,0.0222352810380699,0.0002730929879581
0.023029398218001,0.0006381634342907,0.023029398218001,-0.0003304947306872,0.023029398218001,0.0001163199570594,0.023029398218001,9.047110980881888e-05
0.0238235153979321,0.0002062847607827,0.0238235153979321,-0.0002848370447643,0.0238235153979321,7.368476501696931e-05,0.0238235153979321,-1.4938808297703284e-05
0.0246176325778631,9.08085894932917e-05,0.0246176325778631,-0.000132428125331,0.0246176325778631,2.030827149850813e-05,0.0246176325778631,-2.5681299339299293e-05
0.0254117497577942,0.0001441796233214,0.0254117497577942,-1.3603317807922325e-05,0.0254117497577942,-1.6950442715669116e-05,0.0254117497577942,-3.541558413126979e-05
0.0262058669377253,0.0001970527986795,0.0262058669377253,1.460172594992472e-05,0.0262058669377253,-2.970876888438881e-05,0.0262058669377253,-7.87194969964603e-05
0.0269999841176564,0.0001374701917457,0.0269999841176564,4.414380915721765e-05,0.0269999841176564,-1.997429470821233e-05,0.0269999841176564,-9.852710386743002e-05
0.0277941012975874,-3.1723699944650526e-05,0.0277941012975874,7.972842962130261e-05,0.0277941012975874,-2.4338137300941958e-05,0.0277941012975874,-7.872131535927868e-05
0.0285882184775185,-0.0001540876518557,0.0285882184775185,9.78568497773133e-05,0.0285882184775185,-4.716588116910987e-05,0.0285882184775185,-8.812164196473368e-05
0.0293823356574496,-0.0002250802478958,0.0293823356574496,0.0001300803891199,0.0293823356574496,-5.924982091086634e-05,0.0293823356574496,-0.0001200094163249
0.0301764528373806,-0.0003219292480134,0.0301764528373806,0.000235485739624,0.0301764528373806,-5.555831931419765e-05,0.0301764528373806,-0.0001191730498292
0.0309705700173117,-0.0004849098463562,0.0309705700173117,0.0003610392595561,0.0309705700173117,-6.193615917569518e-05,0.0309705700173117,-0.0001035635893839
0.0317646871972428,-0.0006379925320069,0.0317646871972428,0.0003294885087568,0.0317646871972428,-7.972811315117034e-05,0.0317646871972428,-5.522317936401391e-05
0.0325588043771738,-0.000701441798306,0.0325588043771738,0.0002093071173542,0.0325588043771738,-8.342104448744706e-05,0.0325588043771738,2.1652637933302234e-05
0.0333529215571049,-0.0006648479930525,0.0333529215571049,4.917820541453964e-05,0.0333529215571049,-7.334971730031466e-05,0.0333529215571049,2.853316533323451e-05
0.034147038737036,-0.0005540785454198,0.034147038737036,-9.562878360350904e-06,0.034147038737036,-5.925188759117079e-05,0.034147038737036,-1.694929121040733e-05
0.0349411559169671,-0.0003190940449915,0.0349411559169671,-2.5176533439487983e-05,0.0349411559169671,-5.1194447258757575e-05,0.0349411559169671,-0.0001525674711775
0.0357352730968981,1.2577463450811472e-05,0.0357352730968981,-1.141416629671648e-05,0.0357352730968981,-5.3208131761456126e-05,0.0357352730968981,-0.0002970881039132
0.0365293902768292,0.0001602941914326,0.0365293902768292,1.7288148562660323e-05,0.0365293902768292,-3.172376306435784e-05,0.0365293902768292,-0.0001841323831366
0.0373235074567603,4.548647900145183e-05,0.0373235074567603,5.622936760470887e-05,0.0373235074567603,-1.2253151309038296e-05,0.0373235074567603,2.19889052370922e-05
0.0381176246366913,-2.064163653436085e-05,0.0381176246366913,4.212719566684973e-05,0.0381176246366913,-2.8367458054605698e-05,0.0381176246366913,8.643844282063044e-05
0.0389117418166224,0.0001038898758251,0.0389117418166224,-5.47118048001129e-05,0.0389117418166224,-5.924853740507786e-05,0.0389117418166224,-4.111375450560514e-05
0.0397058589965535,0.000491945962115,0.0397058589965535,-0.000176738699168,0.0397058589965535,-5.790806933563522e-05,0.0397058589965535,-0.0001493804098324
0.0404999761764846,0.0006034146563676,0.0404999761764846,-0.0001418340473826,0.0404999761764846,-1.762540854014584e-05,0.0404999761764846,-8.157673438301231e-05
0.0412940933564156,0.0004187855446814,0.0412940933564156,-2.333199140918032e-05,0.0412940933564156,7.88869655270398e-06,0.0412940933564156,5.522125553070176e-05
0.0420882105363467,0.0004523554963947,0.0420882105363467,2.0979921821210283e-05,0.0420882105363467,1.4603256286923196e-05,0.0420882105363467,0.000236165843781
0.0428823277162778,0.0005651377341095,0.0428823277162778,-7.535553116172738e-05,0.0428823277162778,4.14563557234768e-05,0.0428823277162778,0.0003751303508947
0.0436764448962088,0.0006154995057909,0.0436764448962088,-0.000222389796972,0.0436764448962088,8.375386487828132e-05,0.0436764448962088,0.0003519816073153
0.0444705620761399,0.0004735097814987,0.0444705620761399,-0.0002244139038173,0.0444705620761399,0.00010087618239,0.0444705620761399,0.0001979013586902
0.045264679256071,0.0003002865249768,0.045264679256071,-0.0001804391487659,0.045264679256071,8.241448230092018e-05,0.045264679256071,0.0001136362010873
0.046058796436002,0.0002247503389949,0.046058796436002,-0.0001317622184626,0.046058796436002,7.167164821293423e-05,0.046058796436002,7.016119511104496e-05
0.0468529136159331,0.0001898341511411,0.0468529136159331,-0.0001347830402888,0.0468529136159331,6.831408202535212e-05,0.0468529136159331,-4.414509926611751e-05
0.0476470307958642,2.3681179566860817e-05,0.0476470307958642,-0.0001371327952282,0.0476470307958642,3.810443265010445e-05,0.0476470307958642,-8.492814592061625e-05
0.0484411479757953,-0.0001653186181148,0.0484411479757953,-4.8178528093258845e-05,0.0484411479757953,-1.0045378423133555e-06,0.0484411479757953,-6.462333055785176e-05
0.0492352651557263,-0.0002663725662076,0.0492352651557263,1.3257404393284449e-05,0.0492352651557263,-3.3400578545825856e-05,0.0492352651557263,-7.670656971851002e-05
0.0500293823356574,-0.0003157229023015,0.0500293823356574,3.071601169366202e-05,0.0500293823356574,-5.3879144486410816e-05,0.0500293823356574,-9.634506315397948e-05
0.0508234995155885,-0.0003727929651871,0.0508234995155885,6.294348034104356e-05,0.0508234995155885,-5.4550999590437134e-05,0.0508234995155885,-0.0001082629927301
0.0516176166955195,-0.0004533624043408,0.0516176166955195,0.0001008780162152,0.0516176166955195,-7.469356336626264e-05,0.0516176166955195,-0.0001015492293479
0.0524117338754506,-0.0005201594379446,0.0524117338754506,0.0001492139751613,0.0524117338754506,-0.0001062463726606,0.0524117338754506,-0.0001124580916408
0.0532058510553817,-0.0005292284413373,0.0532058510553817,0.000183792868835,0.0532058510553817,-0.0001089338345091,0.0532058510553817,-0.0001425021481664
0.0539999682353128,-0.0005711893214836,0.0539999682353128,0.0001743953760081,0.0539999682353128,-0.0001035632148446,0.0539999682353128,-0.0001344473222869
0.0547940854152438,-0.0004788756955307,0.0547940854152438,0.0001126281344556,0.0547940854152438,-0.0001052409691811,0.0547940854152438,-9.684969053980706e-05
0.0555882025951749,-0.0001921862299434,0.0555882025951749,1.02384264876001e-05,0.0555882025951749,-8.073540182317909e-05,0.0555882025951749,-4.5487074770403255e-05
0.056382319775106,4.344919516681379e-05,0.056382319775106,-0.000104055453575,0.056382319775106,-5.069353494955902e-05,0.056382319775106,-3.776687992496406e-05
0.057176436955037,-2.735377649410488e-05,0.057176436955037,-0.0001794250167225,0.057176436955037,-1.4270091708346318e-05,0.057176436955037,-5.454966741795988e-05
0.0579705541349681,-0.0003895570792499,0.0579705541349681,-0.0001519055898838,0.0579705541349681,6.696720785303072e-05,0.0579705541349681,-3.7263498536208286e-05
0.0587646713148992,-0.0006802824985655,0.0587646713148992,-0.000110278503683,0.0587646713148992,0.0001233669627798,0.0587646713148992,6.208849637210128e-06
0.0595587884948302,-0.0006329596857898,0.0595587884948302,-0.0001079270340475,0.0595587884948302,0.0001247119805421,0.0595587884948302,3.944411849278311e-05
0.0603529056747613,-0.0001908396618015,0.0603529056747613,-0.0001079269640236,0.0603529056747613,0.000109941025187,0.0603529056747613,5.958645682408335e-05
0.0611470228546924,0.0005561794300832,0.0611470228546924,-0.0001028924890791,0.0611470228546924,0.000113465657596,0.0611470228546924,5.354448695320511e-05
0.0619411400346235,0.0010109256633466,0.0619411400346235,-9.886350422932734e-05,0.0619411400346235,0.0001112841647707,0.0619411400346235,-1.7618825838167585e-05
0.0627352572145545,0.000877355198903,0.0627352572145545,-6.730920019478671e-05,0.0627352572145545,4.011983447245919e-05,0.0627352572145545,-9.6173367608351e-05
0.0635293743944856,0.000589663276606,0.0635293743944856,6.879427787812972e-06,0.0635293743944856,-3.2392561907958305e-05,0.0635293743944856,-0.0001216901773281
0.0643234915744167,0.0002657084371732,0.0643234915744167,9.98693133708816e-05,0.0643234915744167,-7.569954052294827e-05,0.0643234915744167,-0.0001613025797075
0.0651176087543477,2.8030000724299155e-05,0.0651176087543477,0.0002334791101112,0.0651176087543477,-0.000100205940794,0.0651176087543477,-0.000224413437548
0.0659117259342788,-4.447323776795087e-05,0.0659117259342788,0.0003341786079592,0.0659117259342788,-9.483530090884092e-05,0.0659117259342788,-0.0001733927585966
0.0667058431142099,2.8696957552870347e-05,0.0667058431142099,0.0003610420761556,0.0667058431142099,-7.737975049164727e-05,0.0667058431142099,1.7274840784096138e-05
0.067499960294141,6.428452075650753e-05,0.067499960294141,0.0003261327456877,0.067499960294141,-4.9852576394777166e-05,0.067499960294141,0.0001884864394898
0.068294077474072,-8.222553111027957e-06,0.068294077474072,0.0001851419994939,0.068294077474072,1.3929690700789222e-05,0.068294077474072,0.0002650318288477
0.0690881946540031,-0.000120347245169,0.0690881946540031,-9.684710162244218e-05,0.0690881946540031,0.0001072553717258,0.0690881946540031,0.0003044787344505
0.0698823118339342,-0.0001522354597028,0.0698823118339342,-0.0002754211740694,0.0698823118339342,0.0001471995652757,0.0698823118339342,0.0002297942918508
0.0706764290138652,-0.0002230656681011,0.0706764290138652,-0.0002675527052129,0.0706764290138652,0.0001082664810112,0.0706764290138652,9.702876848661288e-05
0.0714705461937963,-0.0001613071853109,0.0714705461937963,-0.0001831297206273,0.0714705461937963,1.2595182648116652e-05,0.0714705461937963,2.602141080040384e-05
0.0722646633737274,6.427589514520349e-05,0.0722646633737274,-0.0001451917496298,0.0722646633737274,-7.334613624491327e-05,0.0722646633737274,-2.2321670391222944e-05
0.0730587805536585,0.0002683860017759,0.0730587805536585,-0.000126055468588,0.0730587805536585,-0.0001122900463946,0.0730587805536585,-4.985052589689429e-05
0.0738528977335895,0.0003177388591577,0.0738528977335895,-8.778530922437229e-05,0.0738528977335895,-0.0001304189482615,0.0738528977335895,-0.0001373007504128
0.0746470149135206,5.088689221754311e-05,0.0746470149135206,-6.890487569595439e-06,0.0746470149135206,-0.0001451884175114,0.0746470149135206,-0.0002388381206726
0.0754411320934517,-0.0003009239151757,0.0754411320934517,7.166488259462354e-05,0.0754411320934517,-0.0001569379952977,0.0754411320934517,-0.0002500940383112
0.0762352492733827,-0.0003982997812144,0.0762352492733827,9.919714157308856e-05,0.0762352492733827,-0.0001472046218657,0.0762352492733827,-0.0001737288785322
0.0770293664533138,-0.0006087801081637,0.0770293664533138,9.047106872205776e-05,0.0770293664533138,-0.0001200131487236,0.0770293664533138,-4.045733007684266e-05
0.0778234836332449,-0.0009918131055396,0.0778234836332449,1.1918919020601052e-05,0.0778234836332449,-6.0930517720792047e-05,0.0778234836332449,8.10686953588438e-05
0.078617600813176,-0.0011338194173975,0.078617600813176,-0.0001099410185611,0.078617600813176,5.874744404064967e-06,0.078617600813176,5.035026289895181e-07
0.079411717993107,-0.0005648717540872,0.079411717993107,-0.0001280671281529,0.079411717993107,2.9706838907264663e-05,0.079411717993107,-4.380412443996752e-05
0.0802058351730381,0.0002441549538896,0.0802058351730381,-7.872532853729527e-05,0.0802058351730381,4.515013937233616e-05,0.0802058351730381,5.870664055945333e-06
0.0809999523529692,0.0005929900721472,0.0809999523529692,-3.3069039359263934e-05,0.0809999523529692,5.018659786346351e-05,0.0809999523529692,0.0001414888624871
0.0817940695329002,0.0006675331407119,0.0817940695329002,-7.469130291931354e-05,0.0817940695329002,7.670608250399453e-05,0.0817940695329002,0.0002173620891853
0.0825881867128313,0.0005241953984669,0.0825881867128313,-0.0002250834835682,0.0825881867128313,9.43310051055058e-05,0.0825881867128313,0.0001952093707222
0.0833823038927624,0.0005684996377437,0.0833823038927624,-0.0003392091881241,0.0833823038927624,5.220619823361987e-05,0.0833823038927624,0.0001421744185645
0.0841764210726934,0.0008363663740356,0.0841764210726934,-0.0002032785131579,0.0841764210726934,-2.847968010887656e-06,0.0841764210726934,7.067160688661632e-05
0.0849705382526245,0.0011905224615725,0.0849705382526245,-7.604559305547591e-05,0.0849705382526245,-3.507799409851028e-05,0.0849705382526245,-6.204442384401488e-06
0.0857646554325556,0.0013540308244157,0.0857646554325556,-0.0001216884376778,0.0857646554325556,-6.864841595492489e-05,0.0857646554325556,-6.596134639774588e-05
0.0865587726124866,0.0009478590091562,0.0865587726124866,-8.677930410214523e-05,0.0865587726124866,-7.553196265189791e-05,0.0865587726124866,-8.879151270469852e-05
0.0873528897924177,0.0002388581136317,0.0873528897924177,1.930133640789592e-05,0.0873528897924177,-7.804986763678404e-05,0.0873528897924177,-9.88630705458507e-05
0.0881470069723488,-0.0002841077369226,0.0881470069723488,6.629489498156485e-05,0.0881470069723488,-7.754635898857356e-05,0.0881470069723488,-0.0001055762135872
0.0889411241522799,-0.0004031626333485,0.0889411241522799,6.999274729520718e-05,0.0889411241522799,-5.253918875904245e-05,0.0889411241522799,-0.0001176608457125
0.0897352413322109,-0.0003367109106291,0.0897352413322109,9.449728950656346e-05,0.0897352413322109,-4.199801381894382e-06,0.0897352413322109,-0.0001720409822058
0.090529358512142,-0.0001646689885656,0.090529358512142,0.0001260533513578,0.090529358512142,4.5484504287951445e-05,0.090529358512142,-0.0001854722984523
0.0913234756920731,-0.000340224625686,0.0913234756920731,0.0001837932325403,0.0913234756920731,4.649416917200206e-05,0.0913234756920731,-0.0001549259350945
0.0921175928720041,-0.00077780907217,0.0921175928720041,0.0002569763431041,0.0921175928720041,5.203700634867314e-06,0.0921175928720041,-0.0001203483103698
0.0929117100519352,-0.0009320495297799,0.0929117100519352,0.0002636902395979,0.0929117100519352,-3.1719317807988265e-05,0.0929117100519352,-1.8978482025625856e-05
0.0937058272318663,-0.0009045425224636,0.0937058272318663,0.0001220389816114,0.0937058272318663,-3.306617695120275e-05,0.0937058272318663,8.441872527926635e-05
0.0944999444117974,-0.0007692624702948,0.0944999444117974,4.540154762834716e-06,0.0944999444117974,-3.5268979476380288e-06,0.0944999444117974,0.0001075893785689
0.0952940615917284,-0.0004281994965485,0.0952940615917284,-0.0001106074307798,0.0952940615917284,-1.2588261607379272e-05,0.0952940615917284,8.577205536895216e-05
0.0960881787716595,0.0002240615633549,0.0960881787716595,-0.0001992346308519,0.0960881787716595,-3.3401443606827223e-05,0.0960881787716595,9.617732180475024e-05
0.0968822959515906,0.0009450645310664,0.0968822959515906,-0.0003499462529429,0.0968822959515906,-2.2493229348975205e-05,0.0968822959515906,9.550628796034004e-05
0.0976764131315216,0.0010159822516292,0.0976764131315216,-0.0003922593729216,0.0976764131315216,-2.855588286676452e-06,0.0976764131315216,7.50308400931262e-05
0.0984705303114527,0.0005692162113699,0.0984705303114527,-0.0002326530083545,0.0984705303114527,1.1745864778365692e-06,0.0984705303114527,2.4342548491757328e-05
0.0992646474913838,6.566239631458008e-05,0.0992646474913838,-0.000169700162007,0.0992646474913838,-1.5273212319821725e-05,0.0992646474913838,-4.648951632533224e-05
0.1000587646713148,-0.000431728603272,0.1000587646713148,-0.000105595996651,0.1000587646713148,-2.1986310831182403e-05,0.1000587646713148,-9.649848075156328e-05
0.1008528818512459,-0.0007059332136811,0.1008528818512459,1.96197677034063e-05,0.1008528818512459,-2.0310049764085187e-05,0.1008528818512459,-9.047159915070668e-05
0.101646999031177,-0.0004234843446886,0.101646999031177,0.0001602958283724,0.101646999031177,-1.0910211469204476e-05,0.101646999031177,-6.730752826327473e-05
0.1024411162111081,0.0002711440178044,0.1024411162111081,0.0003347021287503,0.1024411162111081,-2.1317538722009744e-05,0.1024411162111081,-5.589330866411853e-05
0.1032352333910391,0.0007289822227487,0.1032352333910391,0.0004107079554087,0.1032352333910391,-2.567971590790533e-05,0.1032352333910391,-5.254301660842295e-05
0.1040293505709702,0.0007737496026917,0.1040293505709702,0.0003459213085315,0.1040293505709702,-2.1656744895389807e-05,0.1040293505709702,-7.369956716453523e-05
0.1048234677509013,0.0003130118049015,0.1048234677509013,0.0003103768233357,0.1048234677509013,-3.1045807074964685e-05,0.1048234677509013,-0.0001048850982096
0.1056175849308323,-0.000213732658065,0.1056175849308323,0.0002945832480621,0.1056175849308323,-4.54795540007121e-05,0.1056175849308323,-6.732715488425535e-05
0.1064117021107634,-0.0003935386192555,0.1064117021107634,0.0001855139323822,0.1064117021107634,-3.458099323822231e-05,0.1064117021107634,-1.227365509190578e-05
0.1072058192906945,-0.0003399072242789,0.1072058192906945,3.461124298416652e-05,0.1072058192906945,-1.393619876057308e-05,0.1072058192906945,4.863733454462964e-06
0.1079999364706256,-0.0001452055786987,0.1079999364706256,-8.475435132699698e-05,0.1079999364706256,9.901192950595624e-06,0.1079999364706256,1.863019874389856e-05
0.1087940536505566,-6.32840542131746e-05,0.1087940536505566,-0.0001143044102492,0.1087940536505566,4.280257537252575e-05,0.1087940536505566,4.866972188767924e-06
0.1095881708304877,-0.0001351464458327,0.1095881708304877,-0.000105577,0.1095881708304877,5.723692500823021e-05,0.1095881708304877,-4.868496712997745e-06
0.1103822880104188,-0.0002627378220377,0.1103822880104188,-0.0001055584911591,0.1103822880104188,5.874646938213402e-05,0.1103822880104188,-8.900880745872499e-06
0.1111764051903498,-0.0004110623155086,0.1111764051903498,-5.451404312334418e-05,0.1111764051903498,5.67288081401866e-05,0.1111764051903498,-2.2339983100784683e-05
0.1119705223702809,-0.0004097208068637,0.1119705223702809,1.7916336024156846e-05,0.1119705223702809,4.851334127470104e-05,0.1119705223702809,-5.386064158474776e-05
0.112764639550212,-0.0002624149020228,0.112764639550212,8.137809715655203e-05,0.112764639550212,3.206666739376872e-05,0.112764639550212,-5.924836165251741e-05
0.1135587567301431,-5.1258694462674313e-05,0.1135587567301431,7.100338845896698e-05,0.1135587567301431,3.869169655435272e-06,0.1135587567301431,-2.0992925239440217e-05
0.1143528739100741,0.0001451588135466,0.1143528739100741,-1.5931892692591255e-05,0.1143528739100741,-3.238914251324966e-05,0.1143528739100741,3.33933637611403e-05
0.1151469910900052,0.0001673457513729,0.1151469910900052,-9.684809213100772e-05,0.1151469910900052,-5.186518150874916e-05,0.1151469910900052,7.872079144241061e-05
0.1159411082699363,3.874719923387984e-05,0.1159411082699363,-0.0002177035705897,0.1159411082699363,-4.682875561131804e-05,0.1159411082699363,6.495119982210597e-05
0.1167352254498673,-0.0001519477511874,0.1167352254498673,-0.000243863457896,0.1167352254498673,-3.843902510872497e-05,0.1167352254498673,1.7284591917410512e-05
0.1175293426297984,-0.0003060094000489,0.1175293426297984,-0.0001680023151885,0.1175293426297984,-4.380725319719069e-05,0.1175293426297984,3.525264040842791e-06
0.1183234598097295,-0.0003532908372751,0.1183234598097295,-0.0001339671520793,0.1183234598097295,-4.045398102985915e-05,0.1183234598097295,4.531245691042255e-06
0.1191175769896605,-0.0003412434389206,0.1191175769896605,-0.0001180064953688,0.1191175769896605,-1.1596980794458156e-05,0.1191175769896605,1.847770771205811e-06
0.1199116941695916,-0.0003190895339779,0.1199116941695916,-6.195799362974873e-05,0.1199116941695916,3.519011353078667e-06,0.1199116941695916,1.175198607728165e-06
0.1207058113495227,-0.0001915463088137,0.1207058113495227,7.201089370260813e-06,0.1207058113495227,-1.4934213180250006e-05,0.1207058113495227,4.547657164970686e-05
0.1214999285294538,-3.643726040299895e-05,0.1214999285294538,4.98473624025236e-05,0.1214999285294538,-4.917671783719564e-05,0.1214999285294538,-4.8630974054697415e-06
0.1222940457093848,3.675726068997471e-05,0.1222940457093848,5.018065781356731e-05,0.1222940457093848,-7.167206381784894e-05,0.1222940457093848,-0.0001267287249471
0.1230881628893159,6.5313132339880365e-06,0.1230881628893159,-5.8249416102027696e-05,0.1230881628893159,-7.972915755840927e-05,0.1230881628893159,-0.0001740570386558
0.123882280069247,-6.565438097615142e-05,0.123882280069247,-8.607236061791472e-05,0.123882280069247,-8.341967905421333e-05,0.123882280069247,-0.00015959219987
0.124676397249178,-0.0001372603220839,0.124676397249178,1.1267538887272553e-05,0.124676397249178,-7.937827405849547e-05,0.124676397249178,-6.660567069111256e-05
0.1254705144291091,-5.594352197059895e-05,0.1254705144291091,5.4524550067942586e-05,0.1254705144291091,-5.054023330839765e-05,0.1254705144291091,-5.576346990271371e-06
0.1262646316090402,0.000138049974436,0.1262646316090402,2.8378648782224143e-05,0.1262646316090402,-5.895435208267858e-06,0.1262646316090402,4.345025996376356e-05
0.1270587487889713,0.0002775788694358,0.1270587487889713,-4.857115163746491e-06,0.1270587487889713,2.030151556649213e-05,0.1270587487889713,-8.252261953378844e-07
0.1278528659689023,0.0001695462469666,0.1278528659689023,-1.0573536652329758e-05,0.1278528659689023,4.951056993447322e-05,0.1278528659689023,-8.944863977399999e-05
0.1286469831488334,7.066659819308126e-05,0.1286469831488334,-6.0592538438052965e-05,0.1286469831488334,8.342038041698568e-05,0.1286469831488334,-9.483468600631498e-05
0.1294411003287645,4.263743282392572e-05,0.1294411003287645,-9.751683685046344e-05,0.1294411003287645,0.0001069212301014,0.1294411003287645,1.864847943081584e-05
0.1302352175086955,7.222646844319132e-05,0.1302352175086955,-6.932832122219753e-05,0.1302352175086955,0.0001166559196179,0.1302352175086955,0.0001546341530519
0.1310293346886266,0.0002594025390125,0.1310293346886266,-9.3529946112406e-05,0.1310293346886266,0.0001200032378517,0.1310293346886266,0.0003194514838743
0.1318234518685577,0.0004386342870782,0.1318234518685577,-0.0001835648543049,0.1318234518685577,9.921325008115918e-05,0.1318234518685577,0.0004012715245351
0.1326175690484888,0.0005563561377623,0.1326175690484888,-0.000281094070036,0.1326175690484888,8.04100034012024e-05,0.1326175690484888,0.0002573911655943
0.1334116862284198,0.0005497086532271,0.1334116862284198,-0.0001595050892488,0.1334116862284198,6.630597177709943e-05,0.1334116862284198,6.771815339149859e-05
0.1342058034083509,0.000423850169185,0.1342058034083509,4.54363565508988e-05,0.1342058034083509,2.501972348378164e-05,0.1342058034083509,-1.0890750450319738e-05
0.134999920588282,0.0003065047343315,0.134999920588282,0.0001206764792002,0.134999920588282,1.091161013808022e-05,0.134999920588282,-6.528796087740213e-05
0.135794037768213,0.0001663329640116,0.135794037768213,0.0001233675149671,0.135794037768213,-7.5546092318921245e-06,0.135794037768213,-0.000106583473062
0.1365881549481441,3.9414071780983886e-05,0.1365881549481441,9.214140417637624e-05,0.1365881549481441,-3.676050674385513e-05,0.1365881549481441,-9.550403814163616e-05
0.1373822721280752,-0.0001170156214216,0.1373822721280752,5.22001795627723e-05,0.1373822721280752,-4.448442958702176e-05,0.1373822721280752,-8.442520857900999e-05
0.1381763893080062,-0.0001888451242487,0.1381763893080062,4.952593879225031e-05,0.1381763893080062,-5.7407605645371935e-05,0.1381763893080062,-7.570410977036815e-05
0.1389705064879373,-0.0002196958275219,0.1389705064879373,7.08191671103289e-05,0.1389705064879373,-6.394653631614517e-05,0.1389705064879373,-8.408729018869702e-05
0.1397646236678684,-0.0002505843619124,0.1397646236678684,6.814807289366818e-05,0.1397646236678684,-5.0864505356632415e-05,0.1397646236678684,-0.0001146265209293
0.1405587408477994,-0.0002663718502475,0.1405587408477994,3.660139940691873e-05,0.1405587408477994,-2.6024708036800092e-05,0.1405587408477994,-9.987512098162216e-05
0.1413528580277305,-0.0002284497828413,0.1413528580277305,2.2326451066451595e-05,0.1413528580277305,7.882847478335969e-06,0.1413528580277305,-6.06006229247294e-05
0.1421469752076616,-0.000162984043994,0.1421469752076616,2.1988310478978275e-05,0.1421469752076616,-1.84603602063991e-06,0.1421469752076616,-4.716601928402941e-05
0.1429410923875927,-0.0001008800663604,0.1429410923875927,1.0403575123488098e-05,0.1429410923875927,-4.465131782895789e-05,0.1429410923875927,-4.448093746644429e-05
0.1437352095675237,-0.0001272322593173,0.1437352095675237,-1.6459610966181933e-05,0.1437352095675237,-7.402025953973771e-05,0.1437352095675237,-5.254193902326416e-05
0.1445293267474548,-0.0001357773065806,0.1445293267474548,-5.5899318908363375e-05,0.1445293267474548,-6.932032026263409e-05,0.1445293267474548,-7.200709305994526e-05
0.1453234439273859,-0.0001049276021969,0.1453234439273859,-6.931230768873612e-05,0.1453234439273859,-6.596704809530253e-05,0.1453234439273859,-7.150415217932226e-05
0.146117561107317,-9.249176590668116e-05,0.146117561107317,-6.059842455821979e-05,0.146117561107317,-6.931984437942463e-05,0.146117561107317,-5.858654411157707e-05
0.146911678287248,-0.0001304036298693,0.146911678287248,-5.321119241480878e-05,0.146911678287248,-6.361721228001607e-05,0.146911678287248,-6.059278388687034e-05
0.1477057954671791,-6.195404098156021e-05,0.1477057954671791,-3.8105691378596045e-05,0.1477057954671791,-5.723824303739469e-05,0.1477057954671791,-5.958675942695706e-05
0.1484999126471102,0.0001065654600202,0.1484999126471102,-2.857317891821282e-06,0.1484999126471102,-4.17961988816868e-05,0.1484999126471102,-5.05235971761432e-05
0.1492940298270412,0.0002079663619763,0.1492940298270412,1.1916921678917656e-05,0.1492940298270412,-2.836656305376416e-05,0.1492940298270412,-4.313770354033408e-05
0.1500881470069723,0.0002442147846044,0.1500881470069723,1.8532701308531404e-06,0.1500881470069723,-3.0047796909479892e-05,0.1500881470069723,-5.388308060298969e-05
0.1508822641869034,0.0002105924708888,0.1508822641869034,3.929607937373564e-05,0.1508822641869034,-4.51581018294817e-05,0.1508822641869034,-7.267897925953153e-05
0.1516763813668344,3.46826397963971e-05,0.1516763813668344,9.754197893476128e-05,0.1516763813668344,-6.529694277796558e-05,0.1516763813668344,-7.353434504673082e-05
0.1524704985467655,-9.475306652888436e-05,0.1524704985467655,0.000142475626199,0.1524704985467655,-7.26740416571418e-05,0.1524704985467655,-0.0001075695081559
0.1532646157266966,-0.0001399641481098,0.1532646157266966,0.0001995453802353,0.1532646157266966,-6.999439975363175e-05,0.1532646157266966,-0.0001196711507214
0.1540587329066277,-0.0001257237992709,0.1540587329066277,0.0001492349389002,0.1540587329066277,-6.79795775560082e-05,0.1540587329066277,-6.66540423754936e-05
0.1548528500865587,-0.0001418299575501,0.1548528500865587,7.37000610730789e-05,0.1548528500865587,-6.126626763709445e-05,0.1548528500865587,9.217385542234263e-06
0.1556469672664898,-0.0003071571840504,0.1556469672664898,2.668993753522008e-05,0.1556469672664898,-5.387990447111597e-05,0.1556469672664898,5.874515867028212e-05
0.1564410844464209,-0.0006057834595445,0.1564410844464209,-3.039105397141373e-05,0.1564410844464209,-5.404630393450261e-05,0.1564410844464209,9.768730029902016e-05
0.157235201626352,-0.0007510293110282,0.157235201626352,-0.0001277503903998,0.157235201626352,-4.2794609787054486e-05,0.157235201626352,8.827544418468249e-05
0.158029318806283,-0.0003740023839923,0.158029318806283,-0.0001961971531349,0.158029318806283,-1.526178033691007e-05,0.158029318806283,3.608652303628462e-05
0.1588234359862141,0.0003772953982631,0.1588234359862141,-0.0001492513427923,0.1588234359862141,1.5923550930320936e-05,0.1588234359862141,3.340390530241929e-05
0.1596175531661451,0.0009413167113834,0.1596175531661451,-7.70834175350622e-05,0.1596175531661451,5.880387575334197e-06,0.1596175531661451,9.0438583844822e-05
0.1604116703460762,0.0009951557695343,0.1604116703460762,-0.0001059010136338,0.1604116703460762,-1.653402385638152e-07,0.1604116703460762,0.0001364419056891
0.1612057875260073,0.0005984891821384,0.1612057875260073,-0.0001867943503987,0.1612057875260073,3.5910042990401786e-05,0.1612057875260073,0.00011397601858
0.1619999047059384,0.0001499428272227,0.1619999047059384,-0.0002002423884021,0.1619999047059384,4.615727116267248e-05,0.1619999047059384,2.334187828520229e-05
0.1627940218858694,-0.0002042741751388,0.1627940218858694,-0.000102216946444,0.1627940218858694,2.769475300422532e-05,0.1627940218858694,-2.1988549835193668e-05
0.1635881390658005,-0.0002468754848124,0.1635881390658005,8.567483131339662e-06,0.1635881390658005,1.5102960428107363e-05,0.1635881390658005,-3.104895439814717e-05
0.1643822562457316,-7.259896249242186e-05,0.1643822562457316,4.950824127487893e-05,0.1643822562457316,-4.538321998138486e-06,0.1643822562457316,-1.3088462310685974e-05
0.1651763734256627,0.0001744277985161,0.1651763734256627,2.7007064398719244e-05,0.1651763734256627,-2.4347088003412767e-05,0.1651763734256627,-1.5226239387898623e-06
0.1659704906055937,0.0002441762591524,0.1659704906055937,-8.369767177615764e-06,0.1659704906055937,-4.346073935720191e-05,0.1659704906055937,-2.7007352565973887e-05
0.1667646077855248,0.0001831541802617,0.1667646077855248,-8.224692913349695e-06,0.1667646077855248,-5.655873280812104e-05,0.1667646077855248,-9.899553029647386e-05
0.1675587249654559,1.533244164448209e-05,0.1675587249654559,1.7111820644486444e-05,0.1675587249654559,-5.992103716503201e-05,0.1675587249654559,-0.0001361131506562
0.1683528421453869,-0.0002344353455193,0.1683528421453869,4.950905959143045e-05,0.1683528421453869,-6.629913195429101e-05,0.1683528421453869,-0.0001077646396244
0.169146959325318,-0.0004023264014541,0.169146959325318,3.592039647964853e-05,0.169146959325318,-6.898586242326719e-05,0.169146959325318,-4.1126513594508e-05
0.1699410765052491,-0.0005043832478703,0.1699410765052491,-2.50195272462296e-05,0.1699410765052491,-6.730594739630794e-05,0.1699410765052491,3.071956990924154e-05
0.1707351936851801,-0.0004653714809685,0.1707351936851801,-0.0001290900848643,0.1707351936851801,-5.119006933734168e-05,0.1707351936851801,6.36180117695225e-05
0.1715293108651112,-0.0001597925696151,0.1715293108651112,-0.0001868112744592,0.1715293108651112,-3.507820284368661e-05,0.1715293108651112,7.635105366340388e-05
0.1723234280450423,0.0002679149479375,0.1723234280450423,-0.0001747396944347,0.1723234280450423,-2.9210026495333346e-05,0.1723234280450423,2.437553484767364e-05
0.1731175452249733,0.0004755661731277,0.1731175452249733,-0.0001733887692227,0.1731175452249733,-2.8702488444210832e-05,0.1731175452249733,-5.702207307350607e-05
0.1739116624049044,0.0003171344416358,0.1739116624049044,-0.0001894951486053,0.1739116624049044,-2.29977264753788e-05,0.1739116624049044,-9.481874250612356e-05
0.1747057795848355,-0.0001376777273724,0.1747057795848355,-0.0001307713082237,0.1747057795848355,-1.7625691022531417e-05,0.1747057795848355,-9.919768852163816e-05
0.1754998967647666,-0.0001485456032038,0.1754998967647666,-4.851909363595278e-05,0.1754998967647666,-1.4267636474406156e-05,0.1754998967647666,-8.023436607389382e-05
0.1762940139446976,0.0002804805220336,0.1762940139446976,6.361676894249645e-05,0.1762940139446976,-3.524440880938937e-06,0.1762940139446976,-2.064432674863547e-05
0.1770881311246287,0.0005379596056478,0.1770881311246287,0.0001700378189761,0.1770881311246287,1.8633600708772377e-05,0.1770881311246287,4.616437651372984e-05
0.1778822483045598,0.0005537019307737,0.1778822483045598,0.000211342103913,0.1778822483045598,3.25616976716085e-05,0.1778822483045598,8.174669427324665e-05
0.1786763654844909,0.0004479136063857,0.1786763654844909,0.0002756032932953,0.1786763654844909,2.9028794521674588e-05,0.1786763654844909,9.482137329509974e-05
0.1794704826644219,0.0002819271335475,0.1794704826644219,0.000265376662241,0.1794704826644219,9.24459861226727e-06,0.1794704826644219,6.56481052172222e-05
0.180264599844353,2.312574051023552e-05,0.180264599844353,0.0001402171056542,0.180264599844353,2.185592852972089e-06,0.180264599844353,5.824742205228615e-05
0.181058717024284,-0.0001768417541633,0.181058717024284,6.968252446581182e-05,0.181058717024284,1.6856684274586226e-07,0.181058717024284,3.945129985992576e-05
0.1818528342042151,-0.0002888456223767,0.1818528342042151,0.0001055694995991,0.1818528342042151,5.034779024191821e-07,0.1818528342042151,-5.529636931687589e-06
0.1826469513841462,-0.0003120305817518,0.1826469513841462,6.764552264996643e-05,0.1826469513841462,-1.5609013383006155e-05,0.1826469513841462,-4.716305124529015e-05
0.1834410685640773,-0.0003399020152104,0.1834410685640773,3.793420438478097e-05,0.1834410685640773,-3.071603764662319e-05,0.1834410685640773,-7.301695099816889e-05
0.1842351857440083,-0.0004211396541973,0.1842351857440083,4.145919265909074e-05,0.1842351857440083,-2.6523459058756408e-05,0.1842351857440083,-0.0001025608688791
0.1850293029239394,-0.000445277266105,0.1850293029239394,4.313582897086707e-05,0.1850293029239394,-4.045815959580942e-05,0.1850293029239394,-0.0001233681045644
0.1858234201038705,-0.0003751941774746,0.1858234201038705,3.927951603395907e-05,0.1858234201038705,-5.739203420740355e-05,0.1858234201038705,-0.0001210207141583
0.1866175372838016,-0.0001949780552255,0.1866175372838016,-5.848407287890008e-06,0.1866175372838016,-5.723669778813362e-05,0.1866175372838016,-0.0001025667596085
0.1874116544637326,4.471139126105327e-05,0.1874116544637326,-5.184538558198988e-05,0.1874116544637326,-5.4216614822071215e-05,0.1874116544637326,-7.134948649473584e-05
0.1882057716436637,0.00016898827739,0.1882057716436637,-5.68994517779202e-05,0.1882057716436637,-5.018805857766384e-05,0.1882057716436637,-5.522703428189512e-05
0.1889998888235948,0.0001156554737428,0.1889998888235948,-2.9713107385817945e-05,0.1889998888235948,-4.783732903455235e-05,0.1889998888235948,1.1670432071490513e-06
0.1897940060035258,-8.7451682897885e-05,0.1897940060035258,-5.53879901903001e-06,0.1897940060035258,-5.455098477040074e-05,0.1897940060035258,5.186452430182335e-05
0.1905881231834569,-0.0003762049196532,0.1905881231834569,2.502100995813592e-05,0.1905881231834569,-5.2535862533555576e-05,0.1905881231834569,-6.398158830347802e-05
0.191382240363388,-0.0007302006555274,0.191382240363388,9.920703000401156e-05,0.191382240363388,-4.649277728486813e-05,0.191382240363388,-0.0002636701670936
0.192176357543319,-0.0009172066969223,0.192176357543319,0.0001260320513856,0.192176357543319,-4.1787328580499647e-05,0.192176357543319,-0.0001947736571059
0.1929704747232501,-0.0007188611976139,0.1929704747232501,7.50623144421992e-05,0.1929704747232501,-2.5859335730150977e-05,0.1929704747232501,2.587065261488945e-05
0.1937645919031812,-0.0002052080735921,0.1937645919031812,-2.1423555962718504e-06,0.1937645919031812,2.9345217020446428e-05,0.1937645919031812,0.0001998186240212
0.1945587090831123,0.0003313054493693,0.1945587090831123,-0.0001313786457801,0.1945587090831123,8.105225830617819e-05,0.1945587090831123,0.0003193732126116
0.1953528262630433,0.0007778833049084,0.1953528262630433,-0.0003210544978733,0.1953528262630433,9.147552290804429e-05,0.1953528262630433,0.0003613698181987
0.1961469434429744,0.0008377317436208,0.1961469434429744,-0.0004456311286672,0.1961469434429744,9.651294131876294e-05,0.1961469434429744,0.0002892091410621
0.1969410606229055,0.0004100268831544,0.1969410606229055,-0.0003627077748428,0.1969410606229055,7.703895534725198e-05,0.1969410606229055,0.0001126132873965
0.1977351778028366,2.868160232514637e-05,0.1977351778028366,-0.0001763833883121,0.1977351778028366,2.6677851511218634e-05,0.1977351778028366,-6.69906933791417e-05
0.1985292949827676,-6.317905383275169e-05,0.1985292949827676,-5.758238937537643e-05,0.1985292949827676,-1.863615782816397e-05,0.1985292949827676,-0.0001508835443062
0.1993234121626987,0.0002064224301974,0.1993234121626987,-8.474379404180943e-05,0.1993234121626987,-3.1713819391804e-05,0.1993234121626987,-0.0001173518215224
0.2001175293426297,0.0004662989806358,0.2001175293426297,-0.000141799171294,0.2001175293426297,-3.776251814329311e-05,0.2001175293426297,-6.264023576167799e-05
0.2009116465225608,0.000470479206792,0.2009116465225608,-0.0001267327254202,0.2009116465225608,-4.615476382360158e-05,0.2009116465225608,2.5977145685190933e-05
0.2017057637024919,0.0004449755927686,0.2017057637024919,-0.0001378007031438,0.2017057637024919,-4.112459855475074e-05,0.2017057637024919,8.709561723411905e-05
0.202499880882423,0.0002880525443242,0.202499880882423,-0.0002220523589846,0.202499880882423,-1.561382752979141e-05,0.202499880882423,9.886143732989987e-05
0.203293998062354,5.455156977039933e-05,0.203293998062354,-0.0003137097763531,0.203293998062354,1.4267127088872724e-05,0.203293998062354,2.601677777193727e-05
0.2040881152422851,-6.19514068387621e-05,0.2040881152422851,-0.0003012680976039,0.2040881152422851,1.9133752441822246e-05,0.2040881152422851,-8.51013053245658e-05
0.2048822324222162,-0.0001653464279759,0.2048822324222162,-0.0001572077854855,0.2048822324222162,1.191494159655066e-05,0.2048822324222162,-9.68462485483361e-05
0.2056763496021472,-0.0002180380668303,0.2056763496021472,7.245652263336661e-05,0.2056763496021472,3.8501225287707375e-06,0.2056763496021472,-8.747282461973985e-05
0.2064704667820783,-0.0002227328476424,0.2064704667820783,0.0003303218537447,0.2064704667820783,-1.9790326384173345e-05,0.2064704667820783,-0.0001404544249746
0.2072645839620094,-0.0002596436510895,0.2072645839620094,0.0005011085554998,0.2072645839620094,-4.949993300066282e-05,0.2072645839620094,-0.0002314163316874
0.2080587011419405,-0.000287515512491,0.2080587011419405,0.000579218622328,0.2080587011419405,-5.656254652435514e-05,0.2080587011419405,-0.0002375047254417
0.2088528183218715,-0.0002730943029266,0.2088528183218715,0.0005805906927031,0.2088528183218715,-4.7503373945073714e-05,0.2088528183218715,-0.0001898479075521
0.2096469355018026,-0.0001304305895299,0.2096469355018026,0.0005262114177203,0.2096469355018026,-4.078794538343489e-05,0.2096469355018026,-0.000149221299562
0.2104410526817337,8.476653740045918e-07,0.2104410526817337,0.0003479366224648,0.2104410526817337,-2.2993740856356184e-05,0.2104410526817337,-2.3322625130382844e-05
0.2112351698616647,0.000127718995847,0.2112351698616647,0.0001312243898959,0.2112351698616647,5.059897618588115e-07,0.2112351698616647,0.0001029037777885
0.2120292870415958,6.219246704297358e-05,0.2120292870415958,-2.5872495915590266e-05,0.2120292870415958,1.191717879262424e-05,0.2120292870415958,0.0001579426667069
0.2128234042215269,-0.000158116715239,0.2128234042215269,-9.14286171755849e-05,0.2128234042215269,1.1581851575891088e-05,0.2128234042215269,0.0001487209185243
0.2136175214014579,-0.0001894831815535,0.2136175214014579,-0.0001035557154167,0.2136175214014579,-2.17374370524322e-06,0.2136175214014579,0.0001139909426042
0.214411638581389,0.0001317826887335,0.214411638581389,-0.0001109446384427,0.214411638581389,-7.55077510779012e-06,0.214411638581389,6.128899063965864e-05
0.2152057557613201,0.0004180239685665,0.2152057557613201,-0.0001062504454377,0.2152057557613201,-7.55322e-06,0.2152057557613201,-3.639325055235156e-05
0.2159998729412512,0.000322118363707,0.2159998729412512,-0.0001069198926241,0.2159998729412512,-1.2252247924223632e-05,0.2159998729412512,-8.878391972340565e-05
0.2167939901211822,-0.0001330983363892,0.2167939901211822,-7.872165084359813e-05,0.2167939901211822,-1.9638308112065112e-05,0.2167939901211822,-7.200750883621567e-05
0.2175881073011133,-0.0006588261011842,0.2175881073011133,-5.824442586365227e-05,0.2175881073011133,-3.3738924894913215e-05,0.2175881073011133,-3.0043321453818107e-05
0.2183822244810444,-0.0007926517757162,0.2183822244810444,-6.362002509449487e-05,0.2183822244810444,-4.2797708703084286e-05,0.2183822244810444,-1.7610960141926735e-05
0.2191763416609755,-0.0004379803910146,0.2191763416609755,-8.175558414849774e-05,0.2191763416609755,-2.9030397941526622e-05,0.2191763416609755,2.9228378332499103e-05
0.2199704588409065,0.0001979646289067,0.2199704588409065,-0.0001119344343207,0.2199704588409065,-1.159348256035604e-05,0.2199704588409065,8.170683802885416e-05
0.2207645760208376,0.0007119096491713,0.2207645760208376,-0.0001760397618137,0.2207645760208376,-5.542256604240695e-06,0.2207645760208376,6.060489311751233e-05
0.2215586932007686,0.0008524517799978,0.2215586932007686,-0.0002592948312891,0.2215586932007686,-2.164637376462228e-05,0.2215586932007686,-8.869159421998612e-06
0.2223528103806997,0.0006122034016309,0.2223528103806997,-0.0002942316622435,0.2223528103806997,-1.426896374607046e-05,0.2223528103806997,-0.0001129381472168
0.2231469275606308,0.0001187140216153,0.2231469275606308,-0.0001720561482729,0.2231469275606308,1.0057064727247997e-06,0.2231469275606308,-0.0001747253646914
0.2239410447405619,-0.000293240396167,0.2239410447405619,-6.663470563142375e-05,0.2239410447405619,-4.532629895091958e-06,0.2239410447405619,-0.0001446819614261
0.2247351619204929,-0.0004244606042197,0.2247351619204929,-4.010826412405024e-05,0.2247351619204929,-1.6955264515553886e-05,0.2247351619204929,-7.300953940783108e-05
0.225529279100424,-0.0002753114787965,0.225529279100424,-2.172493873780416e-06,0.225529279100424,-2.903954995745025e-05,0.225529279100424,-4.916760215293896e-05
0.2263233962803551,9.3211833836796e-05,0.2263233962803551,2.4988850859279577e-05,0.2263233962803551,-3.3734130991714416e-05,0.2263233962803551,-1.446138505448764e-05
0.2271175134602862,0.0003756410014293,0.2271175134602862,-6.86227794243658e-06,0.2271175134602862,-1.495011953241009e-05,0.2271175134602862,3.437916978030908e-05
0.2279116306402172,0.0003932628792018,0.2279116306402172,-7.466135505569589e-05,0.2279116306402172,6.200581716079635e-06,0.2279116306402172,7.568079194224944e-05
0.2287057478201483,0.0001888949318653,0.2287057478201483,-6.563197872511278e-05,0.2287057478201483,-1.843781117705642e-06,0.2287057478201483,5.757805748198624e-05
0.2294998650000794,-2.3630570229687022e-05,0.2294998650000794,6.225035358709685e-05,0.2294998650000794,-1.04052445240298e-05,0.2294998650000794,5.186637031617997e-05
0.2302939821800104,-6.730652055592003e-05,0.2302939821800104,8.778462740154266e-05,0.2302939821800104,5.202979659230086e-06,0.2302939821800104,4.078764862700771e-05
0.2310880993599415,-1.1918350224571127e-05,0.2310880993599415,3.0042857554388745e-05,0.2310880993599415,3.81031232767027e-05,0.2310880993599415,-1.1256192150741682e-05
0.2318822165398726,-2.033378661804053e-05,0.2318822165398726,1.2916801195880724e-05,0.2318822165398726,4.8669387823635495e-05,0.2318822165398726,-9.348838370231124e-05
0.2326763337198036,-0.0001083031613943,0.2326763337198036,-1.49386e-05,0.2326763337198036,2.331662645718016e-05,0.2326763337198036,-8.021351031774653e-05
0.2334704508997347,-0.0002038709187185,0.2334704508997347,-1.49386e-05,0.2334704508997347,-1.08865498716947e-05,0.2334704508997347,-3.64535582564535e-05
0.2342645680796658,-0.000213666704352,0.2342645680796658,-2.860014088596524e-06,0.2342645680796658,-2.4666312873159557e-05,0.2342645680796658,1.6577633779986257e-06
0.2350586852595969,-0.0001532699527753,0.2350586852595969,-1.3591541744689348e-05,0.2350586852595969,-2.1653797599125758e-05,0.2350586852595969,5.067107171311813e-05
0.2358528024395279,-0.000134787593903,0.2358528024395279,-7.219107022679579e-06,0.2358528024395279,-2.383405708192697e-05,0.2358528024395279,7.233761249606954e-05
0.236646919619459,-0.0001384756261393,0.236646919619459,2.2656575391601608e-05,0.236646919619459,-3.3065365429420525e-05,0.236646919619459,6.764367578396281e-05
0.2374410367993901,-0.0001480430233588,0.2374410367993901,8.979947114497203e-05,0.2374410367993901,-3.978044002770439e-05,0.2374410367993901,5.018633211218289e-05
0.2382351539793211,-0.0001485394482257,0.2382351539793211,9.347787297906736e-05,0.2382351539793211,-4.279880062103375e-05,0.2382351539793211,3.792423242577314e-05
0.2390292711592522,-0.0001095951223186,0.2390292711592522,2.0619279411929005e-05,0.2390292711592522,-2.8362836007502632e-05,0.2390292711592522,-1.193550556397966e-05
0.2398233883391833,-7.773873706218079e-05,0.2398233883391833,-5.617035355310303e-05,0.2398233883391833,-1.7632464960995138e-05,0.2398233883391833,-6.525233324664433e-05
0.2406175055191144,-4.584266106765112e-05,0.2406175055191144,-7.53523833843202e-05,0.2406175055191144,-1.3598308774306732e-05,0.2406175055191144,-7.468704625556149e-05
0.2414116226990454,-4.0454252293648486e-05,0.2414116226990454,-6.596916659704313e-05,0.2414116226990454,-1.04082154288087e-05,0.2414116226990454,-5.187624740244288e-05
0.2422057398789765,-2.501455899353733e-05,0.2422057398789765,-6.73070600875185e-05,0.2422057398789765,-4.533854623658761e-06,0.2422057398789765,-4.314015939836896e-05
0.2429998570589076,-3.172229130164431e-05,0.2429998570589076,-6.797877913016443e-05,0.2429998570589076,4.865937829503094e-06,0.2429998570589076,-7.535849828389798e-05
0.2437939742388386,-9.013310485128996e-05,0.2437939742388386,-5.992246139792014e-05,0.2437939742388386,1.1750598085426691e-06,0.2437939742388386,-0.0001210175187429
0.2445880914187697,-0.0001226973042271,0.2445880914187697,-2.886405107100437e-05,0.2445880914187697,-2.854213026294118e-06,0.2445880914187697,-0.0001277266225621
0.2453822085987008,-0.000116648385477,0.2453822085987008,2.3686455531745168e-05,0.2453822085987008,-9.570232227452923e-06,0.2453822085987008,-7.232862434434505e-05
0.2461763257786318,-9.145400144066774e-05,0.2461763257786318,9.886416291148326e-05,0.2461763257786318,-2.031145073467017e-05,0.2461763257786318,-1.7610787509322638e-05
0.2469704429585629,-3.344269261269034e-05,0.2469704429585629,0.0001012113535396,0.2469704429585629,-2.433527744651472e-05,0.2469704429585629,1.5083466288730898e-05
0.247764560138494,1.793144644498132e-05,0.247764560138494,8.041133013286726e-05,0.247764560138494,-1.1588666868137585e-05,0.247764560138494,5.4529148411638006e-05
0.2485586773184251,7.164977156681762e-05,0.2485586773184251,5.623932280915607e-05,0.2485586773184251,8.55212432841261e-06,0.2485586773184251,4.247081138425804e-05
0.2493527944983561,0.0001176500968478,0.2493527944983561,5.887752733079643e-06,0.2493527944983561,1.661501475618504e-05,0.2493527944983561,1.0582754074463958e-05
0.2501469116782872,6.52992252952742e-05,0.2501469116782872,-4.212486010484117e-05,0.2501469116782872,1.4938786710321028e-05,0.2501469116782872,2.182973547155681e-06
0.2509410288582183,-7.402506269969465e-05,0.2509410288582183,-0.0001055770976236,0.2509410288582183,1.527375095055405e-05,0.2509410288582183,-3.105240502845937e-05
0.2517351460381494,-0.0001720432094692,0.2517351460381494,-0.0001082455881326,0.2517351460381494,1.6365041258484096e-07,0.2517351460381494,-3.944478523302301e-05
0.2525292632180804,-0.0001622847697027,0.2525292632180804,-1.3568457832860976e-05,0.2525292632180804,-2.266504623040331e-05,0.2525292632180804,-4.044469773687637e-05
0.2533233803980115,-8.616609083799976e-05,0.2533233803980115,6.892163792768123e-05,0.2533233803980115,-3.909607985032788e-05,0.2533233803980115,-1.9319182971641083e-05
0.2541174975779426,2.527467620541637e-05,0.2541174975779426,4.416011910299895e-05,0.2541174975779426,-5.387025349435356e-05,0.2541174975779426,6.529763555005259e-06
0.2549116147578736,0.000114933511404,0.2549116147578736,-2.044624594875311e-05,0.2549116147578736,-6.864313338050892e-05,0.2549116147578736,1.2921305312153957e-05
0.2557057319378047,0.0001559181731899,0.2557057319378047,-1.0242256719401731e-05,0.2557057319378047,-7.636879328083636e-05,0.2557057319378047,7.890610030861062e-06
0.2564998491177358,0.0001468697224141,0.2564998491177358,2.399589321185852e-05,0.2564998491177358,-6.59666775648094e-05,0.2564998491177358,-8.221547979368323e-06
0.2572939662976669,0.0001139713963971,0.2572939662976669,8.402291893360602e-07,0.2572939662976669,-3.441043941730962e-05,0.2572939662976669,-1.15814575083182e-05
0.2580880834775979,3.5078064725067095e-05,0.2580880834775979,-5.2873735289719214e-05,0.2580880834775979,-8.224257062182934e-06,0.2580880834775979,-4.045424115690884e-05
0.258882200657529,1.1947968431031517e-05,0.258882200657529,-6.461334663142442e-05,0.258882200657529,-4.864406201768941e-06,0.258882200657529,-6.461758846588177e-05
0.2596763178374601,0.0001333696384683,0.2596763178374601,-3.037398947171876e-05,0.2596763178374601,7.891594223306362e-06,0.2596763178374601,-4.7167747381843456e-05
0.2604704350173911,0.0003773194394745,0.2604704350173911,-1.3607728524014488e-05,0.2604704350173911,1.4598128569074108e-05,0.2604704350173911,-5.253298284957393e-05
0.2612645521973222,0.0004080237714405,0.2612645521973222,7.876792984042383e-06,0.2612645521973222,1.5944942683330242e-05,0.2612645521973222,-1.126918737479838e-05
0.2620586693772533,0.000236738360381,0.2620586693772533,-6.875669446696378e-06,0.2620586693772533,2.131466342456301e-05,0.2620586693772533,9.428733750144732e-05
0.2628527865571843,1.7347473255329722e-05,0.2628527865571843,-9.648920529538848e-05,0.2628527865571843,2.719002076510193e-05,0.2628527865571843,0.000175045296656
0.2636469037371154,-0.0002364692312177,0.2636469037371154,-0.0001324286451713,0.2636469037371154,3.004465405980486e-05,0.2636469037371154,0.0001260609421114
0.2644410209170465,-0.0003509725754945,0.2644410209170465,-8.476313060569544e-05,0.2644410209170465,3.742978094762604e-05,0.2644410209170465,-2.2495333010342365e-05
0.2652351380969776,-0.0003348490159711,0.2652351380969776,-5.556096093803972e-05,0.2652351380969776,1.3925719719682445e-05,0.2652351380969776,-0.0001565969861723
0.2660292552769086,-0.0002774228774951,0.2660292552769086,-7.198024376238655e-05,0.2660292552769086,-1.9308628653678568e-05,0.2660292552769086,-0.0001219869787724
0.2668233724568397,-0.0001774959662423,0.2668233724568397,1.2186488081827325e-05,0.2668233724568397,-3.775152568504991e-05,0.2668233724568397,-5.994732623544754e-07
0.2676174896367708,0.0001580662211263,0.2676174896367708,0.000111220345364,0.2676174896367708,-3.508222623613152e-05,0.2676174896367708,0.0001157412327202
0.2684116068167018,0.0005367624862303,0.2684116068167018,0.0001039026570008,0.2684116068167018,-2.199478316672032e-05,0.2684116068167018,0.0001713464880633
0.2692057239966329,0.0006362814592562,0.2692057239966329,4.852765439811451e-05,0.2692057239966329,-4.537998031355758e-06,0.2692057239966329,0.0001455339854043
0.269999841176564,0.0004617879177524,0.269999841176564,5.55566898519183e-05,0.269999841176564,1.1914009668478108e-05,0.269999841176564,4.349341341220666e-05
0.270793958356495,0.0002267763246417,0.270793958356495,7.334916684982422e-05,0.270793958356495,1.040677922755483e-05,0.270793958356495,-5.689563561587063e-05
0.2715880755364261,2.3326145681063767e-05,0.2715880755364261,1.392696503651592e-05,0.2715880755364261,-1.6282485831369486e-05,0.2715880755364261,-7.334794430075261e-05
0.2723821927163572,-2.7697748078086126e-05,0.2723821927163572,-3.374226283888003e-05,0.2723821927163572,-2.769363338968713e-05,0.2723821927163572,-5.0689074093129326e-05
0.2731763098962882,-3.862591005220504e-05,0.2731763098962882,-5.253693085809306e-05,0.2731763098962882,-2.1649982838138832e-05,0.2731763098962882,-4.48204108913501e-05
0.2739704270762193,-9.143969696528956e-05,0.2739704270762193,-5.287225807482619e-05,0.2739704270762193,-1.4943438503476208e-05,0.2739704270762193,-5.689219069374283e-05
0.2747645442561504,-0.0002156147063939,0.2747645442561504,-2.4354478308942747e-05,0.2747645442561504,-1.4267585373325676e-05,0.2747645442561504,-5.95849585066973e-05
0.2755586614360815,-0.0003066222079943,0.2755586614360815,1.5257409156970217e-05,0.2755586614360815,-1.930055284809614e-05,0.2755586614360815,-7.804202715232615e-05
0.2763527786160125,-0.0002579975721767,0.2763527786160125,1.7959151197938584e-05,0.2763527786160125,-2.1651944798196265e-05,0.2763527786160125,-0.0001038917927243
0.2771468957959436,-0.0001722242565316,0.2771468957959436,-1.929780968001343e-05,0.2771468957959436,-3.0043898586747695e-05,0.2771468957959436,-9.886386089519756e-05
0.2779410129758747,-0.0001478746104949,0.2779410129758747,-4.14584543743398e-05,0.2779410129758747,-4.448019750131111e-05,0.2779410129758747,-6.327937555508675e-05
0.2787351301558057,-0.0001240532713647,0.2787351301558057,-2.0309965088050333e-05,0.2787351301558057,-5.656525502935011e-05,0.2787351301558057,-7.402282070440266e-05
0.2795292473357368,-0.0001989093552811,0.2795292473357368,-2.131408009259735e-05,0.2795292473357368,-5.689870673868683e-05,0.2795292473357368,-8.206837813469469e-05
0.2803233645156679,-0.0002257355326198,0.2803233645156679,-1.2260245240802176e-05,0.2803233645156679,-4.985683518729058e-05,0.2803233645156679,-5.021239243399845e-05
0.2811174816955989,-0.0002218995197166,0.2811174816955989,3.1359312319013136e-05,0.2811174816955989,-4.481898705517794e-05,0.2811174816955989,-2.6032377799576468e-05
0.2819115988755301,-0.000103958611946,0.2819115988755301,8.775670834108347e-05,0.2819115988755301,-4.179602629376388e-05,0.2819115988755301,-3.200672308302349e-06
0.2827057160554611,0.0001591948806104,0.2827057160554611,0.0001079197970351,0.2827057160554611,-4.078776015182004e-05,0.2827057160554611,2.3321516059290467e-05
0.2834998332353922,0.0003408638556414,0.2834998332353922,4.650710279193629e-05,0.2834998332353922,-3.910925253702037e-05,0.2834998332353922,2.450575321358419e-05
0.2842939504153233,0.0003513073501534,0.2842939504153233,-5.756580112876878e-05,0.2842939504153233,-3.323456687040327e-05,0.2842939504153233,1.6617592655612093e-05
0.2850880675952543,0.0002066089252048,0.2850880675952543,-0.0001082616281909,0.2850880675952543,-2.870228573700333e-05,0.2850880675952543,-1.5611600415548907e-05
0.2858821847751854,5.303282216951346e-05,0.2858821847751854,-9.214388771342047e-05,0.2858821847751854,-2.970922187779631e-05,0.2858821847751854,-3.440902187779631e-05
0.2866763019551165,2.0482253906972e-05,0.2866763019551165,-6.931130841406923e-05,0.2866763019551165,-2.936926487407114e-05,0.2866763019551165,-3.4080922746451384e-05
0.2874704191350475,3.272164737325542e-05,0.2874704191350475,-4.198229008374731e-05,0.2874704191350475,-1.7968239394097337e-05,0.2874704191350475,-5.3865128644754056e-05
0.2882645363149786,5.219405545061029e-06,0.2882645363149786,-3.54727695100593e-06,0.2882645363149786,-2.1912540520798696e-06,0.2882645363149786,-6.72996582920673e-05
0.2890586534949096,-1.0232060986585976e-05,0.2890586534949096,3.1862099939780743e-06,0.2890586534949096,8.555621991237729e-06,0.2890586534949096,-4.5496622518480245e-05
0.2898527706748408,-0.0001005159183932,0.2898527706748408,3.440008296939697e-05,0.2898527706748408,1.661477301681385e-05,0.2898527706748408,-1.8639056562483395e-05
0.2906468878547718,-0.0001388055948542,0.2906468878547718,7.082725554245741e-05,0.2906468878547718,2.534396723581121e-05,0.2906468878547718,7.213869090911146e-06
0.2914410050347029,-7.939231684452692e-05,0.2914410050347029,0.0001082627254038,0.2914410050347029,3.8101893660057664e-05,0.2914410050347029,6.596490647861818e-05
0.292235122214634,-1.8972477185812515e-05,0.292235122214634,6.494033833378578e-05,0.292235122214634,5.28734300933844e-05,0.292235122214634,9.852295289217962e-05
0.293029239394565,-5.458921098608649e-05,0.293029239394565,-4.785398256010781e-05,0.293029239394565,5.8912168455460086e-05,0.293029239394565,6.897563855153634e-05
0.2938233565744961,-0.0001813422995774,0.2938233565744961,-0.0001041883556375,0.2938233565744961,4.9187679170198605e-05,0.2938233565744961,3.4604748669818166e-05
0.2946174737544272,-0.0002945000199475,0.2946174737544272,-9.987319216348358e-05,0.2946174737544272,2.5864263268839605e-05,0.2946174737544272,1.86803308853246e-06
0.2954115909343582,-0.0002855166692215,0.2954115909343582,-7.940324997806735e-05,0.2954115909343582,-2.1675986227287678e-06,0.2954115909343582,-1.6607587709153037e-05
0.2962057081142893,-0.0001492681036159,0.2962057081142893,-4.214389822581288e-05,0.2962057081142893,-2.852471249706857e-05,0.2962057081142893,-6.292646975542977e-05
0.2969998252942204,1.5238106353269552e-05,0.2969998252942204,-6.218323517842209e-06,0.2969998252942204,-3.3400928969958926e-05,0.2969998252942204,-0.0001317468576956
0.2977939424741515,-2.8363338193891067e-05,0.2977939424741515,1.4937067738890351e-05,0.2977939424741515,-4.179389195757711e-05,0.2977939424741515,-0.0001451890271321
0.2985880596540825,-0.0003546845213852,0.2985880596540825,2.4673270355894155e-05,0.2985880596540825,-6.797998452474357e-05,0.2985880596540825,-8.207234775020775e-05
0.2993821768340136,-0.0006145057942436,0.2993821768340136,1.761560208081772e-05,0.2993821768340136,-8.241216827578249e-05,0.2993821768340136,-2.8283192272757046e-06
0.3001762940139447,-0.000658359463649,0.3001762940139447,-2.10147208441887e-05,0.3001762940139447,-7.41766745217305e-05,0.3001762940139447,0.0001099628505986
0.3009704111938757,-0.0003517033732248,0.3009704111938757,-0.0001115528695842,0.3009704111938757,-3.980578464001234e-05,0.3009704111938757,0.0001689802409657
0.3017645283738068,0.0002717136130616,0.3017645283738068,-0.0002001913584386,0.3017645283738068,4.79619891838659e-07,0.3017645283738068,0.0001227255170718
0.3025586455537379,0.0008079546773481,0.3025586455537379,-0.0002077936282964,0.3025586455537379,2.936071223927132e-05,0.3025586455537379,1.8006655702829222e-05
0.3033527627336689,0.0010223059990507,0.3033527627336689,-0.0001775940280735,0.3033527627336689,4.413998612906507e-05,0.3033527627336689,-3.674264867425588e-05
0.3041468799136,0.0007060218524642,0.3041468799136,-0.0001468726457102,0.3041468799136,3.877401235273504e-05,0.3041468799136,-4.984921990533255e-05
0.3049409970935311,0.0003915931508079,0.3049409970935311,-0.0001057451505323,0.3049409970935311,1.5274386018667518e-05,0.3049409970935311,-3.0380771272547477e-05
0.3057351142734621,0.0003073251876321,0.3057351142734621,-9.31545606974585e-05,0.3057351142734621,3.5229457486238547e-06,0.3057351142734621,-2.1990425817415634e-05
0.3065292314533932,0.0002599442953014,0.3065292314533932,-8.105624668422932e-05,0.3065292314533932,-9.57444684985639e-06,0.3065292314533932,-3.6791349905964826e-05
0.3073233486333243,7.56833382074435e-05,0.3073233486333243,-2.9751382301959997e-05,0.3073233486333243,-3.371789657679641e-05,0.3073233486333243,-0.0001477839594219
0.3081174658132554,-0.0002960038699497,0.3081174658132554,6.757770325559793e-05,0.3081174658132554,-5.017583331914416e-05,0.3081174658132554,-0.0003135984296488
0.3089115829931864,-0.0006787490090182,0.3089115829931864,0.0001904444711892,0.3089115829931864,-5.6897373823997007e-05,0.3089115829931864,-0.000300289052352
0.3097057001731175,-0.0009084812926333,0.3097057001731175,0.0002603076329822,0.3097057001731175,-5.790761970320744e-05,0.3097057001731175,-0.0001452485651773
0.3104998173530486,-0.0007568669044305,0.3104998173530486,0.000239861710405,0.3104998173530486,-5.421614944634436e-05,0.3104998173530486,5.349818445721141e-05
0.3112939345329796,-0.0001378550401998,0.3112939345329796,0.0001462047224699,0.3112939345329796,-4.112417948025688e-05,0.3112939345329796,0.0002284285791902
0.3120880517129107,0.000523543689007,0.3120880517129107,-8.233574204479971e-06,0.3120880517129107,-1.8965382068450688e-05,0.3120880517129107,0.0003069940104206
0.3128821688928418,0.000856548281699,0.3128821688928418,-0.0001458522884051,0.3128821688928418,5.8778619131110124e-06,0.3128821688928418,0.0002764241144255
0.3136762860727728,0.0009189183457162,0.3136762860727728,-0.0001048978460623,0.3136762860727728,2.0641876051703817e-05,0.3136762860727728,0.0001641333838829
0.314470403252704,0.0007616501807352,0.314470403252704,-8.226310909943791e-05,0.314470403252704,1.0582059549708478e-05,0.314470403252704,9.857676317819406e-05
0.315264520432635,0.0004830702894898,0.315264520432635,-0.0001599130616495,0.315264520432635,1.5271461371911887e-05,0.315264520432635,7.990745310257841e-05
0.3160586376125661,0.0001825891275875,0.3160586376125661,-0.0001706980968158,0.3160586376125661,1.6846952275788597e-06,0.3160586376125661,4.265070687878524e-05
0.3168527547924971,2.136666263916092e-05,0.3168527547924971,-0.0001572791469097,0.3168527547924971,-1.4262275563191118e-05,0.3168527547924971,-6.195335686782744e-06
0.3176468719724282,-2.6176840694083757e-05,0.3176468719724282,-0.0001169974955449,0.3176468719724282,-4.1978538814035646e-06,0.3176468719724282,-4.883722558372058e-05
0.3184409891523593,-5.925034824768157e-05,0.3184409891523593,-7.805043201392982e-05,0.3184409891523593,-4.3640777068306205e-06,0.3184409891523593,-7.905658723087792e-05
0.3192351063322903,-0.0001102792478431,0.3192351063322903,-7.804972017254473e-05,0.3192351063322903,-4.365923220703107e-06,0.3192351063322903,-9.013446053102612e-05
0.3200292235122214,-0.0001270748357867,0.3200292235122214,-7.669218782687953e-05,0.3200292235122214,-1.8131711186875368e-05,0.3200292235122214,-8.610424608884115e-05
0.3208233406921525,-0.0001726791374845,0.3208233406921525,-2.371068736094802e-05,0.3208233406921525,-3.238306795355771e-05,0.3208233406921525,-7.738573845377913e-05
0.3216174578720835,-0.0002555773858684,0.3216174578720835,9.3747477085307e-05,0.3216174578720835,-3.23949e-05,0.3216174578720835,-6.798531786594892e-05
0.3224115750520147,-0.0003368295209705,0.3224115750520147,0.0002689682147824,0.3224115750520147,-2.7194384800821047e-05,0.3224115750520147,-5.925547127016436e-05
0.3232056922319457,-0.0004060001947203,0.3232056922319457,0.0004079871293496,0.3232056922319457,-3.4574037330716424e-05,0.3232056922319457,-3.6432148331560094e-05
0.3239998094118768,-0.0005130892950869,0.3239998094118768,0.0003610552809446,0.3239998094118768,-3.239542375728574e-05,0.3239998094118768,-3.944387478098652e-05
0.3247939265918079,-0.0007433827089431,0.3247939265918079,0.0002751129453735,0.3247939265918079,-2.3331837990570155e-05,0.3247939265918079,-6.529101018428604e-05
0.3255880437717389,-0.0009374396100723,0.3255880437717389,0.0002918909623167,0.3255880437717389,-1.5609740908792515e-05,0.3255880437717389,-0.000131767292797
0.32638216095167,-0.0009666151470819,0.32638216095167,0.0003093421211458,0.32638216095167,-1.0909111210602884e-05,0.32638216095167,-0.000227773109602
0.3271762781316011,-0.000824153560344,0.3271762781316011,0.0002901765889985,0.3271762781316011,-5.538912554995618e-06,0.3271762781316011,-0.0002381508704488
0.3279703953115321,-0.0003831997686742,0.3279703953115321,0.0001919268132742,0.3279703953115321,-5.203585338262464e-06,0.3279703953115321,-0.0001606909826061
0.3287645124914632,0.0003579028966591,0.3287645124914632,9.657183706565965e-05,0.3287645124914632,-4.1968483499337184e-06,0.3287645124914632,-4.723526730306753e-05
0.3295586296713942,0.0008958961704653,0.3295586296713942,-3.5690210343700254e-05,0.3295586296713942,-7.048339130407152e-06,0.3295586296713942,0.0001336916072412
0.3303527468513254,0.0010857595271176,0.3303527468513254,-0.0002141191135712,0.3303527468513254,-7.553059454640917e-06,0.3303527468513254,0.0002636495795843
0.3311468640312564,0.0008532178388418,0.3311468640312564,-0.0003371879311808,0.3311468640312564,-1.3762536501806215e-05,0.3311468640312564,0.0002125057667303
0.3319409812111875,0.0004869396666828,0.3319409812111875,-0.0003640643644932,0.3319409812111875,-3.373722734304802e-05,0.3319409812111875,9.68517366355021e-05
0.3327350983911186,0.0003513100384557,0.3327350983911186,-0.0003469369905621,0.3327350983911186,-4.045049361831641e-05,0.3327350983911186,3.138761280903812e-05
0.3335292155710496,0.0003677597294492,0.3335292155710496,-0.000290361113026,0.3335292155710496,-3.07110293794679e-05,0.3335292155710496,2.9870054329483106e-05
0.3343233327509807,0.0003741306469003,0.3343233327509807,-0.0002244693648824,0.3343233327509807,-1.0926823481165226e-05,0.3343233327509807,3.546947727093238e-06
0.3351174499309118,0.0002711483974435,0.3351174499309118,-0.000180132698566,0.3351174499309118,1.2907887812732788e-05,0.3351174499309118,-2.163515752397493e-05
0.3359115671108428,0.0001224430794848,0.3359115671108428,-0.0001485642038001,0.3359115671108428,4.597267223836719e-05,0.3359115671108428,-2.16526e-05
0.3367056842907739,1.0618948797370422e-05,0.3367056842907739,-0.0001203592124489,0.3367056842907739,6.025222709487337e-05,0.3367056842907739,-3.1719495622109474e-05
0.337499801470705,-4.178140581782111e-05,0.337499801470705,-0.0001112862663344,0.337499801470705,4.683325749543237e-05,0.337499801470705,-3.273034818784257e-05
0.338293918650636,-9.986434983704198e-05,0.338293918650636,-9.047283242911324e-05,0.338293918650636,3.441037257453309e-05,0.338293918650636,-2.0646738180349886e-05
0.3390880358305671,-0.000157277075375,0.3390880358305671,-5.454968203982705e-05,0.3390880358305671,1.930194255083632e-05,0.3390880358305671,-3.642433012880483e-05
0.3398821530104982,-0.0002032756743129,0.3398821530104982,-2.534141552813925e-05,0.3398821530104982,2.511400193079428e-06,0.3398821530104982,-5.925261136294456e-05
0.3406762701904293,-0.0002586758516895,0.3406762701904293,-5.700195660853828e-06,0.3406762701904293,-3.039781369186127e-05,0.3406762701904293,-6.86512127338578e-05
0.3414703873703603,-0.0003170219882894,0.3414703873703603,1.391636660687158e-05,0.3414703873703603,-8.069669642392404e-05,0.3414703873703603,-7.133383046772285e-05
0.3422645045502914,-0.0003606807683618,0.3422645045502914,3.406083161399951e-05,0.3422645045502914,-8.945815373475933e-05,0.3422645045502914,-7.334884315516003e-05
0.3430586217302225,-0.0003590307994164,0.3430586217302225,4.749490281014445e-05,0.3430586217302225,-6.144615416181258e-05,0.3430586217302225,-7.066577944749932e-05
0.3438527389101535,-0.0002929187464166,0.3438527389101535,5.3206323408507824e-05,0.3438527389101535,-2.770619391802655e-05,0.3438527389101535,-7.636952340850782e-05
0.3446468560900846,-0.0001760951737884,0.3446468560900846,5.387947831093554e-05,0.3446468560900846,-9.906324742083528e-06,0.3446468560900846,-7.066553435704791e-05
0.3454409732700157,-0.000117663966438,0.3454409732700157,6.126475137074823e-05,0.3454409732700157,-1.7623940069418594e-05,0.3454409732700157,-6.865036780797775e-05
0.3462350904499467,-0.0002240996887735,0.3462350904499467,7.368606769311068e-05,0.3462350904499467,-3.575274132120499e-05,0.3462350904499467,-8.073209648469877e-05
0.3470292076298778,-0.0004057300505909,0.3470292076298778,7.603289443718642e-05,0.3470292076298778,-4.3135020458993935e-05,0.3470292076298778,-5.084216794200031e-05
0.3478233248098089,-0.0005512612635414,0.3478233248098089,6.530252339067893e-05,0.3478233248098089,-3.4416512823931924e-05,0.3478233248098089,1.0857740270039788e-05
0.34861744198974,-0.0004621517557735,0.34861744198974,2.7386059396980862e-05,0.34861744198974,-2.468064181018157e-05,0.34861744198974,7.26352901048555e-05
0.349411559169671,-9.302561852676014e-05,0.349411559169671,-4.17561056215541e-05,0.349411559169671,-2.333174552514576e-05,0.349411559169671,0.0001028752255176
0.3502056763496021,0.0002823370158375,0.3502056763496021,-7.971293737805063e-05,0.3502056763496021,-2.8364447428742468e-05,0.3502056763496021,7.101319974025041e-05
0.3509997935295332,0.0003710919540993,0.3509997935295332,-6.059857578222636e-05,0.3509997935295332,-2.5010372948812315e-05,0.3509997935295332,1.7805836173665596e-05
0.3517939107094642,0.0002032838758393,0.3517939107094642,-2.870578639822619e-05,0.3517939107094642,-1.3932745794149824e-05,0.3517939107094642,-1.0906972248343822e-05
0.3525880278893953,7.301899868029154e-05,0.3525880278893953,-1.426728254066767e-05,0.3525880278893953,-2.0309941494774915e-05,0.3525880278893953,1.6449819053251266e-05
0.3533821450693264,0.0002039696298187,0.3533821450693264,-1.661691599582033e-05,0.3533821450693264,-2.4336627984833333e-05,0.3533821450693264,3.406665320931187e-05
0.3541762622492574,0.0003825645436918,0.3541762622492574,-1.5606234902254707e-05,0.3541762622492574,-1.628173221538013e-05,0.3541762622492574,-2.86766982943972e-06
0.3549703794291886,0.0004932225252137,0.3549703794291886,-4.2051395000126914e-06,0.3549703794291886,-1.7287713865579665e-05,0.3549703794291886,-4.595702739064153e-05
0.3557644966091196,0.0005275282914267,0.3557644966091196,1.1715347128527583e-06,0.3557644966091196,-2.0307884515281037e-05,0.3557644966091196,-5.454557282499595e-05
0.3565586137890507,0.0003574337867976,0.3565586137890507,-5.367995890151581e-06,0.3565586137890507,-3.0711338107222515e-05,0.3565586137890507,-5.11956328843286e-05
0.3573527309689818,9.68524951300482e-06,0.3573527309689818,-1.9633565837880013e-05,0.3573527309689818,-4.648885400806206e-05,0.3573527309689818,-9.448442693306598e-05
0.3581468481489128,-0.0003257308625358,0.3581468481489128,1.5938894604193674e-05,0.3581468481489128,-5.119310117161287e-05,0.3581468481489128,-0.0002203619243543
0.3589409653288439,-0.0006433521328038,0.3589409653288439,7.435464937753742e-05,0.3589409653288439,-3.910942771333595e-05,0.3589409653288439,-0.0002687248891204
0.3597350825087749,-0.0008345253660517,0.3597350825087749,9.751973719682736e-05,0.3597350825087749,-2.030843951135547e-05,0.3597350825087749,-0.0001612860462818
0.360529199688706,-0.0006358090694306,0.360529199688706,9.111983926569216e-05,0.360529199688706,-7.213303948486557e-06,0.360529199688706,1.890692911253319e-06
0.3613233168686371,4.792022870856653e-05,0.3613233168686371,2.593893559534545e-06,0.3613233168686371,9.55298696590375e-06,0.3613233168686371,0.0001782722695125
0.3621174340485681,0.0007881963852913,0.3621174340485681,-0.0002074802098056,0.3621174340485681,2.0302142983624964e-05,0.3621174340485681,0.0003240131521889
0.3629115512284993,0.0009957319322454,0.3629115512284993,-0.0004525504918196,0.3629115512284993,2.651668986079573e-05,0.3629115512284993,0.0003229426641139
0.3637056684084303,0.0007794144255221,0.3637056684084303,-0.0004607426352225,0.3637056684084303,4.313036033970784e-05,0.3637056684084303,0.000200295241338
0.3644997855883614,0.0003286027455747,0.3644997855883614,-0.0002734765838641,0.3644997855883614,5.5491830310826375e-06,0.3644997855883614,7.942533466657582e-05
0.3652939027682925,-4.3233204339198825e-06,0.3652939027682925,-0.0001227164578599,0.3652939027682925,-5.387232370925274e-05,0.3652939027682925,-8.294209507466875e-07
0.3660880199482235,-0.0001378024481513,0.3660880199482235,-2.047595959024862e-05,0.3660880199482235,-6.529304998907313e-05,0.3660880199482235,-3.810182530208552e-05
0.3668821371281546,-7.600520406278823e-05,0.3668821371281546,4.48157e-05,0.3668821371281546,-5.13581604772286e-05,0.3668821371281546,-3.911066829691362e-05
0.3676762543080857,0.0001005834502986,0.3676762543080857,4.482063971864278e-05,0.3676762543080857,-2.969705814935897e-05,0.3676762543080857,-4.935301551881773e-05
0.3684703714880167,0.0002300185572902,0.3684703714880167,6.024569168836789e-05,0.3684703714880167,8.53005476920909e-06,0.3684703714880167,-6.59515629136787e-05
0.3692644886679478,0.0003136561690996,0.3692644886679478,0.0001609021438403,0.3692644886679478,3.271503445341567e-05,0.3692644886679478,-5.65712532312653e-05
0.3700586058478789,0.000338539668102,0.3700586058478789,0.0002428373382942,0.3700586058478789,4.682290092065348e-05,0.3700586058478789,-3.576223199791216e-05
0.3708527230278099,0.0001949231197572,0.3708527230278099,0.000345230283843,0.3708527230278099,4.86756559175672e-05,0.3708527230278099,-6.209500748835898e-05
0.371646840207741,2.840000938258172e-05,0.371646840207741,0.000440249880675,0.371646840207741,3.70970307934844e-05,0.371646840207741,-7.972485313509985e-05
0.3724409573876721,-8.643623844521702e-05,0.3724409573876721,0.0003707827293837,0.3724409573876721,1.59468350228258e-05,0.3724409573876721,-5.186689534923615e-05
0.3732350745676032,-0.0002042781073173,0.3732350745676032,0.000166999533122,0.3732350745676032,-5.875066794764072e-06,0.3732350745676032,-1.9636792132768948e-05
0.3740291917475342,-0.0002586540567171,0.3740291917475342,5.554526661249208e-05,0.3740291917475342,-9.564576128218654e-06,0.3740291917475342,-2.5151490325478777e-06
0.3748233089274653,-0.0002506060037376,0.3748233089274653,2.3961424937753804e-06,0.3748233089274653,2.171826512965028e-06,0.3748233089274653,8.215271958436343e-06
0.3756174261073964,-0.0002690486551899,0.3756174261073964,-1.2577902586512215e-05,0.3756174261073964,1.5264837089195864e-05,0.3756174261073964,1.6832214481742026e-06
0.3764115432873274,-0.000275437330768,0.3764115432873274,1.8380368945880975e-06,0.3764115432873274,1.5945313807445385e-05,0.3764115432873274,-1.560005557623099e-05
0.3772056604672585,-0.0002586631776537,0.3772056604672585,-3.1373588314024104e-05,0.3772056604672585,8.457058686909696e-07,0.3772056604672585,-3.238772238902716e-05
0.3779997776471896,-0.0002506012562929,0.3779997776471896,-1.997729630764724e-05,0.3779997776471896,-2.265301935207943e-05,0.3779997776471896,-4.363765068328675e-05
0.3787938948271206,-0.0002422071117329,0.3787938948271206,-7.554865264122998e-06,0.3787938948271206,-4.078499879984599e-05,0.3787938948271206,-5.11929995065588e-05
0.3795880120070517,-0.0002213927030296,0.3795880120070517,-3.17235e-05,0.3795880120070517,-4.8508486301062445e-05,0.3795880120070517,-5.069040608338181e-05
0.3803821291869828,-0.0002017542079568,0.3803821291869828,-3.1722626084228975e-05,0.3803821291869828,-5.421595543682828e-05,0.3803821291869828,-4.447868914261386e-05
0.3811762463669139,-0.000196885647616,0.3811762463669139,-2.635989429885697e-05,0.3811762463669139,-5.8242763712758645e-05,0.3811762463669139,-3.6422727808968845e-05
0.3819703635468449,-0.0001925264936875,0.3819703635468449,-5.08386812314238e-05,0.3819703635468449,-5.522481876216026e-05,0.3819703635468449,-3.4578378172459764e-05
0.382764480726776,-0.0001915166585744,0.382764480726776,-6.192915496133183e-05,0.382764480726776,-6.126104816072646e-05,0.382764480726776,-3.97768969945924e-05
0.3835585979067071,-0.0002700292196039,0.3835585979067071,-7.032454996504887e-05,0.3835585979067071,-7.166632994450664e-05,0.3835585979067071,-4.4477620002709615e-05
0.3843527150866381,-0.0003633605119149,0.3843527150866381,-6.781200343371678e-05,0.3843527150866381,-6.798022506243236e-05,0.3843527150866381,-6.729930874084689e-05
0.3851468322665692,-0.0004206179088279,0.3851468322665692,-4.817684863502085e-05,0.3851468322665692,-5.656761115750456e-05,0.3851468322665692,-9.885653382138426e-05
0.3859409494465003,-0.000389579977062,0.3859409494465003,-3.3738619067717446e-05,0.3859409494465003,-4.800544502912239e-05,0.3859409494465003,-0.0001045696366514
0.3867350666264313,-0.0002123055631961,0.3867350666264313,-2.2661149316266544e-05,0.3867350666264313,-3.272817744365547e-05,0.3867350666264313,-8.341515628458753e-05
0.3875291838063624,6.703701857126952e-05,0.3875291838063624,-4.11317152007286e-05,0.3875291838063624,-3.852690940710915e-06,0.3875291838063624,-1.2568132160527707e-05
0.3883233009862935,0.0003483753547429,0.3883233009862935,-7.835283648020445e-05,0.3883233009862935,3.0015188138119192e-05,0.3883233009862935,7.629318071795065e-05
0.3891174181662246,0.0004388598270334,0.3891174181662246,-0.0001364184430362,0.3891174181662246,5.268809524080444e-05,0.3891174181662246,0.0001246765765821
0.3899115353461556,0.000415440751764,0.3899115353461556,-0.0002210074938833,0.3899115353461556,6.89764720798036e-05,0.3899115353461556,0.0001481972482359
0.3907056525260867,0.0004362308917197,0.3907056525260867,-0.000253102969756,0.3907056525260867,7.234153089429874e-05,0.3907056525260867,9.653592418403678e-05
0.3914997697060178,0.0003499910231524,0.3914997697060178,-0.0001985818221247,0.3914997697060178,4.415257880086518e-05,0.3914997697060178,2.5365841794906607e-05
0.3922938868859488,0.0001734131554822,0.3922938868859488,-0.0001003879885326,0.3922938868859488,7.894074994142877e-06,0.3922938868859488,-3.188324601549287e-05
0.3930880040658799,2.9708229043632416e-05,0.3930880040658799,-3.524477598661643e-06,0.3930880040658799,-2.4506150415027417e-05,0.3930880040658799,-9.684909970623277e-05
0.393882121245811,-0.000179445173849,0.393882121245811,6.530006403015066e-05,0.393882121245811,-5.388431611083216e-05,0.393882121245811,-0.0001163170779912
0.394676238425742,-0.000272257594646,0.394676238425742,0.0001089423059131,0.394676238425742,-8.476757475549333e-05,0.394676238425742,-9.71815789920414e-05
0.3954703556056732,-0.0002942221766203,0.3954703556056732,0.0001366065515712,0.3954703556056732,-9.70069682217776e-05,0.3954703556056732,-8.678653516226631e-05
0.3962644727856042,-0.0002268088039276,0.3962644727856042,0.0001243841359672,0.3962644727856042,-9.148147795120844e-05,0.3962644727856042,-3.645673548545992e-05
0.3970585899655353,-0.0001291264476659,0.3970585899655353,3.311345380851737e-05,0.3970585899655353,-6.899761512994141e-05,0.3970585899655353,7.799078418477807e-05
0.3978527071454664,-3.9813235328183975e-05,0.3978527071454664,-0.0001172715297736,0.3978527071454664,-2.972378659906897e-05,0.3978527071454664,0.0001226815322436
0.3986468243253974,0.0001270250856993,0.3986468243253974,-0.000227075712433,0.3986468243253974,5.027792625419957e-06,0.3986468243253974,5.137768330102475e-05
0.3994409415053285,0.0002948986344179,0.3994409415053285,-0.0002452266644944,0.3994409415053285,2.2658301615730732e-05,0.3994409415053285,-1.7283442465244304e-05
0.4002350586852595,0.0003709414793726,0.4002350586852595,-0.0002566386180732,0.4002350586852595,2.5010219544845343e-05,0.4002350586852595,-1.963542258044482e-05
0.4010291758651906,0.0002962399646305,0.4010291758651906,-0.0002243954348298,0.4010291758651906,3.474583966191564e-05,0.4010291758651906,2.0641489884316805e-05
0.4018232930451217,0.0002328634203347,0.4018232930451217,-0.0001405646295361,0.4018232930451217,3.9440420696179805e-05,0.4018232930451217,2.533860136307842e-06
0.4026174102250527,0.0003066061420164,0.4026174102250527,-6.065294621548173e-05,0.4026174102250527,1.5963154738673876e-05,0.4026174102250527,-4.511599185827811e-05
0.4034115274049838,0.0003865094452753,0.4034115274049838,-1.0939771948644762e-05,0.4034115274049838,-1.582580894843552e-07,0.4034115274049838,-7.06493144031413e-05
0.4042056445849149,0.0003415931360103,0.4042056445849149,7.834562887360867e-05,0.4042056445849149,-1.4931988227048577e-05,0.4042056445849149,-0.0001089168695748
0.404999761764846,0.0002627076701927,0.404999761764846,0.0001488608479587,0.404999761764846,-3.574565508849904e-05,0.404999761764846,-9.114743835772962e-05
0.4057938789447771,0.000242209122127,0.4057938789447771,0.0002425277203624,0.4057938789447771,-4.5149966928756096e-05,0.4057938789447771,-5.254268586044922e-05
0.4065879961247081,0.0001613033948649,0.4065879961247081,0.0003043106985227,0.4065879961247081,-4.615849508462666e-05,0.4065879961247081,-2.1988449098682044e-05
0.4073821133046392,-1.83269295033165e-05,0.4073821133046392,0.0002025755088541,0.4073821133046392,-4.34704610485257e-05,0.4073821133046392,5.3554822210463446e-05
0.4081762304845703,-0.0002378838499096,0.4081762304845703,7.300155310895993e-05,0.4081762304845703,-2.5674573888548887e-05,0.4081762304845703,0.0001300847519726
0.4089703476645013,-0.0003820745531049,0.4089703476645013,2.873856027809043e-05,0.4089703476645013,-3.8784346565333296e-06,0.4089703476645013,0.0001361210414296
0.4097644648444324,-0.0004177530164033,0.4097644648444324,6.023663147538544e-05,0.4097644648444324,1.1906665751172707e-05,0.4097644648444324,0.000123377598211
0.4105585820243635,-0.0002399506602333,0.4105585820243635,9.917840076919324e-05,0.4105585820243635,3.741696945313432e-05,0.4105585820243635,0.0001082709520654
0.4113526992042945,6.987571765816792e-05,0.4113526992042945,0.0001059104564578,0.4113526992042945,6.293383472177225e-05,0.4113526992042945,5.9437104012286536e-05
0.4121468163842256,0.0002673383525403,0.4121468163842256,6.463154871402925e-05,0.4121468163842256,4.532337566893013e-05,0.4121468163842256,1.4613263815439692e-05
0.4129409335641567,0.0003016221349751,0.4129409335641567,-1.62427881292534e-07,0.4129409335641567,1.0108077057609566e-06,0.4129409335641567,-4.1789781097194834e-05
0.4137350507440878,1.793866021846145e-05,0.4137350507440878,-1.93009621996923e-05,0.4137350507440878,-2.5010679991768828e-05,0.4137350507440878,-0.0001242107461882
0.4145291679240188,-0.0003144120649473,0.4145291679240188,7.894440823638385e-06,0.4145291679240188,-4.3474808150916505e-05,0.4145291679240188,-0.0001671711218744
0.4153232851039499,-0.0004565900057305,0.4153232851039499,3.404985385097381e-05,0.4153232851039499,-5.202560223313462e-05,0.4153232851039499,-0.0001346442819623
0.416117402283881,-0.0004674519135181,0.416117402283881,5.319379549320703e-05,0.416117402283881,-5.454910469789323e-05,0.416117402283881,-7.272532509428277e-05
0.416911519463812,-0.0004017028209566,0.416911519463812,4.482077921908991e-05,0.416911519463812,-4.582808238785351e-05,0.416911519463812,-1.027658920846615e-05
0.4177056366437431,-0.0002020144065223,0.4177056366437431,-1.8937811280695216e-05,0.4177056366437431,-2.2334653743508373e-05,0.4177056366437431,6.156782426723083e-05
0.4184997538236742,4.943754256160344e-05,0.4184997538236742,-0.0001412910621818,0.4184997538236742,1.3584663249661566e-05,0.4184997538236742,9.046174897918773e-05
0.4192938710036052,0.0001481949655369,0.4192938710036052,-0.0002579650477652,0.4192938710036052,2.114777287711752e-05,0.4192938710036052,2.401319870411084e-05
0.4200879881835363,0.000102220684447,0.4200879881835363,-0.0002855115903229,0.4200879881835363,1.1581742383922882e-05,0.4200879881835363,-5.589261096908466e-05
0.4208821053634674,-2.0489115457334804e-05,0.4208821053634674,-0.0001706882548869,0.4208821053634674,-2.7030315246630897e-05,0.4208821053634674,-9.651735379969536e-05
0.4216762225433985,-0.0001072555299995,0.4216762225433985,-5.957804253906397e-05,0.4216762225433985,-7.68847261262647e-05,0.4216762225433985,-0.000127083801415
0.4224703397233295,-0.0001055783944711,0.4224703397233295,-2.9398692922033505e-05,0.4224703397233295,-0.0001115911430026,0.4224703397233295,-0.0002048793161413
0.4232644569032606,-8.477813617978077e-05,0.4232644569032606,1.5243760794824698e-05,0.4232644569032606,-0.0001273872078333,0.4232644569032606,-0.0002878042846947
0.4240585740831917,-0.0001196582719444,0.4240585740831917,6.727958839487308e-05,0.4240585740831917,-0.0001284044598259,0.4240585740831917,-0.0002788028615667
0.4248526912631227,-0.0001669915951604,0.4248526912631227,0.0001126093780844,0.4248526912631227,-0.0001223643497442,0.4248526912631227,-0.0001707450313762
0.4256468084430538,-0.0001284143136724,0.4256468084430538,0.0001616271755805,0.4256468084430538,-0.0001082664014626,0.4256468084430538,-5.927768846734564e-05
0.4264409256229849,-2.099126279797853e-05,0.4264409256229849,0.0001569394402669,0.4264409256229849,-7.46960446395903e-05,0.4264409256229849,5.420467119668351e-05
0.4272350428029159,9.114737521141908e-05,0.4272350428029159,6.327567111844297e-05,0.4272350428029159,-2.09773091825918e-05,0.4272350428029159,0.0001683568998631
0.428029159982847,0.000189003674662,0.428029159982847,-2.2014282025016195e-06,0.428029159982847,5.12081865544236e-05,0.428029159982847,0.0002407033296292
0.4288232771627781,0.0002171713606455,0.4288232771627781,-9.84398998935285e-05,0.4288232771627781,0.0001216269020683,0.4288232771627781,0.0002770858831444
0.4296173943427092,0.0002197130792883,0.4296173943427092,-0.0001706479450657,0.4296173943427092,0.0001686521510381,0.4296173943427092,0.0002898662690553
0.4304115115226402,0.000179455783151,0.4304115115226402,-0.0002206912277719,0.4304115115226402,0.0001767400432467,0.4304115115226402,0.0002615264516842
0.4312056287025713,4.286549187014624e-05,0.4312056287025713,-0.0002150176687587,0.4312056287025713,0.0001556058898857,0.4312056287025713,0.000178127010079
0.4319997458825024,-0.000115597288645,0.4319997458825024,-0.0001552801241019,0.4319997458825024,0.0001540864832713,0.4319997458825024,6.432272191842144e-05
0.4327938630624334,-0.0002314440257415,0.4327938630624334,-9.551650563841624e-05,0.4327938630624334,0.0001171653686316,0.4327938630624334,-2.969308900663514e-05
0.4335879802423645,-0.0002009167601464,0.4335879802423645,-5.925170216747492e-05,0.4335879802423645,6.361623237381173e-05,0.4335879802423645,-6.562820618348534e-05
0.4343820974222956,-3.708160171959168e-05,0.4343820974222956,-4.6824689524345374e-05,0.4343820974222956,3.6084757919246985e-05,0.4343820974222956,-8.577301826113432e-05
0.4351762146022266,6.964290106865728e-05,0.4351762146022266,-4.339748944820377e-06,0.4351762146022266,1.291542876311808e-05,0.4351762146022266,-0.0001022218123765
0.4359703317821577,1.599084605820915e-05,0.4359703317821577,8.569523915891015e-05,0.4359703317821577,-2.0281865804513083e-05,0.4359703317821577,-0.0001089283567112
0.4367644489620888,-0.0001028095263501,0.4367644489620888,0.0001451487630709,0.4367644489620888,-7.431969097430576e-05,0.4367644489620888,-9.28317827383856e-05
0.4375585661420199,-6.615268609450077e-05,0.4375585661420199,0.0001495516154203,0.4375585661420199,-0.0001169677040121,0.4375585661420199,-7.10121231167115e-05
0.438352683321951,0.0002440972189262,0.438352683321951,6.264247752265048e-05,0.438352683321951,-0.0001305815773869,0.438352683321951,-7.167133221959434e-05
0.439146800501882,0.0005306670103252,0.439146800501882,-5.521907626787655e-06,0.439146800501882,-0.0001176652474977,0.439146800501882,-7.888728655205737e-05
0.4399409176818131,0.0005609488676582,0.4399409176818131,-5.269981008508828e-05,0.4399409176818131,-8.174632395451354e-05,0.4399409176818131,-6.932269190304996e-05
0.4407350348617442,0.0004335428547654,0.4407350348617442,-7.50274945490192e-05,0.4407350348617442,-4.112183241556471e-05,0.4407350348617442,-6.193601677547123e-05
0.4415291520416752,0.0001568926465476,0.4415291520416752,-4.984792572993046e-05,0.4415291520416752,-1.2250977652559313e-05,0.4415291520416752,-5.3212758305047686e-05
0.4423232692216063,-8.52125051551886e-05,0.4423232692216063,-3.274633756549304e-05,0.4423232692216063,-1.6882102810463256e-06,0.4423232692216063,-7.702089080414821e-05
0.4431173864015373,-0.0002511418439332,0.4431173864015373,-2.4344585673926697e-05,0.4431173864015373,-1.510769713478534e-06,0.4431173864015373,-9.750457503289826e-05
0.4439115035814684,-0.0003230650847515,0.4439115035814684,-9.576644816422037e-06,0.4439115035814684,-1.9627066302268706e-05,0.4439115035814684,-8.644932610137531e-05
0.4447056207613995,-0.0003563281264286,0.4447056207613995,7.88057232951371e-06,0.4447056207613995,-4.178391757134028e-05,0.4447056207613995,-8.879117761613698e-05
0.4454997379413306,-0.0003143958495036,0.4454997379413306,6.546563186096632e-06,0.4454997379413306,-5.958062777349305e-05,0.4454997379413306,-8.896004461782779e-05
0.4462938551212617,-0.0001935520514928,0.4462938551212617,6.02480993766746e-05,0.4462938551212617,-7.603269856505958e-05,0.4462938551212617,-6.865400586675054e-05
0.4470879723011927,-7.16758510482785e-05,0.4470879723011927,0.000105911407315,0.4470879723011927,-7.939258289055928e-05,0.4470879723011927,-3.7767177399877583e-05
0.4478820894811238,4.650021530656352e-05,0.4478820894811238,0.0001686937883242,0.4478820894811238,-6.864893804996335e-05,0.4478820894811238,1.393753421705795e-05
0.4486762066610549,9.98672457315746e-05,0.4486762066610549,0.0002200303653801,0.4486762066610549,-5.656275656446358e-05,0.4486762066610549,6.747954510085887e-05
0.4494703238409859,8.813089303486762e-05,0.4494703238409859,0.0001445822410599,0.4494703238409859,-4.717359449593526e-05,0.4494703238409859,8.340753795120699e-05
0.450264441020917,8.610811800462094e-05,0.450264441020917,-2.153561525237657e-05,0.450264441020917,-3.374715329373916e-05,0.450264441020917,6.966708969824304e-05
0.4510585582008481,0.0001173096283349,0.4510585582008481,-0.0001226417761057,0.4510585582008481,-2.3336790517926704e-05,0.4510585582008481,6.663788106246554e-05
0.4518526753807791,8.981055443391114e-05,0.4518526753807791,-0.0001579315891961,0.4518526753807791,-1.963990968379706e-05,0.4518526753807791,5.287812715562952e-05
0.4526467925607102,1.797866865757649e-05,0.4526467925607102,-0.0001821096853808,0.4526467925607102,-2.299442298116885e-05,0.4526467925607102,-1.5399175525522077e-07
0.4534409097406413,-7.669633856082408e-05,0.4534409097406413,-0.0001505645870706,0.4534409097406413,-4.112103929017405e-05,0.4534409097406413,-1.963618665057192e-05
0.4542350269205724,-0.0001361270129797,0.4542350269205724,-9.41618406851785e-05,0.4542350269205724,-5.320862113065177e-05,0.4542350269205724,-1.242231947983347e-05
0.4550291441005034,-0.0001660124923261,0.4550291441005034,-4.816527652571623e-05,0.4550291441005034,-6.562830896980256e-05,0.4550291441005034,-5.723879052703631e-05
0.4558232612804345,-0.0002183233383585,0.4558232612804345,-7.255575839968967e-06,0.4558232612804345,-6.126905515227156e-05,0.4558232612804345,-6.931047044047642e-05
0.4566173784603656,-0.0002520835900451,0.4566173784603656,3.8737198670912063e-05,0.4566173784603656,-3.5100997109014665e-05,0.4566173784603656,-4.114517373745006e-05
0.4574114956402966,-0.0001892059828931,0.4574114956402966,5.756035855352776e-05,0.4574114956402966,-4.215848112411734e-06,0.4574114956402966,-1.0325822340793289e-06
0.4582056128202277,2.658274269197759e-05,0.4582056128202277,5.313765471092269e-07,0.4582056128202277,4.143653714846386e-05,0.4582056128202277,5.016193616969388e-05
0.4589997300001588,0.0002379381399163,0.4589997300001588,-7.735201619572685e-05,0.4589997300001588,7.099015444167628e-05,0.4589997300001588,6.226799042559074e-05
0.4597938471800898,0.0002750978603846,0.4597938471800898,-0.000122521309763,0.4597938471800898,7.20071061650737e-05,0.4597938471800898,1.7632793309905333e-05
0.4605879643600209,0.0001205229389782,0.4605879643600209,-0.0001022209116473,0.4605879643600209,6.730771095815325e-05,0.4605879643600209,-4.514858221527624e-05
0.461382081539952,-8.905628427065625e-06,0.461382081539952,-6.126186280682865e-05,0.461382081539952,4.111934226417394e-05,0.461382081539952,-9.19823480405806e-05
0.4621761987198831,-0.0001025577622329,0.4621761987198831,-3.071178484944691e-05,0.4621761987198831,4.525217059876389e-06,0.4621761987198831,-0.0001012045249094
0.4629703158998141,-0.0001095999334511,0.4629703158998141,-1.2268887818078147e-05,0.4629703158998141,-2.230079046755324e-05,0.4629703158998141,-6.73366757972989e-05
0.4637644330797452,7.221308743900521e-05,0.4637644330797452,1.726740721069845e-05,0.4637644330797452,-4.178059788726454e-05,0.4637644330797452,-1.6988753525631493e-05
0.4645585502596763,0.0002887463545675,0.4645585502596763,8.841628870991001e-05,0.4645585502596763,-5.404055961185598e-05,0.4645585502596763,-1.0913622671133523e-05
0.4653526674396073,0.0003351755967345,0.4653526674396073,0.0002119422573724,0.4653526674396073,-4.666519331426199e-05,0.4653526674396073,-8.573964516745154e-05
0.4661467846195384,0.0001489325392694,0.4661467846195384,0.0002918683274088,0.4661467846195384,-4.380947401336134e-05,0.4661467846195384,-0.0002384725669296
0.4669409017994695,-0.000188453273803,0.4669409017994695,0.0003224342218768,0.4669409017994695,-6.260547496021077e-05,0.4669409017994695,-0.0003536437591915
0.4677350189794005,-0.0004751824283552,0.4677350189794005,0.0003029662747629,0.4677350189794005,-8.07351509391835e-05,0.4677350189794005,-0.0002411916015332
0.4685291361593316,-0.0005349084598483,0.4685291361593316,0.0002307629875888,0.4685291361593316,-6.612521189190029e-05,0.4685291361593316,6.837597589968869e-05
0.4693232533392627,-0.0003742870227,0.4693232533392627,5.572267989891025e-05,0.4693232533392627,-2.3035814375123115e-05,0.4693232533392627,0.0004263364312614
0.4701173705191938,-4.608308571514222e-05,0.4701173705191938,-0.000236938925252,0.4701173705191938,6.119819868819288e-05,0.4701173705191938,0.0005455836531947
0.4709114876991248,0.0002453749934504,0.4709114876991248,-0.0004850919343659,0.4709114876991248,0.0001186319620661,0.4709114876991248,0.0004299367262445
0.4717056048790559,0.0002636819789011,0.4717056048790559,-0.0004964924036144,0.4717056048790559,0.0001190048327951,0.4717056048790559,0.0002094177550437
0.472499722058987,6.469168443263665e-05,0.472499722058987,-0.0003428018204417,0.472499722058987,0.0001065883479915,0.472499722058987,-1.0161947279610696e-05
0.473293839238918,-0.0002179787702696,0.473293839238918,-0.0001834912512241,0.473293839238918,6.563739213354534e-05,0.473293839238918,-6.0247772639000015e-05
0.4740879564188491,-0.0003014524211798,0.4740879564188491,-7.268478052010835e-05,0.4740879564188491,2.6690137402964173e-05,0.4740879564188491,-6.884749711580005e-06
0.4748820735987802,-0.0001643023425207,0.4748820735987802,-3.8275403310164144e-05,0.4748820735987802,1.7288375530929433e-05,0.4748820735987802,1.5942961689716963e-05
0.4756761907787112,6.937688263424782e-05,0.4756761907787112,-0.0001009048733696,0.4756761907787112,1.5941591504861166e-05,0.4756761907787112,-1.3598055628297624e-05
0.4764703079586423,0.000299074827429,0.4764703079586423,-0.0002169278905814,0.4764703079586423,-1.1600366151588376e-06,0.4764703079586423,-2.298711780787316e-05
0.4772644251385734,0.0003435549178091,0.4772644251385734,-0.0002284347361859,0.4772644251385734,-1.4928635016092629e-05,0.4772644251385734,-4.916084224304272e-05
0.4780585423185045,0.0001771769782305,0.4780585423185045,-9.625384109078044e-05,0.4780585423185045,-2.7687746833755918e-05,0.4780585423185045,-8.876946636241572e-05
0.4788526594984356,9.252117846900652e-05,0.4788526594984356,-7.218549326794595e-05,0.4788526594984356,-4.984169850540208e-05,0.4788526594984356,-0.0001052339460855
0.4796467766783666,9.684777254667492e-05,0.4796467766783666,-7.334976954586017e-05,0.4796467766783666,-7.435030740560839e-05,0.4796467766783666,-0.0001085970558051
0.4804408938582977,7.368889645022555e-05,0.4804408938582977,-3.944913247794444e-05,0.4804408938582977,-8.576947420634522e-05,0.4804408938582977,-0.0001223601600322
0.4812350110382288,-1.9304100065860475e-05,0.4812350110382288,-2.18216133932855e-06,0.4812350110382288,-9.483483733534912e-05,0.4812350110382288,-0.0001653309486736
0.4820291282181598,-0.0001200158441255,0.4820291282181598,-1.090521895834618e-05,0.4820291282181598,-9.75195337290814e-05,0.4820291282181598,-0.0001616361304937
0.4828232453980909,-0.0001438243761804,0.4828232453980909,1.9944785092150583e-05,0.4828232453980909,-9.215429826135096e-05,0.4828232453980909,-0.0001438638878958
0.483617362578022,-3.26521387844858e-05,0.483617362578022,9.544556294636924e-05,0.483617362578022,-9.047204749721667e-05,0.483617362578022,-0.0001770543197959
0.484411479757953,0.0001071643883895,0.484411479757953,0.0002243295374587,0.484411479757953,-9.349002039383322e-05,0.484411479757953,-0.0001985519226695
0.4852055969378841,0.000124032479348,0.4852055969378841,0.0003405070371903,0.4852055969378841,-9.818941421746558e-05,0.4852055969378841,-0.0001656837006807
0.4859997141178152,1.8669253092363453e-05,0.4859997141178152,0.0003603648687877,0.4859997141178152,-0.000110608527708,0.4859997141178152,-0.0001346261803697
0.4867938312977463,-0.0001646210558496,0.4867938312977463,0.000344094459246,0.4867938312977463,-0.0001096062139586,0.4867938312977463,-1.764905719348208e-05
0.4875879484776773,-0.000135791873362,0.4875879484776773,0.0003479507495262,0.4875879484776773,-7.133838333053076e-05,0.4875879484776773,0.0001300734153425
0.4883820656576084,9.955233842002488e-05,0.4883820656576084,0.0002744208418514,0.4883820656576084,-1.3253909595602848e-05,0.4883820656576084,0.0002801413602867
0.4891761828375395,0.0003140793527869,0.4891761828375395,0.0001152809635231,0.4891761828375395,6.162015582307243e-05,0.4891761828375395,0.0002965517832744
0.4899703000174705,0.0004589403108598,0.4899703000174705,-1.9519578714036623e-05,0.4899703000174705,0.0001461225145508,0.4899703000174705,0.0001305653104363
0.4907644171974016,0.0004812077373118,0.4907644171974016,-8.572245812201616e-05,0.4907644171974016,0.0001753805632872,0.4907644171974016,4.823306946769402e-05
0.4915585343773327,0.000297704683745,0.4915585343773327,-0.0001407937142872,0.4915585343773327,0.0001462141265869,0.4915585343773327,6.293483801096432e-05
0.4923526515572637,7.915290513296411e-05,0.4923526515572637,-0.0001468653484999,0.4923526515572637,0.0001183462275314,0.4923526515572637,5.421913032479884e-05
0.4931467687371948,-6.592246054766435e-05,0.4931467687371948,-9.28363420067215e-05,0.4931467687371948,7.973964438205515e-05,0.4931467687371948,3.9448902158081264e-05
0.4939408859171259,-0.0001579327840162,0.4939408859171259,-8.409375406389593e-05,0.4939408859171259,4.582767159734989e-05,0.4939408859171259,2.4004618753851767e-05
0.494735003097057,-0.0002271005578135,0.494735003097057,-9.550610965018803e-05,0.494735003097057,2.1652480842838245e-05,0.494735003097057,-2.769532914828297e-05
0.495529120276988,-0.0003701376096224,0.495529120276988,-7.233929244293231e-05,0.495529120276988,-8.899209668952457e-06,0.495529120276988,-8.644377127869705e-05
0.4963232374569191,-0.0005656322781994,0.4963232374569191,-4.786050551036378e-05,0.4963232374569191,-3.002471444529388e-05,0.4963232374569191,-9.54975062415394e-05
0.4971173546368502,-0.000636930154654,0.4971173546368502,-3.509086848239363e-05,0.4971173546368502,-3.038042714306122e-05,0.4971173546368502,-7.940579705178143e-05
0.4979114718167812,-0.0006436975337252,0.4979114718167812,-4.648660739949104e-05,0.4979114718167812,-2.3671166274723984e-05,0.4979114718167812,-5.959967544391394e-05
0.4987055889967123,-0.0005037884618466,0.4987055889967123,-8.759601318728004e-05,0.4987055889967123,-3.138380327772731e-05,0.4987055889967123,-3.40866065087896e-05
0.4994997061766434,-0.0002647864497116,0.4994997061766434,-0.0001359401113013,0.4994997061766434,-3.105222422733099e-05,0.4994997061766434,-1.8301438647551136e-05
0.5002938233565745,-0.0001358186785273,0.5002938233565745,-0.0001683457929927,0.5002938233565745,-2.6353345577797752e-05,0.5002938233565745,-3.457327785314299e-05
0.5010879405365055,-0.0001472031451935,0.5010879405365055,-0.0001713737737541,0.5010879405365055,-4.984944014268261e-05,0.5010879405365055,-6.143078873342455e-05
0.5018820577164366,-0.0001381269448328,0.5018820577164366,-0.0001330993636183,0.5018820577164366,-7.603633445919549e-05,0.5018820577164366,-9.551259335289404e-05
0.5026761748963677,4.1504440516129794e-05,0.5026761748963677,-6.931475791217449e-05,0.5026761748963677,-8.476478622959463e-05,0.5026761748963677,-0.0001834671237712
0.5034702920762988,0.0002487352620118,0.5034702920762988,-3.779419931716486e-05,0.5034702920762988,-8.878871283039248e-05,0.5034702920762988,-0.0002203531176119
0.5042644092562298,0.0003881313482766,0.5042644092562298,-3.4747047876766595e-05,0.5042644092562298,-8.87923e-05,0.5042644092562298,-0.000139207442611
0.5050585264361609,0.0004445993626531,0.5050585264361609,-5.319718791109871e-05,0.5050585264361609,-7.2017311044131e-05,0.5050585264361609,-8.97369533863545e-06
0.505852643616092,0.0005005009126375,0.505852643616092,-0.0001142775769315,0.505852643616092,-4.4492355524876696e-05,0.505852643616092,0.0001018342768099
0.506646760796023,0.0005636189865977,0.506646760796023,-0.000218340648312,0.506646760796023,-2.0484831069945303e-05,0.506646760796023,0.0001461836500682
0.507440877975954,0.0005262127524963,0.507440877975954,-0.0002480764342413,0.507440877975954,-1.6953341700701847e-05,0.507440877975954,9.24931546193451e-05
0.5082349951558852,0.0003704439503006,0.5082349951558852,-9.01359636127864e-05,0.5082349951558852,-2.702363855844396e-05,0.5082349951558852,1.9303146477300207e-05
0.5090291123358163,0.0002851632399229,0.5090291123358163,0.0001435344329686,0.5090291123358163,-5.388163970755788e-05,0.5090291123358163,-3.172409293528607e-05
0.5098232295157473,0.0001949605182886,0.5098232295157473,0.0003091852789232,0.5098232295157473,-6.830061013812806e-05,0.5098232295157473,-3.591563319997319e-05
0.5106173466956784,6.087174721393216e-05,0.5106173466956784,0.0002711084877872,0.5106173466956784,-6.0264529064141256e-05,0.5106173466956784,-1.931637249107393e-05
0.5114114638756094,-7.996901185722768e-05,0.5114114638756094,0.0001524871283141,0.5114114638756094,-5.120012012325377e-05,0.5114114638756094,1.2231692971749568e-05
0.5122055810555405,-0.0001889405223502,0.5122055810555405,0.0001230484988344,0.5122055810555405,-3.6431093580515045e-05,0.5122055810555405,2.7351429291455892e-05
0.5129996982354716,-0.0002787638709639,0.5129996982354716,0.0001674970947254,0.5129996982354716,7.536506456149937e-06,0.5129996982354716,-1.894939336996616e-05
0.5137938154154027,-0.0003284694499791,0.5137938154154027,0.000234805352852,0.5137938154154027,5.10160936492373e-05,0.5137938154154027,-1.762451216649524e-05
0.5145879325953338,-0.0004083702174266,0.5145879325953338,0.0002146807099052,0.5145879325953338,8.4928821676432e-05,0.5145879325953338,2.534155221905818e-05
0.5153820497752648,-0.0004459699703787,0.5153820497752648,0.0001653271909384,0.5153820497752648,0.0001072557895521,0.5153820497752648,2.8532926870320543e-05
0.5161761669551959,-0.0003657191138055,0.5161761669551959,0.0001045515998153,0.5161761669551959,0.0001038956864958,0.5161761669551959,5.030580320714796e-06
0.5169702841351269,-0.0002473487061876,0.5169702841351269,1.70316956927732e-05,0.5169702841351269,8.813510753151373e-05,0.5169702841351269,-1.8274591319972037e-05
0.5177644013150581,-0.0001412409862686,0.5177644013150581,-7.529469186693333e-05,0.5177644013150581,5.424086520424174e-05,0.5177644013150581,-7.699850394959445e-05
0.5185585184949891,-0.0001136506931844,0.5185585184949891,-6.127355023123383e-05,0.5185585184949891,9.258989375304296e-06,0.5185585184949891,-0.000108914660236
0.5193526356749202,-0.000130075452414,0.5193526356749202,-2.0328592199631048e-05,0.5193526356749202,-3.3046891655078814e-05,0.5193526356749202,-5.256267772593058e-05
0.5201467528548512,-3.3432093501423456e-05,0.5201467528548512,-2.9035183239832293e-05,0.5201467528548512,-4.447644730404943e-05,0.5201467528548512,4.2771924404214783e-05
0.5209408700347823,0.0001809059154475,0.5209408700347823,-8.47547785368747e-05,0.5209408700347823,-4.985032081967594e-05,0.5209408700347823,0.0001211741695521
0.5217349872147133,0.0004130732620588,0.5217349872147133,-0.0001727155837461,0.5217349872147133,-5.018689459443235e-05,0.5217349872147133,0.0001428396513352
0.5225291043946444,0.0005141109575415,0.5225291043946444,-0.0002647052734834,0.5225291043946444,-4.313707958942065e-05,0.5225291043946444,9.24762599446838e-05
0.5233232215745756,0.000430112338806,0.5233232215745756,-0.0003200337647996,0.5233232215745756,-4.146044350575464e-05,0.5233232215745756,2.6752425131836667e-05
0.5241173387545066,0.0002953592476717,0.5241173387545066,-0.0002986218919372,0.5241173387545066,-5.420467634995459e-05,0.5241173387545066,-1.2220569822724231e-05
0.5249114559344377,0.0001818587492986,0.5249114559344377,-0.0002559992137168,0.5249114559344377,-5.555717988509173e-05,0.5249114559344377,-1.02401801723624e-05
0.5257055731143687,0.0001582946339867,0.5257055731143687,-0.0002126882824713,0.5257055731143687,-1.3618360583029992e-05,0.5257055731143687,-1.7620229318461817e-05
0.5264996902942998,0.0001566036549066,0.5264996902942998,-0.0001425313668282,0.5264996902942998,3.405480626830754e-05,0.5264996902942998,-2.869787894238441e-05
0.5272938074742308,7.823670653674776e-05,0.5272938074742308,-2.7722938377563387e-05,0.5272938074742308,4.414195802642094e-05,0.5272938074742308,-1.712340825749213e-05
0.528087924654162,-5.655240991114566e-05,0.528087924654162,0.0001152984294838,0.528087924654162,3.071767423666605e-05,0.528087924654162,-7.889786032014266e-06
0.528882041834093,-0.0001421706353898,0.528882041834093,0.0002025934251763,0.528882041834093,3.1874774035504866e-06,0.528882041834093,-1.997461292602385e-05
0.5296761590140241,-0.000192194654675,0.5296761590140241,0.0001916675157461,0.5296761590140241,-2.8368984399108726e-05,0.5296761590140241,-2.971084435620272e-05
0.5304702761939551,-0.0002304221571605,0.5304702761939551,0.0001093450336495,0.5304702761939551,-4.0776091418235446e-05,0.5304702761939551,-3.742337034106528e-05
0.5312643933738862,-0.0002572924816739,0.5312643933738862,4.654216151082345e-05,0.5312643933738862,-4.246461760461966e-05,0.5312643933738862,-4.514550105765171e-05
0.5320585105538173,-0.0002784489631016,0.5320585105538173,2.8713167539650503e-05,0.5320585105538173,-4.783368908766767e-05,0.5320585105538173,-5.253224741078379e-05
0.5328526277337483,-0.0003138613952373,0.5328526277337483,2.3333518282734518e-05,0.5328526277337483,-4.3810588665165965e-05,0.5328526277337483,-5.404679170953846e-05
0.5336467449136795,-0.00032679784794,0.5336467449136795,5.8803281337972415e-06,0.5336467449136795,-3.810363344096036e-05,0.5336467449136795,-6.596087139206701e-05
0.5344408620936105,-0.0002502762937243,0.5344408620936105,-2.516282350304941e-06,0.5344408620936105,-6.461739382237832e-05,0.5344408620936105,-8.610320162405804e-05
0.5352349792735416,-0.0001139735577722,0.5352349792735416,-1.5106662891892865e-06,0.5352349792735416,-0.0001169896329673,0.5352349792735416,-9.752010205846514e-05
0.5360290964534726,-1.2928900519034003e-05,0.5360290964534726,-6.2109902013857945e-06,0.5360290964534726,-0.0001371313708462,0.5360290964534726,-0.0001158178531199
0.5368232136334037,-4.9982408134617394e-05,0.5368232136334037,-1.0905551257859267e-05,0.5368232136334037,-0.0001237182821769,0.5368232136334037,-0.0001310748918699
0.5376173308133347,-8.74179534955202e-05,0.5376173308133347,-1.527062191747349e-05,0.5376173308133347,-9.955497091860836e-05,0.5376173308133347,-9.084035119389218e-05
0.5384114479932659,-6.937832470920436e-06,0.5384114479932659,-2.7350998165513508e-05,0.5384114479932659,-7.538110373849524e-05,0.5384114479932659,-2.9919559356049552e-05
0.539205565173197,0.0001189360592399,0.539205565173197,-5.9904367281837526e-05,0.539205565173197,-3.644462568077576e-05,0.539205565173197,3.437389419860674e-05
0.539999682353128,0.0001513870400876,0.539999682353128,-8.24050019522465e-05,0.539999682353128,8.206748200309728e-06,0.539999682353128,8.507932080759883e-05
0.5407937995330591,0.00012975246689,0.5407937995330591,-8.207838475661471e-05,0.5407937995330591,6.997750486116305e-05,0.5407937995330591,8.10722170793764e-05
0.5415879167129901,0.0001498868871952,0.5415879167129901,-0.0001126237955794,0.5415879167129901,0.0001367899925729,0.5415879167129901,5.153279876977497e-05
0.5423820338929212,0.0001836302170102,0.5423820338929212,-0.0001096042947421,0.5423820338929212,0.0001592888065456,0.5423820338929212,4.380910122986426e-05
0.5431761510728523,0.0002589801554395,0.5431761510728523,-6.96481182169724e-05,0.5431761510728523,0.0001547538103675,0.5431761510728523,5.320405349677085e-05
0.5439702682527834,0.0002019755274844,0.5439702682527834,-2.085825790468205e-05,0.5439702682527834,0.0001379874495308,0.5439702682527834,3.140788429806925e-05
0.5447643854327144,0.0001096774546701,0.5447643854327144,2.0613410299520217e-05,0.5447643854327144,0.000115329539162,0.5447643854327144,-1.0877460746792144e-05
0.5455585026126455,4.2172469029794064e-05,0.5455585026126455,4.916192518892917e-05,0.5455585026126455,6.968599952231224e-05,0.5455585026126455,-3.607182805997503e-05
0.5463526197925765,1.5287159965419387e-05,0.5463526197925765,5.48839672471728e-05,0.5463526197925765,5.234193873909979e-06,0.5463526197925765,-3.910745324850325e-05
0.5471467369725076,-4.31179500545615e-05,0.5471467369725076,3.6429416349879296e-05,0.5471467369725076,-4.228226428750871e-05,0.5471467369725076,-4.313596551643501e-05
0.5479408541524387,-0.0001545685277598,0.5479408541524387,6.058916022756628e-05,0.5479408541524387,-7.351226528858224e-05,0.5479408541524387,-6.763869858217384e-05
0.5487349713323698,-0.0001908436909652,0.5487349713323698,0.0001294095152891,0.5487349713323698,-8.895954245791981e-05,0.5487349713323698,-0.000105743624322
0.5495290885123009,-0.0001586150472519,0.5495290885123009,0.0001542571113128,0.5495290885123009,-8.77843029862827e-05,0.5495290885123009,-9.902452192167362e-05
0.5503232056922319,-0.0001321234979073,0.5503232056922319,0.0001911431051535,0.5503232056922319,-7.973644978468698e-05,0.5503232056922319,-4.0007131554545325e-05
0.551117322872163,-0.0001371287052697,0.551117322872163,0.0001626703339618,0.551117322872163,-7.083998656075336e-05,0.551117322872163,3.5351928884826486e-05
0.551911440052094,-0.0001518935831353,0.551911440052094,6.636834523547318e-05,0.551911440052094,-5.724618808531418e-05,0.551911440052094,8.338724578938356e-05
0.5527055572320251,-0.0001223784738684,0.5527055572320251,-1.120265690401017e-05,0.5527055572320251,-3.911900877206488e-05,0.5527055572320251,8.107251040360748e-05
0.5534996744119562,-0.0001245431052479,0.5534996744119562,-9.110933772360087e-05,0.5534996744119562,-2.4344156921758932e-05,0.5534996744119562,3.073704851489336e-05
0.5542937915918873,-0.0001636427347192,0.5542937915918873,-0.0001401411354186,0.5542937915918873,-1.42698433970551e-05,0.5542937915918873,-1.1234885788733352e-05
0.5550879087718184,-0.000169359344283,0.5550879087718184,-0.0001425037299921,0.5550879087718184,-1.9469902156677944e-05,0.5550879087718184,-2.299395002972572e-05
0.5558820259517494,-6.025048277102856e-05,0.5558820259517494,-0.0001223614623673,0.5558820259517494,-3.642325611081976e-05,0.5558820259517494,-3.239437333310552e-05
0.5566761431316805,0.000166724768897,0.5566761431316805,-0.000105912123566,0.5566761431316805,-3.50778406853921e-05,0.5566761431316805,-1.6280342319894995e-05
0.5574702603116115,0.0004483986320633,0.5574702603116115,-0.000101049529312,0.5574702603116115,-2.0323543038088816e-05,0.5574702603116115,-1.0412165971542334e-05
0.5582643774915427,0.0005033370994454,0.5582643774915427,-9.584597931203322e-05,0.5582643774915427,-8.234084978568678e-06,0.5582643774915427,-2.466261436975859e-05
0.5590584946714737,0.0003294307776867,0.5590584946714737,-8.846130025537138e-05,0.5590584946714737,-1.627627238562094e-05,0.5590584946714737,-2.165452279413538e-05
0.5598526118514048,0.0001758130788886,0.5598526118514048,-0.0001023811896053,0.5598526118514048,-2.768952038838567e-05,0.5598526118514048,8.210004462100836e-06
0.5606467290313358,8.580170307028927e-05,0.5606467290313358,-0.000100542629985,0.5606467290313358,-3.373563783973535e-05,0.5606467290313358,-4.863162006569476e-06
0.5614408462112669,1.1931604618332973e-05,0.5614408462112669,-5.92587976339237e-05,0.5614408462112669,-3.9275627158951466e-05,0.5614408462112669,-3.876663287826863e-05
0.5622349633911979,5.723451047193319e-05,0.5622349633911979,-2.568244780078797e-05,0.5622349633911979,-3.508069347336949e-05,0.5622349633911979,-3.7094777390269936e-05
0.563029080571129,7.435059970533913e-05,0.563029080571129,3.978761471328752e-05,0.563029080571129,-3.172356804459875e-05,0.563029080571129,-3.9112710477260406e-05
0.5638231977510602,9.29742931485377e-06,0.5638231977510602,0.0001118821671992,0.5638231977510602,-3.239422247806515e-05,0.5638231977510602,-7.666915897347208e-05
0.5646173149309912,-5.785007136703145e-05,0.5646173149309912,0.000128558661868,0.5646173149309912,-2.618985837855403e-05,0.5646173149309912,-0.0001028694074767
0.5654114321109223,-0.0001105753040379,0.5654114321109223,9.45234705234846e-05,0.5654114321109223,-4.547416471043438e-06,0.5654114321109223,-7.739674790678273e-05
0.5662055492908533,-0.000181404792657,0.5662055492908533,8.577595445151519e-05,0.5662055492908533,1.5095252424488232e-05,0.5662055492908533,-2.403269861018089e-05
0.5669996664707844,-0.0002119811675264,0.5669996664707844,0.0001240249242278,0.5669996664707844,2.399866312858716e-05,0.5669996664707844,5.451800270291802e-05
0.5677937836507154,-0.0001797757812196,0.5677937836507154,5.893284551873279e-05,0.5677937836507154,2.7358485283944083e-05,0.5677937836507154,0.0001166380778892
0.5685879008306466,-0.0001086068888963,0.5685879008306466,-4.211757960067419e-05,0.5685879008306466,1.846451109643301e-05,0.5685879008306466,0.0001250469517274
0.5693820180105776,-0.0001039007513812,0.5693820180105776,-7.032823650709674e-05,0.5693820180105776,1.460248880240856e-05,0.5693820180105776,0.0001139682714404
0.5701761351905087,-0.0001811285805171,0.5701761351905087,-4.5482019370632976e-05,0.5701761351905087,-3.528597660847264e-06,0.5701761351905087,3.7754968260469705e-05
0.5709702523704397,-0.0002961457159676,0.5709702523704397,-1.563809685928913e-05,0.5709702523704397,-2.5660064109595977e-05,0.5709702523704397,-2.763353933563507e-05
0.5717643695503708,-0.0003143676060568,0.5717643695503708,-3.5232706852704655e-05,0.5717643695503708,-3.004153482968935e-05,0.5717643695503708,-1.1594394395591446e-05
0.5725584867303019,-0.0001915954249303,0.5725584867303019,-9.81511110941462e-05,0.5725584867303019,-3.23933809414814e-05,0.5725584867303019,1.1231143496177095e-05
0.573352603910233,-0.0001666863925213,0.573352603910233,-0.0001411395646594,0.573352603910233,-4.749376411781362e-05,0.573352603910233,4.2114793255427576e-05
0.5741467210901641,-0.0001636540611922,0.5741467210901641,-0.0001029054428218,0.5741467210901641,-5.471636466041367e-05,0.5741467210901641,3.5754140517136376e-05
0.5749408382700951,1.141366187577868e-06,0.5749408382700951,-4.449189794358409e-05,0.5749408382700951,-4.7167138532104256e-05,0.5749408382700951,-2.868907134072514e-05
0.5757349554500262,0.0001498806559099,0.5757349554500262,1.4431694380720816e-05,0.5757349554500262,-4.2130482527629945e-05,0.5757349554500262,-7.938985584326451e-05
0.5765290726299572,0.00012974016088,0.5765290726299572,8.644761369808742e-05,0.5765290726299572,-3.978072935724552e-05,0.5765290726299572,-8.476396133805448e-05
0.5773231898098883,5.4962990660146384e-05,0.5773231898098883,0.0001434528409869,0.5773231898098883,-4.447521050255623e-05,0.5773231898098883,-8.543461577152079e-05
0.5781173069898193,-8.397119773236329e-05,0.5781173069898193,6.972186007138575e-05,0.5781173069898193,-3.3914729516568845e-05,0.5781173069898193,-8.04041950286711e-05
0.5789114241697505,-0.0002078751643166,0.5789114241697505,-1.0851770199989623e-05,0.5789114241697505,-8.632265406678658e-07,0.5789114241697505,-5.2892463541595205e-05
0.5797055413496816,-6.889857748632061e-05,0.5797055413496816,-4.0099129408725296e-05,0.5797055413496816,3.371772679181898e-05,0.5797055413496816,-8.693027613599632e-07
0.5804996585296126,0.0004212581453902,0.5804996585296126,-0.000115279660948,0.5804996585296126,5.3535382077094296e-05,0.5804996585296126,2.2649494004978183e-05
0.5812937757095437,0.0009235321362863,0.5812937757095437,-0.0002599571288552,0.5812937757095437,7.41835680244132e-05,0.5812937757095437,-1.895524124797355e-05
0.5820878928894747,0.0009696587958184,0.5820878928894747,-0.0003120249806182,0.5820878928894747,7.066497550867854e-05,0.5820878928894747,-5.723143743455858e-05
0.5828820100694058,0.0006007274872829,0.5828820100694058,-0.0001935287355882,0.5828820100694058,4.817224021368594e-05,0.5828820100694058,-6.596475108765005e-05
0.5836761272493369,0.0002448744831283,0.5836761272493369,-9.381861919920308e-05,0.5836761272493369,1.1912678992348597e-05,0.5836761272493369,-6.999288506866708e-05
0.584470244429268,0.0001355580102512,0.584470244429268,-3.7148619238160326e-05,0.584470244429268,-1.6925361757749236e-05,0.584470244429268,-6.865157620173447e-05
0.585264361609199,0.0001644686529067,0.585264361609199,2.361784670174324e-05,0.585264361609199,-3.976194626447125e-05,0.585264361609199,-5.691034673662125e-05
