X [s].2,L DELTOID ANTERIOR: EMG 3 [V],X [s].3,L BICEPS BRACHII: EMG 4 [V],X [s].4,L DELTOID POSTERIOR: EMG 5 [V],X [s].7,L DELTOID MEDIUS: EMG 8 [V]
0.0,6.88182e-06,0.0,0.000106584,0.0,-1.29244e-05,0.0,-1.15816e-05
0.000794117179931,7.217519653329681e-06,0.000794117179931,-1.158147797287418e-05,0.000794117179931,-1.2420800520057113e-05,0.000794117179931,-1.0910200693340636e-05
0.0015882343598621,5.706880729175438e-06,0.0015882343598621,-3.944440210702995e-05,0.0015882343598621,-8.896035034316545e-06,0.0015882343598621,-1.1917292847216376e-05
0.0023823515397932,3.692672514460852e-06,0.0023823515397932,5.757266451267281e-05,0.0023823515397932,-8.560309349080012e-06,0.0023823515397932,-1.1078104230882974e-05
0.0031764687197242,-1.6784277607724862e-07,0.0031764687197242,0.0002455626969224,0.0031764687197242,-8.224610541213617e-06,0.0031764687197242,-1.3260096482192094e-05
0.0039705858996553,-5.5390022665425096e-06,0.0039705858996553,0.0004013271957258,0.0039705858996553,-8.560308266652775e-06,0.0039705858996553,-1.4938591333263876e-05
0.0047647030795864,-9.063829282625566e-06,0.0047647030795864,0.0004301977484103,0.0047647030795864,-7.721077313614931e-06,0.0047647030795864,-1.3931508776442494e-05
0.0055588202595174,-1.695279978058726e-05,0.0055588202595174,0.0003348589348346,0.0055588202595174,-9.56741e-06,0.0055588202595174,-1.2252999670880887e-05
0.0063529374394485,-1.628140216485447e-05,0.0063529374394485,0.0001354546429591,0.0063529374394485,-9.56741e-06,0.0063529374394485,-1.1245903247281708e-05
0.0071470546193796,-1.4938609098243371e-05,0.0071470546193796,-7.066310342845072e-05,0.0071470546193796,-1.2924377254459327e-05,0.0071470546193796,-8.560328196418988e-06
0.0079411717993107,-1.057454506702784e-05,0.0079411717993107,-0.0002472401765259,0.0079411717993107,-1.3595793066611102e-05,0.0079411717993107,-6.210444266757878e-06
0.0087352889792417,-4.364087982946042e-06,0.0087352889792417,-0.0003560078601909,0.0087352889792417,-1.2253001726050724e-05,0.0087352889792417,-5.539030863012509e-06
0.0095294061591728,1.678460774609721e-06,0.0095294061591728,-0.0003783318920281,0.0095294061591728,-1.2588698376359146e-05,0.0095294061591728,-4.196236494563418e-06
0.0103235233391039,3.860451068802301e-06,0.0103235233391039,-0.000321427576373,0.0103235233391039,-1.59457197328729e-05,0.0103235233391039,-5.539000400690648e-06
0.0111176405190349,1.17494e-06,0.0111176405190349,-0.0002049383481201,0.0111176405190349,-1.6617219888794158e-05,0.0111176405190349,-4.532152649597346e-06
0.011911757698966,1.17494e-06,0.011911757698966,-9.416930044563164e-05,0.011911757698966,-1.8966874838580133e-05,0.011911757698966,-8.895777558428352e-06
0.0127058748788971,5.035692392740183e-07,0.0127058748788971,-1.661955315272569e-05,0.0127058748788971,-1.9638378760472907e-05,0.0127058748788971,-1.560978760504539e-05
0.0134999920588282,-1.846316500611612e-06,0.0134999920588282,1.896664415130153e-05,0.0134999920588282,-2.0309793285854745e-05,0.0134999920588282,-1.6449191607818446e-05
0.0142941092387592,-3.860561244830005e-06,0.0142941092387592,2.064532815302777e-05,0.0142941092387592,-2.0645460943817064e-05,0.0142941092387592,-1.9638462488729277e-05
0.0150882264186903,-6.5461535007089424e-06,0.0150882264186903,5.873759652331244e-06,0.0150882264186903,-1.72885e-05,0.0150882264186903,-2.500961166902981e-05
0.0158823435986214,-7.553148479188647e-06,0.0158823435986214,-2.2993249749524208e-05,0.0158823435986214,-1.72885e-05,0.0158823435986214,-2.836626159729549e-05
0.0166764607785524,-5.2034460635780194e-06,0.0166764607785524,-6.0591742979788224e-05,0.0166764607785524,-1.3931665805817044e-05,0.0166764607785524,-2.500966580581704e-05
0.0174705779584835,-7.553154775042086e-06,0.0174705779584835,-0.0001089326582348,0.0174705779584835,-8.896149768084178e-06,0.0174705779584835,-2.400242795367235e-05
0.0182646951384146,-8.224605889661498e-06,0.0182646951384146,-0.000168687634178,0.0182646951384146,-7.217530275938086e-06,0.0182646951384146,-2.1652614385786816e-05
0.0190588123183456,-7.553261659618221e-06,0.0190588123183456,-0.0001940336615053,0.0190588123183456,-7.217556452282286e-06,0.0190588123183456,-2.0309789585017884e-05
0.0198529294982767,-1.023872518870048e-05,0.0198529294982767,-0.0001722112731139,0.0198529294982767,-9.567572091582285e-06,0.0198529294982767,-1.963832518832906e-05
0.0206470466782078,-8.224745230698265e-06,0.0206470466782078,-0.0001257221215605,0.0206470466782078,-1.393120699937047e-05,0.0206470466782078,-1.7624335231369654e-05
0.0214411638581389,-9.56734888516424e-06,0.0214411638581389,-7.603796123526923e-05,0.0214411638581389,-1.292444583612682e-05,0.0214411638581389,-1.359598334450728e-05
0.0222352810380699,-7.888950080090094e-06,0.0222352810380699,-3.508147794942257e-05,0.0222352810380699,-1.7288395791765757e-05,0.0222352810380699,-1.3763595993184916e-05
0.023029398218001,-5.5390352732448e-06,0.023029398218001,7.888813574557925e-06,0.023029398218001,-1.76241992466729e-05,0.023029398218001,-1.4938597363242956e-05
0.0238235153979321,-3.524843018727645e-06,0.0238235153979321,8.644404685935194e-05,0.0238235153979321,-1.695281952809147e-05,0.0238235153979321,-1.4938665093638228e-05
0.0246176325778631,-4.1963401621551245e-06,0.0246176325778631,0.0001713766989746,0.0246176325778631,-1.7959886229679335e-05,0.0246176325778631,-1.829547606711401e-05
0.0254117497577942,-6.881650105810485e-06,0.0254117497577942,0.0002371668375895,0.0254117497577942,-1.7624221236852764e-05,0.0254117497577942,-1.5274491131674893e-05
0.0262058669377253,-4.867713860600706e-06,0.0262058669377253,0.0002702356233003,0.0262058669377253,-1.6281455907344702e-05,0.0262058669377253,-1.2924497837853233e-05
0.0269999841176564,-6.210393143618987e-06,0.0269999841176564,0.0002475784531898,0.0269999841176564,-1.762417314341898e-05,0.0269999841176564,-1.1581626856581017e-05
0.0277941012975874,-1.0910201097091332e-05,0.0277941012975874,0.000182451872189,0.0277941012975874,-1.6952797805817334e-05,0.0277941012975874,-9.063857805833672e-06
0.0285882184775185,-1.1581584379493897e-05,0.0285882184775185,0.0001042324145349,0.0285882184775185,-1.5609929707722537e-05,0.0285882184775185,-7.721159817444783e-06
0.0293823356574496,-1.0910254393840758e-05,0.0293823356574496,3.609312091812615e-05,0.0293823356574496,-1.2588944772283416e-05,0.0293823356574496,-1.1581287237035948e-05
0.0301764528373806,-8.22476950064074e-06,0.0301764528373806,7.554914693491227e-06,0.0301764528373806,-1.2924380062345668e-05,0.0301764528373806,-1.2924320249382674e-05
0.0309705700173117,-6.881870699476078e-06,0.0309705700173117,-3.10506423860039e-05,0.0309705700173117,-1.6952647900439062e-05,0.0309705700173117,-1.930245917569518e-05
0.0317646871972428,-6.88182e-06,0.0317646871972428,-0.0001334383492665,0.0317646871972428,-1.69528e-05,0.0317646871972428,-2.098117293863756e-05
0.0325588043771738,-1.1581605551255291e-05,0.0325588043771738,-0.0002069580259069,0.0325588043771738,-1.4602872243778653e-05,0.0325588043771738,-1.4938566692523358e-05
0.0333529215571049,-1.2588636216266726e-05,0.0333529215571049,-0.0002116569612309,0.0333529215571049,-9.56733710457626e-06,0.0333529215571049,-8.89593710457626e-06
0.034147038737036,-1.0238981266480764e-05,0.034147038737036,-0.0001733909520695,0.034147038737036,-6.882027160920922e-06,0.034147038737036,-6.210627160920923e-06
0.0349411559169671,-8.560403178352697e-06,0.0349411559169671,-0.0001324352735431,0.0349411559169671,-4.532060449915828e-06,0.0349411559169671,-2.853626356705394e-06
0.0357352730968981,-3.525000595682113e-06,0.0357352730968981,-0.0001250482501944,0.0357352730968981,8.390640313627561e-07,0.0357352730968981,3.860302539203445e-06
0.0365293902768292,2.5176660131723144e-06,0.0365293902768292,-0.0001344468849161,0.0365293902768292,-1.6783666886205257e-07,0.0365293902768292,5.874695337724106e-06
0.0373235074567603,1.510583259040213e-06,0.0373235074567603,-0.0001279007840722,0.0373235074567603,-2.8534778273065247e-06,0.0373235074567603,1.174876954457825e-06
0.0381176246366913,-4.531877931956524e-06,0.0381176246366913,-0.0001049045629134,0.0381176246366913,-6.881924136086951e-06,0.0381176246366913,-5.539113308745478e-06
0.0389117418166224,-2.853562966780884e-06,0.0389117418166224,-5.858279390337225e-05,0.0389117418166224,-1.0238554066438232e-05,0.0389117418166224,-8.224413253443626e-06
0.0397058589965535,-3.524795332698745e-06,0.0397058589965535,3.742544252273638e-05,0.0397058589965535,-1.225289599654718e-05,0.0397058589965535,-1.2588474659701913e-05
0.0404999761764846,-4.531899786346351e-06,0.0404999761764846,0.0001676770923974,0.0404999761764846,-1.6281279145385405e-05,0.0404999761764846,-1.846322375518708e-05
0.0412940933564156,-1.1749680851859398e-06,0.0412940933564156,0.0002623472079987,0.0412940933564156,-1.79598859573652e-05,0.0412940933564156,-2.3666656468250423e-05
0.0420882105363467,5.03610350204926e-07,0.0420882105363467,0.0003019600625145,0.0420882105363467,-1.76242e-05,0.0420882105363467,-2.282750667974136e-05
0.0428823277162778,5.202902251653949e-06,0.0428823277162778,0.0002313024315402,0.0428823277162778,-1.76242e-05,0.0428823277162778,-2.3330954174195265e-05
0.0436764448962088,3.8606231789078405e-06,0.0436764448962088,0.0001092784675673,0.0436764448962088,-2.030961364218432e-05,0.0436764448962088,-2.601641364218432e-05
0.0444705620761399,-1.5103834888561142e-06,0.0444705620761399,2.367078815963811e-05,0.0444705620761399,-2.165253587185585e-05,0.0444705620761399,-2.500954809610811e-05
0.045264679256071,-2.8534049226195304e-06,0.045264679256071,-2.1651416143633665e-05,0.045264679256071,-2.2995264925231783e-05,0.045264679256071,-2.0981305229529156e-05
0.046058796436002,-3.524826986736492e-06,0.046058796436002,-5.018677193529109e-05,0.046058796436002,-2.1988304519513772e-05,0.046058796436002,-1.963840602661678e-05
0.0468529136159331,-3.5248357553119634e-06,0.0468529136159331,-6.126516114702056e-05,0.0468529136159331,-1.8295519425632518e-05,0.0468529136159331,-2.0309707915008584e-05
0.0476470307958642,-3.860500748138535e-06,0.0476470307958642,-7.066368095659267e-05,0.0476470307958642,-1.3596209526060508e-05,0.0476470307958642,-1.4939068029783437e-05
0.0484411479757953,1.5102881162982903e-06,0.0484411479757953,-8.476297630012383e-05,0.0484411479757953,-1.426715601429161e-05,0.0484411479757953,-1.023910789995872e-05
0.0492352651557263,-8.39142889471384e-07,0.0492352651557263,-0.0001038981603719,0.0492352651557263,-1.3595829460326547e-05,0.0492352651557263,-9.56743945988776e-06
0.0500293823356574,-3.524770260577075e-06,0.0500293823356574,-0.0001398172010004,0.0500293823356574,-1.2924414934944707e-05,0.0500293823356574,-1.359571039055419e-05
0.0508234995155885,-6.881817952191783e-06,0.0508234995155885,-0.0001591209882249,0.0508234995155885,-1.3595799590437137e-05,0.0508234995155885,-1.2253000819125728e-05
0.0516176166955195,-1.023897642552024e-05,0.0516176166955195,-0.0001572743719314,0.0516176166955195,-1.4267312912332953e-05,0.0516176166955195,-1.3931450600854333e-05
0.0524117338754506,-1.8630601246184387e-05,0.0524117338754506,-0.0001274004875386,0.0524117338754506,-1.963795279755801e-05,0.0524117338754506,-1.1581795651068373e-05
0.0532058510553817,-2.0309696545092856e-05,0.0532058510553817,-3.3743472783818624e-05,0.0532058510553817,-2.030975861803714e-05,0.0532058510553817,-1.191727930901857e-05
0.0539999682353128,-2.03098e-05,0.0539999682353128,8.039523440122744e-05,0.0539999682353128,-1.762430742632407e-05,0.0539999682353128,-1.661691200393288e-05
0.0547940854152438,-1.7959943159197103e-05,0.0547940854152438,0.0001332710289281,0.0547940854152438,-1.4267261655995858e-05,0.0547940854152438,-1.8966956840802897e-05
0.0555882025951749,-1.3260090127421234e-05,0.0555882025951749,6.932131277748236e-05,0.0555882025951749,-1.493859670914041e-05,0.0555882025951749,-1.728850164526641e-05
0.056382319775106,-1.0239105191982117e-05,0.056382319775106,-4.916782975286509e-05,0.056382319775106,-1.3931601730660703e-05,0.056382319775106,-1.779194913972032e-05
0.057176436955037,-6.210739820007197e-06,0.057176436955037,-8.81178083991872e-05,0.057176436955037,-1.225313325899793e-05,0.057176436955037,-1.4267479839926066e-05
0.0579705541349681,-8.395562242369202e-07,0.0579705541349681,-5.321021646152523e-05,0.0579705541349681,-1.0574596945543315e-05,0.0579705541349681,-9.90335205841262e-06
0.0587646713148992,5.034994945457525e-07,0.0587646713148992,-2.836739735130093e-05,0.0587646713148992,-7.721173073828384e-06,0.0587646713148992,-6.5462412634550045e-06
0.0595587884948302,2.517710817754968e-06,0.0595587884948302,-3.910874436074166e-05,0.0595587884948302,-6.210441886770705e-06,0.0595587884948302,-4.867654318489232e-06
0.0603529056747613,5.874703209437199e-06,0.0603529056747613,-4.01161942901959e-05,0.0603529056747613,-7.049692787146441e-06,0.0603529056747613,-9.567453175845205e-06
0.0611470228546924,3.525058258608405e-06,0.0611470228546924,-6.73048587300042e-05,0.0611470228546924,-1.0238490221084466e-05,0.0611470228546924,-1.560941304776625e-05
0.0619411400346235,-3.0207956786923577e-06,0.0619411400346235,-0.0001299102722801,0.0619411400346235,-1.02388e-05,0.0619411400346235,-1.6449136628958626e-05
0.0627352572145545,-2.85344904361795e-06,0.0627352572145545,-0.0001948695001171,0.0627352572145545,-1.3259937214876898e-05,0.0627352572145545,-1.795981860474449e-05
0.0635293743944856,-1.5106832981799096e-06,0.0635293743944856,-0.0002291128959093,0.0635293743944856,-1.3092205413884723e-05,0.0635293743944856,-1.8295589175455023e-05
0.0643234915744167,-4.867594381565499e-06,0.0643234915744167,-0.000216358135344,0.0643234915744167,-1.6952759038147795e-05,0.0643234915744167,-2.047757684847912e-05
0.0651176087543477,-1.4603014710394982e-05,0.0651176087543477,-0.0001806053154368,0.0651176087543477,-1.963840740074176e-05,0.0651176087543477,-2.165262405185957e-05
0.0659117259342788,-2.5008529498446545e-05,0.0659117259342788,-0.0001185077917118,0.0659117259342788,-2.0309737386394886e-05,0.0659117259342788,-2.383439651044629e-05
0.0667058431142099,-2.3331120240270276e-05,0.0667058431142099,-1.0246555493850798e-05,0.0667058431142099,-1.930277214416217e-05,0.0667058431142099,-2.433806393150069e-05
0.067499960294141,-1.6953118916899506e-05,0.067499960294141,0.0001257122019629,0.067499960294141,-2.433784822455305e-05,0.067499960294141,-2.3666733570726275e-05
0.068294077474072,-1.1246061885427649e-05,0.068294077474072,0.0002586522290274,0.068294077474072,-2.7023623818622283e-05,0.068294077474072,-2.500946190931114e-05
0.0690881946540031,-7.55324485965963e-06,0.0690881946540031,0.0003219345739965,0.0690881946540031,-2.652020338963534e-05,0.0690881946540031,-2.46738022599813e-05
0.0698823118339342,-2.350467634267265e-06,0.0698823118339342,0.0003125360435167,0.0698823118339342,-2.2492247202441948e-05,0.0698823118339342,-2.6352113665649187e-05
0.0706764290138652,6.711269213121634e-07,0.0706764290138652,0.0002643673061882,0.0706764290138652,-1.6449740159699865e-05,0.0706764290138652,-2.433828005323329e-05
0.0714705461937963,6.210044689838139e-06,0.0714705461937963,0.0002809788740741,0.0714705461937963,-1.4267347846790525e-05,0.0714705461937963,-1.980650707005957e-05
0.0722646633737274,9.23157064904786e-06,0.0722646633737274,0.0003489558646047,0.0722646633737274,-1.0574670318394122e-05,0.0722646633737274,-2.1652514838496788e-05
0.0730587805536585,2.517904415254262e-06,0.0730587805536585,0.0003597007369442,0.0730587805536585,-9.567434662153452e-06,0.0730587805536585,-2.3330958898451624e-05
0.0738528977335895,1.1749438324341158e-06,0.0738528977335895,0.0003192491154525,0.0738528977335895,-1.4267186586509136e-05,0.0738528977335895,-1.896701245512547e-05
0.0746470149135206,4.195906314619451e-06,0.0746470149135206,0.0002546339232667,0.0746470149135206,-1.72881763135481e-05,0.0746470149135206,-1.3596375442581151e-05
0.0754411320934517,4.19623e-06,0.0754411320934517,0.0001358001622093,0.0754411320934517,-1.4267458362995064e-05,0.0754411320934517,-1.2924457413998903e-05
0.0762352492733827,4.531908555691472e-06,0.0762352492733827,-1.5018693199720713e-06,0.0762352492733827,-1.2253128665851171e-05,0.0762352492733827,-9.567624442446497e-06
0.0770293664533138,3.860558363235212e-06,0.0770293664533138,-0.00011849705771,0.0770293664533138,-1.5274172365441547e-05,0.0770293664533138,-3.525085268272011e-06
0.0778234836332449,6.546064648792592e-06,0.0778234836332449,-0.0002348186026135,0.0778234836332449,-1.4938606918926687e-05,0.0778234836332449,2.8533085410112213e-06
0.078617600813176,1.1749320944589817e-06,0.078617600813176,-0.0003417410245765,0.078617600813176,-1.091019690652164e-05,0.078617600813176,7.888915327613377e-06
0.079411717993107,-6.54532274472321e-06,0.079411717993107,-0.0003657415215166,0.079411717993107,-7.889221970039763e-06,0.079411717993107,1.3091662722681968e-05
0.0802058351730381,-9.902825950365884e-06,0.0802058351730381,-0.0002858535224528,0.0802058351730381,-9.90293557005626e-06,0.0802058351730381,1.426710407797482e-05
0.0809999523529692,-1.4602618005899272e-05,0.0809999523529692,-0.0002009210959702,0.0809999523529692,-1.1917179145385403e-05,0.0809999523529692,1.0239041709229191e-05
0.0817940695329002,-2.0309581044337764e-05,0.0817940695329002,-0.0001792638307569,0.0817940695329002,-1.1245925759489677e-05,0.0817940695329002,1.1752877515759372e-06
0.0825881867128313,-1.9302716851161763e-05,0.0825881867128313,-0.0001928587725068,0.0825881867128313,-1.225298314883824e-05,0.0825881867128313,-5.035376085004444e-06
0.0833823038927624,-1.4267809352801385e-05,0.0833823038927624,-0.0001755720921657,0.0833823038927624,-1.4266956258879446e-05,0.0833823038927624,-8.55988345545926e-06
0.0841764210726934,-8.393043903040836e-06,0.0841764210726934,-0.0001660039508847,0.0841764210726934,-1.42672e-05,0.0841764210726934,-1.393096614587643e-05
0.0849705382526245,-2.1825229078646885e-06,0.0849705382526245,-0.0001599604698896,0.0849705382526245,-1.3763639158768757e-05,0.0849705382526245,-1.5945543380476513e-05
0.0857646554325556,-1.67962042872876e-07,0.0857646554325556,-0.0001465327536225,0.0857646554325556,-1.4938534055223349e-05,0.0857646554325556,-1.6281381159437003e-05
0.0865587726124866,8.392112665562024e-07,0.0865587726124866,-0.0001552606989477,0.0865587726124866,-1.6617042110639598e-05,0.0865587726124866,-1.930259579915128e-05
0.0873528897924177,5.03552315155449e-07,0.0873528897924177,-0.0001508960561089,0.0873528897924177,-1.5610012945543473e-05,0.0873528897924177,-2.030978705445653e-05
0.0881470069723488,2.1818433918808105e-06,0.0881470069723488,-0.0001230362636986,0.0881470069723488,-1.8295285425509982e-05,0.0881470069723488,-2.03098e-05
0.0889411241522799,2.517707935927925e-06,0.0889411241522799,-8.745289872478006e-05,0.0889411241522799,-1.7792048100883812e-05,0.0889411241522799,-2.433771524068651e-05
0.0897352413322109,2.1820648013811576e-06,0.0897352413322109,-3.374166820620929e-05,0.0897352413322109,-2.0309613985947335e-05,0.0897352413322109,-2.836620238342611e-05
0.090529358512142,-4.53157922776266e-06,0.090529358512142,3.474122212286566e-05,0.090529358512142,-2.2323794773083107e-05,0.090529358512142,-2.9709229845239063e-05
0.0913234756920731,-1.5107324836876997e-06,0.0913234756920731,9.852554756931394e-05,0.0913234756920731,-2.2995279448001376e-05,0.0913234756920731,-2.803085137999656e-05
0.0921175928720041,-2.182033973383222e-06,0.0921175928720041,0.0001512315269141,0.0921175928720041,-2.0309824105569493e-05,0.0921175928720041,-2.601661807985033e-05
0.0929117100519352,-5.874301781138595e-06,0.0929117100519352,0.0001616378213428,0.0929117100519352,-1.7624504160819293e-05,0.0929117100519352,-2.7191466923978747e-05
0.0937058272318663,-4.196383810080199e-06,0.0937058272318663,0.000120015814531,0.0937058272318663,-1.76242e-05,0.0937058272318663,-2.7359384623482146e-05
0.0944999444117974,-3.524876999016778e-06,0.0944999444117974,8.308798491792218e-05,0.0944999444117974,-1.728852349950839e-05,0.0944999444117974,-2.333128199410067e-05
0.0952940615917284,-2.853472473151273e-06,0.0952940615917284,6.630121184087359e-05,0.0952940615917284,-1.561008118408736e-05,0.0952940615917284,-2.1652681179250656e-05
0.0960881787716595,-4.19619410376113e-06,0.0960881787716595,6.227220768684533e-05,0.0960881787716595,-1.3931544870632746e-05,0.0960881787716595,-2.16526e-05
0.0968822959515906,-8.396857996040569e-07,0.0968822959515906,4.2804150836760256e-05,0.0968822959515906,-8.896669701240231e-06,0.0968822959515906,-2.1316943980170023e-05
0.0976764131315216,-1.846229831603956e-06,0.0976764131315216,9.906698844772432e-06,0.0976764131315216,-6.210713783045805e-06,0.0976764131315216,-1.8631593784139728e-05
0.0984705303114527,-3.524682699244834e-06,0.0984705303114527,-1.7621784261998764e-05,0.0984705303114527,-4.36424203091844e-06,0.0984705303114527,-1.6281606222285843e-05
0.0992646474913838,1.6760482739670466e-07,0.0992646474913838,-1.1581999557441269e-05,0.0992646474913838,-4.36408e-06,0.0992646474913838,-1.2253266371627514e-05
0.1000587646713148,5.03448541855392e-07,0.1000587646713148,-7.218812953806e-06,0.1000587646713148,-4.53188027077956e-06,0.1000587646713148,-8.22580349832784e-06
0.1008528818512459,1.1748400955563402e-06,0.1008528818512459,-1.1245300569171587e-05,0.1008528818512459,-4.867580047182962e-06,0.1008528818512459,-4.532479478011376e-06
0.101646999031177,-7.385359554880446e-06,0.101646999031177,-3.860539011481198e-06,0.101646999031177,-8.224605903879949e-06,0.101646999031177,-4.867629590385555e-06
0.1024411162111081,-3.0045835270998493e-05,0.1024411162111081,-1.695599366859337e-05,0.1024411162111081,-9.567631107001125e-06,0.1024411162111081,-6.21014976672881e-06
0.1032352333910391,-3.5750913232092495e-05,0.1032352333910391,-3.877714704223568e-05,0.1032352333910391,-1.1077655942683888e-05,0.1032352333910391,-4.363635957381056e-06
0.1040293505709702,-3.23941598322345e-05,0.1040293505709702,-5.22008039328938e-05,0.1040293505709702,-9.56741e-06,0.1040293505709702,-2.855364427370897e-06
0.1048234677509013,-3.0717523748568736e-05,0.1048234677509013,-5.1530149499427496e-05,0.1048234677509013,-9.56741e-06,0.1048234677509013,-7.214598267111215e-06
0.1056175849308323,-2.970982646871374e-05,0.1056175849308323,-4.556498419740405e-06,0.1056175849308323,-1.2419308370009833e-05,0.1056175849308323,-8.895132557371338e-06
0.1064117021107634,-3.457507379641336e-05,0.1064117021107634,0.0001011733271077,0.1064117021107634,-1.560880349073907e-05,0.1064117021107634,-1.090944432553986e-05
0.1072058192906945,-2.366918309151697e-05,0.1072058192906945,0.0002102901690848,0.1072058192906945,-1.2757149438291113e-05,0.1072058192906945,-1.02389528063321e-05
0.1079999364706256,5.016140947927823e-07,0.1079999364706256,0.0002690572995464,0.1079999364706256,-1.4938425406236928e-05,0.1079999364706256,-1.0910146280073082e-05
0.1087940536505566,1.7624585608308274e-05,0.1087940536505566,0.0002495871457733,0.1087940536505566,-1.7288295850847795e-05,0.1087940536505566,-1.3595902071197602e-05
0.1095881708304877,2.333085554711654e-05,0.1095881708304877,0.0001777318489948,0.1095881708304877,-1.426676664134961e-05,0.1095881708304877,-1.5106002765328064e-05
0.1103822880104188,2.2658504109474385e-05,0.1103822880104188,8.406291009975728e-05,0.1103822880104188,-1.225348707857732e-05,0.1103822880104188,-1.3258090808123232e-05
0.1111764051903498,1.9637373415845617e-05,0.1111764051903498,2.491733333937345e-06,0.1111764051903498,-1.3597596496786503e-05,0.1111764051903498,-7.72064225660234e-06
0.1119705223702809,1.7625410115446687e-05,0.1119705223702809,-4.847774389822317e-05,0.1119705223702809,-1.71184823280079e-05,0.1119705223702809,-6.882324214769453e-06
0.112764639550212,7.893329500272521e-06,0.112764639550212,-7.837203673752481e-05,0.112764639550212,-1.2255209729707746e-05,0.112764639550212,-3.861901565919286e-06
0.1135587567301431,2.183788500564526e-06,0.1135587567301431,-0.000133423132146,0.1135587567301431,-6.883465650113314e-06,0.1135587567301431,1.5089943529505371e-06
0.1143528739100741,2.8533333793750568e-06,0.1143528739100741,-0.0001854647369809,0.1143528739100741,-5.203596549974323e-06,0.1143528739100741,3.188873448437642e-06
0.1151469910900052,3.1891362328901205e-06,0.1151469910900052,-0.000196886871916,0.1151469910900052,-5.706864349447397e-06,0.1151469910900052,1.174962602659276e-06
0.1159411082699363,5.026782586018692e-07,0.1159411082699363,-0.0001901708028293,0.1159411082699363,-5.539235991053633e-06,0.1159411082699363,-1.5115555177635697e-06
0.1167352254498673,-5.8756731901136895e-06,0.1167352254498673,-0.0001740557104897,0.1167352254498673,-7.051957643211527e-06,0.1167352254498673,-8.226373389926736e-06
0.1175293426297984,-9.233012118218565e-06,0.1175293426297984,-0.0001589511191994,0.1175293426297984,-1.5109076606746256e-05,0.1175293426297984,-1.443868932561468e-05
0.1183234598097295,-1.225094707992161e-05,0.1183234598097295,-0.0001545919652708,0.1183234598097295,-2.131268006078634e-05,0.1183234598097295,-2.2989483407833395e-05
0.1191175769896605,-1.1581957694133349e-05,0.1191175769896605,-0.0001612994230586,0.1191175769896605,-2.1652421152933324e-05,0.1191175769896605,-2.43373846117333e-05
0.1199116941695916,-1.3930594872951422e-05,0.1199116941695916,-0.0001787522763531,0.1199116941695916,-2.031031721545633e-05,0.1199116941695916,-2.6351524176815504e-05
0.1207058113495227,-1.4938360718015546e-05,0.1207058113495227,-0.0001881567666064,0.1207058113495227,-2.299466193846763e-05,0.1207058113495227,-2.7191400586466536e-05
0.1214999285294538,-1.5609939565082216e-05,0.1214999285294538,-0.0001448578980251,0.1214999285294538,-2.3666639565082216e-05,0.1214999285294538,-2.970907337355897e-05
0.1222940457093848,-1.4602890334249724e-05,0.1222940457093848,-9.282036809683238e-05,0.1222940457093848,-2.366642944534497e-05,0.1222940457093848,-2.83665e-05
0.1230881628893159,-1.4435998609978832e-05,0.1230881628893159,-8.880696900350133e-05,0.1230881628893159,-1.896686226210741e-05,0.1230881628893159,-2.83665e-05
0.123882280069247,-1.930139746636221e-05,0.123882280069247,-0.0001603153011449,0.123882280069247,-1.829488952710666e-05,0.123882280069247,-2.83665e-05
0.124676397249178,-1.5607819326870365e-05,0.124676397249178,-0.0002150092966011,0.124676397249178,-1.6280561279565526e-05,0.124676397249178,-2.8363983838696576e-05
0.1254705144291091,-1.1248565509339356e-05,0.1254705144291091,-0.0002036079714542,0.1254705144291091,-1.4603925195899752e-05,0.1254705144291091,-2.3334075587699257e-05
0.1262646316090402,-8.226011783278121e-06,0.1262646316090402,-0.0001854814108203,0.1262646316090402,-1.661616547472146e-05,0.1262646316090402,-1.964011324994714e-05
0.1270587487889713,-1.1580537893058891e-05,0.1270587487889713,-0.0001633240098634,0.1270587487889713,-1.5610318633031494e-05,0.1270587487889713,-2.299423792153369e-05
0.1278528659689023,-1.2588529996576285e-05,0.1278528659689023,-0.0001102859534123,0.1278528659689023,-1.5274356667807905e-05,0.1278528659689023,-2.2324013335615813e-05
0.1286469831488334,-1.1245928498421252e-05,0.1286469831488334,4.86518627035247e-06,0.1286469831488334,-1.628137862618406e-05,0.1286469831488334,-2.1316921371693626e-05
0.1294411003287645,-1.124585758140271e-05,0.1294411003287645,0.0002019550683079,0.1294411003287645,-1.7960027255791873e-05,0.1294411003287645,-2.5009160651221676e-05
0.1302352175086955,-1.0911027656198943e-05,0.1302352175086955,0.000455776108516,0.1302352175086955,-1.8967e-05,0.1302352175086955,-2.2322980409395216e-05
0.1310293346886266,-1.39315e-05,0.1310293346886266,0.0006934125585562,0.1310293346886266,-1.8967e-05,0.1310293346886266,-1.8966787988437255e-05
0.1318234518685577,-1.39315e-05,0.1318234518685577,0.0007588008663744,0.1318234518685577,-1.8967e-05,0.1318234518685577,-1.84637472188608e-05
0.1326175690484888,-7.892189676690456e-06,0.1326175690484888,0.00065651357212,0.1326175690484888,-1.6282857636496913e-05,0.1326175690484888,-1.6618102097953626e-05
0.1334116862284198,-1.70900195856786e-07,0.1334116862284198,0.0005581378693436,0.1334116862284198,-1.4267995968157062e-05,0.1334116862284198,-1.2254724597673636e-05
0.1342058034083509,1.8458412937820523e-06,0.1342058034083509,0.0004288870003666,0.1342058034083509,-1.2589115590784592e-05,0.1342058034083509,-1.0239298708941508e-05
0.134999920588282,-2.181637102548381e-06,0.134999920588282,0.0002472601639802,0.134999920588282,-1.1581700724862978e-05,0.134999920588282,-9.063977511339994e-06
0.135794037768213,-6.210196445475452e-06,0.135794037768213,8.441999235368213e-05,0.135794037768213,-1.091032774598622e-05,0.135794037768213,-4.531898063503444e-06
0.1365881549481441,-1.5104434672085806e-06,0.1365881549481441,-8.814546671601671e-05,0.1365881549481441,-1.359553795419652e-05,0.1365881549481441,-3.86046448854913e-06
0.1373822721280752,-5.0262756688507e-07,0.1373822721280752,-0.0002140242224662,0.1373822721280752,-1.225253978138615e-05,0.1373822721280752,-3.5234493516985277e-06
0.1381763893080062,2.182861949176673e-06,0.1381763893080062,-0.0002613372190602,0.1381763893080062,-1.0908227320017202e-05,0.1381763893080062,5.047809271928792e-07
0.1389705064879373,3.859488043947101e-06,0.1389705064879373,-0.0002536247929643,0.1389705064879373,-6.884320697010037e-06,0.1389705064879373,3.019727061575262e-06
0.1397646236678684,5.538234441457383e-06,0.1397646236678684,-0.0002128523318119,0.1397646236678684,-5.539666442094395e-06,0.1397646236678684,4.531214002051344e-06
0.1405587408477994,9.23050475296252e-06,0.1405587408477994,-0.0001500774893432,0.1405587408477994,-9.23050475296252e-06,0.1405587408477994,6.881053023722363e-06
0.1413528580277305,1.527321954632796e-05,0.1413528580277305,-9.887235377829634e-05,0.1413528580277305,-9.56734997469666e-06,0.1413528580277305,5.203630124728631e-06
0.1421469752076616,1.376364717101454e-05,0.1421469752076616,-0.0001015489161369,0.1421469752076616,-6.2105248206951065e-06,0.1421469752076616,4.531950964201471e-06
0.1429410923875927,1.4937701596984703e-05,0.1429410923875927,-0.0001426778005212,0.1429410923875927,-5.203837791996845e-06,0.1429410923875927,4.363357373106578e-06
0.1437352095675237,7.212026554239269e-06,0.1437352095675237,-0.0001925336325165,0.1437352095675237,-9.568517537969278e-06,0.1437352095675237,-1.8469602274917544e-06
0.1445293267474548,-1.3602974593202485e-05,0.1445293267474548,-0.0002328132086126,0.1445293267474548,-1.3763806981155044e-05,0.1445293267474548,-4.198575541191974e-06
0.1453234439273859,-3.103988997437307e-05,0.1453234439273859,-0.0002479024339208,0.1453234439273859,-1.42668477507315e-05,0.1453234439273859,-9.899108258969566e-06
0.146117561107317,-2.786476281190852e-05,0.146117561107317,-0.000247242370903,0.146117561107317,-1.5609257751769858e-05,0.146117561107317,-1.4935816569136954e-05
0.146911678287248,-2.3332836274800737e-05,0.146911678287248,-0.0002297930728183,0.146911678287248,-1.6281127962290112e-05,0.146911678287248,-1.829423981145056e-05
0.1477057954671791,-1.7625670060330183e-05,0.1477057954671791,-0.0002069638804473,0.1477057954671791,-1.460333237826176e-05,0.1477057954671791,-2.165173524347648e-05
0.1484999126471102,-7.889981039942535e-06,0.1484999126471102,-0.0001834615852714,0.1484999126471102,-1.3595910797349244e-05,0.1484999126471102,-2.500913068650414e-05
0.1492940298270412,3.021573740436104e-06,0.1492940298270412,-0.0001351163012988,0.1492940298270412,-1.5609905417475484e-05,0.1492940298270412,-2.7862918028228315e-05
0.1500881470069723,1.0575121539554362e-05,0.1500881470069723,-6.327024986744666e-05,0.1500881470069723,-1.3091578471554477e-05,0.1500881470069723,-2.568077569208913e-05
0.1508822641869034,1.393094151420986e-05,0.1508822641869034,-1.493787395183636e-05,0.1508822641869034,-9.736991302622148e-06,0.1508822641869034,-2.5009611697158028e-05
0.1516763813668344,1.2253e-05,0.1516763813668344,-1.2771879013358168e-05,0.1516763813668344,-1.4940210375425569e-05,0.1516763813668344,-2.534664933788301e-05
0.1524704985467655,1.2253e-05,0.1524704985467655,-4.479547837794536e-05,0.1524704985467655,-1.8293482542757236e-05,0.1524704985467655,-2.836459428848151e-05
0.1532646157266966,6.548881966788043e-06,0.1532646157266966,-7.266521510446772e-05,0.1532646157266966,-1.82956e-05,0.1532646157266966,-2.903757506159206e-05
0.1540587329066277,2.519095105288587e-06,0.1540587329066277,-6.395353604239652e-05,0.1540587329066277,-1.6617664630006826e-05,0.1540587329066277,-2.7359964630006827e-05
0.1548528500865587,6.545359410191024e-06,0.1548528500865587,-2.3003032682568067e-05,0.1548528500865587,-2.0644739406414867e-05,0.1548528500865587,-2.9037583086006192e-05
0.1556469672664898,4.364169956962914e-06,0.1556469672664898,1.4265663813069156e-05,0.1556469672664898,-2.030981383959618e-05,0.1556469672664898,-2.7359469197980903e-05
0.1564410844464209,-7.888892149260346e-06,0.1564410844464209,3.273245657689844e-05,0.1564410844464209,-2.064582132182224e-05,0.1564410844464209,-2.366662859278716e-05
0.157235201626352,-7.721197867674147e-06,0.157235201626352,5.019099182143899e-05,0.157235201626352,-2.366657214248335e-05,0.157235201626352,-2.29953e-05
0.158029318806283,-8.225283098311973e-06,0.158029318806283,6.629992884842523e-05,0.158029318806283,-2.316232498703196e-05,0.158029318806283,-2.29953e-05
0.1588234359862141,-9.90190919308246e-06,0.1588234359862141,6.512633353433588e-05,0.1588234359862141,-2.0982748022743105e-05,0.1588234359862141,-2.29953e-05
0.1596175531661451,-1.4935766206705272e-05,0.1596175531661451,5.254388445509867e-05,0.1596175531661451,-1.4942000551953674e-05,0.1596175531661451,-1.8298244817465444e-05
0.1604116703460762,-1.9300888107445086e-05,0.1604116703460762,9.081909150185884e-06,0.1604116703460762,-1.326079688175189e-05,0.1604116703460762,-1.3597751268905291e-05
0.1612057875260073,-2.2323091528429983e-05,0.1612057875260073,-1.3589736286609202e-05,0.1612057875260073,-1.4938150834261127e-05,0.1612057875260073,-1.35958e-05
0.1619999047059384,-3.0044073331260544e-05,0.1619999047059384,-1.2924480579890389e-05,0.1619999047059384,-1.4267280579890387e-05,0.1619999047059384,-1.35958e-05
0.1627940218858694,-2.635213344412302e-05,0.1627940218858694,-7.552923896865436e-06,0.1627940218858694,-9.56737298697036e-06,0.1627940218858694,-1.0238762987246e-05
0.1635881390658005,-2.030856527433995e-05,0.1635881390658005,3.190903886794237e-06,0.1635881390658005,-8.22499218399585e-06,0.1635881390658005,-8.895892407079995e-06
0.1643822562457316,-1.3258149892527853e-05,0.1643822562457316,1.3273534053616197e-05,0.1643822562457316,-1.0407891704015775e-05,0.1643822562457316,-8.225043358650378e-06
0.1651763734256627,-7.217204631459201e-06,0.1651763734256627,5.491177179899351e-05,0.1651763734256627,-1.4098905812809892e-05,0.1651763734256627,-9.566148530533983e-06
0.1659704906055937,-6.546550197992916e-06,0.1659704906055937,0.0001082287992595,0.1659704906055937,-1.326063771545376e-05,0.1659704906055937,-6.883540785564185e-06
0.1667646077855248,-8.223780871442774e-06,0.1667646077855248,0.0001320852266501,0.1667646077855248,-1.4266702519901829e-05,0.1667646077855248,-6.88182e-06
0.1675587249654559,-6.882285130523284e-06,0.1675587249654559,0.0001324328836125,0.1675587249654559,-1.2253697700980792e-05,0.1675587249654559,-8.559728585979917e-06
0.1683528421453869,-1.5117078407311198e-06,0.1683528421453869,0.0001069250722225,0.1683528421453869,-1.2924266519411584e-05,0.1683528421453869,-1.0909732819928646e-05
0.169146959325318,-2.1820056058167942e-06,0.169146959325318,5.086117190405215e-05,0.169146959325318,-1.4938496817450384e-05,0.169146959325318,-1.1245882802908398e-05
0.1699410765052491,-5.874331848595212e-06,0.1699410765052491,-6.879297011051164e-06,0.1699410765052491,-1.5945538269445052e-05,0.1699410765052491,-9.903002962630576e-06
0.1707351936851801,-1.846913222755711e-06,0.1707351936851801,1.932100217620788e-05,0.1707351936851801,-1.4266872442745674e-05,0.1707351936851801,-8.895846221372836e-06
0.1715293108651112,-4.2000367368449474e-06,0.1715293108651112,9.43320219500062e-05,0.1715293108651112,-1.2925450137538123e-05,0.1715293108651112,-8.22461e-06
0.1723234280450423,-1.3924496055420052e-05,0.1723234280450423,9.617627169756176e-05,0.1723234280450423,-1.560806787140327e-05,0.1723234280450423,-8.22461e-06
0.1731175452249733,-1.443471161306562e-05,0.1731175452249733,-1.688800292107013e-05,0.1731175452249733,-1.5777703890114023e-05,0.1731175452249733,-8.22461e-06
0.1739116624049044,-1.3596156813355392e-05,0.1739116624049044,-0.0002290237927196,0.1739116624049044,-1.3596727748738638e-05,0.1739116624049044,-1.1580172665793709e-05
0.1747057795848355,-1.0910945525145756e-05,0.1747057795848355,-0.0003489257309126,0.1747057795848355,-1.628065447485424e-05,0.1747057795848355,-1.292402723742712e-05
0.1754998967647666,-4.197102944911739e-06,0.1754998967647666,-0.0003204277100974,0.1754998967647666,-1.460311823720308e-05,0.1754998967647666,-1.460268176279692e-05
0.1762940139446976,6.881905487319277e-06,0.1762940139446976,-0.0002024237566757,0.1762940139446976,-1.1917294104238025e-05,0.1762940139446976,-1.4602929478809885e-05
0.1770881311246287,1.1749843511716547e-05,0.1770881311246287,-7.466917223876572e-05,0.1770881311246287,-1.1581821755858274e-05,0.1770881311246287,-1.628134456103543e-05
0.1778822483045598,1.4435262471054207e-05,0.1778822483045598,6.903681111872489e-05,0.1778822483045598,-1.292460996433432e-05,0.1778822483045598,-1.594522756461147e-05
0.1786763654844909,1.5272756690017698e-05,0.1786763654844909,0.0002315118426094,0.1786763654844909,-1.3594565352014156e-05,0.1786763654844909,-1.4435540181480252e-05
0.1794704826644219,1.1919484522686152e-05,0.1794704826644219,0.0003354632797967,0.1794704826644219,-1.091194761814892e-05,0.1794704826644219,-1.560923538452302e-05
0.180264599844353,7.890940205298154e-06,0.180264599844353,0.00034995872513,0.180264599844353,-1.0239138368389647e-05,0.180264599844353,-1.762318489483105e-05
0.181058717024284,7.88891e-06,0.181058717024284,0.0003086897158064,0.181058717024284,-1.0909960718015534e-05,0.181058717024284,-2.030884287206214e-05
0.1818528342042151,6.546400389070406e-06,0.1818528342042151,0.0002492684073296,0.1818528342042151,-1.1581459804420744e-05,0.1818528342042151,-2.1987949511051858e-05
0.1826469513841462,7.888827782264145e-06,0.1826469513841462,0.0001821201109174,0.1826469513841462,-1.1245920554587036e-05,0.1826469513841462,-2.030990277293518e-05
0.1834410685640773,4.363978540709082e-06,0.1834410685640773,0.0001146352312914,0.1834410685640773,-9.56754045222411e-06,0.1834410685640773,-2.198818404553778e-05
0.1842351857440083,3.18914e-06,0.1842351857440083,4.78214507701871e-05,0.1842351857440083,-1.1077746597460954e-05,0.1842351857440083,-2.064526440454556e-05
0.1850293029239394,3.186197991268869e-06,0.1850293029239394,-1.864421922972248e-05,0.1850293029239394,-9.567154172159809e-06,0.1850293029239394,-1.963737668863923e-05
0.1858234201038705,-4.52629802690765e-06,0.1858234201038705,-5.2512068341864186e-05,0.1858234201038705,-8.896499738693497e-06,0.1858234201038705,-1.6954758954773994e-05
0.1866175372838016,-1.1577491692062389e-05,0.1866175372838016,-3.039361182161669e-05,0.1866175372838016,-9.231514365456164e-06,0.1866175372838016,-1.4939773807263026e-05
0.1874116544637326,-1.4937139086587545e-05,0.1874116544637326,-1.8971967062083927e-05,0.1874116544637326,-1.2251685182280632e-05,0.1874116544637326,-1.2254168730729965e-05
0.1882057716436637,-2.39997932290166e-05,0.1882057716436637,-5.856800737715939e-05,0.1882057716436637,-1.527343106675212e-05,0.1882057716436637,-8.39357030071849e-06
0.1889998888235948,-2.7358929950639503e-05,0.1889998888235948,-0.0001492053087232,0.1889998888235948,-1.72882179703837e-05,0.1889998888235948,-2.854215577244197e-06
0.1897940060035258,-2.8366515229599256e-05,0.1897940060035258,-0.0002526135000392,0.1897940060035258,-1.8631284770400743e-05,0.1897940060035258,1.0071317281805607e-06
0.1905881231834569,-3.038028334824692e-05,0.1905881231834569,-0.0003187499060326,0.1905881231834569,-1.661642294090125e-05,0.1905881231834569,5.203590405794245e-06
0.191382240363388,-2.769306753683769e-05,0.191382240363388,-0.0003439083662894,0.191382240363388,-1.2252593501313044e-05,0.191382240363388,6.883293536549484e-06
0.192176357543319,-2.0979086311835307e-05,0.192176357543319,-0.0002954984524734,0.192176357543319,-1.09098980445479e-05,0.192176357543319,1.174826769403903e-05
0.1929704747232501,-1.628450527757098e-05,0.1929704747232501,-0.0001077152111028,0.1929704747232501,-1.0239243611081568e-05,0.1929704747232501,9.233373501912354e-06
0.1937645919031812,-9.235333370355673e-06,0.1937645919031812,9.64083953204914e-05,0.1937645919031812,-1.1245382374929224e-05,0.1937645919031812,5.2054004900035855e-06
0.1945587090831123,-5.540382976036449e-06,0.1945587090831123,7.168070185144791e-05,0.1945587090831123,-9.903591993950666e-06,0.1945587090831123,-1.6588103189161301e-07
0.1953528262630433,-3.357457459352906e-06,0.1953528262630433,-6.660593655384163e-05,0.1953528262630433,-1.0238726544714935e-05,0.1953528262630433,-6.3769110835719e-06
0.1961469434429744,-2.182123691576341e-06,0.1961469434429744,-0.0001297425045854,0.1961469434429744,-1.3595560879175296e-05,0.1961469434429744,-1.3595285891651498e-05
0.1969410606229055,-1.5107168933603657e-06,0.1969410606229055,-0.0001683528974602,0.1969410606229055,-1.426732815560061e-05,0.1969410606229055,-2.031032543414493e-05
0.1977351778028366,-2.517890348645451e-06,0.1977351778028366,-0.0001670036853121,0.1977351778028366,-1.5945474477031823e-05,0.1977351778028366,-2.7192013447578337e-05
0.1985292949827676,-3.1885171967604206e-06,0.1985292949827676,-0.0001388081974781,0.1985292949827676,-1.4937914897884089e-05,0.1985292949827676,-2.9038024560647917e-05
0.1993234121626987,-1.5118811130945895e-06,0.1993234121626987,-0.000131263584824,0.1993234121626987,-1.3093565261374949e-05,0.1993234121626987,-2.937335177738108e-05
0.2001175293426297,-2.1816420159214567e-06,0.2001175293426297,-0.0001378001197441,0.2001175293426297,-1.2924499466381262e-05,0.2001175293426297,-3.105110503980364e-05
0.2009116465225608,-4.866434413758422e-06,0.2009116465225608,-7.539209726102952e-05,0.2009116465225608,-1.359550110232664e-05,0.2009116465225608,-3.10521e-05
0.2017057637024919,-1.3928802556808082e-05,0.2017057637024919,2.867122940223855e-05,0.2017057637024919,-1.6448350816990555e-05,0.2017057637024919,-3.172330018873185e-05
0.202499880882423,-1.141407772573732e-05,0.202499880882423,0.0001030478448339,0.202499880882423,-1.5610125898577633e-05,0.202499880882423,-3.20591496375685e-05
0.203293998062354,-6.210432697876988e-06,0.203293998062354,0.000127229941014,0.203293998062354,-1.8966991807711088e-05,0.203293998062354,-3.0380704096144453e-05
0.2040881152422851,-2.182161809934282e-06,0.2040881152422851,0.0001139637633023,0.2040881152422851,-1.8966951276026288e-05,0.2040881152422851,-3.0044561484236583e-05
0.2048822324222162,-3.024188869991721e-06,0.2048822324222162,7.098683572256877e-05,0.2048822324222162,-1.863218440458664e-05,0.2048822324222162,-2.7022815595413363e-05
0.2056763496021472,-1.2924252375546107e-05,0.2056763496021472,2.5339885563634995e-05,0.2056763496021472,-2.1653190453840457e-05,0.2056763496021472,-2.400284287336168e-05
0.2064704667820783,-1.2588925158812942e-05,0.2064704667820783,1.326820565019446e-05,0.2064704667820783,-2.299439943181967e-05,0.2064704667820783,-2.500882452356117e-05
0.2072645839620094,5.1940073798367164e-06,0.2072645839620094,5.486488860576961e-05,0.2072645839620094,-2.1988827645159347e-05,0.2072645839620094,-2.232530719348554e-05
0.2080587011419405,2.131083492410362e-05,0.2080587011419405,0.000103040868161,0.2080587011419405,-2.1652726355983087e-05,0.2080587011419405,-2.2995047288033823e-05
0.2088528183218715,2.2659292771759345e-05,0.2088528183218715,0.0001052405007283,0.2088528183218715,-2.0310107251122036e-05,0.2088528183218715,-1.9639168104923705e-05
0.2096469355018026,1.9302972687655843e-05,0.2096469355018026,7.335269056116169e-05,0.2096469355018026,-1.7624418156623232e-05,0.2096469355018026,-1.8967054539155808e-05
0.2104410526817337,1.46023654343342e-05,0.2104410526817337,7.973052714774627e-05,0.2104410526817337,-1.99741668208741e-05,0.2104410526817337,-1.6952376801130705e-05
0.2112351698616647,6.545042751869428e-06,0.2112351698616647,0.0001117794178356,0.2112351698616647,-2.09804818317272e-05,0.2112351698616647,-1.057457181682728e-05
0.2120292870415958,1.5099127600781526e-06,0.2120292870415958,7.163475313829874e-05,0.2120292870415958,-1.7623048511877363e-05,0.2120292870415958,-1.090923034460452e-05
0.2128234042215269,-5.020385536463605e-07,0.2128234042215269,-3.030422130381299e-05,0.2128234042215269,-1.443739000843567e-05,0.2128234042215269,-8.226622599634627e-06
0.2136175214014579,-3.5230088650374933e-06,0.2136175214014579,-6.057538860215342e-05,0.2136175214014579,-1.0912324639975958e-05,0.2136175214014579,-5.540648784222264e-06
0.214411638581389,-8.89356510779012e-06,0.214411638581389,-2.435460303834823e-05,0.214411638581389,-1.1245747193667898e-05,0.214411638581389,-5.203482806332102e-06
0.2152057557613201,-1.4936741266744676e-05,0.2152057557613201,-1.7794013615645388e-05,0.2152057557613201,-9.903513052518084e-06,0.2152057557613201,-6.881303687428449e-06
0.2159998729412512,-1.7623770240584662e-05,0.2159998729412512,-4.883913093076372e-05,0.2159998729412512,-9.56746371832668e-06,0.2159998729412512,-5.2035985980343495e-06
0.2167939901211822,-2.0645462409481185e-05,0.2167939901211822,-9.08058779119492e-05,0.2167939901211822,-7.217549236945773e-06,0.2167939901211822,-3.357585622785888e-07
0.2175881073011133,-2.2994755615774788e-05,0.2175881073011133,-7.838160776342648e-05,0.2175881073011133,-3.860802197518204e-06,0.2175881073011133,1.6762216909520324e-07
0.2183822244810444,-1.896453234829735e-05,0.2183822244810444,-4.883878508614339e-05,0.2183822244810444,-5.875811458502801e-06,0.2183822244810444,-1.5109247290426134e-06
0.2191763416609755,-1.0236203131621853e-05,0.2191763416609755,-3.0052069244928208e-05,0.2191763416609755,-9.73576494483841e-06,0.2191763416609755,-2.519182703221986e-06
0.2199704588409065,-4.200343197111106e-06,0.2199704588409065,-4.648300297589933e-05,0.2199704588409065,-1.0909400214509104e-05,0.2199704588409065,-5.872434892762841e-06
0.2207645760208376,-4.531750743318886e-06,0.2207645760208376,-9.68221116046286e-05,0.2207645760208376,-1.1245720743318883e-05,0.2207645760208376,-1.2249594133738402e-05
0.2215586932007686,-1.6953526787939805e-07,0.2215586932007686,-0.0001252050390758,0.2215586932007686,-1.0910329713478534e-05,0.2215586932007686,-1.4266421719128796e-05
0.2223528103806997,6.208896772160601e-06,0.2223528103806997,-0.0001418290316071,0.2223528103806997,-1.258829914862035e-05,0.2223528103806997,-1.3092480607906518e-05
0.2231469275606308,4.699917820917685e-06,0.2231469275606308,-8.94683778416874e-05,0.2231469275606308,-1.695240184804661e-05,0.2231469275606308,-1.5609770292388295e-05
0.2239410447405619,5.035007099022576e-07,0.2239410447405619,-8.357843626589434e-07,0.2239410447405619,-1.6952667587095223e-05,0.2239410447405619,-1.930241625806119e-05
0.2247351619204929,-3.366906566412016e-07,0.2247351619204929,6.059900826682378e-05,0.2247351619204929,-1.4602591922810134e-05,0.2247351619204929,-1.4266515406681418e-05
0.225529279100424,-5.204626388118089e-06,0.225529279100424,8.711144291792822e-05,0.225529279100424,-1.3092612506916048e-05,0.225529279100424,-1.0910789270517946e-05
0.2263233962803551,-8.893205794392098e-06,0.2263233962803551,8.040489858326513e-05,0.2263233962803551,-1.4266307709958812e-05,0.2263233962803551,-1.258742535418372e-05
0.2271175134602862,-1.1076762879793356e-05,0.2271175134602862,6.899299403902433e-05,0.2271175134602862,-1.6280165757819234e-05,0.2271175134602862,-1.1414420005243967e-05
0.2279116306402172,-7.890393574969243e-06,0.2279116306402172,3.677399163440677e-05,0.2279116306402172,-2.1146735647760004e-05,0.2279116306402172,-1.4433594525552075e-05
0.2287057478201483,-1.2922800693801923e-05,0.2287057478201483,1.8574285005291123e-06,0.2287057478201483,-2.249137351750023e-05,0.2287057478201483,-1.728759370880764e-05
0.2294998650000794,-1.695211507093179e-05,0.2294998650000794,-2.4333647988260643e-05,0.2294998650000794,-2.265957146979008e-05,0.2294998650000794,-1.6281571232267053e-05
0.2302939821800104,-1.6281415068439517e-05,0.2302939821800104,-5.589309178558701e-05,0.2302939821800104,-2.1988315066195183e-05,0.2302939821800104,-1.4938630136879035e-05
0.2310880993599415,-1.7959605937120085e-05,0.2310880993599415,-9.886656069359992e-05,0.2310880993599415,-1.963848401796569e-05,0.2310880993599415,-1.6617772143725525e-05
0.2318822165398726,-1.5609908447814565e-05,0.2318822165398726,-0.0001257111265665,0.2318822165398726,-2.0308335165033e-05,0.2318822165398726,-2.1988208447814565e-05
0.2326763337198036,-1.5273454492542675e-05,0.2326763337198036,-9.681729363825968e-05,0.2326763337198036,-1.4936908985085351e-05,0.2326763337198036,-2.1652036328361786e-05
0.2334704508997347,-1.326149119214375e-05,0.2334704508997347,-2.1369069429113732e-05,0.2334704508997347,-1.0912982384287496e-05,0.2334704508997347,-2.031072746142917e-05
0.2342645680796658,-6.214254886827906e-06,0.2342645680796658,5.081903811523622e-05,0.2342645680796658,-8.226070907972582e-06,0.2342645680796658,-2.299383914098564e-05
0.2350586852595969,3.331031286926101e-07,0.2350586852595969,7.904582207782754e-05,0.2350586852595969,-1.513301407587166e-06,0.2350586852595969,-2.0981998386203887e-05
0.2358528024395279,-5.033391815668572e-07,0.2358528024395279,7.9057e-05,0.2358528024395279,-3.3599034520923965e-07,0.2358528024395279,-1.6953802333256367e-05
0.236646919619459,9.230724451757487e-06,0.236646919619459,7.301501172223789e-05,0.236646919619459,-1.5105210548191786e-06,0.236646919619459,-1.4267471876550173e-05
0.2374410367993901,9.902991090490194e-06,0.2374410367993901,9.047246592116002e-05,0.2374410367993901,-3.1894044953845426e-06,0.2374410367993901,-1.4938662234535282e-05
0.2382351539793211,7.5524387799021935e-06,0.2382351539793211,0.0001285762874779,0.2382351539793211,-8.89627040540641e-06,0.2382351539793211,-1.628182315224033e-05
0.2390292711592522,3.5220819936891464e-06,0.2390292711592522,0.0001455130921863,0.2390292711592522,-1.0238571001747967e-05,0.2390292711592522,-1.8462197758324128e-05
0.2398233883391833,-4.525731252325183e-06,0.2398233883391833,0.0001106398607577,0.2398233883391833,-9.567926557177004e-06,0.2398233883391833,-1.494131192710273e-05
0.2406175055191144,-1.0906227792697496e-05,0.2406175055191144,5.206978179084902e-05,0.2406175055191144,-1.225132749002323e-05,0.2406175055191144,-1.0241726903357857e-05
0.2414116226990454,-1.158128095735406e-05,0.2414116226990454,-3.772342821242234e-05,0.2414116226990454,-1.4266242872062184e-05,0.2414116226990454,-1.1580961914708123e-05
0.2422057398789765,-1.1749345027320229e-05,0.2422057398789765,-0.0001377712267494,0.2422057398789765,-1.6280740131277738e-05,0.2422057398789765,-1.6447605333634957e-05
0.2429998570589076,-1.0910351078293131e-05,0.2429998570589076,-0.0002123155835202,0.2429998570589076,-1.8295237390493293e-05,0.2429998570589076,-1.829526759895086e-05
0.2437939742388386,-1.7959671273980956e-05,0.2437939742388386,-0.0002479118454846,0.2437939742388386,-2.1652491082848078e-05,0.2437939742388386,-1.695284356686077e-05
0.2445880914187697,-1.9637607638751217e-05,0.2445880914187697,-0.000244049830624,0.2445880914187697,-1.829563865148741e-05,0.2445880914187697,-1.443463281662644e-05
0.2453822085987008,-1.275601494234092e-05,0.2453822085987008,-0.0002165133440488,0.2453822085987008,-1.8631740973450012e-05,0.2453822085987008,-1.1244973961009336e-05
0.2461763257786318,-1.090882436182184e-05,0.2461763257786318,-0.0001683205347865,0.2461763257786318,-2.0309112176813077e-05,0.2461763257786318,-7.719212885590992e-06
0.2469704429585629,-7.555572172280867e-06,0.2469704429585629,-8.918341152648183e-05,0.2469704429585629,-1.8632476093147243e-05,0.2469704429585629,-3.192315437483938e-06
0.247764560138494,-1.7194036071838968e-07,0.247764560138494,9.848238633752735e-06,0.247764560138494,-1.762475791501598e-05,0.247764560138494,-4.195672090523837e-06
0.2485586773184251,6.375609657445297e-06,0.2485586773184251,0.0001226521601562,0.2485586773184251,-1.493969142775512e-05,0.2485586773184251,-4.53179357153061e-06
0.2493527944983561,1.3929545086673418e-05,0.2493527944983561,0.0001797522295046,0.2493527944983561,-1.5274213114733204e-05,0.2493527944983561,-1.090854918769539e-05
0.2501469116782872,9.903548104770466e-06,0.2501469116782872,0.0001587873339624,0.2501469116782872,-1.6952613289678973e-05,0.2501469116782872,-1.527381455316533e-05
0.2509410288582183,5.2032811954465e-06,0.2509410288582183,9.785292771856066e-05,0.2509410288582183,-1.6952726793169752e-05,0.2509410288582183,-1.6617045093060044e-05
0.2517351460381494,3.8601595357932575e-06,0.2517351460381494,1.0561286766203648e-05,0.2517351460381494,-1.493826039692813e-05,0.2517351460381494,-1.510649262570786e-05
0.2525292632180804,1.845673118286504e-06,0.2525292632180804,-6.126010950739295e-05,0.2525292632180804,-1.3092811328130477e-05,0.2525292632180804,-1.5610444590237006e-05
0.2533233803980115,-1.6627919432754334e-07,0.2533233803980115,-4.650571197113415e-05,0.2533233803980115,-1.4937160964639552e-05,0.2533233803980115,-1.6951753457169625e-05
0.2541174975779426,-3.522705791812745e-06,0.2541174975779426,4.8112797306466125e-05,0.2541174975779426,-1.0912749064251935e-05,0.2541174975779426,-1.69528e-05
0.2549116147578736,-7.551265459030941e-06,0.2549116147578736,0.0001931236368841,0.2549116147578736,-8.896987268058571e-06,0.2549116147578736,-1.6281725757636828e-05
0.2557057319378047,-6.2108733424632425e-06,0.2557057319378047,0.0003086360124806,0.2557057319378047,-9.902759996528666e-06,0.2557057319378047,-1.4267880013694864e-05
0.2564998491177358,-1.225185174036284e-05,0.2564998491177358,0.0002996127224141,0.2564998491177358,-8.560565167752547e-06,0.2564998491177358,-1.42672e-05
0.2572939662976669,-1.762397201262998e-05,0.2572939662976669,0.0001925275454854,0.2572939662976669,-9.903043003581958e-06,0.2572939662976669,-1.3595828498421252e-05
0.2580880834775979,-9.566210009529536e-06,0.2580880834775979,4.950470009102261e-05,0.2580880834775979,-1.1581547064268807e-05,0.2580880834775979,-9.5670217671396e-06
0.258882200657529,1.846849020640316e-06,0.258882200657529,-5.322033164300997e-05,0.258882200657529,-1.107839691754517e-05,0.258882200657529,-5.874974511583745e-06
0.2596763178374601,3.859858947171877e-06,0.2596763178374601,-0.0001012244749317,0.2596763178374601,-1.2251926313076228e-05,0.2596763178374601,-6.881954211365216e-06
0.2604704350173911,2.183232852401449e-06,0.2604704350173911,-0.0001298946023511,0.2604704350173911,-9.56931856810634e-06,0.2604704350173911,-7.21728142809837e-06
0.2612645521973222,-5.199164775235833e-06,0.2612645521973222,-0.0001337738224607,0.2612645521973222,-1.2251485372300318e-05,0.2612645521973222,-7.55303067083256e-06
0.2620586693772533,-1.6276787075653253e-05,0.2620586693772533,-0.0001317628386325,0.2620586693772533,-1.5944162354387067e-05,0.2620586693772533,-1.1747652704587952e-05
0.2628527865571843,-1.4938960971048926e-05,0.2628527865571843,-0.0001710274418387,0.2628527865571843,-1.628130975723777e-05,0.2628527865571843,-1.5776717086853224e-05
0.2636469037371154,-5.540169584033093e-06,0.2636469037371154,-0.0001965479068577,0.2636469037371154,-1.8295355802642096e-05,0.2636469037371154,-1.6952657545479328e-05
0.2644410209170465,-1.6785209527504173e-06,0.2644410209170465,-0.000211995804082,0.2644410209170465,-1.930270884364298e-05,0.2644410209170465,-2.0645597277438357e-05
0.2652351380969776,-2.854461764579474e-06,0.2652351380969776,-0.0002804783939128,0.2652351380969776,-1.9638341613154445e-05,0.2652351380969776,-2.4337983226308887e-05
0.2660292552769086,-8.730154191099771e-06,0.2660292552769086,-0.0002942210282696,0.2660292552769086,-1.930302338286121e-05,0.2660292552769086,-2.366713117714828e-05
0.2668233724568397,-1.493369771176822e-05,0.2668233724568397,-0.0002352036379025,0.2668233724568397,-2.0309005033060745e-05,0.2668233724568397,-2.5008440044080996e-05
0.2676174896367708,-1.82934422048356e-05,0.2676174896367708,-0.0001888597778303,0.2676174896367708,-2.181942902431476e-05,0.2676174896367708,-2.635143688193424e-05
0.2684116068167018,-2.030880258211698e-05,0.2684116068167018,-0.000145882277951,0.2684116068167018,-2.0646081802338776e-05,0.2684116068167018,-2.8701036345803142e-05
0.2692057239966329,-1.4940467089779724e-05,0.2692057239966329,-0.0001042484700153,0.2692057239966329,-2.0309916693111232e-05,0.2692057239966329,-2.2997283782890955e-05
0.269999841176564,-1.359606859963461e-05,0.269999841176564,-6.798615209011968e-05,0.269999841176564,-2.03098e-05,0.269999841176564,-1.7960907228626832e-05
0.270793958356495,-1.8631035899409274e-05,0.270793958356495,5.118774965082148e-05,0.270793958356495,-1.796002324694234e-05,0.270793958356495,-1.561012324694234e-05
0.2715880755364261,-2.030986387299311e-05,0.2715880755364261,0.0002865398224625,0.2715880755364261,-1.5777496608039425e-05,0.2715880755364261,-1.3260004190510332e-05
0.2723821927163572,-2.098103704060173e-05,0.2723821927163572,0.0005054021479699,0.2723821927163572,-1.2588048162406913e-05,0.2723821927163572,-1.2253325918796543e-05
0.2731763098962882,-2.0309538283813883e-05,0.2731763098962882,0.0005389087125531,0.2731763098962882,-9.902969145805007e-06,0.2731763098962882,-1.3594753135255533e-05
0.2739704270762193,-1.9638883850347624e-05,0.2739704270762193,0.0003972332132057,0.2739704270762193,-9.567651917967224e-06,0.2739704270762193,-1.0912135401390485e-05
0.2747645442561504,-1.6451030551996197e-05,0.2747645442561504,0.0002285398243305,0.2747645442561504,-7.55437611423718e-06,0.2747645442561504,-1.2252229253348648e-05
0.2755586614360815,-7.557013271848614e-06,0.2755586614360815,7.777847120045412e-05,0.2755586614360815,-1.0237654860846e-05,0.2755586614360815,-1.5273011708857683e-05
0.2763527786160125,1.843719203937892e-06,0.2763527786160125,-1.0214276844017092e-05,0.2763527786160125,-1.2252438398453938e-05,0.2763527786160125,-1.426748080077303e-05
0.2771468957959436,1.8629097152497097e-05,0.2771468957959436,-4.447550620663282e-05,0.2771468957959436,-1.0239064342330297e-05,0.2771468957959436,-1.2588920285275247e-05
0.2779410129758747,2.870236184053504e-05,0.2779410129758747,-4.783686833409351e-05,0.2779410129758747,-8.89604291672176e-06,0.2779410129758747,-1.225299451385247e-05
0.2787351301558057,3.860541005870023e-05,0.2787351301558057,-3.977969467714878e-05,0.2787351301558057,-1.0909979884238796e-05,0.2787351301558057,-1.191735502935011e-05
0.2795292473357368,3.9274663415764907e-05,0.2795292473357368,-3.6098357362313216e-05,0.2795292473357368,-9.567201117970171e-06,0.2795292473357368,-1.2252477794925434e-05
0.2803233645156679,3.273583263394512e-05,0.2803233645156679,-7.063686090792122e-05,0.2803233645156679,-8.896546684503865e-06,0.2803233645156679,-1.0575841711259665e-05
0.2811174816955989,1.998242714117314e-05,0.2811174816955989,-0.0001760051911741,0.2811174816955989,-1.2250808636409138e-05,0.2811174816955989,-4.871355309618373e-06
0.2819115988755301,1.1921370251422208e-05,0.2819115988755301,-0.0002606272625621,0.2819115988755301,-1.1581939187618516e-05,0.2819115988755301,-2.518927151612865e-06
0.2827057160554611,7.890350603704012e-06,0.2827057160554611,-0.0002950666949022,0.2827057160554611,-8.561390451883976e-06,0.2827057160554611,-5.5379495481160246e-06
0.2834998332353922,-4.529321238651113e-06,0.2834998332353922,-0.0003187410291965,0.2834998332353922,-1.023844746507994e-05,0.2834998332353922,-5.53903e-06
0.2842939504153233,-1.7623382398016132e-05,0.2842939504153233,-0.0003106895031533,0.2842939504153233,-1.2924232286388236e-05,0.2842939504153233,-6.210378072221552e-06
0.2850880675952543,-1.762377131498335e-05,0.2850880675952543,-0.0002667051697294,0.2850880675952543,-1.49388857900111e-05,0.2850880675952543,-1.0575000128262795e-05
0.2858821847751854,-1.2587684413679168e-05,0.2858821847751854,-0.0001864580320721,0.2858821847751854,-1.82956e-05,0.2858821847751854,-1.6449785928163398e-05
0.2866763019551165,-8.224099984514574e-06,0.2866763019551165,-8.774529114298507e-05,0.2866763019551165,-1.8295727504820905e-05,0.2866763019551165,-1.89667449903582e-05
0.2874704191350475,-6.8828011064773e-06,0.2874704191350475,1.7211728138678484e-05,0.2874704191350475,-1.863105472155405e-05,0.2874704191350475,-1.829609055689189e-05
0.2882645363149786,-6.88182e-06,0.2882645363149786,0.000114584147486,0.2882645363149786,-1.963781186752515e-05,0.2882645363149786,-1.82956e-05
0.2890586534949096,-1.0572888498215356e-05,0.2890586534949096,0.000154235713149,0.2890586534949096,-2.0309506998088597e-05,0.2890586534949096,-2.165113499044297e-05
0.2898527706748408,-1.2923721295728306e-05,0.2898527706748408,0.0001062628646409,0.2898527706748408,-1.8296181746518598e-05,0.2898527706748408,-1.930337870427169e-05
0.2906468878547718,-1.560962068359604e-05,0.2906468878547718,6.560202118672227e-06,0.2906468878547718,-1.493907414550495e-05,0.2906468878547718,-1.9638352585449505e-05
0.2914410050347029,-2.131691277127842e-05,0.2914410050347029,-6.596455951023055e-05,0.2914410050347029,-1.5609997871347915e-05,0.2914410050347029,-1.963839148539166e-05
0.292235122214634,-2.3330689984264136e-05,0.292235122214634,-4.378699791338415e-05,0.292235122214634,-1.5274248328145312e-05,0.292235122214634,-1.8295289968871865e-05
0.293029239394565,-2.131664726558685e-05,0.293029239394565,9.722998721841696e-05,0.293029239394565,-1.4937386947086932e-05,0.293029239394565,-1.6280995649028976e-05
0.2938233565744961,-2.0478279279277235e-05,0.2938233565744961,0.000247456280648,0.2938233565744961,-1.091346034628908e-05,0.2938233565744961,-1.493968678209636e-05
0.2946174737544272,-1.7626091170173028e-05,0.2946174737544272,0.0003002470689588,0.2946174737544272,-7.5554449318172895e-06,0.2946174737544272,-1.4603122494507283e-05
0.2954115909343582,-1.930183524347648e-05,0.2954115909343582,0.000236867687642,0.2954115909343582,-7.049929426957056e-06,0.2954115909343582,-1.5273954097390592e-05
0.2962057081142893,-1.8967123408102124e-05,0.2962057081142893,0.000140861294276,0.2962057081142893,-6.21072852025531e-06,0.2962057081142893,-1.0911804305327609e-05
0.2969998252942204,-2.165200908080403e-05,0.2969998252942204,7.907059118551382e-05,0.2969998252942204,-3.3576078494453943e-06,0.2969998252942204,-3.526455021187945e-06
0.2977939424741515,-1.997422160848458e-05,0.2977939424741515,4.146152401556444e-05,0.2977939424741515,-8.559933015146817e-06,0.2977939424741515,-4.196181356606168e-06
0.2985880596540825,-1.7624502658067973e-05,0.2985880596540825,-5.711762951813523e-06,0.2985880596540825,-1.09102e-05,0.2985880596540825,-3.0211512817188453e-06
0.2993821768340136,-2.16526e-05,0.2993821768340136,-7.084327832073469e-05,0.2993821768340136,-1.0911545764749252e-05,0.2993821768340136,-1.175799791918228e-06
0.3001762940139447,-2.164788224484692e-05,0.3001762940139447,-0.0001196809727016,0.3001762940139447,-1.6954041515487205e-05,0.3001762940139447,-5.037031886962426e-06
0.3009704111938757,-8.905457997882392e-06,0.3009704111938757,-0.0001304110440812,0.3009704111938757,-2.0307313682818748e-05,0.3009704111938757,-9.228602118336168e-06
0.3017645283738068,-1.5150268185624049e-06,0.3017645283738068,-0.000121360383904,0.3017645283738068,-2.03098e-05,0.3017645283738068,-1.4935210177826486e-05
0.3025586455537379,5.026488546501205e-07,0.3025586455537379,-0.0001122950462228,0.3025586455537379,-2.1316450424646624e-05,0.3025586455537379,-2.064295240633088e-05
0.3033527627336689,-8.557601500840546e-06,0.3033527627336689,-0.0001156469968475,0.3033527627336689,-2.433719719264572e-05,0.3033527627336689,-2.433699656214868e-05
0.3041468799136,-9.06378384193109e-06,0.3041468799136,-0.0001109487108388,0.3041468799136,-2.635199536772436e-05,0.3041468799136,-2.43381e-05
0.3049409970935311,9.231643028330991e-06,0.3049409970935311,-8.509969461910665e-05,0.3049409970935311,-2.5009504915373343e-05,0.3049409970935311,-2.265960614421668e-05
0.3057351142734621,2.198878312920055e-05,0.3057351142734621,-5.92483359820695e-05,0.3057351142734621,-2.06455e-05,0.3057351142734621,-2.5680803371281464e-05
0.3065292314533932,2.5344906796588274e-05,0.3065292314533932,-4.2124091610145886e-05,0.3065292314533932,-2.064442492082368e-05,0.3065292314533932,-2.5008131746525587e-05
0.3073233486333243,2.433892514638874e-05,0.3073233486333243,-2.1166190508798997e-05,0.3073233486333243,-1.695582553675872e-05,0.3073233486333243,-2.0313650601214545e-05
0.3081174658132554,1.9306087712763025e-05,0.3081174658132554,-1.0206510528858757e-06,0.3081174658132554,-1.091426533604914e-05,0.3081174658132554,-1.729053266802457e-05
0.3089115829931864,1.3263273558402694e-05,0.3089115829931864,3.5224498417019305e-06,0.3089115829931864,-6.212888312698145e-06,0.3089115829931864,-1.628192892640045e-05
0.3097057001731175,7.8909382457842e-06,0.3097057001731175,-1.3924908215361943e-05,0.3097057001731175,-4.364777207010215e-06,0.3097057001731175,-1.527468029679257e-05
0.3104998173530486,4.53270221934874e-06,0.3104998173530486,-2.2993215018339964e-05,0.3104998173530486,-4.867514166407588e-06,0.3104998173530486,-1.5777684177909285e-05
0.3112939345329796,-3.352966535247069e-07,0.3112939345329796,-1.2421671890436776e-05,0.3112939345329796,-8.224333209725428e-06,0.3112939345329796,-1.7959720081127042e-05
0.3120880517129107,-6.882301006923258e-06,0.3120880517129107,-1.829892331002154e-05,0.3120880517129107,-1.1078242112810248e-05,0.3120880517129107,-1.4938359495887074e-05
0.3128821688928418,-1.4269056566262864e-05,0.3128821688928418,-6.93354458991085e-05,0.3128821688928418,-1.3260028592787152e-05,0.3128821688928418,-1.124611422163854e-05
0.3136762860727728,-2.2996749579318478e-05,0.3136762860727728,-0.0001339495566487,0.3136762860727728,-1.2924460381146271e-05,0.3136762860727728,-1.2253483193106155e-05
0.314470403252704,-2.7020676180116608e-05,0.314470403252704,-0.0001493744088405,0.314470403252704,-1.3092074045036135e-05,0.314470403252704,-1.359479206003887e-05
0.315264520432635,-2.83656889634034e-05,0.315264520432635,-0.0001352945162466,0.315264520432635,-1.5608479276181913e-05,0.315264520432635,-1.4937788963403395e-05
0.3160586376125661,-3.105087427242762e-05,0.3160586376125661,-9.686654292921486e-05,0.3160586376125661,-1.6952187136213812e-05,0.3160586376125661,-1.5609693568106907e-05
0.3168527547924971,-3.5750448581584464e-05,0.3168527547924971,-3.5099575692242166e-05,0.3168527547924971,-1.69528e-05,0.3168527547924971,-1.5106555524557229e-05
0.3176468719724282,-2.5011232145323603e-05,0.3176468719724282,2.38251003058018e-05,0.3176468719724282,-1.4435405979622409e-05,0.3176468719724282,-1.2253460093039393e-05
0.3184409891523593,-8.224839315435117e-06,0.3184409891523593,6.29429656935839e-05,0.3184409891523593,-1.426720229248628e-05,0.3184409891523593,-1.2253e-05
0.3192351063322903,5.031883466964639e-07,0.3192351063322903,9.249153105036584e-05,0.3192351063322903,-1.3931904611774397e-05,0.3192351063322903,-8.896459567299019e-06
0.3200292235122214,-2.1849658059050435e-06,0.3200292235122214,0.0001420218493739,0.3200292235122214,-1.6952988762396835e-05,0.3200292235122214,-1.225337752479367e-05
0.3208233406921525,-1.2580069569051454e-05,0.3208233406921525,0.0002196505495479,0.3208233406921525,-1.7623643195863145e-05,0.3208233406921525,-1.3594686391726287e-05
0.3216174578720835,-1.627887869552007e-05,0.3216174578720835,0.0002690283068182,0.3216174578720835,-1.829514158100365e-05,0.3216174578720835,-1.2253916837992702e-05
0.3224115750520147,-2.189585963005065e-06,0.3224115750520147,0.0002925484233593,0.3224115750520147,-1.5275916996659933e-05,0.3224115750520147,-1.376279152842998e-05
0.3232056922319457,1.5267533622422706e-05,0.3232056922319457,0.0002663871493686,0.3232056922319457,-1.5609869876907033e-05,0.3232056922319457,-1.829384331886408e-05
0.3239998094118768,2.534278262729192e-05,0.3239998094118768,0.0001846536212153,0.3239998094118768,-1.4938761159780777e-05,0.3239998094118768,-1.82956e-05
0.3247939265918079,2.33311862201267e-05,0.3247939265918079,5.943017661982569e-05,0.3247939265918079,-1.2253248293502267e-05,0.3247939265918079,-1.7792046559654354e-05
0.3255880437717389,1.728809285667395e-05,0.3255880437717389,-9.819700030310046e-05,0.3255880437717389,-1.124582597394072e-05,0.3255880437717389,-1.3595688960911075e-05
0.32638216095167,9.899221184352044e-06,0.32638216095167,-0.0001925252456204,0.32638216095167,-9.9031e-06,0.32638216095167,-1.158091950485309e-05
0.3271762781316011,-9.23306059655933e-06,0.3271762781316011,-0.0002035791552991,0.3271762781316011,-9.9025127784766e-06,0.3271762781316011,-8.223905333472217e-06
0.3279703953115321,-1.3089263655618537e-05,0.3279703953115321,-0.0001412084927646,0.3279703953115321,-8.225886683706173e-06,0.3279703953115321,-6.211952021968636e-06
0.3287645124914632,-1.124703361084562e-05,0.3287645124914632,-2.3738840395807112e-05,0.3287645124914632,-9.566585533421707e-06,0.3287645124914632,-3.190995037521344e-06
0.3295586296713942,-1.3259160559348045e-05,0.3295586296713942,3.2033208948551884e-05,0.3295586296713942,-8.560779720325978e-06,0.3295586296713942,-1.175879440651955e-06
0.3303527468513254,-1.577699728914594e-05,0.3303527468513254,1.125253584295939e-05,0.3303527468513254,-8.392513515119694e-06,0.3303527468513254,-8.393530283264264e-07
0.3311468640312564,-1.4603101196066564e-05,0.3311468640312564,-1.42628310023271e-05,0.3311468640312564,-1.3594908952641926e-05,0.3311468640312564,-5.53822518422461e-06
0.3319409812111875,-9.90321121367886e-06,0.3319409812111875,-2.0981041123315915e-05,0.3319409812111875,-1.4938568224663182e-05,0.3319409812111875,-1.2252841124025818e-05
0.3327350983911186,-4.867130809561898e-06,0.3327350983911186,-2.5680484006316005e-05,0.3327350983911186,-1.8631674394315598e-05,0.3327350983911186,-1.6617307996842e-05
0.3335292155710496,-8.383357245338532e-07,0.3335292155710496,-2.232207946859112e-05,0.3335292155710496,-2.165205383244258e-05,0.3335292155710496,-1.8295508972073763e-05
0.3343233327509807,2.514922458344209e-06,0.3343233327509807,-1.5615635022881486e-05,0.3343233327509807,-1.9640090532043652e-05,0.3343233327509807,-1.796018175534061e-05
0.3351174499309118,4.5305346049662366e-06,0.3351174499309118,-4.613733654213906e-05,0.3351174499309118,-2.0644802299019207e-05,0.3351174499309118,-1.896630229901921e-05
0.3359115671108428,6.545021862706042e-06,0.3359115671108428,-8.876905603306384e-05,0.3359115671108428,-1.94711406105285e-05,0.3359115671108428,-2.0309067904836025e-05
0.3367056842907739,1.177075681462239e-06,0.3367056842907739,-0.0001089259912839,0.3367056842907739,-2.064503279805962e-05,0.3367056842907739,-2.131649955823476e-05
0.337499801470705,3.859858503413894e-06,0.337499801470705,-0.0001156463212522,0.337499801470705,-2.0981116062614192e-05,0.337499801470705,-2.13169e-05
0.338293918650636,7.888497271850636e-06,0.338293918650636,-0.0001122913439418,0.338293918650636,-1.8295875153465647e-05,0.338293918650636,-1.896724075928244e-05
0.3390880358305671,6.54612e-06,0.3390880358305671,-9.701569565521604e-05,0.3390880358305671,-1.4938448509806251e-05,0.3390880358305671,-1.6952807572253356e-05
0.3398821530104982,6.5450849283025074e-06,0.3398821530104982,-7.03261476381697e-05,0.3398821530104982,-1.1581923461109893e-05,0.3398821530104982,-1.7120341231112084e-05
0.3406762701904293,1.1753963669288988e-06,0.3406762701904293,-5.656291816535551e-05,0.3406762701904293,-1.3260670458661124e-05,0.3406762701904293,-1.5778655704984796e-05
0.3414703873703603,2.516705233861423e-06,0.3414703873703603,-4.985637383069289e-05,0.3414703873703603,-1.4937306542326778e-05,0.3414703873703603,-1.8293659774960003e-05
0.3422645045502914,-5.534002639359884e-06,0.3422645045502914,-2.1670195702961165e-05,0.3422645045502914,-1.1919185267259955e-05,0.3422645045502914,-2.030854315516003e-05
0.3430586217302225,-1.4263041809919532e-05,0.3430586217302225,3.538901183592159e-05,0.3430586217302225,-1.2923920207187755e-05,0.3430586217302225,-1.6283319171248973e-05
0.3438527389101535,-1.896545457171232e-05,0.3438527389101535,4.883968452348949e-05,0.3438527389101535,-1.2253220775469667e-05,0.3438527389101535,-1.4267862326409004e-05
0.3446468560900846,-1.6953165067193382e-05,0.3446468560900846,1.3266549484167056e-05,0.3446468560900846,-9.567896754445374e-06,0.3446468560900846,-9.232622666170986e-06
0.3454409732700157,-2.33307852781036e-05,0.3454409732700157,-3.64216274099483e-05,0.3454409732700157,-8.896032602659253e-06,0.3454409732700157,-3.8607108206007226e-06
0.3462350904499467,-3.306641472561886e-05,0.3462350904499467,-5.253047099964447e-05,0.3462350904499467,-8.560424725618863e-06,0.3462350904499467,-7.553717142070066e-06
0.3470292076298778,-3.407155883226433e-05,0.3470292076298778,3.0462333241709066e-06,0.3470292076298778,-9.567936045312778e-06,0.3470292076298778,-1.1917475349308158e-05
0.3478233248098089,-2.702968728086809e-05,0.3478233248098089,9.844638697335818e-05,0.3478233248098089,-1.157988935681636e-05,0.3478233248098089,-1.2588129782774468e-05
0.34861744198974,-1.243106268013317e-05,0.34861744198974,0.0001589105339433,0.34861744198974,-1.510392282800448e-05,0.34861744198974,-1.292416407551098e-05
0.349411559169671,-4.87182353452873e-06,0.349411559169671,0.0001274155193967,0.349411559169671,-1.4938693162883124e-05,0.349411559169671,-1.6279536187135606e-05
0.3502056763496021,4.192535388041251e-06,0.3502056763496021,1.263549858390969e-05,0.3502056763496021,-1.560972632383233e-05,0.3502056763496021,-2.0308157942993976e-05
0.3509997935295332,1.2250904930651597e-05,0.3509997935295332,-0.0001216560821255,0.3509997935295332,-1.6281225410237536e-05,0.3509997935295332,-2.232337625671645e-05
0.3517939107094642,1.0574688758393256e-05,0.3517939107094642,-0.0002109769580759,0.3517939107094642,-1.62814e-05,0.3517939107094642,-1.963870200218355e-05
0.3525880278893953,5.539100748792465e-06,0.3525880278893953,-0.0002237412784445,0.3525880278893953,-1.4267176416952094e-05,0.3525880278893953,-1.4434958731422425e-05
0.3533821450693264,7.554722688011153e-06,0.3533821450693264,-0.0001747148077235,0.3533821450693264,-1.3595861334726556e-05,0.3533821450693264,-1.3260038665273443e-05
0.3541762622492574,1.577741243188351e-05,0.3541762622492574,-8.608222689929228e-05,0.3541762622492574,-1.3931610738460043e-05,0.3541762622492574,-1.2924178523079912e-05
0.3549703794291886,1.4603817117794111e-05,0.3549703794291886,-1.1975211668120294e-05,0.3549703794291886,-1.4266937955193222e-05,0.3549703794291886,-1.2253524089613556e-05
0.3557644966091196,1.1248028316354403e-05,0.3557644966091196,-4.043360937438691e-05,0.3557644966091196,-1.2589764158177203e-05,0.3557644966091196,-1.2253e-05
0.3565586137890507,8.561616302598763e-06,0.3565586137890507,-6.628782688795212e-05,0.3565586137890507,-1.627960382723854e-05,0.3565586137890507,-1.493729369253712e-05
0.3573527309689818,-8.360611484620027e-07,0.3573527309689818,-3.580488198278857e-07,0.3573527309689818,-1.846266067294499e-05,0.3573527309689818,-1.5609772509539535e-05
0.3581468481489128,-8.558833360248934e-06,0.3581468481489128,9.07889692359366e-05,0.3581468481489128,-2.114848638377878e-05,0.3581468481489128,-1.258927781824887e-05
0.3589409653288439,-8.895995341174928e-06,0.3589409653288439,0.0001428377278777,0.3589409653288439,-2.3163112047049568e-05,0.3589409653288439,-1.426712670587464e-05
0.3597350825087749,-1.1582227918795154e-05,0.3597350825087749,0.0001354473720306,0.3597350825087749,-2.0309486040602424e-05,0.3597350825087749,-1.62814e-05
0.360529199688706,-1.7623609750326545e-05,0.360529199688706,7.165212185622472e-05,0.360529199688706,-1.728689789374348e-05,0.360529199688706,-1.6281737285527686e-05
0.3613233168686371,-1.5276319233194466e-05,0.3613233168686371,-5.808085631110854e-06,0.3613233168686371,-1.0915680775813546e-05,0.3613233168686371,-1.7623046152460306e-05
0.3621174340485681,-1.1584232101829116e-05,0.3621174340485681,-3.405330039883914e-05,0.3621174340485681,-6.549230651542344e-06,0.3621174340485681,-1.76242e-05
0.3629115512284993,-1.174930515886924e-05,0.3629115512284993,1.4905277795552492e-06,0.3629115512284993,4.99563503667421e-07,0.3629115512284993,-1.242374097937902e-05
0.3637056684084303,-1.091055046806706e-05,0.3637056684084303,9.982922287903108e-05,0.3637056684084303,4.865807464986843e-06,0.3637056684084303,-1.2253070076908546e-05
0.3644997855883614,-1.2588246738116614e-05,0.3644997855883614,0.0002193467278889,0.3644997855883614,-1.5089176129443316e-06,0.3644997855883614,-1.3931046738116614e-05
0.3652939027682925,-1.359567667247778e-05,0.3652939027682925,0.0002710706691627,0.3652939027682925,-5.874185583186212e-06,0.3652939027682925,-1.292452332752222e-05
0.3660880199482235,-1.7791911443956858e-05,0.3660880199482235,0.0002173624529334,0.3660880199482235,-8.224643736114029e-06,0.3660880199482235,-1.225296626388597e-05
0.3668821371281546,-1.4266968091075554e-05,0.3668821371281546,0.0001159663169963,0.3668821371281546,-9.56764190719739e-06,0.3668821371281546,-1.0910084045537776e-05
0.3676762543080857,-1.2924453676599725e-05,0.3676762543080857,1.3567987364291138e-05,0.3676762543080857,-1.091052215556366e-05,0.3676762543080857,-1.023772615451882e-05
0.3684703714880167,-1.3092067340489577e-05,0.3684703714880167,-7.328136221378207e-05,0.3684703714880167,-1.1916503805763124e-05,0.3684703714880167,-6.884473964977966e-06
0.3692644886679478,-1.024063757541278e-05,0.3692644886679478,-0.00012233043658,0.3692644886679478,-1.4601170486952912e-05,0.3692644886679478,-5.875368567392659e-06
0.3700586058478789,-1.2923066832573744e-05,0.3700586058478789,-0.000134776834051,0.3700586058478789,-1.795823354071718e-05,0.3700586058478789,-7.216853416286871e-06
0.3708527230278099,-1.0575319719079748e-05,0.3708527230278099,-0.0001579379200165,0.3708527230278099,-1.6281985513628392e-05,0.3708527230278099,-6.881937102725678e-06
0.371646840207741,-1.2252662202384513e-05,0.371646840207741,-0.0001693577029359,0.371646840207741,-1.5610135119046195e-05,0.371646840207741,-8.89560464487391e-06
0.3724409573876721,-1.1581636032641034e-05,0.3724409573876721,-0.0001629823422939,0.3724409573876721,-1.9638183804153796e-05,0.3724409573876721,-6.881928097386425e-06
0.3732350745676032,-8.224531183733864e-06,0.3732350745676032,-0.0001451853655295,0.3732350745676032,-1.896712610752844e-05,0.3732350745676032,-1.0239146795703209e-05
0.3740291917475342,-7.384479353204766e-06,0.3740291917475342,-9.583404614159348e-05,0.3740291917475342,-2.0310123872438965e-05,0.3740291917475342,-1.393214774487793e-05
0.3748233089274653,-3.695889958035412e-06,0.3748233089274653,-6.33075058963844e-05,0.3748233089274653,-2.1651432739371585e-05,0.3748233089274653,-1.6614765478743164e-05
0.3756174261073964,-5.8731428506086e-06,0.3756174261073964,-5.522822334751729e-05,0.3756174261073964,-2.2658872153839e-05,0.3756174261073964,-1.644932135587928e-05
0.3764115432873274,-5.539223090525259e-06,0.3764115432873274,-7.803676951066363e-05,0.3764115432873274,-2.31629103268238e-05,0.3764115432873274,-1.4939468904487637e-05
0.3772056604672585,-4.532360659224109e-06,0.3772056604672585,-9.684096107057894e-05,0.3772056604672585,-2.165324596745501e-05,0.3772056604672585,-1.49386e-05
0.3779997776471896,-7.552373913951522e-06,0.3779997776471896,-0.0001010438249466,0.3779997776471896,-2.03101760394884e-05,0.3779997776471896,-1.5274205990127902e-05
0.3787938948271206,-4.196674665370591e-06,0.3787938948271206,-0.0001045695330801,0.3787938948271206,-1.8631522333347597e-05,0.3787938948271206,-1.6616922133321926e-05
0.3795880120070517,-4.196280765179631e-06,0.3795880120070517,-0.0001169911319868,0.3795880120070517,-1.76242e-05,0.3795880120070517,-1.829565584186394e-05
0.3803821291869828,-7.55322e-06,0.3803821291869828,-0.000125718836157,0.3803821291869828,-1.762354456317173e-05,0.3803821291869828,-2.198846384293667e-05
0.3811762463669139,-7.552803872337177e-06,0.3811762463669139,-0.0001247029492543,0.3811762463669139,-1.3595591936168589e-05,0.3811762463669139,-2.2995924191494237e-05
0.3819703635468449,-6.211495005404559e-06,0.3819703635468449,-9.552958128749217e-05,0.3819703635468449,-1.292493750270228e-05,0.3819703635468449,-2.500788749189316e-05
0.382764480726776,-6.378160226686846e-06,0.382764480726776,-5.608739663049172e-05,0.382764480726776,-1.4937282720242152e-05,0.382764480726776,-2.2996617279757848e-05
0.3835585979067071,1.171114943223245e-06,0.3835585979067071,-1.3281775309918604e-05,0.3835585979067071,-1.5609659993152594e-05,0.3835585979067071,-2.3666359993152597e-05
0.3843527150866381,4.866304941155969e-06,0.3843527150866381,2.801598346456837e-05,0.3843527150866381,-1.7623477238673256e-05,0.3843527150866381,-2.4337859079557757e-05
0.3851468322665692,2.1826073340356467e-06,0.3851468322665692,4.6154670502125046e-05,0.3851468322665692,-1.863108724894444e-05,0.3851468322665692,-2.500935816596296e-05
0.3859409494465003,7.552878020218732e-06,0.3859409494465003,5.354342977604985e-05,0.3859409494465003,-1.712069618535509e-05,0.3859409494465003,-2.2995428242895497e-05
0.3867350666264313,1.023857464658493e-05,0.3867350666264313,5.690005491840007e-05,0.3867350666264313,-1.561011267754666e-05,0.3867350666264313,-1.9974184508159997e-05
0.3875291838063624,7.551279636921893e-06,0.3875291838063624,4.682116837932709e-05,0.3875291838063624,-1.69528e-05,0.3875291838063624,-2.09808119258122e-05
0.3883233009862935,-8.318668191633821e-07,0.3883233009862935,9.097066263646816e-06,0.3883233009862935,-1.69528e-05,0.3883233009862935,-1.9304175842146308e-05
0.3891174181662246,-6.877392073496501e-06,0.3891174181662246,2.7681447248475723e-05,0.3891174181662246,-1.7288254003024666e-05,0.3891174181662246,-1.9973608006049333e-05
0.3899115353461556,-8.223824190761147e-06,0.3899115353461556,7.432989304263194e-05,0.3899115353461556,-1.5610982268863647e-05,0.3899115353461556,-1.963859645377273e-05
0.3907056525260867,-1.0237918540955496e-05,0.3907056525260867,5.757964548474379e-05,0.3907056525260867,-1.3261128373990876e-05,0.3907056525260867,-1.29273382114025e-05
0.3914997697060178,-8.22519420130484e-06,0.3914997697060178,1.2601747169242408e-05,0.3914997697060178,-1.4266907897897364e-05,0.3914997697060178,-1.0239578938940356e-05
0.3922938868859488,-7.553315646905271e-06,0.3922938868859488,4.212599148773132e-05,0.3922938868859488,-1.4938504351670118e-05,0.3922938868859488,-8.896201295235152e-06
0.3930880040658799,-8.224599685825228e-06,0.3930880040658799,0.0001428404091278,0.3930880040658799,-1.3931482809623367e-05,0.3930880040658799,-8.224599685825228e-06
0.393882121245811,-6.210727571914437e-06,0.393882121245811,0.000222741126224,0.393882121245811,-1.0574551262240245e-05,0.393882121245811,-6.210214952566051e-06
0.394676238425742,-8.224912035930574e-06,0.394676238425742,0.0002563053959881,0.394676238425742,-1.0910602714574098e-05,0.394676238425742,-4.867025931137917e-06
0.3954703556056732,-9.230893686130109e-06,0.3954703556056732,0.0002542936324656,0.3954703556056732,-1.2251911581506813e-05,0.3954703556056732,-2.8550726196341938e-06
0.3962644727856042,-8.560755808243461e-06,0.3962644727856042,0.0002100084237424,0.3962644727856042,-9.569193226333862e-06,0.3962644727856042,-1.8470087123651903e-06
0.3970585899655353,-1.5103019493061553e-05,0.3970585899655353,0.0001515981643867,0.3970585899655353,-9.56741e-06,0.3970585899655353,-2.5173932781617005e-06
0.3978527071454664,-1.5274238072700005e-05,0.3978527071454664,6.532522104250194e-05,0.3978527071454664,-1.0238552368255252e-05,0.3978527071454664,-1.5110114531496374e-06
0.3986468243253974,-1.493867427451394e-05,0.3986468243253974,-4.915447250137213e-05,0.3986468243253974,-9.90317427451394e-06,0.3986468243253974,-3.692197217871904e-06
0.3994409415053285,-1.2253197850490891e-05,0.3994409415053285,-0.0001341057429708,0.3994409415053285,-9.567434730574652e-06,0.3994409415053285,-5.203218709098874e-06
0.4002350586852595,-9.064306609607288e-06,0.4002350586852595,-0.0001532413354087,0.4002350586852595,-7.721107217097718e-06,0.4002350586852595,-5.875042553107628e-06
0.4010291758651906,-1.5107179757497434e-05,0.4010291758651906,-9.011636043999376e-05,0.4010291758651906,-8.225686779425498e-06,0.4010291758651906,-1.0239245569392417e-05
0.4018232930451217,-1.862816547767228e-05,0.4018232930451217,-5.949648573576484e-06,0.4018232930451217,-1.3087871488684168e-05,0.4018232930451217,-1.2251208869791344e-05
0.4026174102250527,-1.2928639026002833e-05,0.4026174102250527,1.4252238791177871e-05,0.4026174102250527,-1.3595425931154388e-05,0.4026174102250527,-1.493660516423396e-05
0.4034115274049838,1.6697982455479058e-06,0.4034115274049838,-5.115503698127293e-05,0.4034115274049838,-1.35958e-05,0.4034115274049838,-1.6951601132391095e-05
0.4042056445849149,7.718365183772251e-06,0.4042056445849149,-0.000170817429457,0.4042056445849149,-1.3763524888348518e-05,0.4042056445849149,-1.8966098391606577e-05
0.404999761764846,8.413108518901456e-07,0.404999761764846,-0.0002606430563241,0.404999761764846,-1.2589052522018252e-05,0.404999761764846,-1.6953404349177942e-05
0.4057938789447771,-1.4264896833516651e-05,0.4057938789447771,-0.000256977563044,0.4057938789447771,-1.1581753544981088e-05,0.4057938789447771,-1.644927678011367e-05
0.4065879961247081,-1.6617088530795525e-05,0.4065879961247081,-0.0001921873162218,0.4065879961247081,-1.2924393446168873e-05,0.4065879961247081,-1.7959892626695943e-05
0.4073821133046392,1.2928184460568946e-05,0.4073821133046392,-0.0001247072095397,0.4073821133046392,-1.644955929272104e-05,0.4073821133046392,-2.1988539509453887e-05
0.4081762304845703,3.944479465074278e-05,0.4081762304845703,-9.114025084693532e-05,0.4081762304845703,-1.8966805349257217e-05,0.4081762304845703,-2.3666213402134817e-05
0.4089703476645013,4.011544908420909e-05,0.4089703476645013,-8.476913361795885e-05,0.4089703476645013,-1.829615091579091e-05,0.4089703476645013,-2.1989677207422493e-05
0.4097644648444324,3.323883832945213e-05,0.4097644648444324,-7.268684541821833e-05,0.4097644648444324,-1.6282757569703052e-05,0.4097644648444324,-2.2994621282548415e-05
0.4105585820243635,3.038220213284474e-05,0.4105585820243635,-4.801788872450837e-05,0.4105585820243635,-1.3597213747316574e-05,0.4105585820243635,-2.0982260257845663e-05
0.4113526992042945,2.26625250298758e-05,0.4113526992042945,-4.011898859854e-05,0.4113526992042945,-1.6951528247880087e-05,0.4113526992042945,-1.930333587605996e-05
0.4121468163842256,9.90604999323131e-06,0.4121468163842256,-3.776664342406571e-05,0.4121468163842256,-1.42678210560751e-05,0.4121468163842256,-1.7288965792056322e-05
0.4129409335641567,1.5113422168226944e-06,0.4129409335641567,-5.606006917258114e-05,0.4129409335641567,-1.22531685328407e-05,0.4129409335641567,-1.963820337835252e-05
0.4137350507440878,-6.210548725735688e-06,0.4137350507440878,-9.651284945768826e-05,0.4137350507440878,-1.6952928726374783e-05,0.4137350507440878,-2.0309778545604204e-05
0.4145291679240188,-8.22475181658649e-06,0.4145291679240188,-8.944700754387061e-05,0.4145291679240188,-1.8967e-05,0.4145291679240188,-1.997509269498292e-05
0.4153232851039499,-8.895406250052753e-06,0.4153232851039499,-1.0980838384131738e-05,0.4153232851039499,-1.8967e-05,0.4153232851039499,-2.4669573840293307e-05
0.416117402283881,-4.535215240504478e-06,0.416117402283881,7.764748434204573e-05,0.416117402283881,-1.0916265087188244e-05,0.416117402283881,-2.46738e-05
0.416911519463812,-3.525439506290789e-06,0.416911519463812,8.610162078091008e-05,0.416911519463812,-7.219754844295375e-06,0.416911519463812,-1.8970453808460207e-05
0.4177056366437431,-6.209191000088148e-06,0.4177056366437431,-2.812729391076657e-06,0.4177056366437431,-1.157960287685934e-05,0.4177056366437431,-1.4940443506732192e-05
0.4184997538236742,-1.023755101790025e-05,0.4184997538236742,-4.346040607804138e-05,0.4184997538236742,-1.426636734113289e-05,0.4184997538236742,-1.3931812247075166e-05
0.4192938710036052,-1.1749154581922062e-05,0.4192938710036052,-1.1251135742711198e-05,0.4192938710036052,-1.3595909078311616e-05,0.4192938710036052,-8.561182624868293e-06
0.4200879881835363,-1.963828259435504e-05,0.4200879881835363,-2.60163801795462e-05,0.4200879881835363,-1.225301998381291e-05,0.4200879881835363,-4.867684955187862e-06
0.4208821053634674,-2.9710057303239792e-05,0.4208821053634674,-3.909954511743597e-05,0.4208821053634674,-1.7624756833982515e-05,0.4208821053634674,-5.874853641748199e-06
0.4216762225433985,-3.541836135828184e-05,0.4216762225433985,3.139541171204314e-05,0.4216762225433985,-2.181941330695473e-05,0.4216762225433985,-6.88191397209921e-06
0.4224703397233295,-4.313088734314439e-05,0.4224703397233295,5.855681637847521e-05,0.4224703397233295,-1.829852747573334e-05,0.4224703397233295,-7.217241188832364e-06
0.4232644569032606,-4.44790815919497e-05,0.4232644569032606,1.046479506810265e-06,0.4232644569032606,-2.097936304709922e-05,0.4232644569032606,-1.0236733441666638e-05
0.4240585740831917,-4.078938078136828e-05,0.4240585740831917,-3.371906222377609e-05,0.4240585740831917,-2.0310160151820035e-05,0.4240585740831917,-9.735530108500837e-06
0.4248526912631227,-2.585460868603803e-05,0.4248526912631227,-7.898960975698716e-06,0.4248526912631227,-1.3598410654148267e-05,0.4248526912631227,-4.53395324918816e-06
0.4256468084430538,-7.222014900629036e-06,0.4256468084430538,9.31319222772676e-05,0.4256468084430538,-4.198497698896999e-06,0.4256468084430538,-1.84698791362592e-06
0.4264409256229849,4.530829384105676e-06,0.4264409256229849,0.0002841511071102,0.4264409256229849,1.845773969370092e-06,0.4264409256229849,-2.182008553697771e-06
0.4272350428029159,1.2588835724057414e-05,0.4272350428029159,0.0004567173665815,0.4272350428029159,4.363618531196759e-06,0.4272350428029159,-6.210682406672674e-06
0.428029159982847,1.510548801727744e-05,0.428029159982847,0.0004449353035307,0.428029159982847,-4.197986424510595e-06,0.428029159982847,-1.1079822642975336e-05
0.4288232771627781,1.0578620535856263e-05,0.4288232771627781,0.0002826377297435,0.4288232771627781,-1.2916464092887189e-05,0.4288232771627781,-1.963061672519465e-05
0.4296173943427092,2.523885636567234e-06,0.4296173943427092,0.0001369081335361,0.4296173943427092,-1.7117399169869348e-05,0.4296173943427092,-2.1315619652691888e-05
0.4304115115226402,-2.850135592159544e-06,0.4304115115226402,5.0575676940968405e-05,0.4304115115226402,-1.6449613052518087e-05,0.4304115115226402,-1.963943263129521e-05
0.4312056287025713,-6.208850178788434e-06,0.4312056287025713,-2.157393781726451e-06,0.4312056287025713,-1.76236505359211e-05,0.4312056287025713,-2.1148293599627583e-05
0.4319997458825024,-7.888372803931302e-06,0.4319997458825024,-7.131376749892622e-05,0.4319997458825024,-1.6449576055490782e-05,0.4319997458825024,-2.131684626407072e-05
0.4327938630624334,-1.847382134548605e-06,0.4327938630624334,-0.000119164749753,0.4327938630624334,-1.4267576319609876e-05,0.4327938630624334,-1.3597131622978837e-05
0.4335879802423645,-2.853414939654121e-06,0.4335879802423645,-0.0001237048872271,0.4335879802423645,-1.3092229238314376e-05,0.4335879802423645,-3.525080602712282e-06
0.4343820974222956,-3.693236059224417e-06,0.4343820974222956,-9.48295277360335e-05,0.4343820974222956,-1.0238758810246043e-05,0.4343820974222956,5.039187055770204e-07
0.4351762146022266,-8.225063091435747e-06,0.4351762146022266,-5.186231898687499e-05,0.4351762146022266,-9.903734331789203e-06,0.4351762146022266,3.5254643290898067e-06
0.4359703317821577,-9.901689186206292e-06,0.4359703317821577,-4.046129350690039e-05,0.4359703317821577,-1.225102484892145e-05,0.4359703317821577,5.872744857326708e-06
0.4367644489620888,-8.56124189949215e-06,0.4367644489620888,-5.990868742613374e-05,0.4367644489620888,-1.5607670233919567e-05,0.4367644489620888,2.184602728808427e-06
0.4375585661420199,-5.876187461779309e-06,0.4375585661420199,-8.944745796960546e-05,0.4375585661420199,-1.7119774576996554e-05,0.4375585661420199,5.044651626558316e-07
0.438352683321951,-4.36468250192437e-06,0.438352683321951,-0.0001243620755784,0.438352683321951,-1.896626358394246e-05,0.438352683321951,-4.194355545934759e-06
0.439146800501882,-1.1757412939898518e-06,0.439146800501882,-0.0001577696075111,0.439146800501882,-1.8967e-05,0.439146800501882,-8.391405667521954e-06
0.4399409176818131,-6.209897945108387e-06,0.4399409176818131,-0.0001621415475609,0.4399409176818131,-1.5946013234179072e-05,0.4399409176818131,-1.2252599757363494e-05
0.4407350348617442,-1.1581430497721172e-05,0.4407350348617442,-0.0001535823242493,0.4407350348617442,-9.902967346233556e-06,0.4407350348617442,-1.393166213345448e-05
0.4415291520416752,-7.720331681800037e-06,0.4415291520416752,-0.0001609720078129,0.4415291520416752,-6.8811779844234e-06,0.4415291520416752,-1.7624777815740167e-05
0.4423232692216063,-3.864078678264107e-06,0.4423232692216063,-0.0001871279302739,0.4423232692216063,-3.5279158059872e-06,0.4423232692216063,-2.064272276633856e-05
0.4431173864015373,-6.208604019028466e-06,0.4431173864015373,-0.0001881582217964,0.4431173864015373,-5.537473438257593e-06,0.4431173864015373,-2.3664365234665797e-05
0.4439115035814684,-6.545910116245559e-06,0.4439115035814684,-0.0001541073028572,0.4439115035814684,-9.90037152994864e-06,0.4439115035814684,-2.718939618931776e-05
0.4447056207613995,-3.190743395965992e-06,0.4447056207613995,-0.0001173445572187,0.4447056207613995,-1.560727421061838e-05,0.4447056207613995,-2.970809746974257e-05
0.4454997379413306,-9.565304860265146e-06,0.4454997379413306,-0.0001042383213276,0.4454997379413306,-2.1650605647712965e-05,0.4454997379413306,-2.97093e-05
0.4462938551212617,-1.6615813664744477e-05,0.4462938551212617,-0.0001008776125414,0.4462938551212617,-2.2995055001659988e-05,0.4462938551212617,-3.1723132475119946e-05
0.4470879723011927,-1.66171e-05,0.4470879723011927,-9.030326887903994e-05,0.4470879723011927,-2.2323923421888145e-05,0.4470879723011927,-3.306625315622371e-05
0.4478820894811238,-1.1244651540991356e-05,0.4478820894811238,-7.284525696045778e-05,0.4478820894811238,-2.2491781078235915e-05,0.4478820894811238,-3.138768650322448e-05
0.4486762066610549,-1.6758720463513906e-07,0.4486762066610549,-6.0934012313967984e-05,0.4486762066610549,-2.232381276044023e-05,0.4486762066610549,-3.0380089141115893e-05
0.4494703238409859,8.383894511166522e-07,0.4494703238409859,-7.904158212860489e-05,0.4494703238409859,-2.1988585432660527e-05,0.4494703238409859,-2.8032798623983814e-05
0.450264441020917,-2.850840334717678e-06,0.450264441020917,-0.0001219957496571,0.450264441020917,-1.913680887507985e-05,0.450264441020917,-2.601801800462093e-05
0.4510585582008481,-3.859969632861637e-06,0.4510585582008481,-0.000121019560317,0.4510585582008481,-1.6282987694836215e-05,0.4510585582008481,-2.0480682022043107e-05
0.4518526753807791,-2.182726234403001e-06,0.4518526753807791,-4.132349606259551e-05,0.4518526753807791,-1.443575488278256e-05,0.4518526753807791,-1.5611990071183058e-05
0.4526467925607102,-6.209367551276765e-06,0.4526467925607102,9.34567868147943e-05,0.4526467925607102,-1.0239896293133328e-05,0.4526467925607102,-1.49387754089914e-05
0.4534409097406413,-8.895704710792183e-06,0.4534409097406413,0.0002237281934864,0.4534409097406413,-6.882201610657196e-06,0.4534409097406413,-1.6281247354827707e-05
0.4542350269205724,-8.392408781746268e-06,0.4542350269205724,0.0002942404780266,0.4542350269205724,-9.231903492122577e-06,0.4542350269205724,-1.4938520326633447e-05
0.4550291441005034,-6.8820025436175945e-06,0.4550291441005034,0.0003083283516072,0.4550291441005034,-1.4938295757616368e-05,0.4550291441005034,-1.2588152365522048e-05
0.4558232612804345,-7.887974204921714e-06,0.4558232612804345,0.0002496465881236,0.4558232612804345,-1.3261659673950596e-05,0.4558232612804345,-9.570217403819e-06
0.4566173784603656,-6.882608345529514e-06,0.4566173784603656,0.0001328604485197,0.4566173784603656,-1.4266411646642527e-05,0.4566173784603656,-1.0909148870017994e-05
0.4574114956402966,-6.88182e-06,0.4574114956402966,4.017485445792583e-05,0.4574114956402966,-1.778976099863688e-05,0.4574114956402966,-1.0574713241249886e-05
0.4582056128202277,-3.526466975596737e-06,0.4582056128202277,2.7701156827750308e-05,0.4582056128202277,-1.9134145207810772e-05,0.4582056128202277,-9.567901089265595e-06
0.4589997300001588,-2.182496615978305e-06,0.4589997300001588,1.058032186307477e-05,0.4589997300001588,-1.896705706041984e-05,0.4589997300001588,-7.21831908051241e-06
0.4597938471800898,-6.880915440859997e-06,0.4597938471800898,-8.877317503092638e-05,0.4597938471800898,-1.8631364611642096e-05,0.4597938471800898,-6.2106138349262935e-06
0.4605879643600209,-5.03556287596848e-06,0.4605879643600209,-0.000208966605539,0.4605879643600209,-1.628150547907662e-05,0.4605879643600209,-1.1581358905865453e-05
0.461382081539952,-1.1748021020773008e-06,0.461382081539952,-0.0002942424821418,0.461382081539952,-1.2252672490777627e-05,0.461382081539952,-1.0910268949526172e-05
0.4621761987198831,1.6822660302255686e-07,0.4621761987198831,-0.000318401105348,0.4621761987198831,-9.063734131575929e-06,0.4621761987198831,-1.1581348263151856e-05
0.4629703158998141,1.6771900883158362e-06,0.4629703158998141,-0.0002828566201522,0.4629703158998141,-8.560743306476233e-06,0.4629703158998141,-1.0575366612952462e-05
0.4637644330797452,1.8462201542005565e-06,0.4637644330797452,-0.0001664221723422,0.4637644330797452,-6.883018450854383e-06,0.4637644330797452,-1.2251801542005564e-05
0.4645585502596763,5.043085890538388e-07,0.4645585502596763,-1.452104200772299e-05,0.4645585502596763,-8.223849412079008e-06,0.4645585502596763,-1.426605910962216e-05
0.4653526674396073,3.357683025968633e-07,0.4653526674396073,0.0001353912202207,0.4653526674396073,-1.0237956373026058e-05,0.4653526674396073,-1.2924962420774906e-05
0.4661467846195384,-1.0067357525781236e-06,0.4661467846195384,0.0002153293271376,0.4661467846195384,-1.4937325132124612e-05,0.4661467846195384,-1.7958534070133515e-05
0.4669409017994695,-1.2251609126768538e-05,0.4669409017994695,0.0002079659134875,0.4669409017994695,-1.695255088726889e-05,0.4669409017994695,-1.8463337728001133e-05
0.4677350189794005,-2.0645463888941545e-05,0.4677350189794005,0.0002385153240163,0.4677350189794005,-1.3931508024414062e-05,0.4677350189794005,-1.4267204011011854e-05
0.4685291361593316,-1.9135834913682667e-05,0.4685291361593316,0.0002939048049671,0.4685291361593316,-1.4267372485613775e-05,0.4685291361593316,-1.443554621300711e-05
0.4693232533392627,-2.5171724814879028e-05,0.4693232533392627,0.0002985995857792,0.4693232533392627,-1.527335413581317e-05,0.4693232533392627,-1.762120471644858e-05
0.4701173705191938,-2.433876539450963e-05,0.4701173705191938,0.000243257913025,0.4701173705191938,-1.6616035432208354e-05,0.4701173705191938,-1.76242e-05
0.4709114876991248,-2.09833659229318e-05,0.4709114876991248,0.0001655491428998,0.4709114876991248,-1.4939682993726658e-05,0.4709114876991248,-1.930161700627334e-05
0.4717056048790559,-8.566491050104591e-06,0.4717056048790559,9.5541030757197e-05,0.4717056048790559,-1.326093527771364e-05,0.4717056048790559,-1.8631634111085453e-05
0.472499722058987,1.842697134958744e-06,0.472499722058987,3.711514704216605e-05,0.472499722058987,-1.1246605074040744e-05,0.472499722058987,-1.695338756170062e-05
0.473293839238918,6.880800466986246e-06,0.473293839238918,-5.530397953951872e-06,0.473293839238918,-1.2252796092587369e-05,0.473293839238918,-1.7288432030862455e-05
0.4740879564188491,1.0574297315813429e-05,0.4740879564188491,-1.6448601161505517e-05,0.4740879564188491,-1.0910273703739756e-05,0.4740879564188491,-1.4938728981544576e-05
0.4748820735987802,1.0574219946445104e-05,0.4748820735987802,-1.5615227673155575e-05,0.4748820735987802,-1.0910448938141128e-05,0.4748820735987802,-1.3931313296394154e-05
0.4756761907787112,7.554428380358542e-06,0.4756761907787112,-7.202860787028485e-05,0.4756761907787112,-1.3596202795052667e-05,0.4756761907787112,-1.1916574971304928e-05
0.4764703079586423,1.2584316653565524e-05,0.4764703079586423,-0.0001607227066406,0.4764703079586423,-1.527283887871856e-05,0.4764703079586423,-8.898640009601672e-06
0.4772644251385734,2.0304209870830344e-05,0.4772644251385734,-0.0002203428593287,0.4772644251385734,-9.739270302816425e-06,0.4772644251385734,-4.199632672840523e-06
0.4780585423185045,1.3935176611943296e-05,0.4780585423185045,-0.0002442072609087,0.4780585423185045,-9.567506752945877e-06,0.4780585423185045,3.3308568314269465e-07
0.4788526594984356,1.25892758507565e-05,0.4788526594984356,-0.0002378447355912,0.4788526594984356,-1.0909624153531932e-05,0.4788526594984356,3.859018399483366e-06
0.4796467766783666,5.037604430009409e-06,0.4796467766783666,-0.0002069666864802,0.4796467766783666,-1.4266255805134552e-05,0.4796467766783666,-1.8447348771665865e-06
0.4804408938582977,-7.215882022319292e-06,0.4804408938582977,-0.0001908471539814,0.4804408938582977,-1.4602855123716035e-05,0.4804408938582977,-6.881146858414131e-06
0.4812350110382288,-1.62814233345932e-05,0.4812350110382288,-0.000201586766654,0.4812350110382288,-1.5610065336860957e-05,0.4812350110382288,-8.224656669047377e-06
0.4820291282181598,-1.7959737574202766e-05,0.4820291282181598,-0.0001847990763033,0.4820291282181598,-2.0309366864540704e-05,0.4820291282181598,-1.1582033135459292e-05
0.4828232453980909,-1.6953755924003303e-05,0.4828232453980909,-0.0001666912068218,0.4828232453980909,-1.762674913067547e-05,0.4828232453980909,-1.4264650869324533e-05
0.483617362578022,-1.192134249165001e-05,0.483617362578022,-0.000166674,0.483617362578022,-1.8965922002226664e-05,0.483617362578022,-1.6615213503896663e-05
0.484411479757953,-9.904419737444522e-06,0.484411479757953,-0.0001561069282612,0.484411479757953,-1.7960559868722263e-05,0.484411479757953,-1.963642039383322e-05
0.4852055969378841,-8.89652123403817e-06,0.4852055969378841,-0.0001025831808034,0.4852055969378841,-1.7624370413038173e-05,0.4852055969378841,-2.165157752177096e-05
0.4859997141178152,-8.421468630917508e-07,0.4859997141178152,-4.684996435669919e-05,0.4859997141178152,-2.114773088472918e-05,0.4859997141178152,-2.232365829633417e-05
0.4867938312977463,1.845769389910876e-06,0.4867938312977463,-1.9476313088715985e-05,0.4867938312977463,-1.9806485306531865e-05,0.4867938312977463,-1.963897059181659e-05
0.4875879484776773,2.182018216569615e-06,0.4875879484776773,1.8449567593084043e-06,0.4875879484776773,-1.6952985155913796e-05,0.4875879484776773,-1.8967043566860768e-05
0.4883820656576084,2.5176289609111244e-06,0.4883820656576084,2.7361010058519475e-05,0.4883820656576084,-1.863105016205003e-05,0.4883820656576084,-2.0981338790591875e-05
0.4891761828375395,1.1755576436071685e-06,0.4891761828375395,4.683870143117648e-05,0.4891761828375395,-1.560961397130812e-05,0.4891761828375395,-2.266017905453704e-05
0.4899703000174705,3.85816538857706e-06,0.4899703000174705,8.506590424980264e-05,0.4899703000174705,-1.3932977887642343e-05,0.4899703000174705,-2.5175183124512423e-05
0.4907644171974016,1.0569571890224682e-05,0.4907644171974016,0.0001233409099423,0.4907644171974016,-1.3596046406589778e-05,0.4907644171974016,-2.702234480045664e-05
0.4915585343773327,1.493604077596673e-05,0.4915585343773327,0.0001493707429408,0.4915585343773327,-1.3931303136612826e-05,0.4915585343773327,-2.6520495265759438e-05
0.4923526515572637,5.039825932279489e-06,0.4923526515572637,0.0002414945608945,0.4923526515572637,-1.560926339907715e-05,0.4923526515572637,-2.165473612073404e-05
0.4931467687371948,-1.0234351167707855e-05,0.4931467687371948,0.0003831587382301,0.4931467687371948,-1.2925182215855922e-05,0.4931467687371948,-1.896778221585592e-05
0.4939408859171259,-2.9035198922722487e-05,0.4939408859171259,0.0004231422602233,0.4939408859171259,-1.0910489402676315e-05,0.4939408859171259,-1.829569646755877e-05
0.494735003097057,-3.0548502448282334e-05,0.494735003097057,0.0002710764002865,0.494735003097057,-1.376360982086916e-05,0.494735003097057,-1.628139869057678e-05
0.495529120276988,-5.535220861073099e-06,0.495529120276988,0.000117321717949,0.495529120276988,-1.6280993690718153e-05,0.495529120276988,-1.594575078866023e-05
0.4963232374569191,1.9614250471647836e-05,0.4963232374569191,8.24474876309202e-05,0.4963232374569191,-1.3598375956852727e-05,0.4963232374569191,-1.628107800539341e-05
0.4971173546368502,2.2657144368830977e-05,0.4971173546368502,0.0001193109857367,0.4971173546368502,-1.292494571387756e-05,0.4971173546368502,-1.1585419997142914e-05
0.4979114718167812,1.0918015914245153e-05,0.4979114718167812,0.0001431591451903,0.4979114718167812,-1.0911539882417195e-05,0.4979114718167812,-8.22684313070981e-06
0.4987055889967123,-1.5042105213151575e-06,0.4987055889967123,4.788635041743197e-05,0.4987055889967123,-6.883905236050416e-06,0.4987055889967123,-7.553567535890827e-06
0.4994997061766434,-9.8999943315274e-06,0.4994997061766434,-0.0001129034952194,0.4994997061766434,-5.539526905623419e-06,0.4994997061766434,-1.7058199055022646e-07
0.5002938233565745,-1.1916851895229536e-05,0.5002938233565745,-0.0002358006658759,0.5002938233565745,-3.1896627866741485e-06,0.5002938233565745,2.5171425294199136e-06
0.5010879405365055,-1.4602698872593543e-05,0.5010879405365055,-0.0002902069271999,0.5010879405365055,-5.538854014268261e-06,0.5010879405365055,1.846390281851614e-06
0.5018820577164366,-1.930262679316975e-05,0.5018820577164366,-0.0003029653157495,0.5018820577164366,-2.3498411954465003e-06,0.5018820577164366,2.1821376083800924e-06
0.5026761748963677,-1.829574770493244e-05,0.5026761748963677,-0.000266026598879,0.5026761748963677,-1.6793393011615653e-06,0.5026761748963677,3.524165331763946e-06
0.5034702920762988,-1.8966402138398747e-05,0.5034702920762988,-0.0002006382910608,0.5034702920762988,-5.535592304697497e-06,0.5034702920762988,5.06238361177176e-07
0.5042644092562298,-1.7121973739668962e-05,0.5042644092562298,-0.0001459017114714,0.5042644092562298,-9.564412845858073e-06,0.5042644092562298,-1.6768665423744675e-06
0.5050585264361609,-1.3933402068563488e-05,0.5050585264361609,-0.0001012396293177,0.5050585264361609,-1.09093991224338e-05,0.5050585264361609,-8.388455600240441e-06
0.505852643616092,-1.8629190512479772e-05,0.505852643616092,-8.342908582727162e-05,0.505852643616092,-1.1581298644639967e-05,0.505852643616092,-1.007024659364607e-05
0.506646760796023,-1.8966898865522583e-05,0.506646760796023,-7.368873289984496e-05,0.506646760796023,-1.325959432761294e-05,0.506646760796023,-1.292354037200522e-05
0.507440877975954,-1.628181273019884e-05,0.507440877975954,-5.01905113738716e-05,0.507440877975954,-1.896612294832746e-05,0.507440877975954,-1.6280884087251446e-05
0.5082349951558852,-1.3931514336505431e-05,0.5082349951558852,-7.721329079791658e-06,0.5082349951558852,-2.0309791807711183e-05,0.5082349951558852,-1.7624191807711183e-05
0.5090291123358163,-1.292461345218129e-05,0.5090291123358163,2.584483916063721e-05,0.5090291123358163,-1.79599e-05,0.5090291123358163,-1.7121240384804456e-05
0.5098232295157473,-1.443353598300355e-05,0.5098232295157473,-2.1548735587284868e-06,0.5098232295157473,-1.79599e-05,0.5098232295157473,-2.1648207755178136e-05
0.5106173466956784,-1.2254795352682393e-05,0.5106173466956784,-8.06708661021438e-05,0.5106173466956784,-1.93015951422631e-05,0.5106173466956784,-2.232334765341169e-05
0.5114114638756094,-1.3594893315073514e-05,0.5114114638756094,-8.07355e-05,0.5114114638756094,-1.7625333356158105e-05,0.5114114638756094,-2.23239e-05
0.5122055810555405,-1.2253708512116257e-05,0.5122055810555405,3.815893931901826e-06,0.5122055810555405,-1.6617631384087195e-05,0.5122055810555405,-2.3665991487883743e-05
0.5129996982354716,-6.883861349621493e-06,0.5129996982354716,8.17130004456906e-05,0.5129996982354716,-1.6952672415173587e-05,0.5129996982354716,-2.198893788612646e-05
0.5137938154154027,-7.553063916752381e-06,0.5137938154154027,0.0001233593229316,0.5137938154154027,-1.6281556083247618e-05,0.5137938154154027,-1.9638946291366667e-05
0.5145879325953338,-8.895896007163915e-06,0.5145879325953338,0.0001146417409419,0.5145879325953338,-1.7791871761348987e-05,0.5145879325953338,-1.829571399368501e-05
0.5153820497752648,-7.5532620889358095e-06,0.5153820497752648,9.550521090154542e-05,0.5153820497752648,-1.762405268653054e-05,0.5153820497752648,-1.6281242161005402e-05
0.5161761669551959,-8.224539500805962e-06,0.5161761669551959,7.972212559273124e-05,0.5161761669551959,-1.5274018003223847e-05,0.5161761669551959,-1.3763000767351e-05
0.5169702841351269,-7.889212284072807e-06,0.5169702841351269,4.987810319243395e-05,0.5169702841351269,-1.3932709136291227e-05,0.5169702841351269,-1.0912769369595911e-05
0.5177644013150581,-1.0237028156475754e-05,0.5177644013150581,-8.180820185215581e-06,0.5177644013150581,-1.7285968784193774e-05,0.5177644013150581,-1.0239306243161245e-05
0.5185585184949891,-7.554848614895559e-06,0.5185585184949891,-7.331060598265754e-05,0.5185585184949891,-1.8630485686487925e-05,0.5185585184949891,-8.225831464203816e-06
0.5193526356749202,-8.895393863886818e-06,0.5193526356749202,-0.0001015360609993,0.5193526356749202,-1.963793789447376e-05,0.5193526356749202,-8.895701929649171e-06
0.5201467528548512,-7.218042456751628e-06,0.5201467528548512,-6.798934922841237e-05,0.5201467528548512,-1.7624826951837146e-05,0.5201467528548512,-9.231605508027145e-06
0.5209408700347823,-1.511574125820632e-06,0.5209408700347823,2.506200817172996e-06,0.5209408700347823,-1.3764231919042126e-05,0.5209408700347823,-9.902990104096332e-06
0.5217349872147133,-8.392568110386857e-07,0.5217349872147133,3.84369216065158e-05,0.5217349872147133,-1.2588718918681656e-05,0.5217349872147133,-1.19172675665941e-05
0.5225291043946444,2.3495593855754334e-06,0.5225291043946444,2.511127716761232e-06,0.5225291043946444,-1.42672e-05,0.5225291043946444,-1.695317469141919e-05
0.5233232215745756,-1.6538375213869748e-07,0.5233232215745756,-4.7787695081940005e-05,0.5233232215745756,-1.42672e-05,0.5233232215745756,-1.980340608917468e-05
0.5241173387545066,-3.1866238601286125e-06,0.5241173387545066,-8.070810203417717e-05,0.5241173387545066,-1.4938040856140751e-05,0.5241173387545066,-2.5005166676730976e-05
0.5249114559344377,-4.195539920671011e-06,0.5249114559344377,-9.012855926416424e-05,0.5249114559344377,-1.8628769684002265e-05,0.5249114559344377,-2.618369486519421e-05
0.5257055731143687,8.365387300364021e-07,0.5257055731143687,-7.084277783701071e-05,0.5257055731143687,-1.963785854342661e-05,0.5257055731143687,-2.5010131726217583e-05
0.5264996902942998,4.530489640700472e-06,0.5264996902942998,-3.9456843048585175e-05,0.5264996902942998,-1.561157130786231e-05,0.5264996902942998,-2.3331654711609296e-05
0.5272938074742308,3.525074197357906e-06,0.5272938074742308,-5.8071282385250105e-05,0.5272938074742308,-1.0911339587670227e-05,0.5272938074742308,-2.1317388370468237e-05
0.528087924654162,4.867502576333395e-06,0.528087924654162,-7.066330540787027e-05,0.528087924654162,-7.217870413185283e-06,0.528087924654162,-1.829588670324986e-05
0.528882041834093,5.203223876811161e-06,0.528882041834093,-2.970611630433484e-05,0.528882041834093,-8.224937211628859e-06,0.528882041834093,-1.5610070749143812e-05
0.5296761590140241,3.188837843351641e-06,0.5296761590140241,3.072063017307526e-05,0.5296761590140241,-1.4435906479945958e-05,0.5296761590140241,-1.695286714592186e-05
0.5304702761939551,1.679865368052446e-06,0.5304702761939551,5.1846144938310544e-05,0.5304702761939551,-1.896287385032027e-05,0.5304702761939551,-1.728819436265501e-05
0.5312643933738862,-2.8499775477533373e-06,0.5312643933738862,5.152995647907607e-05,0.5312643933738862,-1.930244352092393e-05,0.5312643933738862,-1.9636604646467524e-05
0.5320585105538173,-5.537374519176597e-06,0.5320585105538173,5.0858713871746926e-05,0.5320585105538173,-1.7289741615240782e-05,0.5320585105538173,-1.6954455486987714e-05
0.5328526277337483,-2.183613922020579e-06,0.5328526277337483,4.414754780653322e-05,0.5328526277337483,-1.7624042607329092e-05,0.5328526277337483,-1.5275086963354536e-05
0.5336467449136795,-4.195582906403137e-06,0.5336467449136795,3.676137268830164e-05,0.5336467449136795,-1.594623924734128e-05,0.5336467449136795,-1.6616668602126976e-05
0.5344408620936105,-6.881353551611262e-06,0.5344408620936105,3.054967865723116e-05,0.5344408620936105,-1.8966475243608706e-05,0.5344408620936105,-1.4938891531328496e-05
0.5352349792735416,-8.224574948008656e-06,0.5352349792735416,2.903793943508912e-05,0.5352349792735416,-1.963838247387381e-05,0.5352349792735416,-1.829551236936905e-05
0.5360290964534726,-6.88198291416169e-06,0.5360290964534726,2.400085231607056e-05,0.5360290964534726,-1.863085198271891e-05,0.5360290964534726,-1.728829635578132e-05
0.5368232136334037,-8.223281792198963e-06,0.5368232136334037,1.1258517969164143e-05,0.5368232136334037,-1.494225259865421e-05,0.5368232136334037,-1.561166027211555e-05
0.5376173308133347,-1.3591273137626184e-05,0.5376173308133347,6.382372459808097e-06,0.5376173308133347,-1.2926097576550695e-05,0.5376173308133347,-1.242348787167882e-05
0.5384114479932659,-1.8292332592885487e-05,0.5384114479932659,3.862280389716265e-06,0.5384114479932659,-1.29244e-05,0.5384114479932659,-1.12467168170175e-05
0.539205565173197,-1.82956e-05,0.539205565173197,-3.5207854754686804e-06,0.539205565173197,-1.1582335372079446e-05,0.539205565173197,-1.0239351529059584e-05
0.539999682353128,-1.896673140036539e-05,0.539999682353128,-3.573900726954645e-05,0.539999682353128,-8.393735844263803e-06,0.539999682353128,-9.232112895451325e-06
0.5407937995330591,-1.5610847566147008e-05,0.5407937995330591,-8.827543565291868e-05,0.5407937995330591,-6.88220140224138e-06,0.5407937995330591,-7.72145140224138e-06
0.5415879167129901,-9.064546660486933e-06,0.5415879167129901,-0.0001466938729187,0.5415879167129901,-4.196511706247819e-06,0.5415879167129901,-5.203594099541771e-06
0.5423820338929212,-4.196029383872655e-06,0.5423820338929212,-0.0001895011760263,0.5423820338929212,-2.182240616212718e-06,0.5423820338929212,-2.85344e-06
0.5431761510728523,5.03548e-07,0.5431761510728523,-0.0001701889528001,0.5431761510728523,-6.882202753998053e-06,0.5431761510728523,-2.8535675833991595e-06
0.5439702682527834,5.03548e-07,0.5439702682527834,-0.0001173756653318,0.5439702682527834,-8.894156065501635e-06,0.5439702682527834,-3.5242120279701235e-06
0.5447643854327144,-1.1736408264306031e-06,0.5447643854327144,-8.881438626338149e-05,0.5447643854327144,-8.89601e-06,0.5447643854327144,-1.5121990116889385e-06
0.5455585026126455,-1.8459194132621808e-06,0.5455585026126455,-0.0001062380645568,0.5455585026126455,-1.2586386779206318e-05,0.5455585026126455,-6.878455318626095e-06
0.5463526197925765,-7.886016511372018e-06,0.5463526197925765,-0.0001498681029572,0.5463526197925765,-1.6279631748170637e-05,0.5463526197925765,-1.0237192507913956e-05
0.5471467369725076,-1.3929498277965212e-05,0.5471467369725076,-0.0001545874430362,0.5471467369725076,-1.661698879303625e-05,0.5471467369725076,-1.3594687930362512e-05
0.5479408541524387,-1.6952245026149696e-05,0.5479408541524387,-5.38980990181312e-05,0.5479408541524387,-2.0309121698627407e-05,0.5479408541524387,-1.7119952539692335e-05
0.5487349713323698,-1.6281424241116987e-05,0.5487349713323698,0.0001057392367015,0.5487349713323698,-2.232382728025957e-05,0.5487349713323698,-1.7624181817356993e-05
0.5495290885123009,-1.560951411756979e-05,0.5495290885123009,0.0002187106909966,0.5495290885123009,-2.3331411131287103e-05,0.5495290885123009,-1.8128167189077625e-05
0.5503232056922319,-1.125026030003878e-05,0.5503232056922319,0.0002428538510455,0.5503232056922319,-2.70200105153518e-05,0.5503232056922319,-2.231970745376533e-05
0.551117322872163,-4.873069425905606e-06,0.551117322872163,0.0001989385038424,0.551117322872163,-2.568204514768206e-05,0.551117322872163,-2.299472742615897e-05
0.551911440052094,-4.532166743717911e-06,0.551911440052094,0.0001428795355661,0.551911440052094,-2.56809e-05,0.551911440052094,-2.232437348743582e-05
0.5527055572320251,8.385252813617414e-06,0.5527055572320251,0.0001165016955471,0.5527055572320251,-2.249357837701375e-05,0.5527055572320251,-2.3330438398453938e-05
0.5534996744119562,2.131160019756154e-05,0.5534996744119562,0.000126051076541,0.5534996744119562,-2.064625709471684e-05,0.5534996744119562,-2.5344374056123783e-05
0.5542937915918873,2.802903774404589e-05,0.5542937915918873,9.98771729268356e-05,0.5542937915918873,-1.8296216798770697e-05,0.5542937915918873,-2.36671405705505e-05
0.5550879087718184,3.205873714910949e-05,0.5550879087718184,3.978720415798096e-05,0.5550879087718184,-1.5778089287551413e-05,0.5550879087718184,-2.232405428363017e-05
0.5558820259517494,3.440897930475432e-05,0.5558820259517494,-8.224950140820064e-06,0.5558820259517494,-1.39315e-05,0.5558820259517494,-2.098103541557408e-05
0.5566761431316805,3.071446595792262e-05,0.5566761431316805,-1.8635772495934178e-05,0.5566761431316805,-1.3931318681867371e-05,0.5566761431316805,-1.594446099456077e-05
0.5574702603116115,1.998409491141662e-05,0.5574702603116115,-4.34498866452307e-05,0.5574702603116115,-1.2925337031668047e-05,0.5574702603116115,-9.070263040427413e-06
0.5582643774915427,1.0246432627940449e-05,0.5582643774915427,-8.439609048063986e-05,0.5582643774915427,-1.0911779164401472e-05,0.5582643774915427,-6.212657141728597e-06
0.5590584946714737,1.7425849474398354e-07,0.5590584946714737,-0.0001223378576432,0.5590584946714737,-4.200502998193147e-06,0.5590584946714737,-3.5265392005501267e-06
0.5598526118514048,-8.72381116700653e-06,0.5598526118514048,-0.0001144768565544,0.5598526118514048,-1.6797208025746128e-06,0.5598526118514048,-1.6949006732932164e-07
0.5606467290313358,-1.1580626205509953e-05,0.5606467290313358,-4.483947197170141e-05,0.5606467290313358,-3.188624459933837e-06,0.5606467290313358,-8.390168721055164e-07
0.5614408462112669,-1.0239060085026172e-05,0.5614408462112669,9.38008463566296e-05,0.5614408462112669,-4.196034938167256e-06,0.5614408462112669,-3.859944811790127e-06
0.5622349633911979,-1.3595645219460137e-05,0.5622349633911979,0.0002180302731522,0.5622349633911979,-2.182132867862851e-06,0.5622349633911979,-5.203268087784054e-06
0.563029080571129,-1.661635151042725e-05,0.563029080571129,0.0001784142526264,0.563029080571129,-5.539302176368044e-06,0.563029080571129,-8.56031e-06
0.5638231977510602,-9.239162731192165e-06,0.5638231977510602,8.234315486579947e-05,0.5638231977510602,-8.221899932442966e-06,0.5638231977510602,-8.56031e-06
0.5646173149309912,-4.871395360150727e-06,0.5646173149309912,2.002782873716936e-05,0.5646173149309912,-1.4597396764725722e-05,0.5646173149309912,-8.224899644415912e-06
0.5654114321109223,-2.854880600127883e-06,0.5654114321109223,-3.85634025170757e-05,0.5654114321109223,-1.9634798481799657e-05,0.5654114321109223,-1.0237359399872116e-05
0.5662055492908533,-8.403893446586523e-07,0.5662055492908533,-7.467241509899068e-05,0.5662055492908533,-2.299339447665685e-05,0.5662055492908533,-1.4264913303870973e-05
0.5669996664707844,-5.036890139680246e-07,0.5669996664707844,-0.00010288015463,0.5669996664707844,-2.2492011501209125e-05,0.5669996664707844,-1.7119401395133836e-05
0.5677937836507154,-5.034245138229157e-06,0.5677937836507154,-0.0001388012127834,0.5677937836507154,-2.1652828665389968e-05,0.5677937836507154,-1.6281628665389967e-05
0.5685879008306466,-9.902492041904313e-06,0.5685879008306466,-0.0001478738679206,0.5685879008306466,-1.9302993498820585e-05,0.5685879008306466,-1.7624032286388236e-05
0.5693820180105776,-2.1988661699579268e-05,0.5693820180105776,-0.0001122907334933,0.5693820180105776,-1.8967e-05,0.5693820180105776,-1.762426091839693e-05
0.5701761351905087,-3.793318643218552e-05,0.5701761351905087,-0.0001005403444519,0.5701761351905087,-1.896677165557855e-05,0.5701761351905087,-2.0309114966735657e-05
0.5709702523704397,-3.374164616749782e-05,0.5709702523704397,-9.081555549980738e-05,0.5709702523704397,-1.7625462788645935e-05,0.5709702523704397,-1.62851883659378e-05
0.5717643695503708,-2.5016430340621295e-05,0.5717643695503708,-6.833245887527623e-05,0.5717643695503708,-1.8462733660794965e-05,0.5717643695503708,-1.493966620624943e-05
0.5725584867303019,-1.7293491127631875e-05,0.5725584867303019,-6.663728497715547e-05,0.5725584867303019,-1.762474248857773e-05,0.5725584867303019,-1.7622463933121596e-05
