X [s],R BICEPS BRACHII: EMG 1 [V],X [s].1,R DELTOID ANTERIOR: EMG 2 [V],X [s].5,R DELTOID MEDIUS: EMG 6 [V],X [s].6,R DELTOID POSTERIOR: EMG 7 [V]
0.0,-6.88182e-06,0.0,-2.16526e-05,0.0,-2.18204e-06,0.0,-1.69528e-05
0.000794117179931,-5.262568394989566e-06,0.000794117179931,-2.26793473675502e-05,0.000794117179931,-1.6093753340418065e-06,0.000794117179931,-1.5224882672334451e-05
0.0015882343598621,-4.670159162239476e-06,0.0015882343598621,-2.3281633001181927e-05,0.0015882343598621,-2.863318216258724e-07,0.0015882343598621,-1.0594277343963703e-05
0.0023823515397932,-5.055225493016886e-06,0.0023823515397932,-2.259050657006972e-05,0.0023823515397932,9.972319745007886e-07,0.0023823515397932,-1.1068163944135087e-05
0.0031764687197242,-4.650413351042097e-06,0.0031764687197242,-2.337049519145567e-05,0.0031764687197242,-1.3032955474529296e-06,0.0031764687197242,-1.1838271336885314e-05
0.0039705858996553,-4.571407199813559e-06,0.0039705858996553,-2.3883913474788248e-05,0.0039705858996553,-1.3724007234651748e-06,0.0039705858996553,-8.856532800186441e-06
0.0047647030795864,-6.88182e-06,0.0047647030795864,-2.327176253718552e-05,0.0047647030795864,-2.85344e-06,0.0047647030795864,-9.152722513281573e-06
0.0055588202595174,-8.145604437140178e-06,0.0055588202595174,-2.2639893117371767e-05,0.0055588202595174,-2.221543075614269e-06,0.0055588202595174,-8.422087306710703e-06
0.0063529374394485,-9.330443297915806e-06,0.0063529374394485,-2.23239e-05,0.0063529374394485,4.640448349655162e-07,0.0063529374394485,-7.632208199205842e-06
0.0071470546193796,-8.659054751135317e-06,0.0071470546193796,-2.078371990853278e-05,0.0071470546193796,1.115704717054739e-06,0.0071470546193796,-6.684330497729365e-06
0.0079411717993107,-7.39524290559869e-06,0.0079411717993107,-1.9263200244758222e-05,0.0079411717993107,2.2708590421382197e-07,0.0079411717993107,-8.856518377605241e-06
0.0087352889792417,-8.580039499776736e-06,0.0087352889792417,-1.969764259705436e-05,0.0087352889792417,2.201767146687272e-06,0.0087352889792417,-8.22461e-06
0.0095294061591728,-8.668922566407863e-06,0.0095294061591728,-1.967788834583123e-05,0.0095294061591728,3.32736021447281e-06,0.0095294061591728,-1.1996274760931694e-05
0.0103235233391039,-7.43477185848685e-06,0.0103235233391039,-2.186983325143784e-05,0.0103235233391039,2.833795575460553e-06,0.0103235233391039,-1.4899020353782872e-05
0.0111176405190349,-6.88182e-06,0.0111176405190349,-2.0961417039860912e-05,0.0111176405190349,1.4711496503545552e-06,0.0111176405190349,-1.6577609650354557e-05
0.011911757698966,-6.012924770047463e-06,0.011911757698966,-2.029005221406569e-05,0.011911757698966,1.84634e-06,0.011911757698966,-1.3477219080189852e-05
0.0127058748788971,-6.88182e-06,0.0127058748788971,-2.0665249116711857e-05,0.0127058748788971,5.519011054694061e-06,0.0127058748788971,-1.3200703822878395e-05
0.0134999920588282,-7.2175142731442035e-06,0.0134999920588282,-1.963841026907309e-05,0.0134999920588282,1.124584273161263e-05,0.0134999920588282,-1.3763608591136667e-05
0.0142941092387592,-5.361227795563806e-06,0.0142941092387592,-1.89275428349587e-05,0.0142941092387592,8.08622566475652e-06,0.0142941092387592,-1.2687420147257814e-05
0.0150882264186903,-5.7365308002359605e-06,0.0150882264186903,-1.93027e-05,0.0150882264186903,2.10316005099239e-06,0.0150882264186903,-1.470134653068696e-05
0.0158823435986214,-4.1567511040661484e-06,0.0158823435986214,-1.93027e-05,0.0158823435986214,9.380682708209068e-07,0.0158823435986214,-1.8177163312198446e-05
0.0166764607785524,-5.2428523776591735e-06,0.0166764607785524,-2.2185689080744395e-05,0.0166764607785524,-3.0509486275147057e-06,0.0166764607785524,-1.6044368682794334e-05
0.0174705779584835,-7.572938463372581e-06,0.0174705779584835,-2.323223235491938e-05,0.0174705779584835,-2.813987779484252e-06,0.0174705779584835,-1.49386e-05
0.0182646951384146,-7.395292962552999e-06,0.0182646951384146,-2.0882506132339887e-05,0.0182646951384146,-2.2610035187235003e-06,0.0182646951384146,-1.3437872962553e-05
0.0190588123183456,-7.197769098321481e-06,0.0190588123183456,-2.011235294787616e-05,0.0190588123183456,-1.7278672541962974e-06,0.0190588123183456,-1.324034909832148e-05
0.0198529294982767,-8.441844677919463e-06,0.0198529294982767,-2.1968438361587467e-05,0.0198529294982767,-2.8631396919009254e-07,0.0198529294982767,-1.0159733081498245e-05
0.0206470466782078,-7.43477185848685e-06,0.0206470466782078,-2.29953e-05,0.0206470466782078,7.404414603121716e-07,0.0206470466782078,-1.008078985423301e-05
0.0214411638581389,-8.26407744222226e-06,0.0214411638581389,-2.09812e-05,0.0214411638581389,1.806872557777741e-06,0.0214411638581389,-9.587143133273146e-06
0.0222352810380699,-8.38257139858178e-06,0.0222352810380699,-2.3192811860048004e-05,0.0222352810380699,1.6883786014182204e-06,0.0222352810380699,-1.170013510496377e-05
0.023029398218001,-6.970684527724493e-06,0.023029398218001,-2.452590310146932e-05,0.023029398218001,2.6954690554489863e-06,0.023029398218001,-1.312188716634696e-05
0.0238235153979321,-8.007346687801556e-06,0.0238235153979321,-2.1257657237941276e-05,0.0238235153979321,3.5550284585834885e-07,0.0238235153979321,-1.2628073023781392e-05
0.0246176325778631,-8.264106076501242e-06,0.0246176325778631,-2.09812e-05,0.0246176325778631,9.972090675791411e-07,0.0246176325778631,-1.35958e-05
0.0254117497577942,-7.158240993806518e-06,0.0254117497577942,-1.971741168188342e-05,0.0254117497577942,3.0903952484516297e-06,0.0254117497577942,-1.1660531490709776e-05
0.0262058669377253,-6.585711099928721e-06,0.0262058669377253,-1.845357030809627e-05,0.0262058669377253,1.3330319687542957e-06,0.0262058669377253,-1.2312111866761704e-05
0.0269999841176564,-5.87472e-06,0.0269999841176564,-1.930267946185383e-05,0.0269999841176564,5.03548e-07,0.0269999841176564,-1.2924411453711592e-05
0.0277941012975874,-5.736478807331362e-06,0.0277941012975874,-1.8611581684574957e-05,0.0277941012975874,2.122836503545551e-06,0.0277941012975874,-1.0298003496454449e-05
0.0285882184775185,-3.979183758480947e-06,0.0285882184775185,-2.0408461911623407e-05,0.0285882184775185,3.3077837584809462e-06,0.0285882184775185,-1.1739325536880434e-05
0.0293823356574496,-4.373858085004688e-06,0.0293823356574496,-2.267933861724928e-05,0.0293823356574496,5.03548e-07,0.0293823356574496,-1.4188253661843888e-05
0.0301764528373806,-6.674475620366126e-06,0.0301764528373806,-2.2244961691576172e-05,0.0301764528373806,1.6093764064706343e-06,0.0301764528373806,-1.2489965005295857e-05
0.0309705700173117,-6.249997605344021e-06,0.0309705700173117,-2.1869828688003767e-05,0.0309705700173117,1.3329338470542203e-06,0.0309705700173117,-1.312181845883734e-05
0.0317646871972428,-4.0383144162645925e-06,0.0317646871972428,-2.410107076301042e-05,0.0317646871972428,1.6884244162645922e-06,0.0317646871972428,-1.2944268832529183e-05
0.0325588043771738,-4.156716742931364e-06,0.0325588043771738,-2.5582171339401533e-05,0.0325588043771738,1.806826742931364e-06,0.0325588043771738,-1.1285413257068636e-05
0.0333529215571049,-5.855010382266041e-06,0.0333529215571049,-2.402225865392806e-05,0.0333529215571049,2.467993183696568e-07,0.0333529215571049,-1.2687457902127335e-05
0.034147038737036,-6.56574724397205e-06,0.034147038737036,-2.29953e-05,0.034147038737036,1.5302672439720496e-06,0.034147038737036,-1.07721303413706e-05
0.0349411559169671,-7.849454599156723e-06,0.0349411559169671,-2.284726021919696e-05,0.0349411559169671,3.18914e-06,0.0349411559169671,-1.0456017047301389e-05
0.0357352730968981,-6.960806426146688e-06,0.0357352730968981,-2.2353530502755773e-05,0.0357352730968981,2.4189992784400664e-06,0.0357352730968981,-1.12459e-05
0.0365293902768292,-5.657546439308936e-06,0.0365293902768292,-2.1415708721372964e-05,0.0365293902768292,2.4683113890788845e-07,0.0365293902768292,-1.1897530437850426e-05
0.0373235074567603,-4.255442617044979e-06,0.0373235074567603,-1.950020353202582e-05,0.0373235074567603,1.84634e-06,0.0373235074567603,-1.1897440361888149e-05
0.0381176246366913,-6.161011258235826e-06,0.0381176246366913,-1.9618612725038283e-05,0.0381176246366913,6.615542720685242e-07,0.0381176246366913,-1.288489819664296e-05
0.0389117418166224,-8.61957755248188e-06,0.0389117418166224,-2.03098e-05,0.0389117418166224,2.9522881034226705e-06,0.0389117418166224,-1.318115132872282e-05
0.0397058589965535,-7.4545227601653696e-06,0.0397058589965535,-1.9993869650903055e-05,0.0397058589965535,4.137143980704371e-06,0.0397058589965535,-1.7742377918677042e-05
0.0404999761764846,-9.231606917107432e-06,0.0404999761764846,-2.0309769192780737e-05,0.0404999761764846,2.1820915417021754e-06,0.0404999761764846,-1.9470508592842613e-05
0.0412940933564156,-1.0061065063780588e-05,0.0412940933564156,-2.0290091951670552e-05,0.0412940933564156,9.97203651993878e-07,0.0412940933564156,-1.6054277499030054e-05
0.0420882105363467,-6.88182e-06,0.0420882105363467,-1.96384e-05,0.0420882105363467,3.848739226433981e-07,0.0420882105363467,-1.4524054412127172e-05
0.0428823277162778,-7.66186883666661e-06,0.0428823277162778,-1.9737092029253644e-05,0.0428823277162778,2.438805115555482e-06,0.0428823277162778,-1.355633255777774e-05
0.0436764448962088,-5.835263126020108e-06,0.0436764448962088,-2.1168740828338736e-05,0.0436764448962088,4.6408230250797836e-07,0.0436764448962088,-1.2983646978179765e-05
0.0444705620761399,-6.249826415850446e-06,0.0444705620761399,-2.0882452893065557e-05,0.0444705620761399,-1.51064e-06,0.0444705620761399,-6.763615459019192e-06
0.045264679256071,-6.230314091816098e-06,0.045264679256071,-2.244232510116734e-05,0.045264679256071,-5.03548e-07,0.045264679256071,-4.156444168231522e-06
0.046058796436002,-4.887392355390112e-06,0.046058796436002,-2.3469232409729986e-05,0.046058796436002,-8.194837623480794e-07,0.046058796436002,-1.0159668791550732e-05
0.0468529136159331,-5.104583551584268e-06,0.0468529136159331,-2.406176855285079e-05,0.0468529136159331,-1.1552124960201026e-06,0.0468529136159331,-1.3793292896831465e-05
0.0476470307958642,-3.287960152448357e-06,0.0476470307958642,-2.2521389624482177e-05,0.0476470307958642,-1.3231824062313605e-06,0.0476470307958642,-1.620218343900778e-05
0.0484411479757953,-3.880252267399534e-06,0.0484411479757953,-2.28966021466208e-05,0.0484411479757953,1.0960515766483382e-06,0.0484411479757953,-1.7229333197801395e-05
0.0492352651557263,-5.2230613879900695e-06,0.0492352651557263,-2.238314849233948e-05,0.0492352651557263,-2.2215048937322287e-06,0.0492352651557263,-1.589629999479312e-05
0.0500293823356574,-6.0722462254784046e-06,0.0500293823356574,-2.4910681009553945e-05,0.0500293823356574,-3.406437238879592e-06,0.0500293823356574,-1.5254518986598814e-05
0.0508234995155885,-5.8942695774505645e-06,0.0508234995155885,-2.356803504565025e-05,0.0508234995155885,-8.194129908937806e-07,0.0508234995155885,-1.6794720670567556e-05
0.0516176166955195,-8.145596116444465e-06,0.0516176166955195,-2.29953e-05,0.0516176166955195,-2.6954098791486725e-06,0.0516176166955195,-1.76242e-05
0.0524117338754506,-7.187891950614854e-06,0.0524117338754506,-2.29953e-05,0.0524117338754506,6.917262993077512e-08,0.0524117338754506,-1.813766829631088e-05
0.0532058510553817,-7.000324243510582e-06,0.0532058510553817,-2.3311220082001337e-05,0.0532058510553817,3.4579078700365725e-07,0.0532058510553817,-1.880924243510582e-05
0.0539999682353128,-7.217497092576813e-06,0.0539999682353128,-2.467373838556148e-05,0.0539999682353128,-1.510594185563055e-06,0.0539999682353128,-1.4938783259385488e-05
0.0547940854152438,-8.027138285586645e-06,0.0547940854152438,-2.1415760699518463e-05,0.0547940854152438,1.0860045344141985e-07,0.0547940854152438,-1.059426129477642e-05
0.0555882025951749,-9.034186135768484e-06,0.0555882025951749,-2.1148835025177525e-05,0.0555882025951749,2.5965684073054453e-06,0.0555882025951749,-6.052767301449155e-06
0.056382319775106,-8.97493343073293e-06,0.056382319775106,-2.3933289463244345e-05,0.056382319775106,4.27515343073293e-06,0.056382319775106,-6.328805146099395e-06
0.057176436955037,-1.0949638239871516e-05,0.057176436955037,-2.1415811412103825e-05,0.057176436955037,4.591182705035557e-06,0.057176436955037,-9.152642829800403e-06
0.0579705541349681,-1.0949800308670752e-05,0.0579705541349681,-1.96384e-05,0.0579705541349681,4.57130880677672e-06,0.0579705541349681,-1.0041421188176371e-05
0.0587646713148992,-8.48136366184389e-06,0.0587646713148992,-2.109961483209426e-05,0.0587646713148992,6.704012676312222e-06,0.0587646713148992,-8.382502676312222e-06
0.0595587884948302,-9.80426017763202e-06,0.0595587884948302,-2.16526e-05,0.0595587884948302,7.84937442436974e-06,0.0595587884948302,-9.053975958877048e-06
0.0603529056747613,-1.1265647507943784e-05,0.0603529056747613,-2.121836287003201e-05,0.0603529056747613,6.467132513239638e-06,0.0603529056747613,-9.56741e-06
0.0611470228546924,-8.659148078108475e-06,0.0611470228546924,-1.967788637323307e-05,0.0611470228546924,6.506497402364405e-06,0.0611470228546924,-9.784672566935113e-06
0.0619411400346235,-8.95515903430502e-06,0.0619411400346235,-2.09812e-05,0.0619411400346235,5.746563073791891e-06,0.0619411400346235,-8.42203481081561e-06
0.0627352572145545,-9.646405526629813e-06,0.0627352572145545,-1.9875414507504094e-05,0.0627352572145545,3.821031060070858e-06,0.0627352572145545,-1.1077932140575413e-05
0.0635293743944856,-9.053963767673613e-06,0.0635293743944856,-1.96384e-05,0.0635293743944856,2.241417393958325e-06,0.0635293743944856,-1.3368739106846304e-05
0.0643234915744167,-8.540804783513629e-06,0.0643234915744167,-2.02307780490435e-05,0.0643234915744167,-1.67849e-07,0.0643234915744167,-1.0821407072569672e-05
0.0651176087543477,-5.697081851233818e-06,0.0651176087543477,-1.9756935768653556e-05,0.0651176087543477,4.245218389749463e-07,0.0651176087543477,-1.04067e-05
0.0659117259342788,-7.000309290117378e-06,0.0659117259342788,-1.9282931675919515e-05,0.0659117259342788,-8.787511988198866e-07,0.0659117259342788,-1.09102e-05
0.0667058431142099,-7.790227153578663e-06,0.0667058431142099,-2.16526e-05,0.0667058431142099,-3.366687311728933e-06,0.0667058431142099,-9.666092846421336e-06
0.067499960294141,-6.2105345371159405e-06,0.067499960294141,-2.16526e-05,0.067499960294141,-6.210248195179064e-06,0.067499960294141,-1.141357115000943e-05
0.068294077474072,-5.775979886726641e-06,0.068294077474072,-2.1139206242930885e-05,0.068294077474072,-3.97907855463275e-06,0.068294077474072,-1.2726913890637987e-05
0.0690881946540031,-5.26268918217464e-06,0.0690881946540031,-2.1356333957430093e-05,0.0690881946540031,-2.45838081782536e-06,0.0690881946540031,-1.424721701064164e-05
0.0698823118339342,-4.9465419770213335e-06,0.0698823118339342,-2.2185673794470104e-05,0.0698823118339342,-4.4329647557292216e-06,0.0698823118339342,-1.756501014056011e-05
0.0706764290138652,-5.53903e-06,0.0706764290138652,-2.159340467761449e-05,0.0706764290138652,-5.38110353045417e-06,0.0706764290138652,-1.642953725362891e-05
0.0714705461937963,-4.6899410239316245e-06,0.0714705461937963,-2.0823212425700196e-05,0.0714705461937963,-1.1159109073692647e-06,0.0714705461937963,-1.4899244095726497e-05
0.0722646633737274,-5.9536606113003086e-06,0.0722646633737274,-1.975680456302116e-05,0.0722646633737274,1.3328212226006163e-06,0.0722646633737274,-1.4425081222600616e-05
0.0730587805536585,-4.946724647374674e-06,0.0730587805536585,-2.1257623743167627e-05,0.0730587805536585,1.84634e-06,0.0730587805536585,-1.3990821427305114e-05
0.0738528977335895,-5.726588267316332e-06,0.0738528977335895,-1.9994020268366584e-05,0.0738528977335895,2.399251770496275e-06,0.0738528977335895,-1.1601364688511175e-05
0.0746470149135206,-8.22461e-06,0.0746470149135206,-1.8967e-05,0.0746470149135206,4.896990025694539e-06,0.0746470149135206,-1.134474953182008e-05
0.0754411320934517,-7.434955705027987e-06,0.0754411320934517,-2.1770671276896272e-05,0.0754411320934517,4.492508372624128e-06,0.0754411320934517,-1.0455974098441812e-05
0.0762352492733827,-5.2823336067140746e-06,0.0762352492733827,-2.256093504565025e-05,0.0762352492733827,4.630619179857776e-06,0.0762352492733827,-1.2529381966429628e-05
0.0770293664533138,-4.601002063071712e-06,0.0770293664533138,-1.836502110722109e-05,0.0770293664533138,4.709681957952192e-06,0.0770293664533138,-1.6676246579941975e-05
0.0778234836332449,-5.677274045104562e-06,0.0778234836332449,-1.7545167779970407e-05,0.0778234836332449,4.55179140880603e-06,0.0778234836332449,-1.5382904563522413e-05
0.078617600813176,-4.946667967848849e-06,0.078617600813176,-1.991482184857764e-05,0.078617600813176,3.268176790637531e-06,0.078617600813176,-1.5550715638056778e-05
0.079411717993107,-4.670163404326444e-06,0.079411717993107,-2.03098e-05,0.079411717993107,3.110133904786657e-06,0.079411717993107,-1.5076833404326444e-05
0.0802058351730381,-4.116910355603437e-06,0.0802058351730381,-2.115895022609494e-05,0.0802058351730381,3.36713264319491e-06,0.0802058351730381,-1.403018005926724e-05
0.0809999523529692,-8.392167932401472e-06,0.0809999523529692,-2.0309861614438527e-05,0.0809999523529692,1.1750430834043516e-06,0.0809999523529692,-1.594552819432608e-05
0.0817940695329002,-7.1188829199477165e-06,0.0817940695329002,-2.2679277247042646e-05,0.0817940695329002,3.840691470820681e-06,0.0817940695329002,-1.715029756307359e-05
0.0825881867128313,-4.660382976914664e-06,0.0825881867128313,-2.435781184417851e-05,0.0825881867128313,5.460230069548185e-06,0.0825881867128313,-1.4247776589715545e-05
0.0833823038927624,-5.124429476690265e-06,0.0833823038927624,-2.4081517580587275e-05,0.0833823038927624,8.987905187442943e-07,0.0833823038927624,-1.3970950261654868e-05
0.0841764210726934,-4.3937120793735765e-06,0.0841764210726934,-2.0902291008847463e-05,0.0841764210726934,-3.1099826541604126e-06,0.0841764210726934,-1.3714328317494308e-05
0.0849705382526245,-7.276514209737693e-06,0.0849705382526245,-2.1287204322832536e-05,0.0849705382526245,-5.983232833188657e-06,0.0849705382526245,-1.2411016749557418e-05
0.0857646554325556,-7.71153560246256e-06,0.0857646554325556,-2.36667e-05,0.0857646554325556,-5.776280486907079e-06,0.0857646554325556,-1.173946976888904e-05
0.0865587726124866,-6.200530232021248e-06,0.0865587726124866,-2.271889679497856e-05,0.0865587726124866,-3.574278839893759e-06,0.0865587726124866,-1.320076139212749e-05
0.0873528897924177,-7.04967e-06,0.0873528897924177,-2.0823320403256383e-05,0.0873528897924177,-3.2089183393211585e-06,0.0873528897924177,-1.2707193956359524e-05
0.0881470069723488,-3.8409750058371735e-06,0.0881470069723488,-1.9796413094693745e-05,0.0881470069723488,-1.2738031020554697e-06,0.0881470069723488,-1.4286758521702512e-05
0.0889411241522799,-4.294754847175726e-06,0.0889411241522799,-2.0131812248847877e-05,0.0889411241522799,2.635969934007873e-06,0.0889411241522799,-1.3911794913167851e-05
0.0897352413322109,-6.773137332505443e-06,0.0897352413322109,-2.3251870382182863e-05,0.0897352413322109,4.018548667139747e-06,0.0897352413322109,-1.2312346667849368e-05
0.090529358512142,-8.115921086190046e-06,0.090529358512142,-2.11396842653898e-05,0.090529358512142,3.248291086190047e-06,0.090529358512142,-1.1897484632844e-05
0.0913234756920731,-7.622558069874667e-06,0.0913234756920731,-2.015171502179467e-05,0.0913234756920731,5.558466494558031e-06,0.0913234756920731,-1.35958e-05
0.0921175928720041,-5.785919421560446e-06,0.0921175928720041,-2.3133505790741013e-05,0.0921175928720041,9.438825846530238e-06,0.0921175928720041,-1.2411098843120892e-05
0.0929117100519352,-6.605341737635513e-06,0.0929117100519352,-2.4278764220539275e-05,0.0929117100519352,1.19173e-05,0.0929117100519352,-1.1640821737635513e-05
0.0937058272318663,-7.31619433241144e-06,0.0937058272318663,-2.4693610719285485e-05,0.0937058272318663,7.17887522496086e-06,0.0937058272318663,-1.3368419799048918e-05
0.0944999444117974,-7.55322e-06,0.0944999444117974,-2.3834653907280445e-05,0.0944999444117974,1.5109206147398484e-06,0.0944999444117974,-1.3595900214005623e-05
0.0952940615917284,-8.945387254196297e-06,0.0952940615917284,-2.451578348997352e-05,0.0952940615917284,3.702460399785869e-06,0.0952940615917284,-9.962425091821536e-06
0.0960881787716595,-7.967692750055e-06,0.0960881787716595,-2.489125974214821e-05,0.0960881787716595,4.334388955201088e-06,0.0960881787716595,-1.02388e-05
0.0968822959515906,-1.0199355465200931e-05,0.0968822959515906,-2.190950653683469e-05,0.0968822959515906,4.117340930401863e-06,0.0968822959515906,-1.0317689069598135e-05
0.0976764131315216,-9.073817891247744e-06,0.0976764131315216,-2.1997916248992008e-05,0.0976764131315216,4.077690228794114e-06,0.0976764131315216,-1.2568780686382342e-05
0.0984705303114527,-7.513905193480151e-06,0.0984705303114527,-2.224504962491853e-05,0.0984705303114527,3.60423756939629e-06,0.0984705303114527,-1.6764877447572822e-05
0.0992646474913838,-5.7857991575887175e-06,0.0992646474913838,-1.989545591293752e-05,0.0992646474913838,-9.971029044686317e-07,0.0992646474913838,-1.8967e-05
0.1000587646713148,-8.0968890100923e-06,0.1000587646713148,-1.7723182297170658e-05,0.1000587646713148,-2.300766317216898e-06,0.1000587646713148,-1.7070696838679445e-05
0.1008528818512459,-8.007392715132748e-06,0.1008528818512459,-2.03478979749216e-05,0.1008528818512459,-5.499527238626064e-06,0.1008528818512459,-1.233199258159298e-05
0.101646999031177,-9.014406719927162e-06,0.101646999031177,-2.137574031998548e-05,0.101646999031177,-7.2077749201092574e-06,0.101646999031177,-2.065099621893747e-06
0.1024411162111081,-8.975767885702503e-06,0.1024411162111081,-1.859214487732109e-05,0.1024411162111081,-6.44678654245475e-06,0.1024411162111081,7.413280383582065e-06
0.1032352333910391,-5.500222505062432e-06,0.1032352333910391,-2.068441723864984e-05,0.1032352333910391,-8.5797149252221e-06,0.1032352333910391,9.804630717206769e-06
0.1040293505709702,-4.82829855514776e-06,0.1040293505709702,-2.107971007061767e-05,0.1040293505709702,-9.33038429181959e-06,0.1040293505709702,3.978523748744318e-06
0.1048234677509013,-6.76300272970999e-06,0.1048234677509013,-1.9165619000215672e-05,0.1048234677509013,-7.315585459419981e-06,0.1048234677509013,-3.744564218092393e-06
0.1056175849308323,-5.024765506941043e-06,0.1056175849308323,-1.65577023556086e-05,0.1056175849308323,-6.803251661421208e-06,0.1056175849308323,-1.23351386308756e-05
0.1064117021107634,-3.18914e-06,0.1064117021107634,-1.821721077906202e-05,0.1064117021107634,-6.229549557214264e-06,0.1064117021107634,-1.6478995265770528e-05
0.1072058192906945,-4.19623e-06,0.1072058192906945,-1.7329070436330213e-05,0.1072058192906945,-2.310182087782919e-06,0.1072058192906945,-1.801929880332176e-05
0.1079999364706256,-4.8675384686223776e-06,0.1079999364706256,-1.628144109212136e-05,0.1079999364706256,1.1746425243860173e-06,0.1079999364706256,-1.863134576568881e-05
0.1087940536505566,-4.877959556591298e-06,0.1087940536505566,-1.936306254903899e-05,0.1087940536505566,5.163107585309227e-06,0.1087940536505566,-1.62814e-05
0.1095881708304877,-3.041788590164997e-06,0.1095881708304877,-2.102023024198357e-05,0.1095881708304877,6.348433006010189e-06,0.1095881708304877,-1.7366839018030565e-05
0.1103822880104188,-3.849449764280404e-06,0.1103822880104188,-2.28373410053652e-05,0.1103822880104188,6.1712275589299e-06,0.1103822880104188,-1.81388302357196e-05
0.1111764051903498,-6.002171189591613e-06,0.1111764051903498,-2.542448354769405e-05,0.1111764051903498,6.427119666954745e-06,0.1111764051903498,-1.5986059444933235e-05
0.1119705223702809,-6.960874335082281e-06,0.1119705223702809,-2.536553144680165e-05,0.1119705223702809,4.49296468065825e-06,0.1119705223702809,-1.7505056649177187e-05
0.112764639550212,-6.052456700393023e-06,0.112764639550212,-2.354815126394536e-05,0.112764639550212,2.6362142392902684e-06,0.112764639550212,-1.955941717380649e-05
0.1135587567301431,-6.171084819464019e-06,0.1135587567301431,-2.29953e-05,0.1135587567301431,5.707544164499347e-06,0.1135587567301431,-1.6774443065651007e-05
0.1143528739100741,-5.657514918553125e-06,0.1143528739100741,-2.3795172968205292e-05,0.1143528739100741,3.900067159285408e-06,0.1143528739100741,-1.2835527216479256e-05
0.1151469910900052,-6.792638454197086e-06,0.1151469910900052,-2.2639571607593403e-05,0.1151469910900052,2.2809580261730936e-06,0.1151469910900052,-1.29244e-05
0.1159411082699363,-7.88891e-06,0.1159411082699363,-2.2818115829015573e-05,0.1159411082699363,-1.67849e-07,0.1159411082699363,-1.219428873407988e-05
0.1167352254498673,-7.632297722605195e-06,0.1167352254498673,-2.4278738311214795e-05,0.1167352254498673,1.5001720824102083e-06,0.1167352254498673,-1.0989280078282236e-05
0.1175293426297984,-6.862142836151662e-06,0.1175293426297984,-2.4318030515472043e-05,0.1175293426297984,3.0704776165442303e-06,0.1175293426297984,-1.09102e-05
0.1183234598097295,-9.715924364180008e-06,0.1183234598097295,-2.3074757853360785e-05,0.1183234598097295,9.179952744443864e-07,0.1183234598097295,-1.2609417486603404e-05
0.1191175769896605,-9.665639437307011e-06,0.1191175769896605,-2.4397507917421728e-05,0.1191175769896605,7.999563317743694e-07,0.1191175769896605,-1.6638480781575246e-05
0.1199116941695916,-8.688844299135228e-06,0.1199116941695916,-2.0525421019972667e-05,0.1199116941695916,1.17494e-06,0.1199116941695916,-1.6833841868972727e-05
0.1207058113495227,-8.56031e-06,0.1207058113495227,-1.988507461577045e-05,0.1207058113495227,3.287906025637172e-06,0.1207058113495227,-1.551123103218327e-05
0.1214999285294538,-8.224661486399914e-06,0.1214999285294538,-1.79601773718192e-05,0.1214999285294538,3.189191484866212e-06,0.1214999285294538,-1.4603002972799831e-05
0.1222940457093848,-8.125737837936564e-06,0.1222940457093848,-1.9767547299801144e-05,0.1222940457093848,3.18914e-06,0.1222940457093848,-1.2885316486190309e-05
0.1230881628893159,-9.84342043496307e-06,0.1230881628893159,-2.204682414169779e-05,0.1230881628893159,2.2417254540070523e-06,0.1230881628893159,-1.2864714545992947e-05
0.123882280069247,-9.449849875830822e-06,0.123882280069247,-2.2797838498562195e-05,0.123882280069247,1.589013416112785e-06,0.123882280069247,-1.5016973416112784e-05
0.124676397249178,-7.869832945493109e-06,0.124676397249178,-2.2067561487256237e-05,0.124676397249178,2.734428225532537e-06,0.124676397249178,-1.5057611774467462e-05
0.1254705144291091,-5.8357828535118735e-06,0.1254705144291091,-2.32021766095401e-05,0.1254705144291091,3.6829443908756663e-06,0.1254705144291091,-1.3240628781751332e-05
0.1262646316090402,-7.118748963837605e-06,0.1262646316090402,-2.3923233034831017e-05,0.1262646316090402,5.431278613599628e-07,0.1262646316090402,-1.29244e-05
0.1270587487889713,-8.836989151339775e-06,0.1270587487889713,-2.1278006335821145e-05,0.1270587487889713,-2.7747455351197e-06,0.1270587487889713,-1.3240426383779926e-05
0.1278528659689023,-7.869234466616799e-06,0.1278528659689023,-2.1731425444625275e-05,0.1278528659689023,-8.891867008389403e-08,0.1278528659689023,-1.29244e-05
0.1286469831488334,-7.138042742979394e-06,0.1286469831488334,-2.070441519206757e-05,0.1286469831488334,4.946445140412117e-08,0.1286469831488334,-1.29244e-05
0.1294411003287645,-9.56741e-06,0.1294411003287645,-2.099141841589508e-05,0.1294411003287645,-5.231125723991209e-07,0.1294411003287645,-1.2272564688959674e-05
0.1302352175086955,-8.284338994966664e-06,0.1302352175086955,-2.1682274570406325e-05,0.1302352175086955,-5.826333278238423e-07,0.1302352175086955,-1.2973583080747264e-05
0.1310293346886266,-7.039825697364732e-06,0.1310293346886266,-1.8275545925017524e-05,0.1310293346886266,1.7872773601366072e-06,0.1310293346886266,-1.3319390709646955e-05
0.1318234518685577,-7.069027015693008e-06,0.1318234518685577,-1.836407078479543e-05,0.1318234518685577,3.4267270055377848e-06,0.1318234518685577,-1.2627414031386017e-05
0.1326175690484888,-6.37827e-06,0.1326175690484888,-2.025038180954792e-05,0.1326175690484888,4.53193e-06,0.1326175690484888,-1.1542304364683189e-05
0.1334116862284198,-6.190276700899095e-06,0.1334116862284198,-2.159377726520548e-05,0.1334116862284198,3.1104855135040053e-06,0.1334116862284198,-1.1857832400513769e-05
0.1342058034083509,-4.19623e-06,0.1342058034083509,-2.200855273983434e-05,0.1342058034083509,4.571340295590923e-06,0.1342058034083509,-8.974833533190628e-06
0.134999920588282,-5.538801171555923e-06,0.134999920588282,-2.1316951365151704e-05,0.134999920588282,1.846683240962001e-06,0.134999920588282,-6.210648828444077e-06
0.135794037768213,-7.21752e-06,0.135794037768213,-2.062539969638099e-05,0.135794037768213,2.201573157384298e-06,0.135794037768213,-6.249489260192936e-06
0.1365881549481441,-6.88182e-06,0.1365881549481441,-1.9776945633158832e-05,0.1365881549481441,1.9843415399827672e-06,0.1365881549481441,-1.0000018209003035e-05
0.1373822721280752,-6.823048537435972e-06,0.1373822721280752,-1.890778727015472e-05,0.1373822721280752,1.7679780499146295e-06,0.1373822721280752,-1.2549519024957315e-05
0.1381763893080062,-5.411618855045293e-06,0.1381763893080062,-1.9421594561717547e-05,0.1381763893080062,6.225697976803657e-07,0.1381763893080062,-1.2253e-05
0.1389705064879373,-4.373809888413239e-06,0.1389705064879373,-1.987577484392845e-05,0.1389705064879373,1.885259553652956e-06,0.1389705064879373,-1.361525977682648e-05
0.1397646236678684,-6.625091384771314e-06,0.1397646236678684,-1.983605920108694e-05,0.1397646236678684,3.18914e-06,0.1397646236678684,-1.5590185539085257e-05
0.1405587408477994,-6.249778698467568e-06,0.1405587408477994,-2.327093771235604e-05,0.1405587408477994,3.0311296746168915e-06,0.1405587408477994,-1.66171e-05
0.1413528580277305,-5.6575263842389866e-06,0.1413528580277305,-2.070531718192019e-05,0.1413528580277305,1.411939828347747e-06,0.1413528580277305,-1.4188299570869368e-05
0.1421469752076616,-6.447179041772113e-06,0.1421469752076616,-2.019139598184664e-05,0.1421469752076616,7.20867184383654e-07,0.1421469752076616,-1.4661215687974507e-05
0.1429410923875927,-6.585237911891892e-06,0.1429410923875927,-2.418129495034317e-05,0.1429410923875927,-1.67849e-07,0.1429410923875927,-1.818802282913734e-05
0.1437352095675237,-7.21752e-06,0.1437352095675237,-2.5365731770893283e-05,0.1437352095675237,-1.1942760415983311e-06,0.1437352095675237,-1.5294500058580643e-05
0.1445293267474548,-7.237220046692743e-06,0.1445293267474548,-2.220535576792709e-05,0.1445293267474548,-5.823467759865641e-07,0.1445293267474548,-1.74762233811614e-05
0.1453234439273859,-5.677176032677144e-06,0.1453234439273859,-2.346801593793181e-05,0.1453234439273859,1.6087755232996214e-06,0.1453234439273859,-2.0704891473011693e-05
0.146117561107317,-4.649834104991508e-06,0.146117561107317,-2.2699790770764026e-05,0.146117561107317,-8.924661455765753e-08,0.146117561107317,-1.8610010946644026e-05
0.146911678287248,-5.914970581551205e-06,0.146911678287248,-2.0684725429560027e-05,0.146911678287248,2.273053677924219e-07,0.146911678287248,-1.42672e-05
0.1477057954671791,-5.815392934680735e-06,0.1477057954671791,-2.035043207451228e-05,0.1477057954671791,-7.998181518975488e-07,0.1477057954671791,-1.5649427494632045e-05
0.1484999126471102,-5.035448536088949e-06,0.1484999126471102,-2.030968699666628e-05,0.1484999126471102,-2.181914144355793e-06,0.1484999126471102,-1.3596051711288412e-05
0.1492940298270412,-6.9208691157274285e-06,0.1492940298270412,-2.150479003058863e-05,0.1492940298270412,-3.090256371909143e-06,0.1492940298270412,-1.2213950884272571e-05
0.1500881470069723,-6.072424193030933e-06,0.1500881470069723,-2.360820086566117e-05,0.1500881470069723,-3.090287903484533e-06,0.1500881470069723,-9.25425853774784e-06
0.1508822641869034,-6.88182e-06,0.1508822641869034,-2.2067305132540034e-05,0.1508822641869034,-2.696739031884102e-06,0.1508822641869034,-1.7902899136537777e-06
0.1516763813668344,-7.434185342688121e-06,0.1516763813668344,-2.2422971886892653e-05,0.1516763813668344,-4.0591671898491845e-07,0.1516763813668344,3.38439314368453e-06
0.1524704985467655,-7.691892786561949e-06,0.1524704985467655,-2.262064907456584e-05,0.1524704985467655,2.023914167702146e-06,0.1524704985467655,2.281816115753365e-06
0.1532646157266966,-7.711148975851567e-06,0.1532646157266966,-2.1741479611544785e-05,0.1532646157266966,-8.98374438485902e-07,0.1532646157266966,-1.6783034399739932e-06
0.1540587329066277,-7.592589578105878e-06,0.1540587329066277,-2.1801003810601828e-05,0.1540587329066277,-2.18204e-06,0.1540587329066277,-6.3886399284091695e-06
0.1548528500865587,-7.55322e-06,0.1548528500865587,-2.058712414202525e-05,0.1548528500865587,-7.011212352489299e-07,0.1548528500865587,-7.987602235730541e-06
0.1556469672664898,-7.789964049566882e-06,0.1556469672664898,-1.801886655721929e-05,0.1556469672664898,7.014487273062398e-07,0.1556469672664898,-8.106236212127672e-06
0.1564410844464209,-8.618969668796775e-06,0.1564410844464209,-2.1337265061922754e-05,0.1564410844464209,-8.490228444506143e-07,0.1564410844464209,-8.89601e-06
0.157235201626352,-9.695711379792233e-06,0.157235201626352,-2.133744490243632e-05,0.157235201626352,-3.655923366576674e-07,0.157235201626352,-8.89601e-06
0.158029318806283,-6.940949170757008e-06,0.158029318806283,-2.0784097674521923e-05,0.158029318806283,3.061314146214965e-07,0.158029318806283,-1.170017127971262e-05
0.1588234359862141,-6.121341371549087e-06,0.1588234359862141,-2.16526e-05,0.1588234359862141,5.62933398498093e-07,0.1588234359862141,-1.4385971504601218e-05
0.1596175531661451,-4.373110785149376e-06,0.1596175531661451,-2.1059891895230847e-05,0.1596175531661451,3.951357309325044e-06,0.1596175531661451,-1.49386e-05
0.1604116703460762,-3.919974667431398e-06,0.1604116703460762,-2.038827140518074e-05,0.1604116703460762,5.084436550520991e-06,0.1604116703460762,-1.7269261668578495e-05
0.1612057875260073,-4.828185306326869e-06,0.1612057875260073,-1.9953773689713536e-05,0.1612057875260073,2.0239829211222207e-06,0.1612057875260073,-1.8967e-05
0.1619999047059384,-6.210282704978484e-06,0.1619999047059384,-2.081320755190747e-05,0.1619999047059384,-3.188316220464188e-06,0.1619999047059384,-1.7960105945599682e-05
0.1627940218858694,-6.88182e-06,0.1627940218858694,-2.0674179171349888e-05,0.1627940218858694,-6.408198722209103e-06,0.1627940218858694,-1.7900042555581795e-05
0.1635881390658005,-5.727458851673748e-06,0.1635881390658005,-1.973587287465552e-05,0.1635881390658005,2.196521651258497e-06,0.1635881390658005,-1.813905955626778e-05
0.1643822562457316,-4.945969018030537e-06,0.1643822562457316,-2.0922007816215408e-05,0.1643822562457316,1.282371705409161e-05,0.1643822562457316,-1.561e-05
0.1651763734256627,-6.367552625001384e-06,0.1651763734256627,-1.949971966316607e-05,0.1651763734256627,1.3498192197468092e-05,0.1651763734256627,-1.6162353901265954e-05
0.1659704906055937,-6.526683106017956e-06,0.1659704906055937,-1.8354931168364875e-05,0.1659704906055937,5.896793874130621e-06,0.1659704906055937,-1.636044222399436e-05
0.1667646077855248,-6.11159983004732e-06,0.1667646077855248,-2.0013728212773932e-05,0.1667646077855248,1.234044305486492e-06,0.1667646077855248,-1.62814e-05
0.1675587249654559,-8.145847325515086e-06,0.1675587249654559,-2.4988244223701574e-05,0.1675587249654559,4.413785694992688e-06,0.1675587249654559,-1.7545436738955204e-05
0.1683528421453869,-7.118842760402581e-06,0.1683528421453869,-2.2837679929840456e-05,0.1683528421453869,9.97425484160234e-07,0.1683528421453869,-1.7466249418919717e-05
0.169146959325318,-7.898618556280963e-06,0.169146959325318,-2.2067214933378167e-05,0.169146959325318,6.888605191518013e-08,0.169146959325318,-1.4110023615989524e-05
0.1699410765052491,-8.382686255040726e-06,0.1699410765052491,-2.096084138522131e-05,0.1699410765052491,4.6445319485003197e-07,0.1699410765052491,-1.1640242469755647e-05
0.1707351936851801,-7.1982294881478905e-06,0.1707351936851801,-1.902638223484589e-05,0.1707351936851801,-1.7074243539629508e-06,0.1707351936851801,-1.3615088155493424e-05
0.1715293108651112,-7.770475167068268e-06,0.1715293108651112,-2.2601118936909976e-05,0.1715293108651112,-3.031151464768569e-06,0.1715293108651112,-1.2963845859074275e-05
0.1723234280450423,-7.196941579305258e-06,0.1723234280450423,-2.6113803400623445e-05,0.1723234280450423,-2.0632799368210297e-06,0.1723234280450423,-1.1285921266352355e-05
0.1731175452249733,-5.24264283435792e-06,0.1731175452249733,-2.39044960381724e-05,0.1731175452249733,-1.8070271656420808e-06,0.1731175452249733,-1.2253e-05
0.1739116624049044,-7.652003300350999e-06,0.1739116624049044,-2.1691840130226668e-05,0.1739116624049044,-1.1155103297238077e-06,0.1739116624049044,-1.0959192449322093e-05
0.1747057795848355,-6.012930869972648e-06,0.1747057795848355,-2.429742683336634e-05,0.1747057795848355,8.985297898504432e-07,0.1747057795848355,-1.01005920715238e-05
0.1754998967647666,-6.881522525238104e-06,0.1754998967647666,-2.2995700648183226e-05,0.1754998967647666,2.853216892267067e-06,0.1754998967647666,-1.1917002523022757e-05
0.1762940139446976,-6.60600037647304e-06,0.1762940139446976,-2.19883e-05,0.1762940139446976,2.9523350941182595e-06,0.1762940139446976,-1.268759509411826e-05
0.1770881311246287,-4.3156926362334e-06,0.1770881311246287,-2.307325775366372e-05,0.1770881311246287,3.18914e-06,0.1770881311246287,-1.2253e-05
0.1778822483045598,-3.64232132800468e-06,0.1778822483045598,-2.414065904462288e-05,0.1778822483045598,3.7793933773799343e-06,0.1778822483045598,-1.2253e-05
0.1786763654844909,-4.808101229921873e-06,0.1786763654844909,-2.291606771867848e-05,0.1786763654844909,6.673469304726555e-06,0.1786763654844909,-1.2253e-05
0.1794704826644219,-4.86763e-06,0.1794704826644219,-2.069645355642556e-05,0.1794704826644219,6.862394547440124e-06,0.1794704826644219,-1.1473419630937967e-05
0.180264599844353,-4.709721554723995e-06,0.180264599844353,-1.667634868545147e-05,0.180264599844353,5.716813906651985e-06,0.180264599844353,-1.055461689055201e-05
0.181058717024284,-6.72424820053139e-06,0.181058717024284,-1.9556984529949635e-05,0.181058717024284,4.413321370687272e-06,0.181058717024284,-1.410962761380073e-05
0.1818528342042151,-8.343127113214992e-06,0.1818528342042151,-2.134602398381076e-05,0.1818528342042151,1.5304913396449754e-06,0.1818528342042151,-1.5234875130801373e-05
0.1826469513841462,-6.348169287379725e-06,0.1826469513841462,-2.327200559374003e-05,0.1826469513841462,7.014945910401158e-07,0.1826469513841462,-1.3714162321844931e-05
0.1834410685640773,-8.974176445499707e-06,0.1834410685640773,-2.3942829869532717e-05,0.1834410685640773,-8.197043595190906e-07,0.1834410685640773,-1.356648445404445e-05
0.1842351857440083,-1.1778347908973537e-05,0.1842351857440083,-2.037037118262593e-05,0.1842351857440083,-1.2733158397100475e-06,0.1842351857440083,-1.296394255827338e-05
0.1850293029239394,-9.784590633469648e-06,0.1850293029239394,-1.9756964145600145e-05,0.1850293029239394,-1.1255539140358862e-06,0.1850293029239394,-1.3477316320464532e-05
0.1858234201038705,-7.810129697645839e-06,0.1858234201038705,-2.0270045440133333e-05,0.1858234201038705,-6.028809840153836e-07,0.1858234201038705,-1.24791015117708e-05
0.1866175372838016,-8.372800716314187e-06,0.1866175372838016,-1.868113781379754e-05,0.1866175372838016,-3.031865730513489e-06,0.1866175372838016,-1.08512280051486e-05
0.1874116544637326,-7.434372414289102e-06,0.1874116544637326,-1.953044239274752e-05,0.1874116544637326,-3.3272750173539486e-06,0.1874116544637326,-1.3418272744009551e-05
0.1882057716436637,-6.506640908244618e-06,0.1882057716436637,-2.066584685634716e-05,0.1882057716436637,-7.207234606656916e-07,0.1882057716436637,-1.3635279091755382e-05
0.1889998888235948,-8.5599896425641e-06,0.1889998888235948,-2.0477564055104447e-05,0.1889998888235948,1.17494e-06,0.1889998888235948,-1.0910680539732488e-05
0.1897940060035258,-9.23171e-06,0.1897940060035258,-2.1632540788502387e-05,0.1897940060035258,9.771407026220243e-07,0.1897940060035258,-9.429508708156488e-06
0.1905881231834569,-8.39246e-06,0.1905881231834569,-2.1375347101620684e-05,0.1905881231834569,2.1834514144745441e-07,0.1905881231834569,-8.89601e-06
0.191382240363388,-7.396587828048514e-06,0.191382240363388,-2.19290871754482e-05,0.191382240363388,-1.6589109785060642e-06,0.191382240363388,-1.1086405361148282e-05
0.192176357543319,-6.21042e-06,0.192176357543319,-2.009293304207045e-05,0.192176357543319,-2.0629710184215053e-06,0.192176357543319,-1.2835089396599749e-05
0.1929704747232501,-6.387977005568834e-06,0.1929704747232501,-2.184910348922542e-05,0.1929704747232501,-1.649368983293498e-06,0.1929704747232501,-1.2499895051429826e-05
0.1937645919031812,-5.558928344049984e-06,0.1937645919031812,-2.2521412950585368e-05,0.1937645919031812,6.899532990190687e-08,0.1937645919031812,-1.4523602005663848e-05
0.1945587090831123,-3.267948538253025e-06,0.1945587090831123,-2.2422861078460006e-05,0.1945587090831123,2.261230086342091e-06,0.1945587090831123,-1.6923243643559884e-05
0.1953528262630433,-3.0706171537713126e-06,0.1953528262630433,-2.072429976204945e-05,0.1953528262630433,6.618070399210117e-07,0.1953528262630433,-1.5175645692457377e-05
0.1961469434429744,-3.090149651996991e-06,0.1961469434429744,-2.2521631191704792e-05,0.1961469434429744,-3.012376007440204e-08,0.1961469434429744,-1.604468682233757e-05
0.1969410606229055,-4.877398011945566e-06,0.1969410606229055,-2.3942850376081698e-05,0.1969410606229055,7.806382193010424e-07,0.1969410606229055,-1.383381988054434e-05
0.1977351778028366,-4.9071872012744165e-06,0.1977351778028366,-2.0784922370871592e-05,0.1977351778028366,-1.7073557057365645e-06,0.1977351778028366,-9.687151668788813e-06
0.1985292949827676,-5.5785222162405855e-06,0.1985292949827676,-2.090259504542485e-05,0.1985292949827676,-5.005861281427669e-06,0.1985292949827676,-8.027146575526752e-06
0.1993234121626987,-6.525610227497562e-06,0.1993234121626987,-2.1692359686503924e-05,0.1993234121626987,-2.497229520097024e-06,0.1993234121626987,-9.992161727757671e-06
0.2001175293426297,-4.86763e-06,0.2001175293426297,-2.09812e-05,0.2001175293426297,-1.4319921020765194e-06,0.2001175293426297,-1.0554843706867264e-05
0.2009116465225608,-6.00320270201186e-06,0.2009116465225608,-2.16133334783186e-05,0.2009116465225608,-1.2776229609801854e-07,0.2009116465225608,-1.1374403277654595e-05
0.2017057637024919,-7.612455337783122e-06,0.2017057637024919,-2.0665857129377483e-05,0.2017057637024919,2.6658418546017554e-06,0.2017057637024919,-1.3200820269579728e-05
0.202499880882423,-7.721284524110176e-06,0.202499880882423,-2.1652291809089732e-05,0.202499880882423,3.524701286556363e-06,0.202499880882423,-1.5106185486114507e-05
0.203293998062354,-6.645026560145677e-06,0.203293998062354,-2.10387338245691e-05,0.203293998062354,6.624083585404168e-06,0.203293998062354,-1.6270912308098988e-05
0.2040881152422851,-7.157765749828506e-06,0.2040881152422851,-1.926141747628217e-05,0.2040881152422851,8.086637125085747e-06,0.2040881152422851,-1.679636275051448e-05
0.2048822324222162,-8.89601e-06,0.2048822324222162,-2.1909133235398293e-05,0.2048822324222162,7.334975763633779e-06,0.2048822324222162,-1.42672e-05
0.2056763496021472,-8.34369042300067e-06,0.2056763496021472,-2.139611177477248e-05,0.2056763496021472,7.948450211500336e-06,0.2056763496021472,-1.481951957699933e-05
0.2064704667820783,-8.668488212144349e-06,0.2064704667820783,-2.19883e-05,0.2064704667820783,5.164520149555782e-06,0.2064704667820783,-1.422839486056904e-05
0.2072645839620094,-8.195105398547681e-06,0.2072645839620094,-2.3607461587578875e-05,0.2072645839620094,4.6503441718236925e-06,0.2072645839620094,-1.142371443756841e-05
0.2080587011419405,-7.237228014302305e-06,0.2080587011419405,-2.262079861529178e-05,0.2080587011419405,5.193475992848848e-06,0.2080587011419405,-1.1226191985697695e-05
0.2088528183218715,-6.941084289621204e-06,0.2088528183218715,-2.1395694625534254e-05,0.2088528183218715,2.5575079446656752e-06,0.2088528183218715,-1.2253e-05
0.2096469355018026,-6.250242860456214e-06,0.2096469355018026,-2.1139107715009088e-05,0.2096469355018026,1.2932908558175142e-06,0.2096469355018026,-1.1542894865094916e-05
0.2104410526817337,-7.118025436292949e-06,0.2104410526817337,-2.033005095539626e-05,0.2104410526817337,1.0968194764461402e-06,0.2104410526817337,-7.830319709145774e-06
0.2112351698616647,-7.968030123259956e-06,0.2112351698616647,-2.295531709146425e-05,0.2112351698616647,-4.244281124270358e-07,0.2112351698616647,-6.88182e-06
0.2120292870415958,-5.381058626901872e-06,0.2120292870415958,-2.4397394593996035e-05,0.2120292870415958,-1.67849e-07,0.2120292870415958,-6.565877253803743e-06
0.2128234042215269,-7.059906840037646e-06,0.2128234042215269,-2.435798832924159e-05,0.2128234042215269,-6.427503641517056e-07,0.2128234042215269,-6.329145738912386e-06
0.2136175214014579,-7.147993911914848e-06,0.2136175214014579,-2.406187982863413e-05,0.2136175214014579,-5.224390904390407e-06,0.2136175214014579,-7.4745599332019104e-06
0.214411638581389,-5.73657351696021e-06,0.214411638581389,-2.36667e-05,0.214411638581389,-6.60551880332177e-06,0.214411638581389,-8.698460598339116e-06
0.2152057557613201,-7.424825660980148e-06,0.2152057557613201,-2.182305994344733e-05,0.2152057557613201,-4.176531083938689e-06,0.2152057557613201,-7.55322e-06
0.2159998729412512,-8.224747297066435e-06,0.2159998729412512,-1.896732873697088e-05,0.2159998729412512,2.1807585661664477e-06,0.2159998729412512,-8.224426939971337e-06
0.2167939901211822,-8.698185413681242e-06,0.2167939901211822,-1.79599e-05,0.2167939901211822,6.72296148065211e-06,0.2167939901211822,-1.3278077068406208e-05
0.2175881073011133,-8.323476429049737e-06,0.2175881073011133,-1.8967e-05,0.2175881073011133,5.382621258431284e-06,0.2175881073011133,-1.7031001425701574e-05
0.2183822244810444,-8.81771684607909e-06,0.2183822244810444,-1.837472336250516e-05,0.2183822244810444,2.8730132884802272e-06,0.2183822244810444,-1.8060720538237277e-05
0.2191763416609755,-7.120001955061641e-06,0.2191763416609755,-1.8493603803744925e-05,0.2191763416609755,2.3309048305285875e-06,0.2191763416609755,-1.4900629661057176e-05
0.2199704588409065,-6.644588346219939e-06,0.2199704588409065,-2.019108175894476e-05,0.2199704588409065,2.428967217926687e-06,0.2199704588409065,-1.3773345564146629e-05
0.2207645760208376,-7.868965890602069e-06,0.2207645760208376,-2.0704733275905955e-05,0.2207645760208376,1.2738306996192862e-06,0.2207645760208376,-1.5925748242018828e-05
0.2215586932007686,-8.580023747316035e-06,0.2215586932007686,-2.0507742663469047e-05,0.2215586932007686,-4.444069929490954e-07,0.2215586932007686,-1.6320827494632068e-05
0.2223528103806997,-6.783188624512208e-06,0.2223528103806997,-1.9737731532942736e-05,0.2223528103806997,-2.497837063231688e-06,0.2223528103806997,-1.461281912318193e-05
0.2231469275606308,-7.35519696589139e-06,0.2231469275606308,-1.94804820119606e-05,0.2231469275606308,-1.926016501175237e-06,0.2231469275606308,-1.6083380491215275e-05
0.2239410447405619,-8.462687792288746e-06,0.2239410447405619,-1.936220861082024e-05,0.2239410447405619,1.2530382314548624e-06,0.2239410447405619,-1.76242e-05
0.2247351619204929,-5.470669784800388e-06,0.2247351619204929,-2.1414988876373733e-05,0.2247351619204929,2.26116584397104e-06,0.2247351619204929,-1.865049662411584e-05
0.225529279100424,-4.512161304774049e-06,0.225529279100424,-1.9707050872590943e-05,0.225529279100424,-6.417417221569882e-07,0.225529279100424,-1.6301237122135768e-05
0.2263233962803551,-4.887087128137276e-06,0.2263233962803551,-1.740780981933533e-05,0.2263233962803551,-6.859295243972505e-08,0.2263233962803551,-1.237171429749018e-05
0.2271175134602862,-3.158964010691085e-06,0.2271175134602862,-2.100986654906082e-05,0.2271175134602862,1.7676684671744986e-06,0.2271175134602862,-1.3220764233587249e-05
0.2279116306402172,-4.976707961676622e-06,0.2279116306402172,-2.2333724692692728e-05,0.2279116306402172,6.417035082588227e-07,0.2279116306402172,-1.35958e-05
0.2287057478201483,-7.000308448146457e-06,0.2287057478201483,-2.248156116228092e-05,0.2287057478201483,1.8761422668337094e-07,0.2287057478201483,-1.2766484481464566e-05
0.2294998650000794,-6.210614504177454e-06,0.2294998650000794,-2.4002050716968424e-05,0.2294998650000794,-5.034507482009728e-07,0.2294998650000794,-1.0910394504177453e-05
0.2302939821800104,-6.7229328157543165e-06,0.2302939821800104,-2.5838735803796706e-05,0.2302939821800104,8.781885734385255e-07,0.2302939821800104,-1.1009118026173091e-05
0.2310880993599415,-8.620087182226343e-06,0.2310880993599415,-2.5525148861158064e-05,0.2310880993599415,1.3726785911131718e-06,0.2310880993599415,-9.56741e-06
0.2318822165398726,-5.125048312106508e-06,0.2318822165398726,-2.1909517153050445e-05,0.2318822165398726,1.0349495201654748e-06,0.2318822165398726,-1.1847257939602335e-05
0.2326763337198036,-5.360375041232372e-06,0.2326763337198036,-2.094160436588828e-05,0.2326763337198036,4.174621856419255e-06,0.2326763337198036,-1.1760254958767627e-05
0.2334704508997347,-5.697185445210386e-06,0.2334704508997347,-2.06455e-05,0.2334704508997347,4.8482503131289365e-06,0.2334704508997347,-8.699090469693405e-06
0.2342645680796658,-6.447214019380821e-06,0.2342645680796658,-2.256081255756318e-05,0.2342645680796658,5.519053007928084e-06,0.2342645680796658,-8.817078660206394e-06
0.2350586852595969,-7.533500519670277e-06,0.2350586852595969,-2.4140147083256435e-05,0.2350586852595969,5.914158960659445e-06,0.2350586852595969,-9.508251559010831e-06
0.2358528024395279,-7.55322e-06,0.2358528024395279,-2.242327041116633e-05,0.2358528024395279,3.6632966499489176e-06,0.2358528024395279,-1.0475880090539624e-05
0.236646919619459,-6.408465965992717e-06,0.236646919619459,-2.1395864130534887e-05,0.236646919619459,2.0830187795801945e-06,0.236646919619459,-9.132688779580194e-06
0.2374410367993901,-4.945704717963558e-06,0.2374410367993901,-2.0546702973932198e-05,0.2374410367993901,3.446755282036442e-06,0.2374410367993901,-1.1027312949100156e-05
0.2382351539793211,-6.466988435317856e-06,0.2382351539793211,-2.0586092082578263e-05,0.2382351539793211,6.426362666031953e-07,0.2382351539793211,-1.2667831564682143e-05
0.2390292711592522,-6.763279760865722e-06,0.2390292711592522,-2.1435443599539453e-05,0.2390292711592522,1.6488197950277618e-06,0.2390292711592522,-1.1433527190544992e-05
0.2398233883391833,-8.64933714205098e-06,0.2398233883391833,-2.0764825199247052e-05,0.2398233883391833,5.03548e-07,0.2398233883391833,-1.02388e-05
0.2406175055191144,-9.21203925028678e-06,0.2406175055191144,-2.0585999625305214e-05,0.2406175055191144,5.03548e-07,0.2406175055191144,-1.02388e-05
0.2414116226990454,-7.829540013092205e-06,0.2414116226990454,-2.16133026592276e-05,0.2414116226990454,7.010847587616327e-07,0.2414116226990454,-1.0969575871266911e-05
0.2422057398789765,-8.22461e-06,0.2422057398789765,-2.3310612051531485e-05,0.2422057398789765,7.009803888727095e-07,0.2422057398789765,-1.1482882629306622e-05
0.2429998570589076,-7.889012972799831e-06,0.2429998570589076,-2.383455375759265e-05,0.2429998570589076,1.8461340544003392e-06,0.2429998570589076,-1.1581497027200169e-05
0.2437939742388386,-7.404834361219805e-06,0.2437939742388386,-2.5414137901242265e-05,0.2437939742388386,-2.2988288194303414e-06,0.2437939742388386,-1.5726786167318834e-05
0.2445880914187697,-8.047574919810057e-06,0.2445880914187697,-2.230444204212114e-05,0.2445880914187697,-4.1088778921906735e-06,0.2445880914187697,-1.592732162063436e-05
0.2453822085987008,-7.33492416702279e-06,0.2453822085987008,-2.3074054596881096e-05,0.2453822085987008,-3.30654416702279e-06,0.2453822085987008,-1.674271916087935e-05
0.2461763257786318,-8.500752626366353e-06,0.2461763257786318,-2.3349987733623228e-05,0.2461763257786318,-5.300800505465414e-06,0.2461763257786318,-1.9243142626366357e-05
0.2469704429585629,-8.066444122724439e-06,0.2469704429585629,-1.967937108451347e-05,0.2469704429585629,-5.342122920302191e-06,0.2469704429585629,-2.0171002368173315e-05
0.247764560138494,-9.152784380917502e-06,0.247764560138494,-2.060591501437804e-05,0.247764560138494,-2.636662077068071e-06,0.247764560138494,-2.351835353049157e-05
0.2485586773184251,-7.948085640030294e-06,0.2485586773184251,-2.222494790012205e-05,0.2485586773184251,1.086736537619822e-07,0.2485586773184251,-2.183012104424538e-05
0.2493527944983561,-6.88182e-06,0.2493527944983561,-2.007346235203377e-05,0.2493527944983561,-2.8639442515341e-07,0.2493527944983561,-1.1464138921235224e-05
0.2501469116782872,-7.789883788570449e-06,0.2501469116782872,-1.904596926705006e-05,0.2501469116782872,3.85214695721844e-07,0.2501469116782872,-5.322921099159413e-06
0.2509410288582183,-7.523950362245581e-06,0.2509410288582183,-2.0606175698291605e-05,0.2509410288582183,8.19733024416875e-07,0.2509410288582183,-3.7199603370970183e-06
0.2517351460381494,-7.434514071910151e-06,0.2517351460381494,-2.1040613053936905e-05,0.2517351460381494,5.03548e-07,0.2517351460381494,-9.447431860829984e-06
0.2525292632180804,-5.430549439430308e-06,0.2525292632180804,-1.8927169221854316e-05,0.2525292632180804,9.97197387833264e-07,0.2525292632180804,-1.1265691578070344e-05
0.2533233803980115,-4.0775385853542444e-06,0.2533233803980115,-1.8363955442329288e-05,0.2533233803980115,2.933158183440446e-06,0.2533233803980115,-1.09102e-05
0.2541174975779426,-3.8211827675598505e-06,0.2541174975779426,-2.3133394676137435e-05,0.2541174975779426,6.0530322423344986e-06,0.2541174975779426,-9.872974141445428e-06
0.2549116147578736,-4.591294405239513e-06,0.2549116147578736,-1.922249363514326e-05,0.2549116147578736,1.747050767961207e-06,0.2549116147578736,-1.0160000723670927e-05
0.2557057319378047,-5.163761972567229e-06,0.2557057319378047,-1.8610901778501105e-05,0.2557057319378047,-6.516160446138609e-07,0.2557057319378047,-1.100891163767967e-05
0.2564998491177358,-5.87472e-06,0.2564998491177358,-1.829579518757644e-05,0.2564998491177358,-8.39300348050584e-07,0.2564998491177358,-1.12459e-05
0.2572939662976669,-4.591947968802042e-06,0.2572939662976669,-2.012302401061491e-05,0.2572939662976669,2.595563046796937e-06,0.2572939662976669,-1.4818564062395915e-05
0.2580880834775979,-2.775290171421741e-06,0.2580880834775979,-2.2936929938456445e-05,0.2580880834775979,3.18914e-06,0.2580880834775979,-1.8244954196256893e-05
0.258882200657529,-3.4630444798299074e-06,0.258882200657529,-2.11986594548555e-05,0.258882200657529,2.1429106220806503e-06,0.258882200657529,-2.24021587558387e-05
0.2596763178374601,-6.643569396916346e-06,0.2596763178374601,-2.092181603279825e-05,0.2596763178374601,2.67475071696576e-06,0.2596763178374601,-2.16146977287704e-05
0.2604704350173911,-5.618111087298432e-06,0.2604704350173911,-1.9935216442014164e-05,0.2604704350173911,3.7217199177348807e-06,0.2604704350173911,-1.866196734740124e-05
0.2612645521973222,-6.88182e-06,0.2612645521973222,-2.0457835845843545e-05,0.2612645521973222,3.3770027574200663e-06,0.2612645521973222,-1.69528e-05
0.2620586693772533,-4.512061509923067e-06,0.2620586693772533,-2.1977461252567147e-05,0.2620586693772533,1.875936419535679e-06,0.2620586693772533,-1.5846861251026558e-05
0.2628527865571843,-6.269111441094052e-06,0.2628527865571843,-2.359644570429576e-05,0.2628527865571843,4.492024463688511e-06,0.2628527865571843,-1.3615754533891689e-05
0.2636469037371154,-7.53392975352357e-06,0.2636469037371154,-2.5522951192869563e-05,0.2636469037371154,5.87472e-06,0.2636469037371154,-1.404982792376266e-05
0.2644410209170465,-7.0399163205886846e-06,0.2644410209170465,-2.485126613603353e-05,0.2644410209170465,5.500015282354739e-06,0.2644410209170465,-1.5016629435290522e-05
0.2652351380969776,-6.112149018313042e-06,0.2652351380969776,-2.2561572761808264e-05,0.2652351380969776,3.071738685178864e-06,0.2652351380969776,-1.7307627975582612e-05
0.2660292552769086,-7.335857746219656e-06,0.2660292552769086,-2.327175099139641e-05,0.2660292552769086,1.8067339610148136e-06,0.2660292552769086,-2.0230587922029627e-05
0.2668233724568397,-7.987251821202084e-06,0.2668233724568397,-2.242336922495077e-05,0.2668233724568397,5.322008205574314e-06,0.2668233724568397,-2.2796957796986678e-05
0.2676174896367708,-7.622687586365315e-06,0.2676174896367708,-2.378574184151094e-05,0.2676174896367708,4.9856877240957455e-06,0.2676174896367708,-1.4086512274531348e-05
0.2684116068167018,-6.160806770790332e-06,0.2684116068167018,-1.951894252147752e-05,0.2684116068167018,4.729456469606052e-06,0.2684116068167018,9.593773173082652e-07
0.2692057239966329,-5.262450678362923e-06,0.2692057239966329,-1.8610891505470835e-05,0.2692057239966329,4.660447524337103e-06,0.2692057239966329,1.4148453141993832e-05
0.269999841176564,-6.881591171555923e-06,0.269999841176564,-1.8295805460606826e-05,0.269999841176564,1.1756836890350217e-06,0.269999841176564,1.2925544142220385e-05
0.270793958356495,-6.88182e-06,0.270793958356495,-1.8829146359973348e-05,0.270793958356495,-4.04613069499013e-07,0.270793958356495,5.04774680830615e-06
0.2715880755364261,-7.079575790154269e-06,0.2715880755364261,-2.18082220675769e-05,0.2715880755364261,-2.457928419691462e-06,0.2715880755364261,-8.758891674757256e-07
0.2723821927163572,-8.185486355094378e-06,0.2723821927163572,-2.5127719999083746e-05,0.2723821927163572,-2.931686124376481e-06,0.2723821927163572,-6.1485843489045866e-06
0.2731763098962882,-8.165041184944161e-06,0.2731763098962882,-2.4219359237400155e-05,0.2731763098962882,-3.52483e-06,0.2731763098962882,-9.053003554832487e-06
0.2739704270762193,-8.540964637395598e-06,0.2739704270762193,-2.419884485153621e-05,0.2739704270762193,-2.85344e-06,0.2739704270762193,-8.008401881623678e-06
0.2747645442561504,-8.421895444150777e-06,0.2747645442561504,-2.4269149080618877e-05,0.2747645442561504,-3.0112660045855105e-06,0.2747645442561504,-4.2162756400938685e-06
0.2755586614360815,-9.537804980943728e-06,0.2755586614360815,-2.351822698666736e-05,0.2755586614360815,-3.682811660314576e-06,0.2755586614360815,-5.400873832330172e-06
0.2763527786160125,-9.192403110777397e-06,0.2763527786160125,-2.49307310570416e-05,0.2763527786160125,-1.984868977243832e-06,0.2763527786160125,-1.1304545577155002e-05
0.2771468957959436,-7.770591333891762e-06,0.2771468957959436,-2.2363392333901768e-05,0.2771468957959436,-2.476378659675582e-07,0.2771468957959436,-1.35958e-05
0.2779410129758747,-8.146604077688605e-06,0.2779410129758747,-1.8433736707687917e-05,0.2779410129758747,1.965435935477745e-06,0.2779410129758747,-1.319946184657002e-05
0.2787351301558057,-5.855622549539906e-06,0.2787351301558057,-1.782172051414299e-05,0.2787351301558057,-3.643569399179428e-07,0.2787351301558057,-1.6477907639107175e-05
0.2795292473357368,-5.835096373292029e-06,0.2795292473357368,-1.9915225519951775e-05,0.2795292473357368,-2.074777447565917e-07,0.2795292473357368,-1.746625723045738e-05
0.2803233645156679,-8.066912797702031e-06,0.2803233645156679,-2.106078089265492e-05,0.2803233645156679,7.799120875950982e-07,0.2803233645156679,-1.7525837063602707e-05
0.2811174816955989,-9.488692603064866e-06,0.2811174816955989,-1.989554679067873e-05,0.2811174816955989,-8.913195479586243e-08,0.2811174816955989,-1.8334958698467568e-05
0.2819115988755301,-9.113022937477334e-06,0.2819115988755301,-2.0882879600341424e-05,0.2819115988755301,1.1554473874997084e-06,0.2819115988755301,-1.7347841473184726e-05
0.2827057160554611,-7.750617403174281e-06,0.2827057160554611,-1.9798871898959403e-05,0.2827057160554611,2.280740171652253e-06,0.2827057160554611,-1.941113607178401e-05
0.2834998332353922,-8.22461e-06,0.2834998332353922,-1.7624469650980455e-05,0.2834998332353922,3.692259531312712e-06,0.2834998332353922,-2.064543991464024e-05
0.2842939504153233,-7.514339927380765e-06,0.2842939504153233,-1.865128730028525e-05,0.2842939504153233,2.084737334899045e-07,0.2842939504153233,-1.8592422874683666e-05
0.2850880675952543,-7.55322e-06,0.2850880675952543,-1.7998796692589175e-05,0.2850880675952543,2.949843705675478e-06,0.2850880675952543,-1.6676923046335995e-05
0.2858821847751854,-8.146375341480198e-06,0.2858821847751854,-1.9815699179534472e-05,0.2858821847751854,1.5252184318793094e-06,0.2858821847751854,-1.8233725383243248e-05
0.2866763019551165,-7.000969071533843e-06,0.2866763019551165,-2.17317384662879e-05,0.2866763019551165,-1.9059145357669216e-06,0.2866763019551165,-2.058592546423308e-05
0.2874704191350475,-5.263082886486432e-06,0.2874704191350475,-2.069676174121535e-05,0.2874704191350475,6.810639029982817e-07,0.2874704191350475,-1.7921232157635455e-05
0.2882645363149786,-4.65029268542378e-06,0.2882645363149786,-1.7031553153310635e-05,0.2882645363149786,1.1348137751417338e-06,0.2882645363149786,-1.6538191543050812e-05
0.2890586534949096,-5.509416381423136e-06,0.2890586534949096,-2.1097327315712543e-05,0.2890586534949096,4.61093973236629e-06,0.2890586534949096,-1.5017569649538303e-05
0.2898527706748408,-5.53903e-06,0.2898527706748408,-2.245240636549949e-05,0.2898527706748408,3.2091254001604523e-06,0.2898527706748408,-1.2944388931973895e-05
0.2906468878547718,-4.86763e-06,0.2906468878547718,-2.23239e-05,0.2906468878547718,3.1492276198682136e-06,0.2906468878547718,-1.41282064374588e-05
0.2914410050347029,-4.53193e-06,0.2914410050347029,-2.204767665402993e-05,0.2914410050347029,3.2476270976320856e-06,0.2914410050347029,-1.4396008214409652e-05
0.292235122214634,-5.04502110494689e-06,0.292235122214634,-2.29953e-05,0.292235122214634,5.22241220989378e-06,0.292235122214634,-1.5174638749142e-05
0.293029239394565,-5.943775573247272e-06,0.293029239394565,-2.325221526739391e-05,0.293029239394565,4.8874559023369714e-06,0.293029239394565,-1.726867409766303e-05
0.2938233565744961,-4.630315819241655e-06,0.2938233565744961,-2.404219557296473e-05,0.2938233565744961,1.6480855675255757e-06,0.2938233565744961,-1.632045727405207e-05
0.2946174737544272,-3.52483e-06,0.2946174737544272,-2.26596e-05,0.2946174737544272,-8.39246e-07,0.2946174737544272,-1.3160586588887531e-05
0.2954115909343582,-4.19623e-06,0.2954115909343582,-2.2975630783553126e-05,0.2954115909343582,1.7674850107359038e-06,0.2954115909343582,-1.331943000715727e-05
0.2962057081142893,-2.85344e-06,0.2962057081142893,-2.181305738083583e-05,0.2962057081142893,1.9943816579577865e-06,0.2962057081142893,-1.3675033368168851e-05
0.2969998252942204,-5.705800234522349e-06,0.2969998252942204,-1.796074750817189e-05,0.2969998252942204,1.8465287834663091e-06,0.2969998252942204,-9.903980989509445e-06
0.2977939424741515,-6.171560073724847e-06,0.2977939424741515,-1.961842297274509e-05,0.2977939424741515,-8.180172877718339e-07,0.2977939424741515,-9.132763308758384e-06
0.2985880596540825,-5.53903e-06,0.2985880596540825,-1.83344864195588e-05,0.2985880596540825,-1.906174512363452e-06,0.2985880596540825,-8.344283133536668e-06
0.2993821768340136,-5.992056536634732e-06,0.2993821768340136,-2.015136836044376e-05,0.2993821768340136,-6.827979835429464e-07,0.2993821768340136,-7.96713435775649e-06
0.3001762940139447,-7.986290748894413e-06,0.3001762940139447,-2.31331617826832e-05,0.3001762940139447,1.055780906889177e-06,0.3001762940139447,-9.940900492416376e-06
0.3009704111938757,-8.797593140179983e-06,0.3009704111938757,-2.0784796240585025e-05,0.3009704111938757,-5.228698934218662e-07,0.3009704111938757,-1.1759111239880013e-05
0.3017645283738068,-9.132715858319928e-06,0.3017645283738068,-2.1830189734919883e-05,0.3017645283738068,-1.0044232642142058e-08,0.3017645283738068,-1.312164508862374e-05
0.3025586455537379,-9.5871575571306e-06,0.3025586455537379,-2.171287887499251e-05,0.3025586455537379,9.774776642490743e-07,0.3025586455537379,-1.5185430404369511e-05
0.3033527627336689,-9.350278710338336e-06,0.3033527627336689,-1.96384e-05,0.3033527627336689,1.17494e-06,0.3033527627336689,-1.4366478957278063e-05
0.3041468799136,-8.65938855055689e-06,0.3041468799136,-2.1435371308224724e-05,0.3041468799136,1.5890275365254428e-06,0.3041468799136,-1.110835710111378e-05
0.3049409970935311,-8.26359031956297e-06,0.3049409970935311,-2.088242860711848e-05,0.3049409970935311,4.137760101238201e-06,0.3049409970935311,-1.0396952017195974e-05
0.3057351142734621,-8.382930336475296e-06,0.3057351142734621,-2.202674970439091e-05,0.3057351142734621,2.162980672950594e-06,0.3057351142734621,-9.725727978412495e-06
0.3065292314533932,-7.691309279823545e-06,0.3065292314533932,-2.017142833214563e-05,0.3065292314533932,1.3527086718796096e-06,0.3065292314533932,-9.646375664060196e-06
0.3073233486333243,-1.0179477175521497e-05,0.3073233486333243,-2.0782196501990127e-05,0.3073233486333243,1.4513171755214978e-06,0.3073233486333243,-1.1334875401027483e-05
0.3081174658132554,-6.6434894638884025e-06,0.3081174658132554,-2.50095e-05,0.3081174658132554,4.341224730148917e-07,0.3081174658132554,-1.0712289711841395e-05
0.3089115829931864,-4.591248541129812e-06,0.3089115829931864,-2.35874316579818e-05,0.3089115829931864,8.39246e-07,0.3089115829931864,-1.0041290729435092e-05
0.3097057001731175,-5.854903058437314e-06,0.3097057001731175,-2.272096489657797e-05,0.3097057001731175,-5.03548e-07,0.3097057001731175,-9.182365647187564e-06
0.3104998173530486,-6.21042e-06,0.3104998173530486,-1.7961199538338e-05,0.3104998173530486,-1.6798057596338385e-07,0.3104998173530486,-8.560507364532995e-06
0.3112939345329796,-6.901241363616983e-06,0.3112939345329796,-1.608359986866315e-05,0.3112939345329796,-2.259727223054606e-06,0.3112939345329796,-9.645088402112384e-06
0.3120880517129107,-6.468038967586122e-06,0.3120880517129107,-1.9122504586113955e-05,0.3120880517129107,-4.0374975270115645e-06,0.3120880517129107,-1.2253e-05
0.3128821688928418,-4.976820331203227e-06,0.3128821688928418,-2.16526e-05,0.3128821688928418,-4.26631388533871e-06,0.3128821688928418,-1.2963506445864517e-05
0.3136762860727728,-5.084158045621675e-06,0.3136762860727728,-1.96384e-05,0.3136762860727728,-3.2487242022121837e-06,0.3136762860727728,-1.4088442068432512e-05
0.314470403252704,-6.901131038337856e-06,0.314470403252704,-1.942145419666141e-05,0.314470403252704,-2.2225151637398235e-06,0.314470403252704,-1.4583588961662144e-05
0.315264520432635,-6.88182e-06,0.315264520432635,-2.0428194640599565e-05,0.315264520432635,1.4773647686168892e-07,0.315264520432635,-1.2430905968946023e-05
0.3160586376125661,-7.513712243176093e-06,0.3160586376125661,-2.1691278345414076e-05,0.3160586376125661,1.8068322431760937e-06,0.3160586376125661,-1.096946163523586e-05
0.3168527547924971,-5.944018886704126e-06,0.3168527547924971,-2.23239e-05,0.3168527547924971,2.18204e-06,0.3168527547924971,-1.1600858222338652e-05
0.3176468719724282,-5.87472e-06,0.3176468719724282,-2.193888065873292e-05,0.3176468719724282,4.116354958539333e-06,0.3176468719724282,-1.3359190016584268e-05
0.3184409891523593,-5.7360966401516914e-06,0.3184409891523593,-2.4081500955115232e-05,0.3184409891523593,7.908394426767795e-06,0.3184409891523593,-1.2272484426767794e-05
0.3192351063322903,-7.23655644420491e-06,0.3192351063322903,-2.4397538736512785e-05,0.3192351063322903,6.172352395123754e-06,0.3192351063322903,-1.3358302333153682e-05
0.3200292235122214,-9.725330903042112e-06,0.3200292235122214,-2.2304096961836237e-05,0.3200292235122214,1.5900393746558715e-06,0.3200292235122214,-1.3951348785181344e-05
0.3208233406921525,-7.987343351898128e-06,0.3208233406921525,-2.16526e-05,0.3208233406921525,-6.019786451110721e-07,0.3208233406921525,-1.182831550951072e-05
0.3216174578720835,-6.2891717950174245e-06,0.3216174578720835,-2.287617597424622e-05,0.3216174578720835,2.281485553306917e-06,0.3216174578720835,-1.1858230288991997e-05
0.3224115750520147,-7.3459253063268865e-06,0.3224115750520147,-2.524680255261392e-05,0.3224115750520147,1.7375205359174954e-06,0.3224115750520147,-1.1976607075102516e-05
0.3232056922319457,-8.22461e-06,0.3232056922319457,-2.370759917330117e-05,0.3232056922319457,2.9516063336927844e-08,0.3232056922319457,-1.2944190239172736e-05
0.3239998094118768,-6.882369184175942e-06,0.3239998094118768,-2.40020301709077e-05,0.3239998094118768,-8.386968141881082e-07,0.3239998094118768,-1.158201189119936e-05
0.3247939265918079,-6.061982764096469e-06,0.3247939265918079,-2.4298187037611483e-05,0.3247939265918079,-2.418781842730979e-06,0.3247939265918079,-1.02388e-05
0.3255880437717389,-7.376266805522756e-06,0.3255880437717389,-2.29953e-05,0.3255880437717389,-1.354516030876005e-06,0.3255880437717389,-1.2232145014609188e-05
0.32638216095167,-8.34191213855236e-06,0.32638216095167,-2.339006890742049e-05,0.32638216095167,2.221140712850787e-06,0.32638216095167,-1.408790285140315e-05
0.3271762781316011,-8.40338509370074e-06,0.3271762781316011,-2.342935329835038e-05,0.3271762781316011,1.827469244750616e-06,0.3271762781316011,-1.4722083395800493e-05
0.3279703953115321,-5.579526194392823e-06,0.3279703953115321,-2.0784837332706403e-05,0.3279703953115321,3.582733503293915e-06,0.3279703953115321,-1.2816324066590253e-05
0.3287645124914632,-6.140772121487421e-06,0.3287645124914632,-1.9756784367569185e-05,0.3287645124914632,5.953611294815895e-06,0.3287645124914632,-1.3674691294815894e-05
0.3295586296713942,-8.81697214290649e-06,0.3295586296713942,-2.078317531033483e-05,0.3295586296713942,5.578548634242146e-06,0.3295586296713942,-1.4247440388574318e-05
0.3303527468513254,-8.678890176365751e-06,0.3303527468513254,-2.09812e-05,0.3303527468513254,6.622083490019057e-07,0.3303527468513254,-1.549141982363425e-05
0.3311468640312564,-7.869715747875247e-06,0.3311468640312564,-2.0467800172282125e-05,0.3311468640312564,8.794406472149728e-08,0.3311468640312564,-1.5373401482611723e-05
0.3319409812111875,-5.942895428139239e-06,0.3319409812111875,-2.0230966837641903e-05,0.3319409812111875,2.9531145718607614e-06,0.3319409812111875,-1.3634757387508137e-05
0.3327350983911186,-7.1779341951700766e-06,0.3327350983911186,-2.3033798342299547e-05,0.3327350983911186,-2.058764244862988e-07,0.3327350983911186,-1.272802965795908e-05
0.3335292155710496,-5.065270339905389e-06,0.3335292155710496,-2.319266942426692e-05,0.3335292155710496,-4.472349320189224e-06,0.3335292155710496,-1.2114435855856104e-05
0.3343233327509807,-4.107262925415608e-06,0.3343233327509807,-2.291567809424701e-05,0.3343233327509807,-8.22461e-06,0.3343233327509807,-1.5491377233887477e-05
0.3351174499309118,-4.4334759236940105e-06,0.3351174499309118,-2.204781341306148e-05,0.3351174499309118,-7.039345348969818e-06,0.3351174499309118,-1.4049644891567187e-05
0.3359115671108428,-6.605415609075059e-06,0.3359115671108428,-2.1968615374007597e-05,0.3359115671108428,-3.0112490559384984e-06,0.3359115671108428,-1.3694519486450394e-05
0.3367056842907739,-6.842151718792257e-06,0.3367056842907739,-2.248152007015956e-05,0.3367056842907739,-2.47186677641444e-07,0.3367056842907739,-1.3289554479194836e-05
0.337499801470705,-8.559880950927672e-06,0.337499801470705,-2.0981842026144e-05,0.337499801470705,2.8527249111123103e-06,0.337499801470705,-1.4266985452032266e-05
0.338293918650636,-9.291862613144876e-06,0.338293918650636,-1.5708038271426433e-05,0.338293918650636,6.42581182572424e-06,0.338293918650636,-1.517533610971728e-05
0.3390880358305671,-7.118627772388584e-06,0.3390880358305671,-1.5784850202104774e-05,0.3390880358305671,8.56031e-06,0.3390880358305671,-1.3991368910445664e-05
0.3398821530104982,-8.146421204906673e-06,0.3398821530104982,-1.961819658597546e-05,0.3398821530104982,6.311551285558278e-06,0.3398821530104982,-1.4423579919348396e-05
0.3406762701904293,-7.55322e-06,0.3406762701904293,-2.04973832018713e-05,0.3406762701904293,2.8753227363502224e-06,0.3406762701904293,-1.6162205162777326e-05
0.3414703873703603,-5.697231209535925e-06,0.3414703873703603,-2.0536999923923892e-05,0.3414703873703603,4.095893256944284e-06,0.3414703873703603,-1.387363553351979e-05
0.3422645045502914,-8.007238361157218e-06,0.3422645045502914,-1.9628219944514637e-05,0.3422645045502914,6.388348851790378e-06,0.3422645045502914,-1.0279117757044564e-05
0.3430586217302225,-6.9707634611971695e-06,0.3430586217302225,-2.292408371188685e-05,0.3430586217302225,5.242860100098745e-06,0.3430586217302225,-4.43341295571245e-06
0.3438527389101535,-7.730212166840195e-06,0.3438527389101535,-2.252286389414208e-05,0.3438527389101535,4.897713059711104e-06,0.3438527389101535,-1.0563562101184537e-06
0.3446468560900846,-9.212529422958651e-06,0.3446468560900846,-1.995442089062501e-05,0.3446468560900846,2.39944647431955e-06,0.3446468560900846,-5.289635549112305e-06
0.3454409732700157,-6.36853351962981e-06,0.3454409732700157,-1.862133924563754e-05,0.3454409732700157,1.7879214658210548e-06,0.3454409732700157,-1.130431888222114e-05
0.3462350904499467,-6.466942669629029e-06,0.3462350904499467,-1.820641763120076e-05,0.3462350904499467,5.827248586561637e-07,0.3462350904499467,-1.2253e-05
0.3470292076298778,-7.059605834012901e-06,0.3470292076298778,-1.898680752225428e-05,0.3470292076298778,1.8772107923372025e-07,0.3470292076298778,-1.17593858340129e-05
0.3478233248098089,-6.467228493517766e-06,0.3478233248098089,-2.0230167840972536e-05,0.3478233248098089,-2.2715448568249567e-07,0.3478233248098089,-1.2825922649380711e-05
0.34861744198974,-7.474445272927822e-06,0.34861744198974,-2.382365232318748e-05,0.34861744198974,-2.8740420303437223e-06,0.34861744198974,-1.4524125272927824e-05
0.349411559169671,-6.486835856952399e-06,0.349411559169671,-2.437747952501512e-05,0.349411559169671,-4.6108537854285976e-06,0.349411559169671,-1.3003323785428598e-05
0.3502056763496021,-4.966301506583731e-06,0.3502056763496021,-2.16526e-05,0.3502056763496021,-4.048767873439028e-07,0.3502056763496021,-1.3990486026334925e-05
0.3509997935295332,-4.3644518462215545e-06,0.3509997935295332,-1.9806934541560427e-05,0.3509997935295332,-8.389485243519653e-07,0.3509997935295332,-1.6280805046045513e-05
0.3517939107094642,-4.235021130110652e-06,0.3517939107094642,-2.183041796756675e-05,0.3517939107094642,2.8708390737177197e-06,0.3517939107094642,-1.6873190682542804e-05
0.3525880278893953,-3.980294861072732e-06,0.3525880278893953,-2.1633177336281254e-05,0.3525880278893953,2.996781638850286e-06,0.3525880278893953,-1.5828626387697606e-05
0.3533821450693264,-3.0097958228835297e-06,0.3533821450693264,-2.1908963747228704e-05,0.3533821450693264,-8.99029055064737e-06,0.3533821450693264,-1.5766356987293623e-05
0.3541762622492574,-5.990851369892214e-06,0.3541762622492574,-2.456531835096371e-05,0.3541762622492574,-7.559369817505416e-06,0.3541762622492574,-1.833328430338769e-05
0.3549703794291886,-7.445194394523123e-06,0.3549703794291886,-2.284026068238323e-05,0.3549703794291886,8.239892922340448e-06,0.3549703794291886,-1.4151539715572363e-05
0.3557644966091196,-8.303489853393688e-06,0.3557644966091196,-2.066487383512103e-05,0.3557644966091196,1.0279163522563143e-05,0.3557644966091196,-9.56741e-06
0.3565586137890507,-7.770497104681973e-06,0.3565586137890507,-2.327060960757169e-05,0.3565586137890507,5.381268519176341e-06,0.3565586137890507,-9.56741e-06
0.3573527309689818,-8.638755320701691e-06,0.3573527309689818,-2.303468078938736e-05,0.3573527309689818,2.65640303690518e-06,0.3573527309689818,-7.000411642393128e-06
0.3581468481489128,-9.094258829332954e-06,0.3581468481489128,-2.354819622924396e-05,0.3581468481489128,-1.114148170079596e-06,0.3581468481489128,-8.520329481666903e-06
0.3589409653288439,-7.236987227726651e-06,0.3589409653288439,-2.348905443166246e-05,0.3589409653288439,-4.176762772273349e-06,0.3589409653288439,-8.550576386136674e-06
0.3597350825087749,-7.040186102164189e-06,0.3597350825087749,-2.522629170788342e-05,0.3597350825087749,-5.143114744589527e-06,0.3597350825087749,-8.39246e-06
0.360529199688706,-6.723911554723985e-06,0.360529199688706,-2.115881840367943e-05,0.360529199688706,-7.750889368027937e-06,0.360529199688706,-1.1028342226380074e-05
0.3613233168686371,-6.941119941634086e-06,0.3613233168686371,-2.141367276309395e-05,0.3613233168686371,-3.326833351623474e-06,0.3613233168686371,-1.2539399883268173e-05
0.3621174340485681,-6.3285992896494525e-06,0.3621174340485681,-2.3105072265942704e-05,0.3621174340485681,-5.429408618575533e-07,0.3621174340485681,-1.383301139131885e-05
0.3629115512284993,-6.328969471218331e-06,0.3629115512284993,-1.9134403708285423e-05,0.3629115512284993,-1.115670852673046e-06,0.3629115512284993,-1.620245901553034e-05
0.3637056684084303,-5.519762524115344e-06,0.3637056684084303,-1.8227008779104685e-05,0.3637056684084303,1.3325731043868184e-06,0.3637056684084303,-1.6558136905719877e-05
0.3644997855883614,-4.196075540800254e-06,0.3644997855883614,-1.8966583942271207e-05,0.3644997855883614,2.853285540800254e-06,0.3644997855883614,-1.4938908918399492e-05
0.3652939027682925,-4.828856068930414e-06,0.3652939027682925,-1.993424867579348e-05,0.3652939027682925,4.708453218449311e-06,0.3652939027682925,-1.5461522223896976e-05
0.3660880199482235,-4.747846314999102e-06,0.3660880199482235,-1.890874741838933e-05,0.3660880199482235,6.447222039374887e-06,0.3660880199482235,-1.62814e-05
0.3668821371281546,-8.185526486190318e-06,0.3668821371281546,-1.79599e-05,0.3668821371281546,4.968830081381224e-06,0.3668821371281546,-1.5906616486190317e-05
0.3676762543080857,-5.956288468917518e-06,0.3676762543080857,-2.062614316223865e-05,0.3676762543080857,3.4652229156250867e-06,0.3676762543080857,-1.561e-05
0.3684703714880167,-6.387902636324513e-06,0.3684703714880167,-2.25614494854442e-05,0.3684703714880167,4.630303954486769e-06,0.3684703714880167,-1.576821736367549e-05
0.3692644886679478,-7.167981199023859e-06,0.3692644886679478,-2.0685316128804567e-05,0.3692644886679478,5.20333e-06,0.3692644886679478,-1.3250929885274431e-05
0.3700586058478789,-7.237296810466784e-06,0.3700586058478789,-1.835601089897728e-05,0.3700586058478789,5.677205373421374e-06,0.3700586058478789,-1.1265676810466785e-05
0.3708527230278099,-6.990371312296572e-06,0.3708527230278099,-1.8353564936761192e-05,0.3708527230278099,2.992125968789316e-06,0.3708527230278099,-1.1206675774326584e-05
0.371646840207741,-7.316655880693934e-06,0.371646840207741,-2.092182252156701e-05,0.371646840207741,2.18204e-06,0.371646840207741,-8.777727940346967e-06
0.3724409573876721,-6.842897010574154e-06,0.3724409573876721,-2.127743727908568e-05,0.3724409573876721,2.4788170105741545e-06,0.3724409573876721,-1.0355568968277537e-05
0.3732350745676032,-5.697405184671438e-06,0.3732350745676032,-2.309318058173561e-05,0.3732350745676032,-7.187569998982361e-07,0.3732350745676032,-1.2253e-05
0.3740291917475342,-6.861925449129824e-06,0.3740291917475342,-2.38346e-05,0.3740291917475342,-3.3470380208793428e-06,0.3740291917475342,-1.09102e-05
0.3748233089274653,-6.091833324440072e-06,0.3748233089274653,-2.368661909822804e-05,0.3748233089274653,-2.6358786237723404e-06,0.3748233089274653,-1.3892271104614811e-05
0.3756174261073964,-5.835322344068593e-06,0.3756174261073964,-2.2857251552499095e-05,0.3756174261073964,9.385486657039033e-07,0.3756174261073964,-1.4977998829563503e-05
0.3764115432873274,-6.88182e-06,0.3764115432873274,-2.2975599964462093e-05,0.3764115432873274,2.912701210992801e-06,0.3764115432873274,-1.37340193945036e-05
0.3772056604672585,-6.447459959443686e-06,0.3772056604672585,-2.279671398184206e-05,0.3772056604672585,5.829838711708085e-07,0.3772056604672585,-1.179941967554949e-05
0.3779997776471896,-6.21042e-06,0.3779997776471896,-2.400211235515049e-05,0.3779997776471896,-8.39246e-07,0.3779997776471896,-6.883261609654428e-06
0.3787938948271206,-8.06540750187901e-06,0.3787938948271206,-2.0230138443708484e-05,0.3787938948271206,2.831965323231277e-06,0.3787938948271206,-4.630911089323866e-06
0.3795880120070517,-8.740024033368717e-06,0.3795880120070517,-2.1827305733534965e-05,0.3795880120070517,3.86053e-06,0.3795880120070517,-8.182804312367347e-06
0.3803821291869828,-6.959975561591986e-06,0.3803821291869828,-2.4476436092350407e-05,0.3803821291869828,2.439584438408013e-06,0.3803821291869828,-1.1995455561591988e-05
0.3811762463669139,-7.55322e-06,0.3811762463669139,-2.3627160758898085e-05,0.3811762463669139,2.2604681288830067e-06,0.3811762463669139,-1.2312614580744662e-05
0.3819703635468449,-8.934517662453638e-06,0.3819703635468449,-2.2246464013440176e-05,0.3819703635468449,4.570437662453639e-06,0.3819703635468449,-1.2291507662453638e-05
0.382764480726776,-1.04067e-05,0.382764480726776,-2.070467163772394e-05,0.382764480726776,5.144687940142557e-06,0.382764480726776,-1.4424936823942976e-05
0.3835585979067071,-1.0880529131240933e-05,0.3835585979067071,-2.09812e-05,0.3835585979067071,1.8070759433307603e-06,0.3835585979067071,-1.557043491303905e-05
0.3843527150866381,-8.600525117514624e-06,0.3843527150866381,-2.015234429832589e-05,0.3843527150866381,-2.864517551196965e-07,0.3843527150866381,-1.2846015542102927e-05
0.3851468322665692,-7.099243673360655e-06,0.3851468322665692,-1.96384e-05,0.3851468322665692,1.84634e-06,0.3851468322665692,-1.3515781633196722e-05
0.3859409494465003,-7.275886705539834e-06,0.3859409494465003,-2.181057375193483e-05,0.3859409494465003,1.84634e-06,0.3859409494465003,-1.564891152339855e-05
0.3867350666264313,-8.481115507495738e-06,0.3867350666264313,-2.1890439962794937e-05,0.3867350666264313,8.203240827488344e-07,0.3867350666264313,-1.62814e-05
0.3875291838063624,-7.0795289884386354e-06,0.3875291838063624,-2.054677419574512e-05,0.3875291838063624,5.03548e-07,0.3875291838063624,-1.5452102996146212e-05
0.3883233009862935,-6.911464250105939e-06,0.3883233009862935,-2.09812e-05,0.3883233009862935,3.653422501059394e-07,0.3883233009862935,-1.4365745999152484e-05
0.3891174181662246,-6.901522281288617e-06,0.3891174181662246,-1.9757626756057157e-05,0.3891174181662246,-2.371870630780648e-07,0.3891174181662246,-1.2963804562577234e-05
0.3899115353461556,-6.605369744965391e-06,0.3899115353461556,-1.801901551615929e-05,0.3899115353461556,-1.51064e-06,0.3899115353461556,-1.42672e-05
0.3907056525260867,-5.6184970935082494e-06,0.3907056525260867,-2.022779619279107e-05,0.3907056525260867,-9.577716707230863e-07,0.3907056525260867,-1.2727091384914749e-05
0.3914997697060178,-3.5251618012439078e-06,0.3914997697060178,-2.1988151041060058e-05,0.3914997697060178,-3.359468499445443e-07,0.3914997697060178,-1.2924068198756093e-05
0.3922938868859488,-4.19623e-06,0.3922938868859488,-1.8887379535830004e-05,0.3922938868859488,-1.67849e-07,0.3922938868859488,-1.2687686822337557e-05
0.3930880040658799,-5.005522612722375e-06,0.3930880040658799,-1.9341514508346423e-05,0.3930880040658799,-1.51064e-06,0.3930880040658799,-1.3850629908044665e-05
0.393882121245811,-4.336570924986434e-06,0.393882121245811,-1.97767412288656e-05,0.393882121245811,-1.51064e-06,0.393882121245811,-1.7327572047782264e-05
0.394676238425742,-3.129519698544214e-06,0.394676238425742,-1.975700234339392e-05,0.394676238425742,-9.584855373119035e-07,0.394676238425742,-1.8176359397088428e-05
0.3954703556056732,-4.709401194902326e-06,0.3954703556056732,-2.086241498424756e-05,0.3954703556056732,-3.260773337577722e-07,0.3954703556056732,-1.75857152203907e-05
0.3962644727856042,-3.031414617479209e-06,0.3962644727856042,-2.147510049637376e-05,0.3962644727856042,9.767222682012455e-07,0.3962644727856042,-1.7011413456301978e-05
0.3970585899655353,-2.8336517235057964e-06,0.3970585899655353,-1.9935513934056585e-05,0.3970585899655353,4.729112654003681e-06,0.3970585899655353,-1.987515861752898e-05
0.3978527071454664,-3.070531158565726e-06,0.3978527071454664,-2.0782112835614365e-05,0.3978527071454664,4.334965365737095e-06,0.3978527071454664,-1.7348879572908466e-05
0.3986468243253974,-7.177496484064104e-06,0.3986468243253974,-2.23239e-05,0.3986468243253974,2.735169406374358e-06,0.3986468243253974,-9.254418735448555e-06
0.3994409415053285,-6.17152052201612e-06,0.3994409415053285,-2.03492934807378e-05,0.3994409415053285,2.51774e-06,0.3994409415053285,-1.2772408145478716e-06
0.4002350586852595,-6.821521293178748e-06,0.4002350586852595,-1.8671552302158036e-05,0.4002350586852595,2.004740426430773e-06,0.4002350586852595,4.056731079963362e-06
0.4010291758651906,-7.59304957077393e-06,0.4010291758651906,-2.0250555690859417e-05,0.4010291758651906,-1.67849e-07,0.4010291758651906,5.341496505483945e-07
0.4018232930451217,-7.079311389750381e-06,0.4018232930451217,-2.4059255764282696e-05,0.4018232930451217,1.263864169251143e-06,0.4018232930451217,-7.040375381120319e-06
0.4026174102250527,-6.921230295590923e-06,0.4026174102250527,-2.546444730211777e-05,0.4026174102250527,7.896270649912101e-07,0.4026174102250527,-1.3873097044090772e-05
0.4034115274049838,-8.757779139469008e-06,0.4034115274049838,-2.1829986905708645e-05,0.4034115274049838,-9.577202637972224e-07,0.4034115274049838,-1.6557861721061987e-05
0.4042056445849149,-6.684522850942206e-06,0.4042056445849149,-2.100171122483258e-05,0.4042056445849149,4.637920788527894e-07,0.4042056445849149,-1.2529805701884413e-05
0.404999761764846,-6.378184189333461e-06,0.404999761764846,-2.16521377136346e-05,0.404999761764846,-1.6716252029126652e-07,0.404999761764846,-1.1917128378666922e-05
0.4057938789447771,-6.980812555351243e-06,0.4057938789447771,-2.1810502578493907e-05,0.4057938789447771,-4.432937444648757e-06,0.4057938789447771,-1.1779585110702484e-05
0.4065879961247081,-7.433363411391044e-06,0.4065879961247081,-2.3686102117658056e-05,0.4065879961247081,-3.051253120291353e-06,0.4065879961247081,-1.2253e-05
0.4073821133046392,-9.005260527847196e-06,0.4073821133046392,-2.301563182690394e-05,0.4073821133046392,-2.9236242130786588e-06,0.4073821133046392,-1.4126831573842684e-05
0.4081762304845703,-8.008162044333674e-06,0.4081762304845703,-2.30743579756548e-05,0.4081762304845703,-5.256035344481495e-07,0.4081762304845703,-1.6162147955666326e-05
0.4089703476645013,-6.88182e-06,0.4089703476645013,-2.410051969546473e-05,0.4089703476645013,1.5298709483824411e-06,0.4089703476645013,-1.5866559169248455e-05
0.4097644648444324,-8.382323941098542e-06,0.4097644648444324,-2.3864826705735627e-05,0.4097644648444324,1.95448939692245e-06,0.4097644648444324,-1.4909269318781803e-05
0.4105585820243635,-8.264198019015784e-06,0.4105585820243635,-2.082426561802478e-05,0.4105585820243635,4.432960542094424e-06,0.4105585820243635,-1.5214917971476325e-05
0.4113526992042945,-1.00407379483345e-05,0.4113526992042945,-2.1217352733420137e-05,0.4113526992042945,4.413315425552012e-06,0.4113526992042945,-1.69528e-05
0.4121468163842256,-1.0555405418164216e-05,0.4121468163842256,-2.0961623620928387e-05,0.4121468163842256,5.56766834982068e-06,0.4121468163842256,-1.4564710836328437e-05
0.4129409335641567,-8.501977692200862e-06,0.4129409335641567,-1.9016350484741343e-05,0.4129409335641567,6.41973265734936e-06,0.4129409335641567,-1.2301607843097476e-05
0.4137350507440878,-7.040231867852941e-06,0.4137350507440878,-1.9549179103511768e-05,0.4137350507440878,2.9533702771694943e-06,0.4137350507440878,-1.424646150020042e-05
0.4145291679240188,-9.01403310898366e-06,0.4145291679240188,-1.9895084124211247e-05,0.4145291679240188,8.5917263767627e-07,0.4145291679240188,-1.49386e-05
0.4153232851039499,-9.962377058789638e-06,0.4153232851039499,-2.3052119879348943e-05,0.4153232851039499,7.406548225387419e-07,0.4153232851039499,-1.294401618189972e-05
0.416117402283881,-8.757388968878624e-06,0.416117402283881,-2.399303796409838e-05,0.416117402283881,2.2907659570930832e-06,0.416117402283881,-1.2253e-05
0.416911519463812,-8.807112853365025e-06,0.416911519463812,-2.144504745657429e-05,0.416911519463812,1.5698668129105571e-06,0.416911519463812,-1.1858073187089444e-05
0.4177056366437431,-1.12459e-05,0.4177056366437431,-1.999462149786296e-05,0.4177056366437431,1.649054316969663e-06,0.4177056366437431,-1.2647571366060672e-05
0.4184997538236742,-1.0071620670740658e-05,0.4184997538236742,-2.064502230408925e-05,0.4184997538236742,8.394233388744693e-07,0.4184997538236742,-1.2924754684088245e-05
0.4192938710036052,-9.311352771901754e-06,0.4192938710036052,-1.7702569435081706e-05,0.4192938710036052,3.029841507185817e-06,0.4192938710036052,-9.726698492814185e-06
0.4200879881835363,-7.81097066718801e-06,0.4200879881835363,-1.7721184905714328e-05,0.4200879881835363,5.754850479506909e-06,0.4200879881835363,-1.030776110971128e-05
0.4208821053634674,-6.88182e-06,0.4208821053634674,-1.989474549431222e-05,0.4208821053634674,4.890846509517098e-06,0.4208821053634674,-1.1066442327019552e-05
0.4216762225433985,-7.019854128561023e-06,0.4216762225433985,-2.027027613880987e-05,0.4216762225433985,1.6895352286338614e-06,0.4216762225433985,-1.2805136514244093e-05
0.4224703397233295,-6.052179753480097e-06,0.4224703397233295,-1.8889576443913942e-05,0.4224703397233295,1.906240616299758e-06,0.4224703397233295,-1.1543160986079611e-05
0.4232644569032606,-6.329863599993272e-06,0.4232644569032606,-1.9875024912713618e-05,0.4232644569032606,-1.0147204981800593e-08,0.4232644569032606,-9.923397349507836e-06
0.4240585740831917,-3.584229227564862e-06,0.4240585740831917,-2.1691155306119943e-05,0.4240585740831917,1.1353409868004889e-06,0.4240585740831917,-8.264209485043242e-06
0.4248526912631227,-3.18914e-06,0.4248526912631227,-2.206698899403466e-05,0.4248526912631227,1.0764844948106474e-06,0.4248526912631227,-9.557329538807465e-06
0.4256468084430538,-4.432748255196479e-06,0.4256468084430538,-2.193894229079458e-05,0.4256468084430538,1.5831036543130605e-07,0.4256468084430538,-1.0593577382794718e-05
0.4264409256229849,-3.52483e-06,0.4264409256229849,-2.3390201012584868e-05,0.4264409256229849,-1.2897204839743857e-07,0.4264409256229849,-1.15816e-05
0.4272350428029159,-4.294295036087309e-06,0.4272350428029159,-2.2404641082289204e-05,0.4272350428029159,1.0165185784020755e-06,0.4272350428029159,-1.2607553381449744e-05
0.428029159982847,-3.920355652681072e-06,0.428029159982847,-2.078368675330824e-05,0.428029159982847,1.3876275173895594e-07,0.428029159982847,-1.368468359415938e-05
0.4288232771627781,-2.85344e-06,0.4288232771627781,-2.2244218191101823e-05,0.4288232771627781,-7.799750150422833e-07,0.4288232771627781,-1.29244e-05
0.4296173943427092,-3.594126770269361e-06,0.4296173943427092,-2.196950160924262e-05,0.4296173943427092,-5.03548e-07,0.4296173943427092,-1.29244e-05
0.4304115115226402,-5.933939464914872e-06,0.4304115115226402,-2.034924116319719e-05,0.4304115115226402,-1.7080976734415502e-06,0.4304115115226402,-1.524456196065277e-05
0.4312056287025713,-3.76189289149848e-06,0.4312056287025713,-2.2461005401713552e-05,0.4312056287025713,4.23970418932286e-07,0.4312056287025713,-1.608412578299696e-05
0.4319997458825024,-3.860346937244755e-06,0.4319997458825024,-2.29953e-05,0.4319997458825024,1.5108230627552455e-06,0.4319997458825024,-1.561e-05
0.4327938630624334,-4.394238042757401e-06,0.4327938630624334,-2.40222742969515e-05,0.4327938630624334,-5.422354104546262e-07,0.4327938630624334,-1.28470241282722e-05
0.4335879802423645,-4.6398308273625065e-06,0.4335879802423645,-2.682374291239398e-05,0.4335879802423645,-1.51064e-06,0.4335879802423645,-1.083227375895624e-05
0.4343820974222956,-6.24947484874116e-06,0.4343820974222956,-2.8248526553644384e-05,0.4343820974222956,-1.7682303025176806e-06,0.4343820974222956,-1.1847042938780027e-05
0.4351762146022266,-6.270057463589078e-06,0.4351762146022266,-2.34295993647216e-05,0.4351762146022266,-1.4510025364109222e-06,0.4351762146022266,-1.2864762536410922e-05
0.4359703317821577,-4.275352983615494e-06,0.4359703317821577,-2.1869499574702055e-05,0.4359703317821577,-7.816216180846433e-07,0.4359703317821577,-1.2253e-05
0.4367644489620888,-6.525802116508292e-06,0.4367644489620888,-2.1711751091663243e-05,0.4367644489620888,1.17494e-06,0.4367644489620888,-1.3160936587381218e-05
0.4375585661420199,-8.658841425601858e-06,0.4375585661420199,-2.175165335793063e-05,0.4375585661420199,1.17494e-06,0.4375585661420199,-1.3141716638715474e-05
0.438352683321951,-1.0890021878573862e-05,0.438352683321951,-2.0092149234301217e-05,0.438352683321951,6.221733337369789e-07,0.438352683321951,-1.1354404648222316e-05
0.439146800501882,-1.079194660541549e-05,0.439146800501882,-2.0605967638277444e-05,0.439146800501882,7.400519710958709e-07,0.439146800501882,-1.0259809852376628e-05
0.4399409176818131,-1.09102e-05,0.4399409176818131,-2.1573614387350872e-05,0.4399409176818131,1.0972093181847633e-06,0.4399409176818131,-9.051472058280329e-06
0.4407350348617442,-9.627794516976324e-06,0.4407350348617442,-1.8219049651492813e-05,0.4407350348617442,3.451139572327793e-07,0.4407350348617442,-1.3120495747908114e-05
0.4415291520416752,-7.237471757981175e-06,0.4415291520416752,-1.541246620724762e-05,0.4415291520416752,8.78278311992195e-07,0.4415291520416752,-1.3240148242018824e-05
0.4423232692216063,-7.987763512719643e-06,0.4423232692216063,-1.8648184272203773e-05,0.4423232692216063,3.919795617367463e-06,0.4423232692216063,-1.561e-05
0.4431173864015373,-9.527982505367932e-06,0.4431173864015373,-2.133557270971152e-05,0.4431173864015373,3.899957494632068e-06,0.4431173864015373,-1.4276729598274247e-05
0.4439115035814684,-8.58015029786061e-06,0.4439115035814684,-2.3587797127545005e-05,0.4439115035814684,5.262533880855757e-06,0.4439115035814684,-1.1956792680370928e-05
0.4447056207613995,-9.48779531484586e-06,0.4447056207613995,-2.2502021021961823e-05,0.4447056207613995,1.571237994820489e-06,0.4447056207613995,-1.2548894126463374e-05
0.4454997379413306,-9.5681651282419e-06,0.4454997379413306,-2.383383720225065e-05,0.4454997379413306,-3.1881960826681534e-06,0.4454997379413306,-1.393112243306726e-05
0.4462938551212617,-8.076098317763665e-06,0.4462938551212617,-2.2244496862912775e-05,0.4462938551212617,-2.2810497543923767e-06,0.4462938551212617,-1.3793819508784751e-05
0.4470879723011927,-1.0970160638664917e-05,0.4470879723011927,-2.070366012433757e-05,0.4470879723011927,-2.973355384261043e-06,0.4470879723011927,-1.2046174944342646e-05
0.4478820894811238,-7.279877353122629e-06,0.4478820894811238,-2.0863247099705145e-05,0.4478820894811238,-7.61148117509532e-07,0.4478820894811238,-1.3228877721119248e-05
0.4486762066610549,-5.479386815699839e-06,0.4486762066610549,-2.032955091870195e-05,0.4486762066610549,-8.579918615814865e-07,0.4486762066610549,-1.495730092265506e-05
0.4494703238409859,-6.7043716879420896e-06,0.4494703238409859,-2.058607952389507e-05,0.4494703238409859,-1.66889168794209e-06,0.4494703238409859,-1.440625506382627e-05
0.450264441020917,-5.381350383168102e-06,0.450264441020917,-2.2728383820592235e-05,0.450264441020917,-9.180843993040918e-07,0.450264441020917,-1.4306608161609165e-05
0.4510585582008481,-4.86763e-06,0.4510585582008481,-2.253310691110408e-05,0.4510585582008481,-2.2728209451539594e-07,0.4510585582008481,-1.554065781934742e-05
0.4518526753807791,-4.86763e-06,0.4518526753807791,-1.8138195663477572e-05,0.4518526753807791,2.497544679532677e-06,0.4518526753807791,-1.62814e-05
0.4526467925607102,-6.012017123862469e-06,0.4526467925607102,-2.0190736852224048e-05,0.4526467925607102,2.2812446768584354e-06,0.4526467925607102,-1.5373504676858436e-05
0.4534409097406413,-6.920674193261504e-06,0.4534409097406413,-2.240303940648909e-05,0.4534409097406413,3.1087113561342853e-06,0.4534409097406413,-1.132904890120842e-05
0.4542350269205724,-6.527312384239049e-06,0.4542350269205724,-1.9323940609986653e-05,0.4542350269205724,4.018976192119525e-06,0.4542350269205724,-4.524520148690176e-06
0.4550291441005034,-4.798677399552567e-06,0.4550291441005034,-1.9519938584703265e-05,0.4550291441005034,2.537703199403423e-06,0.4550291441005034,-3.0113084002982884e-06
0.4558232612804345,-4.591189896656346e-06,0.4558232612804345,-1.95985429073882e-05,0.4558232612804345,2.3301897416408657e-06,0.4558232612804345,-6.07236553938006e-06
0.4566173784603656,-6.052688264073759e-06,0.4566173784603656,-2.3013988142049445e-05,0.4566173784603656,3.465681333188139e-06,0.4566173784603656,-1.093043535349075e-05
0.4574114956402966,-7.21752e-06,0.4574114956402966,-2.368643085462894e-05,0.4574114956402966,2.1228475851716533e-06,0.4574114956402966,-1.0771946207414173e-05
0.4582056128202277,-7.079071284948127e-06,0.4582056128202277,-2.1902609267815965e-05,0.4582056128202277,-9.378698797279958e-07,0.4582056128202277,-1.1384348715051872e-05
0.4589997300001588,-6.882209008354906e-06,0.4589997300001588,-1.863226050232528e-05,0.4589997300001588,-8.394405007010605e-07,0.4589997300001588,-1.040699172729624e-05
0.4597938471800898,-5.53903e-06,0.4597938471800898,-2.0260592585525194e-05,0.4597938471800898,2.6940625629696152e-06,0.4597938471800898,-1.09102e-05
0.4605879643600209,-6.683983947653812e-06,0.4605879643600209,-2.184946947065611e-05,0.4605879643600209,3.386970159106617e-06,0.4605879643600209,-1.1461655790615252e-05
0.461382081539952,-6.8037332345725145e-06,0.461382081539952,-2.19292926054532e-05,0.461382081539952,3.52483e-06,0.461382081539952,-1.3791016913568714e-05
0.4621761987198831,-6.3484455474943735e-06,0.4621761987198831,-2.1435413674850502e-05,0.4621761987198831,2.972736033171001e-06,0.4621761987198831,-1.637850437995499e-05
0.4629703158998141,-3.802979737668206e-06,0.4629703158998141,-2.2757678603343354e-05,0.4629703158998141,2.51774e-06,0.4629703158998141,-1.6103957408653213e-05
0.4637644330797452,-3.37604104632268e-06,0.4637644330797452,-2.394325918136709e-05,0.4637644330797452,2.596574087704896e-06,0.4637644330797452,-1.431676061018941e-05
0.4645585502596763,-5.479579175311823e-06,0.4645585502596763,-2.413997277758973e-05,0.4645585502596763,3.169323058437274e-06,0.4645585502596763,-1.4879149175311822e-05
0.4653526674396073,-6.308844986994328e-06,0.4653526674396073,-2.360891484126989e-05,0.4653526674396073,4.511717480491492e-06,0.4653526674396073,-1.4406050026011344e-05
0.4661467846195384,-7.789700334864385e-06,0.4661467846195384,-2.0784085159513636e-05,0.4661467846195384,5.16527195090708e-06,0.4661467846195384,-1.3813258071442866e-05
0.4669409017994695,-7.198098636382976e-06,0.4669409017994695,-2.0329369112641217e-05,0.4669409017994695,4.0159003304028684e-06,0.4669409017994695,-1.4502977665326191e-05
0.4677350189794005,-6.368877633541772e-06,0.4677350189794005,-2.3921651055482573e-05,0.4677350189794005,7.059062366458228e-06,0.4677350189794005,-1.5353528816770887e-05
0.4685291361593316,-7.039682679587204e-06,0.4685291361593316,-2.431843116365521e-05,0.4685291361593316,4.207183948906935e-06,0.4685291361593316,-1.1127986602063976e-05
0.4693232533392627,-8.955264175945262e-06,0.4693232533392627,-2.36667e-05,0.4693232533392627,6.22054939816031e-07,0.4693232533392627,-1.148291670378105e-05
0.4701173705191938,-7.454152589129125e-06,0.4701173705191938,-2.2364953668590412e-05,0.4701173705191938,1.4712010393405552e-06,0.4701173705191938,-1.2884961039340556e-05
0.4709114876991248,-6.88182e-06,0.4709114876991248,-1.9717343964576515e-05,0.4709114876991248,-1.8856266156383976e-06,0.4709114876991248,-1.146323810239822e-05
0.4717056048790559,-6.487343299897835e-06,0.4717056048790559,-2.0268674820031468e-05,0.4717056048790559,-2.7946603621585007e-06,0.4717056048790559,-1.23117796378415e-05
0.472499722058987,-6.210019556187326e-06,0.472499722058987,-2.198776066590718e-05,0.472499722058987,-3.365990072268977e-07,0.472499722058987,-1.225360067466561e-05
0.473293839238918,-7.751259491145825e-06,0.473293839238918,-2.023042608855828e-05,0.473293839238918,-1.7859568881370502e-06,0.473293839238918,-9.66642827072602e-06
0.4740879564188491,-7.0796617853598754e-06,0.4740879564188491,-2.074237640346137e-05,0.4740879564188491,-3.18914e-06,0.4740879564188491,-1.1048058214640124e-05
0.4748820735987802,-7.186300611077082e-06,0.4748820735987802,-2.23239e-05,0.4748820735987802,-3.298424688323017e-06,0.4748820735987802,-1.2705812949100149e-05
0.4756761907787112,-9.328791497110494e-06,0.4756761907787112,-2.1494586581435627e-05,0.4756761907787112,-9.211289584391038e-07,0.4756761907787112,-1.525207224566574e-05
0.4764703079586423,-8.147920320492742e-06,0.4764703079586423,-1.9225379174217323e-05,0.4764703079586423,1.17494e-06,0.4764703079586423,-1.811816312936428e-05
0.4772644251385734,-5.638237247197624e-06,0.4772644251385734,-1.884872863576457e-05,0.4772644251385734,2.141264587771235e-06,0.4772644251385734,-1.861091346797509e-05
0.4780585423185045,-4.077936686441136e-06,0.4780585423185045,-1.746735533799474e-05,0.4780585423185045,5.775607217605503e-06,0.4780585423185045,-1.9954277325423543e-05
0.4788526594984356,-6.012228956380038e-06,0.4788526594984356,-1.9132292830030626e-05,0.4788526594984356,5.20333e-06,0.4788526594984356,-1.8592190427769603e-05
0.4796467766783666,-8.125382391086812e-06,0.4796467766783666,-2.157354341219206e-05,0.4796467766783666,5.638251130992294e-06,0.4796467766783666,-1.8177363804456598e-05
0.4804408938582977,-6.152173686552658e-06,0.4804408938582977,-2.0783790506805635e-05,0.4804408938582977,3.841114369396705e-06,0.4804408938582977,-1.6568558031679043e-05
0.4812350110382288,-5.97271874783224e-06,0.4812350110382288,-2.03098e-05,0.4812350110382288,3.2683721772038204e-06,0.4812350110382288,-1.5393140004832207e-05
0.4820291282181598,-6.703976958876099e-06,0.4820291282181598,-2.16526e-05,0.4820291282181598,1.5506149858889688e-06,0.4820291282181598,-1.404038111442114e-05
0.4828232453980909,-7.948158455234173e-06,0.4828232453980909,-2.046926938354527e-05,0.4828232453980909,3.5542756788365385e-07,0.4828232453980909,-9.646318977503696e-06
0.483617362578022,-8.22461e-06,0.483617362578022,-2.105952206613868e-05,0.483617362578022,-1.965095124796424e-06,0.483617362578022,-3.919275761733012e-06
0.484411479757953,-6.348685258613244e-06,0.484411479757953,-2.3232300242289893e-05,0.484411479757953,-3.3274011398983607e-06,0.484411479757953,-1.984605258613244e-06
0.4852055969378841,-4.493104967111846e-06,0.4852055969378841,-2.4022972863014647e-05,0.4852055969378841,-1.2347288498016652e-06,0.4852055969378841,7.595314148683466e-07
0.4859997141178152,-3.52462406053515e-06,0.4859997141178152,-2.2324639658184525e-05,0.4859997141178152,-1.67849e-07,0.4859997141178152,8.400697787177576e-07
0.4867938312977463,-5.45930556628083e-06,0.4867938312977463,-2.142520038550953e-05,0.4867938312977463,-2.3196860931330124e-06,0.4867938312977463,-4.075417322396614e-06
0.4875879484776773,-5.775796240813198e-06,0.4875879484776773,-2.167197129856702e-05,0.4875879484776773,-3.3269883752075213e-06,0.4875879484776773,-5.224390420726489e-06
0.4883820656576084,-5.421934249941022e-06,0.4883820656576084,-2.139633155341536e-05,0.4883820656576084,-2.103976166627348e-06,0.4883820656576084,-5.734188420729316e-06
0.4891761828375395,-4.2558903464334536e-06,0.4891761828375395,-2.0842979374088967e-05,0.4891761828375395,-2.890838267832733e-06,0.4891761828375395,-8.045630737891968e-06
0.4899703000174705,-6.5652822998491945e-06,0.4899703000174705,-2.2757658057282737e-05,0.4899703000174705,-4.512767700150806e-06,0.4899703000174705,-9.289191614139485e-06
0.4907644171974016,-5.696672944556787e-06,0.4907644171974016,-2.151525563517981e-05,0.4907644171974016,-1.8667508236744875e-06,0.4907644171974016,-1.34761585239786e-05
0.4915585343773327,-7.158034777229578e-06,0.4915585343773327,-1.811956932239813e-05,0.4915585343773327,-2.075056379827153e-07,0.4915585343773327,-1.653778636963944e-05
0.4923526515572637,-7.651615589314687e-06,0.4923526515572637,-1.793894703486282e-05,0.4923526515572637,-1.4701493457563238e-06,0.4923526515572637,-1.7386902054939573e-05
0.4931467687371948,-8.04726782811381e-06,0.4931467687371948,-1.8453723448646263e-05,0.4931467687371948,-3.9787604625296775e-06,0.4931467687371948,-1.8967e-05
0.4939408859171259,-7.475580409641572e-06,0.4939408859171259,-2.023059771975965e-05,0.4939408859171259,-1.3553619756666772e-06,0.4939408859171259,-1.8592480204820787e-05
0.494735003097057,-5.441048414130629e-06,0.494735003097057,-2.16526e-05,0.494735003097057,1.94431922542081e-06,0.494735003097057,-1.79599e-05
0.495529120276988,-4.86763e-06,0.495529120276988,-2.0665138017253645e-05,0.495529120276988,2.004191238164997e-06,0.495529120276988,-1.748634628550501e-05
0.4963232374569191,-5.716756438816968e-06,0.4963232374569191,-2.1612727527476444e-05,0.4963232374569191,2.1227972654769125e-06,0.4963232374569191,-1.4849727074453896e-05
0.4971173546368502,-5.657380104891485e-06,0.4971173546368502,-2.16526e-05,0.4971173546368502,2.4388391466262764e-06,0.4971173546368502,-1.63606663506899e-05
0.4979114718167812,-5.321640152377773e-06,0.4979114718167812,-2.102069252834888e-05,0.4979114718167812,3.18914e-06,0.4979114718167812,-1.6893641983253944e-05
0.4987055889967123,-7.947650836334052e-06,0.4987055889967123,-2.133748313604503e-05,0.4987055889967123,2.280648443432958e-06,0.4987055889967123,-1.6330689534727586e-05
0.4994997061766434,-7.889544998932236e-06,0.4994997061766434,-2.031018010212257e-05,0.4994997061766434,4.195171674751497e-06,0.4994997061766434,-1.712017666737851e-05
0.5002938233565745,-8.22461e-06,0.5002938233565745,-2.03098e-05,0.5002938233565745,3.5852677957534337e-06,0.5002938233565745,-1.6677530745788776e-05
0.5010879405365055,-6.88182e-06,0.5010879405365055,-2.101993232410366e-05,0.5010879405365055,1.708493251387316e-06,0.5010879405365055,-1.4662906502774632e-05
0.5018820577164366,-9.66498010930755e-06,0.5018820577164366,-2.184991767901301e-05,0.5018820577164366,2.221066183672562e-06,0.5018820577164366,-1.4977626183672562e-05
0.5026761748963677,-9.716582277312216e-06,0.5026761748963677,-1.940144139180033e-05,0.5026761748963677,2.51774e-06,0.5026761748963677,-1.4998266067144504e-05
0.5034702920762988,-8.857708283145862e-06,0.5034702920762988,-1.76242e-05,0.5034702920762988,3.819699146223216e-06,0.5034702920762988,-1.3557498283145862e-05
0.5042644092562298,-8.22461e-06,0.5042644092562298,-1.98157762272622e-05,0.5042644092562298,4.610746925571573e-06,0.5042644092562298,-1.349655077671472e-05
0.5050585264361609,-9.488073437584525e-06,0.5050585264361609,-2.0408878991116904e-05,0.5050585264361609,5.183495859396131e-06,0.5050585264361609,-1.3003736562415476e-05
0.505852643616092,-9.429970313131415e-06,0.505852643616092,-2.0684829092062088e-05,0.505852643616092,4.986284705543968e-06,0.505852643616092,-1.29041358833681e-05
0.506646760796023,-7.118269459031925e-06,0.506646760796023,-2.248137718096754e-05,0.506646760796023,4.650154729515963e-06,0.506646760796023,-1.2333276352420188e-05
0.507440877975954,-8.857201670848319e-06,0.507440877975954,-2.43381e-05,0.507440877975954,3.782913919717626e-06,0.507440877975954,-1.2253e-05
0.5082349951558852,-6.685893512806038e-06,0.5082349951558852,-2.43381e-05,0.5082349951558852,2.51774e-06,0.5082349951558852,-1.1740091957808336e-05
0.5090291123358163,-7.35535185038034e-06,0.5090291123358163,-2.627310434618037e-05,0.5090291123358163,2.3598944825460683e-06,0.5090291123358163,-1.09102e-05
0.5098232295157473,-7.809923756136072e-06,0.5098232295157473,-2.5880287995804152e-05,0.5098232295157473,3.48532330447797e-06,0.5098232295157473,-1.2253e-05
0.5106173466956784,-7.928366159700587e-06,0.5106173466956784,-2.40621058353016e-05,0.5106173466956784,6.052596536537536e-06,0.5106173466956784,-1.2253e-05
0.5114114638756094,-3.900499008293963e-06,0.5114114638756094,-2.36667e-05,0.5114114638756094,4.8084834492813685e-06,0.5114114638756094,-1.4385493101437265e-05
0.5122055810555405,-1.6679535520960885e-06,0.5122055810555405,-2.2050027159992124e-05,0.5122055810555405,1.886231868742347e-06,0.5122055810555405,-1.4682683737484697e-05
0.5129996982354716,-4.195360458388318e-06,0.5129996982354716,-2.2323119307837697e-05,0.5129996982354716,2.5168704519126844e-06,0.5129996982354716,-1.0911721709152802e-05
0.5137938154154027,-2.578190727637476e-06,0.5137938154154027,-2.291610231586893e-05,0.5137938154154027,3.387213888715677e-06,0.5137938154154027,-1.0277387691823423e-05
0.5145879325953338,-3.641570464118193e-06,0.5145879325953338,-2.040660512768356e-05,0.5145879325953338,9.203689308905358e-07,0.5145879325953338,-1.1839476953202993e-05
0.5153820497752648,-4.976949324011629e-06,0.5153820497752648,-2.277749139354144e-05,0.5153820497752648,-7.612054473904001e-07,0.5153820497752648,-1.0949220450658912e-05
0.5161761669551959,-4.255901787855694e-06,0.5161761669551959,-2.325202405054133e-05,0.5161761669551959,1.4883112281523004e-06,0.5161761669551959,-1.2073984636432916e-05
0.5169702841351269,-4.709349708502369e-06,0.5169702841351269,-2.2009058335119815e-05,0.5169702841351269,1.244515722313725e-06,0.5169702841351269,-1.1543321165990528e-05
0.5177644013150581,-6.268776024302554e-06,0.5177644013150581,-2.0250679727427777e-05,0.5177644013150581,2.389295602430255e-06,0.5177644013150581,-1.031761120486051e-05
0.5185585184949891,-8.184930843765064e-06,0.5185585184949891,-1.973748411775411e-05,0.5185585184949891,2.201879873617522e-06,0.5185585184949891,-1.1522080379147434e-05
0.5193526356749202,-6.685061754230462e-06,0.5193526356749202,-1.914534702862928e-05,0.5193526356749202,1.2936004385576156e-06,0.5193526356749202,-1.0269228438792604e-05
0.5201467528548512,-7.789654471437802e-06,0.5201467528548512,-1.7861415992060342e-05,0.5201467528548512,-2.9292644364606616e-06,0.5201467528548512,-8.096916030311056e-06
0.5209408700347823,-7.236918431562187e-06,0.5209408700347823,-1.66761574667416e-05,0.5209408700347823,-6.88182e-06,0.5209408700347823,-8.379796874647292e-06
0.5217349872147133,-8.194333111751106e-06,0.5217349872147133,-1.8728936863038595e-05,0.5217349872147133,-7.394716600769378e-06,0.5217349872147133,-1.2192441501923445e-05
0.5225291043946444,-9.389549796742729e-06,0.5225291043946444,-1.8611692801837426e-05,0.5225291043946444,-6.250465514840133e-06,0.5225291043946444,-1.2746539796742728e-05
0.5233232215745756,-7.88891e-06,0.5233232215745756,-1.840358185153615e-05,0.5233232215745756,-3.840844005805997e-06,0.5233232215745756,-1.2944130589305076e-05
0.5241173387545066,-7.740799770846465e-06,0.5241173387545066,-2.1335418623437152e-05,0.5241173387545066,-9.9709286555058e-07,0.5241173387545066,-1.1660523785428486e-05
0.5249114559344377,-7.079237542345634e-06,0.5249114559344377,-2.1692107189233155e-05,0.5249114559344377,2.9567366191077974e-08,0.5249114559344377,-1.2450417542345637e-05
0.5257055731143687,-6.88182e-06,0.5257055731143687,-2.224153834034138e-05,0.5257055731143687,7.007396051661602e-07,0.5257055731143687,-1.249010302259443e-05
0.5264996902942998,-6.88182e-06,0.5264996902942998,-2.4002199675908368e-05,0.5264996902942998,2.516847569068189e-06,0.5264996902942998,-1.2253e-05
0.5272938074742308,-1.0010511588593803e-05,0.5272938074742308,-2.007264164991318e-05,0.5272938074742308,3.18914e-06,0.5272938074742308,-1.3298667542576046e-05
0.528087924654162,-8.818204152243937e-06,0.528087924654162,-2.0329155889021524e-05,0.528087924654162,3.740477024434877e-06,0.528087924654162,-1.1761688304487874e-05
0.528882041834093,-7.030162641177372e-06,0.528882041834093,-2.044819259401727e-05,0.528882041834093,5.87472e-06,0.528882041834093,-1.110527358822628e-05
0.5296761590140241,-8.537946726303048e-06,0.5296761590140241,-1.912493139236849e-05,0.5296761590140241,4.2185932736969525e-06,0.5296761590140241,-1.3968812457166238e-05
0.5304702761939551,-1.1423313987791288e-05,0.5304702761939551,-2.161091711415241e-05,0.5304702761939551,3.109996993895643e-06,0.5304702761939551,-1.5027280569411314e-05
0.5312643933738862,-8.995293547552024e-06,0.5312643933738862,-2.287706972788596e-05,0.5312643933738862,2.18204e-06,0.5312643933738862,-1.6488614479561132e-05
0.5320585105538173,-8.8563187867375e-06,0.5320585105538173,-2.161413821597318e-05,0.5320585105538173,2.4978943933687496e-06,0.5320585105538173,-1.630124560663125e-05
0.5328526277337483,-7.593813494540788e-06,0.5328526277337483,-1.9924218741263324e-05,0.5328526277337483,1.6090076568572554e-06,0.5328526277337483,-1.4514649274937036e-05
0.5336467449136795,-5.104056526977172e-06,0.5336467449136795,-2.1592914330656895e-05,0.5336467449136795,1.2647463949067442e-06,0.5336467449136795,-1.2687973473022828e-05
0.5344408620936105,-6.959390216514725e-06,0.5344408620936105,-2.285696848009639e-05,0.5344408620936105,-2.0663422379324899e-07,0.5344408620936105,-1.2223908063780028e-05
0.5352349792735416,-7.711732479692915e-06,0.5352349792735416,-2.388335815848906e-05,0.5352349792735416,-8.39246e-07,0.5352349792735416,-1.1364774325690555e-05
0.5360290964534726,-6.21042e-06,0.5360290964534726,-2.252161289387732e-05,0.5360290964534726,6.613811357035574e-07,0.5360290964534726,-1.166049352981268e-05
0.5368232136334037,-4.986081144779445e-06,0.5368232136334037,-2.16526e-05,0.5368232136334037,-7.207953844928725e-07,0.5368232136334037,-1.0515274427610277e-05
0.5376173308133347,-5.53903e-06,0.5376173308133347,-2.259987361863764e-05,0.5376173308133347,8.689634275199944e-07,0.5376173308133347,-1.1423729497087827e-05
0.5384114479932659,-5.815602261938128e-06,0.5384114479932659,-2.457499163140048e-05,0.5384114479932659,7.801210858177261e-07,0.5384114479932659,-1.0120558643274248e-05
0.539205565173197,-7.039073285073876e-06,0.539205565173197,-2.339284186540797e-05,0.539205565173197,2.9332607718095252e-08,0.539205565173197,-9.80451169249358e-06
0.539999682353128,-8.22461e-06,0.539999682353128,-2.182070816030841e-05,0.539999682353128,1.174482348565012e-06,0.539999682353128,-7.890054142220384e-06
0.5407937995330591,-5.263826591405747e-06,0.5407937995330591,-1.949012415975302e-05,0.5407937995330591,1.0758918848402498e-06,0.5407937995330591,-6.9313449427441775e-06
0.5415879167129901,-3.584875006592606e-06,0.5415879167129901,-1.949620176076408e-05,0.5415879167129901,1.17494e-06,0.5415879167129901,-1.0394383191693709e-05
0.5423820338929212,-4.352265938525827e-06,0.5423820338929212,-2.404071588627257e-05,0.5423820338929212,8.002372477723838e-07,0.5423820338929212,-1.3693316651482629e-05
0.5431761510728523,-6.091055319318249e-06,0.5431761510728523,-2.321256683563544e-05,0.5431761510728523,-6.005141496129357e-07,0.5431761510728523,-1.4297032725269066e-05
0.5439702682527834,-6.527003465839514e-06,0.5439702682527834,-2.189024763373125e-05,0.5439702682527834,4.6263286018934644e-07,0.5439702682527834,-1.4622016534160485e-05
0.5447643854327144,-5.223830946246874e-06,0.5447643854327144,-2.258045619532126e-05,0.5447643854327144,2.1615390537531263e-06,0.5447643854327144,-1.46029e-05
0.5455585026126455,-4.19623e-06,0.5455585026126455,-2.29953e-05,0.5455585026126455,3.5049792516966894e-06,0.5455585026126455,-1.4918748660355024e-05
0.5463526197925765,-4.2165457137552174e-06,0.5463526197925765,-2.3706044823070524e-05,0.5463526197925765,3.406161630473152e-06,0.5463526197925765,-1.3714471904585071e-05
0.5471467369725076,-5.141886722573417e-06,0.5471467369725076,-2.2166622978783067e-05,0.5471467369725076,3.60519586885107e-06,0.5471467369725076,-1.2451569878100682e-05
0.5479408541524387,-8.540923034465265e-06,0.5479408541524387,-2.0990862199423308e-05,0.5479408541524387,-8.78019584564278e-07,0.5479408541524387,-1.2340238457363036e-05
0.5487349713323698,-7.198870203019634e-06,0.5487349713323698,-2.20965739427294e-05,0.5487349713323698,-4.848994391326544e-07,0.5487349713323698,-1.3635419764867696e-05
0.5495290885123009,-6.21042e-06,0.5495290885123009,-2.0625923620928352e-05,0.5495290885123009,-1.67849e-07,0.5495290885123009,-1.3871370131923612e-05
0.5503232056922319,-6.21042e-06,0.5503232056922319,-1.908667893721779e-05,0.5503232056922319,3.851088258638369e-07,0.5503232056922319,-1.8650919110072077e-05
0.551117322872163,-7.099099923774927e-06,0.551117322872163,-1.76242e-05,0.551117322872163,-1.67849e-07,0.551117322872163,-2.208707160607197e-05
0.551911440052094,-8.599900885522684e-06,0.551911440052094,-1.920386594882419e-05,0.551911440052094,1.036648548059474e-06,0.551911440052094,-2.43381e-05
0.5527055572320251,-6.013251913958443e-06,0.5527055572320251,-2.0823662114083183e-05,0.5527055572320251,2.2219834658656627e-06,0.5527055572320251,-2.3133828977243777e-05
0.5534996744119562,-6.209950908676627e-06,0.5534996744119562,-1.9639031791365818e-05,0.5534996744119562,-8.376041656957704e-07,0.5534996744119562,-2.031144177421717e-05
0.5542937915918873,-7.4046365722469934e-06,0.5542937915918873,-1.914474091983924e-05,0.5542937915918873,-1.037355466572936e-06,0.5542937915918873,-1.2731734277530062e-05
0.5550879087718184,-7.733371206217601e-06,0.5550879087718184,-2.1729976701195444e-05,0.5550879087718184,-1.6573233579526411e-06,0.5550879087718184,-2.2312707193054167e-06
0.5558820259517494,-5.320338593004973e-06,0.5558820259517494,-2.29953e-05,0.5558820259517494,-4.371743470431671e-06,0.5558820259517494,8.044923006471197e-06
0.5566761431316805,-8.142489128121384e-06,0.5566761431316805,-2.382459037927028e-05,0.5566761431316805,-5.568872696950115e-06,0.5566761431316805,7.851662971900616e-06
0.5574702603116115,-1.0555394907261922e-05,0.5574702603116115,-2.4142086615738098e-05,0.5574702603116115,-8.41974697330422e-07,0.5574702603116115,3.2710123672346944e-06
0.5582643774915427,-7.909436176247594e-06,0.5582643774915427,-2.412060972605345e-05,0.5582643774915427,2.438945957272781e-06,0.5582643774915427,-1.1133730531293322e-06
0.5590584946714737,-6.88182e-06,0.5590584946714737,-2.4555534988705213e-05,0.5590584946714737,3.129568782024118e-06,0.5590584946714737,-8.618012165804101e-06
0.5598526118514048,-7.119175275197498e-06,0.5598526118514048,-2.0865989238601385e-05,0.5598526118514048,4.965974724802502e-06,0.5598526118514048,-1.2113989449605003e-05
0.5606467290313358,-7.907821871329105e-06,0.5606467290313358,-1.7269149627595785e-05,0.5606467290313358,5.182036364982057e-06,0.5606467290313358,-1.3832203594922362e-05
0.5614408462112669,-8.0889419496903e-06,0.5614408462112669,-1.846291419082488e-05,0.5614408462112669,7.120614414732464e-06,0.5614408462112669,-1.4247818767478915e-05
0.5622349633911979,-5.618296500447985e-06,0.5622349633911979,-2.3653500138188045e-05,0.5622349633911979,3.7440196709396014e-06,0.5622349633911979,-1.39315e-05
0.563029080571129,-6.683887903828308e-06,0.563029080571129,-2.337121172071096e-05,0.563029080571129,2.833385269218872e-06,0.563029080571129,-1.4346087810805667e-05
0.5638231977510602,-6.76339173806489e-06,0.5638231977510602,-1.9502190528549007e-05,0.5638231977510602,2.4585258690324447e-06,0.5638231977510602,-1.57580265079177e-05
0.5646173149309912,-6.802861816489302e-06,0.5646173149309912,-2.2204465044011383e-05,0.5646173149309912,2.18204e-06,0.5646173149309912,-1.689357548225203e-05
0.5654114321109223,-6.21042e-06,0.5654114321109223,-2.173168189723444e-05,0.5654114321109223,3.050840343304529e-06,0.5654114321109223,-1.6774871456959074e-05
0.5662055492908533,-8.61892911345763e-06,0.5662055492908533,-2.1474432749401663e-05,0.5662055492908533,5.435081331787224e-07,0.5662055492908533,-1.93027e-05
0.5669996664707844,-9.56741e-06,0.5669996664707844,-2.081383936622473e-05,0.5669996664707844,3.353375973478171e-07,0.5669996664707844,-1.8967240269866245e-05
0.5677937836507154,-8.89601e-06,0.5677937836507154,-1.906564951673194e-05,0.5677937836507154,5.03548e-07,0.5677937836507154,-1.940176135151576e-05
0.5685879008306466,-9.360682874683697e-06,0.5685879008306466,-1.9793118074569133e-05,0.5685879008306466,9.009539152507733e-08,0.5685879008306466,-1.7546445749367394e-05
0.5693820180105776,-7.022533568656893e-06,0.5693820180105776,-2.1929374777455187e-05,0.5693820180105776,-2.400747444187548e-06,0.5693820180105776,-1.7210504962791697e-05
0.5701761351905087,-6.229035101464686e-06,0.5701761351905087,-2.1692067468180302e-05,0.5701761351905087,-1.3062239746394485e-07,0.5701761351905087,-1.689310532929996e-05
0.5709702523704397,-6.172237981753652e-06,0.5709702523704397,-2.231354001640924e-05,0.5709702523704397,3.936909320878327e-06,0.5709702523704397,-1.6439703174342006e-05
0.5717643695503708,-4.639839127056118e-06,0.5717643695503708,-2.16526e-05,0.5717643695503708,6.191574897913907e-06,0.5717643695503708,-1.5767576644032068e-05
0.5725584867303019,-6.802369368993494e-06,0.5725584867303019,-2.2244053200133283e-05,0.5725584867303019,4.245887014181078e-06,0.5725584867303019,-1.5649725611344863e-05
0.573352603910233,-7.336203370612449e-06,0.573352603910233,-2.209568407347348e-05,0.573352603910233,2.1922150559186738e-06,0.573352603910233,-1.6834116629387553e-05
0.5741467210901641,-6.66431606444748e-06,0.5741467210901641,-2.350851491317176e-05,0.5741467210901641,3.6619207369062624e-06,0.5741467210901641,-1.5690419677762598e-05
0.5749408382700951,-6.901195499507358e-06,0.5749408382700951,-2.311385087394428e-05,0.5749408382700951,5.626219170616015e-06,0.5749408382700951,-1.3634550999014715e-05
0.5757349554500262,-6.961094582459708e-06,0.5757349554500262,-2.202876828856307e-05,0.5757349554500262,6.6650318736895615e-06,0.5757349554500262,-1.42672e-05
0.5765290726299572,-7.197453827796784e-06,0.5765290726299572,-2.236305584585135e-05,0.5765290726299572,2.597999389942261e-06,0.5765290726299572,-1.095033234440643e-05
