X [s],R BICEPS BRACHII: EMG 1 [V],X [s].1,R DELTOID ANTERIOR: EMG 2 [V],X [s].5,R DELTOID MEDIUS: EMG 6 [V],X [s].6,R DELTOID POSTERIOR: EMG 7 [V]
0.0,-6.21042e-06,0.0,-1.99741e-05,0.0,1.17494e-06,0.0,-1.42672e-05
0.000794117179931,-6.111684665958194e-06,0.000794117179931,-2.0487523683775095e-05,0.000794117179931,1.7278576670209032e-06,0.000794117179931,-1.5313793997874583e-05
0.0015882343598621,-4.986113351042097e-06,0.0015882343598621,-1.93027e-05,0.0015882343598621,9.083622281755884e-07,0.0015882343598621,-1.5057083351042095e-05
0.0023823515397932,-5.10457473982533e-06,0.0023823515397932,-1.890775607184261e-05,0.0023823515397932,5.03548e-07,0.0023823515397932,-1.2845418027932456e-05
0.0031764687197242,-7.987645062636556e-06,0.0031764687197242,-2.0546759383708265e-05,0.0031764687197242,1.4711455474529296e-06,0.0031764687197242,-1.2805916648957904e-05
0.0039705858996553,-6.170948094178099e-06,0.0039705858996553,-2.2432539089713877e-05,0.0039705858996553,3.7025492999533897e-06,0.0039705858996553,-1.375378070004661e-05
0.0047647030795864,-5.736496363877192e-06,0.0047647030795864,-2.311377492562896e-05,0.0047647030795864,3.2878698927635942e-06,0.0047647030795864,-1.256894994687371e-05
0.0055588202595174,-7.800028668236611e-06,0.0055588202595174,-2.2481963333062108e-05,0.0055588202595174,2.2017915378071342e-06,0.0055588202595174,-1.5807439235350056e-05
0.0063529374394485,-6.56587005312629e-06,0.0063529374394485,-2.1218156316600837e-05,0.0063529374394485,2.8929316223947584e-06,0.0063529374394485,-1.76242e-05
0.0071470546193796,-5.657504095161432e-06,0.0071470546193796,-2.19883e-05,0.0071470546193796,2.132710640174168e-06,0.0071470546193796,-1.817712237556766e-05
0.0079411717993107,-6.01295187140206e-06,0.0079411717993107,-2.254117132306975e-05,0.0079411717993107,-2.4979941888026206e-06,0.0079411717993107,-1.7387229055986897e-05
0.0087352889792417,-5.025616426656364e-06,0.0087352889792417,-2.550317220883692e-05,0.0087352889792417,-3.851009048988634e-07,0.0087352889792417,-1.948041357334364e-05
0.0095294061591728,-5.933962727754382e-06,0.0095294061591728,-2.455531860902813e-05,0.0095294061591728,1.0959572191193276e-06,0.0095294061591728,-1.8730014010655942e-05
0.0103235233391039,-7.67166637731682e-06,0.0103235233391039,-2.344946674856216e-05,0.0103235233391039,3.455196244930275e-07,0.0103235233391039,-1.7505751858486852e-05
0.0111176405190349,-8.22461e-06,0.0111176405190349,-2.361738525342992e-05,0.0111176405190349,2.3597786014182204e-06,0.0111176405190349,-1.6656590349645445e-05
0.011911757698966,-7.227331925118657e-06,0.011911757698966,-2.513790442813138e-05,0.011911757698966,1.727759080189852e-06,0.011911757698966,-1.51064e-05
0.0127058748788971,-7.276651833800808e-06,0.0127058748788971,-2.2876869850296663e-05,0.0127058748788971,1.17494e-06,0.0127058748788971,-1.5264504870667826e-05
0.0134999920588282,-9.23169281943261e-06,0.0134999920588282,-2.333097946338333e-05,0.0134999920588282,8.392517267534398e-07,0.0134999920588282,-1.292442576999811e-05
0.0142941092387592,-8.89601e-06,0.0142941092387592,-2.469352858252065e-05,0.0142941092387592,6.022675591127613e-07,0.0142941092387592,-9.251348090079435e-06
0.0150882264186903,-1.012017914877165e-05,0.0150882264186903,-2.2146268227759524e-05,0.0150882264186903,-1.67849e-07,0.0150882264186903,-8.234393290839675e-06
0.0158823435986214,-1.0021667248380967e-05,0.0158823435986214,-1.910524685912342e-05,0.0158823435986214,5.528309868224608e-07,0.0158823435986214,-9.982057791867704e-06
0.0166764607785524,-7.701307046632895e-06,0.0166764607785524,-1.8927519831741007e-05,0.0166764607785524,2.4585044755318347e-06,0.0166764607785524,-1.0989237890610164e-05
0.0174705779584835,-6.526396242856833e-06,0.0174705779584835,-1.841406617745969e-05,0.0174705779584835,1.954919696428959e-06,0.0174705779584835,-1.0554776242856832e-05
0.0182646951384146,-7.454408203965594e-06,0.0182646951384146,-1.832520258903308e-05,0.0182646951384146,2.5671447219147493e-06,0.0182646951384146,-8.935704202416904e-06
0.0190588123183456,-6.328924821721347e-06,0.0190588123183456,-1.8344947058901373e-05,0.0190588123183456,6.02302037712781e-07,0.0190588123183456,-5.618033018364309e-06
0.0198529294982767,-6.091954677919464e-06,0.0198529294982767,-1.9055652794224268e-05,0.0198529294982767,2.0438787116778534e-06,0.0198529294982767,-7.276894481164589e-06
0.0206470466782078,-6.269644070756575e-06,0.0206470466782078,-2.226471915389836e-05,0.0206470466782078,4.650378141513149e-06,0.0206470466782078,-1.0712592566052594e-05
0.0214411638581389,-7.632154296606534e-06,0.0214411638581389,-2.0862935020381644e-05,0.0214411638581389,3.149672557777741e-06,0.0214411638581389,-1.3042802326666776e-05
0.0222352810380699,-9.024369650354556e-06,0.0222352810380699,-1.813761466979917e-05,0.0222352810380699,2.00430139858178e-06,0.0222352810380699,-1.5452038601418222e-05
0.023029398218001,-8.106159982962672e-06,0.023029398218001,-2.0822872453789896e-05,0.023029398218001,1.17494e-06,0.023029398218001,-1.559024188910203e-05
0.0238235153979321,-5.55882590427379e-06,0.0238235153979321,-2.4476322140656897e-05,0.0238235153979321,1.727903312198444e-06,0.0238235153979321,-1.671592662439689e-05
0.0246176325778631,-5.163833923498759e-06,0.0246176325778631,-2.149455242620018e-05,0.0246176325778631,-9.865988176868076e-09,0.0246176325778631,-1.4128980382506208e-05
0.0254117497577942,-4.946561490709778e-06,0.0254117497577942,-2.1099620640872384e-05,0.0254117497577942,7.603122146654743e-07,0.0254117497577942,-1.2904557324579474e-05
0.0262058669377253,-3.998824066619148e-06,0.0262058669377253,-2.19883e-05,0.0262058669377253,1.125591456868272e-06,0.0262058669377253,-8.481680306618794e-06
0.0269999841176564,-3.52483e-06,0.0269999841176564,-2.0981230807219265e-05,0.0269999841176564,-1.6780891204354346e-07,0.0269999841176564,-5.539041453370404e-06
0.0277941012975874,-4.670178251772776e-06,0.0277941012975874,-2.1020636630850093e-05,0.0277941012975874,1.5501641421966808e-06,0.0277941012975874,-1.1739692451532515e-05
0.0285882184775185,-4.472605178960145e-06,0.0285882184775185,-2.296570436550349e-05,0.0285882184775185,6.221941701210699e-07,0.0285882184775185,-1.4464712410519929e-05
0.0293823356574496,-5.845026091773194e-06,0.0293823356574496,-2.160331337542195e-05,0.0293823356574496,-1.67849e-07,0.0293823356574496,-1.5096492676312222e-05
0.0301764528373806,-8.264105508088293e-06,0.0301764528373806,-2.319267516861224e-05,0.0301764528373806,6.615231283821645e-07,0.0301764528373806,-1.6834317497352074e-05
0.0309705700173117,-8.441888464689773e-06,0.0309705700173117,-2.293603520514116e-05,0.0309705700173117,9.972370232142374e-07,0.0309705700173117,-1.557057538821688e-05
0.0317646871972428,-7.168106687801556e-06,0.0317646871972428,-1.851286462975957e-05,0.0317646871972428,1.4118133756031115e-06,0.0317646871972428,-1.363526713576229e-05
0.0325588043771738,-7.71119168573284e-06,0.0325588043771738,-1.819687133940153e-05,0.0325588043771738,2.497983371465682e-06,0.0325588043771738,-1.4237562114596716e-05
0.0333529215571049,-8.323367902127338e-06,0.0333529215571049,-1.9559439663482017e-05,0.0333529215571049,2.51774e-06,0.0333529215571049,-1.3714271048936332e-05
0.034147038737036,-8.323425170685302e-06,0.034147038737036,-1.90459860092007e-05,0.034147038737036,1.3329799062360384e-06,0.034147038737036,-1.303299643378164e-05
0.0349411559169671,-7.059533997127667e-06,0.0349411559169671,-1.8650820915410264e-05,0.0349411559169671,7.800623110676955e-07,0.0349411559169671,-1.42672e-05
0.0357352730968981,-7.987653074447218e-06,0.0357352730968981,-2.307428406967928e-05,0.0357352730968981,-1.3230531999384566e-06,0.0357352730968981,-1.3240345704586757e-05
0.0365293902768292,-7.31627217161218e-06,0.0365293902768292,-2.4535717442745927e-05,0.0365293902768292,4.24469163635652e-07,0.0365293902768292,-1.1087934781074789e-05
0.0373235074567603,-7.296551074432531e-06,0.0373235074567603,-2.188959247176241e-05,0.0373235074567603,1.1849727228787836e-06,0.0373235074567603,-1.1700025234089955e-05
0.0381176246366913,-5.993225410071114e-06,0.0381176246366913,-1.8532589400542283e-05,0.0381176246366913,-1.3723846296099948e-06,0.0381176246366913,-1.1660603606714075e-05
0.0389117418166224,-5.144062447518119e-06,0.0389117418166224,-1.72687419449926e-05,0.0389117418166224,-9.840912495966128e-09,0.0389117418166224,-8.382513225300151e-06
0.0397058589965535,-4.916978619917315e-06,0.0397058589965535,-1.9934560698193888e-05,0.0397058589965535,3.0615440234360734e-07,0.0397058589965535,-8.244094798756628e-06
0.0404999761764846,-6.378201278242216e-06,0.0404999761764846,-2.098118459639037e-05,0.0404999761764846,-1.8462540976236452e-06,0.0404999761764846,-1.2252879736028256e-05
0.0412940933564156,-7.168154199515296e-06,0.0412940933564156,-1.9460695975835275e-05,0.0412940933564156,3.455903480061219e-07,0.0412940933564156,-1.2114763201938818e-05
0.0420882105363467,-6.032819459669952e-06,0.0420882105363467,-1.9045908991152536e-05,0.0420882105363467,7.99826382817458e-07,0.0420882105363467,-1.0702947787216792e-05
0.0428823277162778,-4.946564884444518e-06,0.0428823277162778,-2.03098e-05,0.0428823277162778,1.372277211111295e-06,0.0428823277162778,-9.56741e-06
0.0436764448962088,-6.368380830339418e-06,0.0436764448962088,-2.1435297940066143e-05,0.0436764448962088,3.682790830339418e-06,0.0436764448962088,-1.0949666873979893e-05
0.0444705620761399,-5.87472e-06,0.0444705620761399,-2.1889517600707337e-05,0.0444705620761399,2.636333156829575e-06,0.0444705620761399,-1.207529957268002e-05
0.045264679256071,-6.180892189333955e-06,0.045264679256071,-2.09812e-05,0.045264679256071,-1.155052848929389e-06,0.045264679256071,-1.156170826004762e-05
0.046058796436002,-4.275279421560448e-06,0.046058796436002,-2.1573580217821564e-05,0.046058796436002,-2.18204e-06,0.046058796436002,-1.4800263512269216e-05
0.0468529136159331,-5.519293201869229e-06,0.0468529136159331,-2.307425520198144e-05,0.0468529136159331,-4.2453099679047604e-07,0.0468529136159331,-1.6992290414291515e-05
0.0476470307958642,-6.960648407305445e-06,0.0476470307958642,-2.4101126568788275e-05,0.0476470307958642,1.5302500634046677e-06,0.0476470307958642,-1.7742636687801555e-05
0.0484411479757953,-7.533497732600466e-06,0.0484411479757953,-2.35680021466208e-05,0.0484411479757953,1.826617732600466e-06,0.0484411479757953,-1.82956e-05
0.0492352651557263,-6.9608121530024825e-06,0.0492352651557263,-2.2225276320119792e-05,0.0492352651557263,1.253932153002483e-06,0.0492352651557263,-1.7782184306004967e-05
0.0500293823356574,-7.059560506700593e-06,0.0500293823356574,-2.427852403821578e-05,0.0500293823356574,1.8067779731976264e-06,0.0500293823356574,-1.5827302533502965e-05
0.0508234995155885,-6.644994202927805e-06,0.0508234995155885,-2.5128017522825124e-05,0.0508234995155885,1.8661727745270372e-06,0.0508234995155885,-1.2529493109810817e-05
0.0516176166955195,-5.242837530212832e-06,0.0516176166955195,-2.3271742382768837e-05,0.0516176166955195,2.3597098791486725e-06,0.0516176166955195,-1.2993437058818562e-05
0.0524117338754506,-7.464393389043107e-06,0.0524117338754506,-2.5562320862736368e-05,0.0524117338754506,3.18914e-06,0.0524117338754506,-1.6656646345696025e-05
0.0532058510553817,-8.22461e-06,0.0532058510553817,-2.585863995899933e-05,0.0532058510553817,2.991756974042328e-06,0.0532058510553817,-1.890752650776624e-05
0.0539999682353128,-7.7211043604524e-06,0.0539999682353128,-2.45060718804526e-05,0.0539999682353128,1.6785472685579648e-06,0.0539999682353128,-2.0645454185153628e-05
0.0547940854152438,-6.407894655650406e-06,0.0547940854152438,-2.0941804437532295e-05,0.0547940854152438,2.3202653443495943e-06,0.0547940854152438,-2.0507274655650405e-05
0.0555882025951749,-6.88182e-06,0.0555882025951749,-2.137606046483275e-05,0.0555882025951749,3.307829572986119e-06,0.0555882025951749,-1.7683971154731174e-05
0.056382319775106,-7.118865711583837e-06,0.056382319775106,-2.192908333327813e-05,0.056382319775106,-1.67849e-07,0.056382319775106,-1.0002307478197002e-05
0.057176436955037,-6.7929409424466645e-06,0.057176436955037,-2.1070070470701275e-05,0.057176436955037,1.214378416376447e-06,0.057176436955037,-2.8041898727747445e-06
0.0579705541349681,-7.493901460976538e-06,0.0579705541349681,-2.0803459981452163e-05,0.0579705541349681,4.838581845893139e-07,0.0579705541349681,1.53032940338836e-06
0.0587646713148992,-8.974956338156111e-06,0.0587646713148992,-2.09812e-05,0.0587646713148992,2.162125352624444e-06,0.0587646713148992,-1.0163411337861054e-06
0.0595587884948302,-8.915778082245907e-06,0.0595587884948302,-2.1455122140656896e-05,0.0595587884948302,2.3993102056147643e-06,0.0595587884948302,-9.290658026280418e-06
0.0603529056747613,-8.461575005295855e-06,0.0603529056747613,-2.2008123248262555e-05,0.0603529056747613,2.043809989408289e-06,0.0603529056747613,-1.2253e-05
0.0611470228546924,-8.22461e-06,0.0611470228546924,-1.9440977669642716e-05,0.0611470228546924,2.360125390108191e-06,0.0611470228546924,-9.044733365481115e-06
0.0619411400346235,-8.24432654054374e-06,0.0619411400346235,-1.849298543768532e-05,0.0619411400346235,5.6269715177026e-07,0.0619411400346235,-3.11027383782504e-06
0.0627352572145545,-8.817012120141715e-06,0.0627352572145545,-1.8967e-05,0.0627352572145545,2.0240442402834286e-06,0.0627352572145545,-6.911865767795065e-07
0.0635293743944856,-7.41505340218523e-06,0.0635293743944856,-2.1119241480961724e-05,0.0635293743944856,2.4979475353472246e-06,0.0635293743944856,-7.996598360089894e-07
0.0643234915744167,-4.986032326666774e-06,0.0643234915744167,-2.050735487739125e-05,0.0643234915744167,3.742129436847177e-06,0.0643234915744167,-4.3341375431531445e-06
0.0651176087543477,-6.4275814058348165e-06,0.0651176087543477,-1.9796296347019672e-05,0.0651176087543477,1.2639349939054063e-06,0.0651176087543477,-6.249933257068636e-06
0.0659117259342788,-5.815481237345915e-06,0.0659117259342788,-2.2876695944204635e-05,0.0659117259342788,8.984879391350062e-07,0.0659117259342788,-1.0712765395660304e-05
0.0667058431142099,-6.447010456221087e-06,0.0667058431142099,-2.5325409814905737e-05,0.0667058431142099,7.802000891797181e-07,0.0667058431142099,-1.865070050286127e-05
0.067499960294141,-8.89595273144203e-06,0.067499960294141,-2.3666854036096312e-05,0.067499960294141,-3.356836829458049e-07,0.067499960294141,-2.03098e-05
0.068294077474072,-6.407906109362011e-06,0.068294077474072,-2.2639912485861767e-05,0.068294077474072,-8.39246e-07,0.068294077474072,-2.157355707033572e-05
0.0690881946540031,-7.355690408912679e-06,0.0690881946540031,-2.1040350936145143e-05,0.0690881946540031,7.798855251137981e-07,0.0690881946540031,-2.246207040891268e-05
0.0698823118339342,-7.178064011489333e-06,0.0698823118339342,-2.179086739331462e-05,0.0698823118339342,-7.008270022855105e-07,0.0698823118339342,-2.2343633870929228e-05
0.0706764290138652,-6.32893686378271e-06,0.0706764290138652,-2.106011926022564e-05,0.0706764290138652,-1.7673776478370324e-06,0.0706764290138652,-2.4012187450697027e-05
0.0714705461937963,-6.526442047863248e-06,0.0714705461937963,-2.3390241570570278e-05,0.0714705461937963,1.2142996698028194e-06,0.0714705461937963,-2.50095e-05
0.0722646633737274,-4.86763e-06,0.0722646633737274,-2.453588174791537e-05,0.0722646633737274,2.359858777399384e-06,0.0722646633737274,-2.443697816609908e-05
0.0730587805536585,-4.86763e-06,0.0730587805536585,-2.0428323099287564e-05,0.0730587805536585,-6.810563518313663e-07,0.0730587805536585,-2.2718921427305118e-05
0.0738528977335895,-4.63065354099255e-06,0.0738528977335895,-1.982576395634391e-05,0.0738528977335895,-2.0737714151816722e-07,0.0738528977335895,-1.5057188131067048e-05
0.0746470149135206,-5.598239089334701e-06,0.0746470149135206,-2.200791788209584e-05,0.0746470149135206,1.056516882536208e-06,0.0746470149135206,-1.5517375563222475e-06
0.0754411320934517,-5.61787266759614e-06,0.0754411320934517,-2.29953e-05,0.0754411320934517,-3.258426518715924e-07,0.0754411320934517,1.4246873019006982e-05
0.0762352492733827,-6.88182e-06,0.0762352492733827,-2.2857120554557725e-05,0.0762352492733827,-1.67849e-07,0.0762352492733827,1.6735736067140746e-05
0.0770293664533138,-4.907237831808767e-06,0.0770293664533138,-2.4160472285740524e-05,0.0770293664533138,-1.5896140210239045e-06,0.0770293664533138,1.4521983478389144e-06
0.0778234836332449,-4.255425436477588e-06,0.0778234836332449,-2.2353680550073975e-05,0.0778234836332449,-1.4514445635224122e-06,0.0778234836332449,-7.316438254089648e-06
0.078617600813176,-5.124292032151152e-06,0.078617600813176,-2.199810672524032e-05,0.078617600813176,-1.17494e-06,0.078617600813176,-4.729523742410804e-06
0.079411717993107,-9.192174192267536e-06,0.079411717993107,-2.264971621580001e-05,0.079411717993107,-1.51064e-06,0.079411717993107,-3.722296595673556e-06
0.0802058351730381,-1.012076246539319e-05,0.0802058351730381,-2.015185022609494e-05,0.0802058351730381,-9.775822330904068e-07,0.0802058351730381,-6.901177475339569e-06
0.0809999523529692,-6.881957443515569e-06,0.0809999523529692,-2.299502274420363e-05,0.0809999523529692,5.034449170050749e-07,0.0809999523529692,-1.158129075081051e-05
0.0817940695329002,-8.313440987736255e-06,0.0817940695329002,-2.3429979635350744e-05,0.0817940695329002,1.7777144122095585e-07,0.0817940695329002,-1.6449120649046046e-05
0.0825881867128313,-6.329165387491294e-06,0.0825881867128313,-1.957926446746447e-05,0.0825881867128313,-2.0535870230853366e-06,0.0825881867128313,-1.79599e-05
0.0833823038927624,-6.368221046619471e-06,0.0833823038927624,-1.9618437365687877e-05,0.0833823038927624,-1.0565902726831626e-06,0.0833823038927624,-1.815715130827434e-05
0.0841764210726934,-8.106083447896181e-06,0.0841764210726934,-2.194884550442373e-05,0.0841764210726934,9.378853069409234e-07,0.0841764210726934,-1.9914835841252845e-05
0.0849705382526245,-7.355865541590052e-06,0.0849705382526245,-2.16526e-05,0.0849705382526245,3.169468792032634e-06,0.0849705382526245,-2.1099517841138015e-05
0.0857646554325556,-7.335922326666779e-06,0.0857646554325556,-2.086280570605192e-05,0.0857646554325556,1.6490051402406368e-06,0.0857646554325556,-2.19883e-05
0.0865587726124866,-6.931268839893759e-06,0.0865587726124866,-1.9361996794978555e-05,0.0865587726124866,1.1650508212239876e-06,0.0865587726124866,-2.0724618143830014e-05
0.0873528897924177,-5.420536043640476e-06,0.0873528897924177,-1.9954159193487235e-05,0.0873528897924177,9.57737838505076e-07,0.0873528897924177,-2.03098e-05
0.0881470069723488,-6.565678521702512e-06,0.0881470069723488,-2.1751280357959388e-05,0.0881470069723488,7.403841924365933e-07,0.0881470069723488,-2.0546639014468343e-05
0.0889411241522799,-6.111895152824275e-06,0.0889411241522799,-2.0783835100460853e-05,0.0889411241522799,3.3270750208400203e-06,0.0889411241522799,-2.100090508683215e-05
0.0897352413322109,-4.91696599964519e-06,0.0897352413322109,-2.141554441620357e-05,0.0897352413322109,6.309094352860042e-06,0.0897352413322109,-2.106020933356988e-05
0.090529358512142,-5.223145367156001e-06,0.090529358512142,-2.481180040466936e-05,0.090529358512142,2.5969961734889564e-06,0.090529358512142,-1.9480457683578e-05
0.0913234756920731,-5.124264564432698e-06,0.0913234756920731,-2.3903827467308e-05,0.0913234756920731,1.0366930916381377e-06,0.0913234756920731,-1.9125130871134605e-05
0.0921175928720041,-7.908414668522038e-06,0.0921175928720041,-2.0428376837035943e-05,0.0921175928720041,1.17494e-06,0.0921175928720041,-1.651854826468134e-05
0.0929117100519352,-8.30362739354673e-06,0.0929117100519352,-1.9164470835603637e-05,0.0929117100519352,9.774826604202922e-07,0.0929117100519352,-1.3042896680003025e-05
0.0937058272318663,-6.013074274537632e-06,0.0937058272318663,-1.946064464035726e-05,0.0937058272318663,7.008943133344708e-07,0.0937058272318663,-1.4108974860242604e-05
0.0944999444117974,-4.8677101759811455e-06,0.0944999444117974,-2.0477510150963757e-05,0.0944999444117974,5.036281750258167e-07,0.0944999444117974,-1.4267280175981146e-05
0.0952940615917284,-4.393739016785187e-06,0.0952940615917284,-2.267926697994704e-05,0.0952940615917284,9.774333366138816e-07,0.0952940615917284,-1.1739672541962966e-05
0.0960881787716595,-4.946406865603264e-06,0.0960881787716595,-2.090237316143214e-05,0.0960881787716595,3.070371705256088e-06,0.0960881787716595,-1.193669477600544e-05
0.0968822959515906,-5.420696395602795e-06,0.0968822959515906,-1.8947392406857367e-05,0.0968822959515906,3.070806395602794e-06,0.0968822959515906,-1.2095221860803724e-05
0.0976764131315216,-5.914072337546371e-06,0.0976764131315216,-1.8078248083119194e-05,0.0976764131315216,1.3527496568088287e-06,0.0976764131315216,-9.804487776850687e-06
0.0984705303114527,-8.649148762408385e-06,0.0984705303114527,-1.8641163126256535e-05,0.0984705303114527,1.0169203491684289e-06,0.0984705303114527,-8.89601e-06
0.0992646474913838,-7.138590842411282e-06,0.0992646474913838,-1.8354792012437497e-05,0.0992646474913838,2.0831274727661537e-06,0.0992646474913838,-9.21172427917353e-06
0.1000587646713148,-8.1460126928754e-06,0.1000587646713148,-1.9104735405658684e-05,0.1000587646713148,3.1694905268867597e-06,0.1000587646713148,-1.1186951580660278e-05
0.1008528818512459,-7.572964615975691e-06,0.1008528818512459,-2.097989185808331e-05,0.1008528818512459,3.18914e-06,0.1008528818512459,-1.2805917284867252e-05
0.101646999031177,-7.177811799817904e-06,0.101646999031177,-2.4318704309240903e-05,0.101646999031177,2.2809465601456765e-06,0.101646999031177,-1.3950990159781485e-05
0.1024411162111081,-8.817705963196039e-06,0.1024411162111081,-2.240223969078303e-05,0.1024411162111081,8.979741150746197e-07,0.1024411162111081,-1.592612384501293e-05
0.1032352333910391,-6.526717430284531e-06,0.1032352333910391,-1.9323139313620194e-05,0.1032352333910391,2.3595912848577348e-06,0.1032352333910391,-1.5096748715142266e-05
0.1040293505709702,-7.513883848053961e-06,0.1040293505709702,-2.1929924389866315e-05,0.1040293505709702,7.008928200235985e-07,0.1040293505709702,-1.3052546410927758e-05
0.1048234677509013,-9.32977545941998e-06,0.1048234677509013,-2.3074747600086268e-05,0.1048234677509013,8.39246e-07,0.1048234677509013,-9.606058593969202e-06
0.1056175849308323,-6.446123845519835e-06,0.1056175849308323,-2.03098e-05,0.1056175849308323,-3.4641202497234054e-07,0.1056175849308323,-7.63178716836225e-06
0.1064117021107634,-8.145999911244682e-06,0.1064117021107634,-2.0625902694765504e-05,0.1064117021107634,1.4872561999911573e-07,0.1064117021107634,-9.014991063082108e-06
0.1072058192906945,-8.79723529916956e-06,0.1072058192906945,-2.2461375194083613e-05,0.1072058192906945,2.07225074448816e-07,0.1072058192906945,-1.0298198803321758e-05
0.1079999364706256,-7.5533572957031425e-06,0.1079999364706256,-2.29953e-05,0.1079999364706256,1.677574690313647e-07,0.1079999364706256,-1.2924171171555942e-05
0.1087940536505566,-7.88891e-06,0.1087940536505566,-1.9598158300640677e-05,0.1087940536505566,2.1222742838010496e-06,0.1087940536505566,-1.1206799287149212e-05
0.1095881708304877,-6.072406993989812e-06,0.1095881708304877,-2.007167560495892e-05,0.1095881708304877,2.51774e-06,0.1095881708304877,-1.1186226012020376e-05
0.1103822880104188,-7.0692662205350505e-06,0.1103822880104188,-2.16526e-05,0.1103822880104188,3.149947558929899e-06,0.1103822880104188,-1.3870147087490707e-05
0.1111764051903498,-7.493719833477373e-06,0.1111764051903498,-2.2107213512850622e-05,0.1111764051903498,2.024840499567882e-06,0.1111764051903498,-1.5393300333045254e-05
0.1119705223702809,-8.244092659670876e-06,0.1119705223702809,-2.29953e-05,0.1119705223702809,1.1359789128019458e-06,0.1119705223702809,-1.11679693613165e-05
0.112764639550212,-8.481327173806489e-06,0.112764639550212,-2.2462153987513292e-05,0.112764639550212,-3.258139465530104e-07,0.112764639550212,-8.125858478580537e-06
0.1135587567301431,-7.592555180535981e-06,0.1135587567301431,-2.185043116741334e-05,0.1135587567301431,-1.6293206435101229e-06,0.1135587567301431,-1.0476161169844891e-05
0.1143528739100741,-6.88182e-06,0.1143528739100741,-2.2125560004393774e-05,0.1143528739100741,-2.7349515518535434e-06,0.1143528739100741,-1.05350387683328e-05
0.1151469910900052,-6.664510986913453e-06,0.1151469910900052,-2.3409917901898352e-05,0.1151469910900052,-1.3135833802415466e-06,0.1151469910900052,-1.0673418026173092e-05
0.1159411082699363,-7.514079156053254e-06,0.1159411082699363,-2.0348970502590658e-05,0.1159411082699363,-8.783864941626181e-07,0.1159411082699363,-9.182783945066568e-06
0.1167352254498673,-5.342108114016378e-06,0.1167352254498673,-1.950018968587142e-05,0.1167352254498673,-1.1257177617463131e-06,0.1167352254498673,-8.777389882576645e-06
0.1175293426297984,-5.499670965379939e-06,0.1175293426297984,-1.9756989828175985e-05,0.1175293426297984,4.6419149468760006e-07,0.1175293426297984,-1.0061111418075831e-05
0.1183234598097295,-5.360821256698298e-06,0.1183234598097295,-2.145395536659804e-05,0.1183234598097295,9.179952744443864e-07,0.1183234598097295,-1.1997420401037304e-05
0.1191175769896605,-4.53193e-06,0.1191175769896605,-2.23239e-05,0.1191175769896605,5.03548e-07,0.1191175769896605,-1.541355048848453e-05
0.1199116941695916,-5.934203179617517e-06,0.1199116941695916,-1.9795213694723662e-05,0.1199116941695916,1.17494e-06,0.1199116941695916,-1.2548373270702271e-05
0.1207058113495227,-5.864731554821001e-06,0.1207058113495227,-1.9419811272011356e-05,0.1207058113495227,1.0761727974910043e-06,0.1207058113495227,-1.15816e-05
0.1214999285294538,-4.867655743199957e-06,0.1214999285294538,-2.1652415085453868e-05,0.1214999285294538,-1.676945415671057e-07,0.1214999285294538,-1.3763265346069065e-05
0.1222940457093848,-5.775850783190126e-06,0.1222940457093848,-2.2176210576649334e-05,0.1222940457093848,3.058045594491964e-07,0.1222940457093848,-1.4563816486190308e-05
0.1230881628893159,-6.822134545992948e-06,0.1230881628893159,-2.3370019968953223e-05,0.1230881628893159,1.253265352371495e-06,0.1230881628893159,-1.5016921818989422e-05
0.123882280069247,-9.56741e-06,0.123882280069247,-2.3410015495686587e-05,0.123882280069247,2.942916583887215e-06,0.123882280069247,-1.5531626583887217e-05
0.124676397249178,-8.60073060531806e-06,0.124676397249178,-2.3153846588839068e-05,0.124676397249178,1.3832106053180592e-06,0.124676397249178,-1.4386211774467462e-05
0.1254705144291091,-6.862348781751333e-06,0.1254705144291091,-2.564020628730569e-05,0.1254705144291091,8.197730137586995e-07,0.1254705144291091,-1.2904928781751333e-05
0.1262646316090402,-6.526328421929655e-06,0.1262646316090402,-2.465388461092716e-05,0.1262646316090402,1.4908484219296546e-06,0.1262646316090402,-1.2312185527412067e-05
0.1270587487889713,-8.817316121167248e-06,0.1270587487889713,-2.2521770890547428e-05,0.1270587487889713,2.359726808110037e-06,0.1270587487889713,-1.5017871657247409e-05
0.1278528659689023,-6.921381557196881e-06,0.1278528659689023,-2.256037633387583e-05,0.1278528659689023,1.8265574565195048e-06,0.1278528659689023,-1.2638124007521786e-05
0.1286469831488334,-5.123852742979395e-06,0.1286469831488334,-2.487166176951892e-05,0.1286469831488334,2.399354746100255e-06,0.1286469831488334,-1.2035685253899743e-05
0.1294411003287645,-7.55322e-06,0.1294411003287645,-2.50095e-05,0.1294411003287645,2.18204e-06,0.1294411003287645,-1.1285029377919347e-05
0.1302352175086955,-6.526763195973331e-06,0.1302352175086955,-2.5700374094505188e-05,0.1302352175086955,1.4121973969799986e-06,0.1302352175086955,-1.3456985206040005e-05
0.1310293346886266,-4.907007210541072e-06,0.1310293346886266,-2.416024062481017e-05,0.1310293346886266,1.688334302635268e-06,0.1310293346886266,-1.5293988605270537e-05
0.1318234518685577,-4.19623e-06,0.1318234518685577,-2.4278504838113083e-05,0.1318234518685577,-7.798491601478838e-07,0.1318234518685577,-1.3714594387445594e-05
0.1326175690484888,-4.789038729366377e-06,0.1326175690484888,-2.321294535346434e-05,0.1326175690484888,8.925808053380559e-08,0.1326175690484888,-1.5452817458732755e-05
0.1334116862284198,-5.637816014146216e-06,0.1334116862284198,-2.200790173746107e-05,0.1334116862284198,1.0962946906490735e-06,0.1334116862284198,-1.6469372727727617e-05
0.1342058034083509,-6.743646469606051e-06,0.1342058034083509,-2.2461344378052764e-05,0.1342058034083509,1.1255613246072688e-06,0.1342058034083509,-1.979651617401513e-05
0.134999920588282,-6.546234414222038e-06,0.134999920588282,-2.29953e-05,0.134999920588282,-1.676487752818442e-07,0.134999920588282,-1.963862882844408e-05
0.135794037768213,-4.058285790154269e-06,0.135794037768213,-2.214605284198013e-05,0.135794037768213,2.1222284196914623e-06,0.135794037768213,-1.3439534740925611e-05
0.1365881549481441,-6.564727699913836e-06,0.1365881549481441,-2.03098e-05,0.1365881549481441,1.6300363065843912e-06,0.1365881549481441,-7.870306410945264e-06
0.1373822721280752,-8.22461e-06,0.1373822721280752,-2.03098e-05,0.1373822721280752,-1.163822733028202e-06,0.1373822721280752,-5.242510975042685e-06
0.1381763893080062,-8.77698678411033e-06,0.1381763893080062,-1.957894681632315e-05,0.1381763893080062,-2.2117958039724174e-06,0.1381763893080062,-7.74852068196458e-06
0.1389705064879373,-9.92256448698768e-06,0.1389705064879373,-1.9460351189451347e-05,0.1389705064879373,1.8353929312282556e-06,0.1389705064879373,-9.92256448698768e-06
0.1397646236678684,-8.975126966654366e-06,0.1397646236678684,-1.8848471810006035e-05,0.1397646236678684,4.235715692385657e-06,0.1397646236678684,-1.0396742769542627e-05
0.1405587408477994,-6.891659674616891e-06,0.1405587408477994,-1.782208114382198e-05,0.1405587408477994,2.6259758345674817e-06,0.1405587408477994,-1.2174282603064863e-05
0.1413528580277305,-6.615269828347747e-06,0.1413528580277305,-1.992444220185957e-05,0.1413528580277305,-1.67849e-07,0.1413528580277305,-1.5629632822369256e-05
0.1421469752076616,-5.20333e-06,0.1421469752076616,-1.9539484524786047e-05,0.1421469752076616,1.6484580835442255e-06,0.1421469752076616,-1.592626143734183e-05
0.1429410923875927,-6.999173153043686e-06,0.1429410923875927,-1.8769334174942807e-05,0.1429410923875927,2.0842456863758618e-06,0.1429410923875927,-1.710927164756757e-05
0.1437352095675237,-9.409226960591128e-06,0.1437352095675237,-1.8848256076368904e-05,0.1437352095675237,2.469402841026503e-07,0.1437352095675237,-2.066483392118225e-05
0.1445293267474548,-7.908614753275306e-06,0.1445293267474548,-2.190976245265548e-05,0.1445293267474548,1.8069399066145124e-06,0.1445293267474548,-1.9677800093385487e-05
0.1453234439273859,-7.672001176840394e-06,0.1453234439273859,-2.210750570215841e-05,0.1453234439273859,2.0929527904824604e-06,0.1453234439273859,-1.8225834107953228e-05
0.146117561107317,-8.22461e-06,0.146117561107317,-2.084306423174121e-05,0.146117561107317,1.2338920524957537e-06,0.146117561107317,-1.637964756718188e-05
0.146911678287248,-7.88891e-06,0.146911678287248,-2.159376185565996e-05,0.146911678287248,6.224567928075616e-07,0.146911678287248,-1.6005156133458793e-05
0.1477057954671791,-7.256947494632048e-06,0.1477057954671791,-2.117952405588421e-05,0.1477057954671791,3.584167065319265e-06,0.1477057954671791,-1.6419584996421364e-05
0.1484999126471102,-5.874845855644207e-06,0.1484999126471102,-2.030985650166686e-05,0.1484999126471102,4.196292927822103e-06,0.1484999126471102,-1.359624049475472e-05
0.1492940298270412,-5.63791068249574e-06,0.1492940298270412,-2.03098e-05,0.1492940298270412,1.5704745123634285e-06,0.1492940298270412,-1.2253e-05
0.1500881470069723,-4.591638386061866e-06,0.1500881470069723,-1.8889001154214892e-05,0.1500881470069723,-1.0814138073163733e-07,0.1500881470069723,-1.1512581543073856e-05
0.1508822641869034,-5.320854559115163e-06,0.1508822641869034,-1.7031846314777627e-05,0.1508822641869034,-1.2141152420289746e-06,0.1508822641869034,-9.195246367696505e-06
0.1516763813668344,-7.315150685376244e-06,0.1516763813668344,-1.8315407294913128e-05,0.1516763813668344,-4.0591671898491845e-07,0.1516763813668344,-3.7545510763673366e-06
0.1524704985467655,-8.984797083851074e-06,0.1524704985467655,-1.878894348391355e-05,0.1524704985467655,1.5300883354042917e-06,0.1524704985467655,-1.2895250299244854e-07
0.1532646157266966,-9.646373311791375e-06,0.1532646157266966,-1.8729964166072817e-05,0.1532646157266966,2.2018773437592377e-06,0.1532646157266966,-1.9447615332125664e-06
0.1540587329066277,-9.9031e-06,0.1540587329066277,-1.76242e-05,0.1540587329066277,3.071029506515049e-06,0.1540587329066277,-9.331190185808307e-06
0.1548528500865587,-5.47997164739483e-06,0.1548528500865587,-1.9835426190058036e-05,0.1548528500865587,3.781664705832145e-06,0.1548528500865587,-9.37002905864458e-06
0.1556469672664898,-6.703332988928521e-06,0.1556469672664898,-1.983572152208426e-05,0.1556469672664898,1.037148022070685e-06,0.1556469672664898,-5.55936769287997e-06
0.1564410844464209,-7.119754467799924e-06,0.1564410844464209,-1.93027e-05,0.1564410844464209,-9.941277798321897e-08,0.1564410844464209,-3.5639364458645155e-06
0.157235201626352,-7.07863891369506e-06,0.157235201626352,-1.9026377098330705e-05,0.157235201626352,1.9052020147339e-06,0.157235201626352,-5.73583891369506e-06
0.158029318806283,-9.34027436014369e-06,0.158029318806283,-2.0784097674521923e-05,0.158029318806283,1.8857629762299036e-06,0.158029318806283,-6.526408511885049e-06
0.1588234359862141,-7.15813424769939e-06,0.1588234359862141,-2.16526e-05,0.1588234359862141,-4.44162424600649e-07,0.1588234359862141,-7.790761240189857e-06
0.1596175531661451,-5.992641304032686e-06,0.1596175531661451,-2.3350253158718078e-05,0.1596175531661451,1.0177128826127038e-06,0.1596175531661451,-9.192402898655772e-06
0.1604116703460762,-6.3293134494790095e-06,0.1604116703460762,-2.4654182148704816e-05,0.1604116703460762,2.793995332568602e-06,0.1604116703460762,-1.035769344947901e-05
0.1612057875260073,-8.85656530632687e-06,0.1612057875260073,-2.337165262057293e-05,0.1612057875260073,-5.628534276019886e-07,0.1612057875260073,-1.5017769456531852e-05
0.1619999047059384,-8.560515945599683e-06,0.1619999047059384,-2.165278489618506e-05,0.1619999047059384,-5.037539439637313e-07,0.1619999047059384,-2.0309250811734183e-05
0.1627940218858694,-5.59888449865231e-06,0.1627940218858694,-2.046761012122084e-05,0.1627940218858694,3.161824525036479e-07,0.1627940218858694,-2.6982048944536284e-05
0.1635881390658005,-4.72963992604463e-06,0.1635881390658005,-1.9716378299724417e-05,0.1635881390658005,-4.644127111704533e-07,0.1635881390658005,-3.286859007395537e-05
0.1643822562457316,-4.86763e-06,0.1643822562457316,-2.09812e-05,0.1643822562457316,5.427172756550717e-07,0.1643822562457316,-2.9230897267243157e-05
0.1651763734256627,-4.453364574050534e-06,0.1651763734256627,-2.1870511068848075e-05,0.1651763734256627,1.391594965127426e-06,0.1651763734256627,-1.6881404601885087e-05
0.1659704906055937,-4.551366893982044e-06,0.1659704906055937,-2.4041373441645987e-05,0.1659704906055937,2.754937329513467e-06,0.1659704906055937,6.175338047477359e-07
0.1667646077855248,-7.869057421298025e-06,0.1667646077855248,-2.3429684712133447e-05,0.1667646077855248,2.438780056650893e-06,0.1667646077855248,1.5510698866982133e-05
0.1675587249654559,-7.473978082115514e-06,0.1675587249654559,-2.18504721744028e-05,0.1675587249654559,6.020016070580894e-07,0.1675587249654559,2.3173479343509235e-05
0.1683528421453869,-6.644797239597419e-06,0.1683528421453869,-2.29953e-05,0.1683528421453869,-2.863600271736461e-07,0.1683528421453869,1.199713649556098e-05
0.169146959325318,-6.625683251713798e-06,0.169146959325318,-2.29953e-05,0.169146959325318,-1.67849e-07,0.169146959325318,-3.1677857160069607e-06
0.1699410765052491,-5.5976718874652125e-06,0.1699410765052491,-2.4832213296270493e-05,0.1699410765052491,-4.840005683104941e-07,0.1699410765052491,-6.014946265395377e-06
0.1707351936851801,-6.802717038873355e-06,0.1707351936851801,-2.5187646704537677e-05,0.1707351936851801,6.0193829479941e-07,0.1707351936851801,-3.879820511852109e-06
0.1715293108651112,-8.540587070462862e-06,0.1715293108651112,-2.376526143576937e-05,0.1715293108651112,1.17494e-06,0.1715293108651112,-9.88346138247958e-06
0.1723234280450423,-9.053569905231544e-06,0.1723234280450423,-2.273909886645885e-05,0.1723234280450423,8.095561610894744e-07,0.1723234280450423,-1.3892700157947425e-05
0.1731175452249733,-6.446295835077086e-06,0.1731175452249733,-2.2245264659830057e-05,0.1731175452249733,-3.659536652824977e-07,0.1731175452249733,-1.7645397325136647e-05
0.1739116624049044,-6.763769703158995e-06,0.1739116624049044,-2.0388291951241427e-05,0.1739116624049044,-1.7869067985960023e-06,0.1739116624049044,-1.9440833399298e-05
0.1747057795848355,-8.34308698211905e-06,0.1747057795848355,-2.1138881708341585e-05,0.1747057795848355,-5.628304957007983e-07,0.1747057795848355,-1.78216920715238e-05
0.1754998967647666,-7.553368736273273e-06,0.1754998967647666,-2.1652533225302795e-05,0.1754998967647666,-1.51064e-06,0.1754998967647666,-2.030935378453413e-05
0.1762940139446976,-7.602667547059129e-06,0.1762940139446976,-2.161241402014341e-05,0.1762940139446976,1.4117449058817402e-06,0.1762940139446976,-2.1030632817375765e-05
0.1770881311246287,-7.829184571536534e-06,0.1770881311246287,-2.032928943841593e-05,0.1770881311246287,8.001226665181716e-07,0.1770881311246287,-2.084321565905835e-05
0.1778822483045598,-7.614765901249492e-06,0.1778822483045598,-2.0842940955377124e-05,0.1778822483045598,1.9330533773799344e-06,0.1778822483045598,-1.835715356798908e-05
0.1786763654844909,-4.434345080312508e-06,0.1786763654844909,-2.119805157801772e-05,0.1786763654844909,3.86053e-06,0.1786763654844909,-1.6833742459843748e-05
0.1794704826644219,-5.419738342072127e-06,0.1794704826644219,-1.9658808494529203e-05,0.1794704826644219,2.8145843842078117e-06,0.1794704826644219,-1.9094605821621907e-05
0.180264599844353,-5.637859684013983e-06,0.180264599844353,-1.820671814717498e-05,0.180264599844353,2.3794255565950068e-06,0.180264599844353,-2.027992533582801e-05
0.181058717024284,-5.657629216043388e-06,0.181058717024284,-1.956761562258163e-05,0.181058717024284,2.3892830965498174e-06,0.181058717024284,-2.4190378821591487e-05
0.1818528342042151,-7.869062190802245e-06,0.1818528342042151,-2.2916495101435397e-05,0.1818528342042151,1.5007143301775125e-06,0.1818528342042151,-2.6174541982413617e-05
0.1826469513841462,-7.3164953563101376e-06,0.1826469513841462,-2.18894072373116e-05,0.1826469513841462,2.6952834827673965e-06,0.1826469513841462,-2.578960120989644e-05
0.1834410685640773,-4.512388243095159e-06,0.1834410685640773,-2.1257329869532717e-05,0.1834410685640773,1.807256486190318e-06,0.1834410685640773,-2.425993297238064e-05
0.1842351857440083,-5.222595272649025e-06,0.1842351857440083,-1.8790039387789815e-05,0.1842351857440083,1.17494e-06,0.1842351857440083,-2.2225602480222248e-05
0.1850293029239394,-5.381047185479664e-06,0.1850293029239394,-2.1258277846318685e-05,0.1850293029239394,1.0169600091224611e-06,0.1850293029239394,-2.29953e-05
0.1858234201038705,-5.598402542206641e-06,0.1858234201038705,-2.29953e-05,0.1858234201038705,1.9650886217567957e-06,0.1858234201038705,-2.2205169064960773e-05
0.1866175372838016,-7.0602457305134886e-06,0.1866175372838016,-2.535482146877588e-05,0.1866175372838016,1.332214269486511e-06,0.1866175372838016,-1.9874311404229768e-05
0.1874116544637326,-6.466635227714448e-06,0.1874116544637326,-2.505857323427589e-05,0.1874116544637326,-5.62968969863895e-07,0.1874116544637326,-1.683395652924687e-05
0.1882057716436637,-7.5729991779117726e-06,0.1882057716436637,-2.4516123428173576e-05,0.1882057716436637,-1.03672484070101e-06,0.1882057716436637,-1.5096523647009628e-05
0.1889998888235948,-9.23171e-06,0.1889998888235948,-2.265995955606188e-05,0.1889998888235948,-2.18187982008917e-06,0.1889998888235948,-1.2253480539732488e-05
0.1897940060035258,-7.395819948854438e-06,0.1897940060035258,-2.01706886622162e-05,0.1897940060035258,-5.63449657031167e-07,0.1897940060035258,-1.1482699172868032e-05
0.1905881231834569,-6.329909678464221e-06,0.1905881231834569,-1.9884137207603035e-05,0.1905881231834569,8.961382028657036e-08,0.1905881231834569,-9.53042214107256e-06
0.191382240363388,-5.7964050804836845e-06,0.191382240363388,-2.154387163772394e-05,0.191382240363388,-1.4323246138999137e-06,0.191382240363388,-3.2423649552042752e-06
0.192176357543319,-5.479495509210753e-06,0.192176357543319,-2.2313556336658102e-05,0.192176357543319,8.177355380851036e-07,0.192176357543319,1.5486691421527126e-06
0.1929704747232501,-5.716581716411683e-06,0.1929704747232501,-2.09812e-05,0.1929704747232501,1.491225988862332e-06,0.1929704747232501,9.391467790910284e-07
0.1937645919031812,-5.953668501926899e-06,0.1937645919031812,-2.1929056451063723e-05,0.1937645919031812,-4.83640891125774e-07,0.1937645919031812,-4.551155821534526e-06
0.1945587090831123,-6.526417718711383e-06,0.1945587090831123,-2.16526e-05,0.1945587090831123,-8.786502104363691e-07,0.1945587090831123,-9.152900874845537e-06
0.1953528262630433,-6.54612e-06,0.1953528262630433,-2.105999976204945e-05,0.1953528262630433,8.58768582483819e-07,0.1953528262630433,-1.1541862922627876e-05
0.1961469434429744,-6.200735116753177e-06,0.1961469434429744,-2.260057991269417e-05,0.1961469434429744,1.945326822337569e-06,0.1961469434429744,-1.4622269766493649e-05
0.1969410606229055,-6.54612e-06,0.1969410606229055,-2.29953e-05,0.1969410606229055,2.556812047782265e-06,0.1969410606229055,-1.486045590443547e-05
0.1977351778028366,-6.289534402548833e-06,0.1977351778028366,-2.1613844847242927e-05,0.1977351778028366,3.18914e-06,0.1977351778028366,-1.35958e-05
0.1985292949827676,-7.513723669335974e-06,0.1985292949827676,-2.16526e-05,0.1985292949827676,3.5939456407138345e-06,0.1985292949827676,-1.3279845812381554e-05
0.1993234121626987,-8.411890293083103e-06,0.1993234121626987,-2.194854031349608e-05,0.1993234121626987,2.7347028196654054e-06,0.1993234121626987,-1.2431105770501891e-05
0.2001175293426297,-6.3873793517340135e-06,0.2001175293426297,-2.137636955560379e-05,0.2001175293426297,1.292912901156009e-06,0.2001175293426297,-1.4890122204940582e-05
0.2009116465225608,-7.810179519152268e-06,0.2009116465225608,-2.16133334783186e-05,0.2009116465225608,1.4780655956186404e-07,0.2009116465225608,-1.6814655134674573e-05
0.2017057637024919,-6.684350860530993e-06,0.2017057637024919,-1.9719828517509928e-05,0.2017057637024919,-1.3131726252239285e-06,0.2017057637024919,-1.5886461721061985e-05
0.202499880882423,-6.21042e-06,0.202499880882423,-1.82956e-05,0.202499880882423,5.032047588675476e-07,0.202499880882423,-1.3260529053332697e-05
0.203293998062354,-6.58510031956297e-06,0.203293998062354,-2.0547821284635506e-05,0.203293998062354,1.88532031956297e-06,0.203293998062354,-1.1631038548681694e-05
0.2040881152422851,-6.605874250171494e-06,0.2040881152422851,-2.2294684153197345e-05,0.2040881152422851,4.253294302598456e-07,0.2040881152422851,-1.1857545749828506e-05
0.2048822324222162,-6.0313292398965726e-06,0.2048822324222162,-2.1721714064647632e-05,0.2048822324222162,3.1612196164179344e-07,0.2048822324222162,-1.2213847690025856e-05
0.2056763496021472,-8.32215092761235e-06,0.2056763496021472,-2.2590808819465395e-05,0.2056763496021472,-1.0830914322240284e-07,0.2056763496021472,-1.1088820634501004e-05
0.2064704667820783,-7.356261434413521e-06,0.2064704667820783,-2.39819606863798e-05,0.2064704667820783,1.5300425697154789e-06,0.2064704667820783,-8.945980502997913e-06
0.2072645839620094,-7.158506093921026e-06,0.2072645839620094,-2.344947682484225e-05,0.2072645839620094,1.5305707564065549e-06,0.2072645839620094,-7.21752e-06
0.2080587011419405,-3.82078150589277e-06,0.2080587011419405,-2.376566620509726e-05,0.2080587011419405,1.87556955595084e-07,0.2080587011419405,-8.955466508409535e-06
0.2088528183218715,-5.992859186470711e-06,0.2088528183218715,-2.2609980202432232e-05,0.2088528183218715,1.826454262272774e-06,0.2088528183218715,-1.2005967626595457e-05
0.2096469355018026,-7.55322e-06,0.2096469355018026,-2.2738553857504545e-05,0.2096469355018026,1.1362387431390437e-06,0.2096469355018026,-1.39315e-05
0.2104410526817337,-7.237050290877443e-06,0.2104410526817337,-2.212631487452338e-05,0.2104410526817337,-1.214000581754886e-06,0.2104410526817337,-1.4286730290877442e-05
0.2112351698616647,-7.809792233609965e-06,0.2112351698616647,-2.16526e-05,0.2112351698616647,-5.634474951168524e-07,0.2112351698616647,-1.550089135293976e-05
0.2120292870415958,-6.921334507607486e-06,0.2120292870415958,-2.09812e-05,0.2120292870415958,1.806825492392514e-06,0.2120292870415958,-1.5748214119294387e-05
0.2128234042215269,-5.6577539705814525e-06,0.2128234042215269,-2.09812e-05,0.2128234042215269,2.33965139163142e-06,0.2128234042215269,-1.7150290276382768e-05
0.2136175214014579,-7.395899866403821e-06,0.2136175214014579,-2.10502344723789e-05,0.2136175214014579,4.73352179630445e-07,0.2136175214014579,-1.5954791008209522e-05
0.214411638581389,-5.123904175565806e-06,0.214411638581389,-2.162313947897405e-05,0.214411638581389,3.0316305252646364e-06,0.214411638581389,-1.5432444080648838e-05
0.2152057557613201,-5.282299150817823e-06,0.2152057557613201,-2.3468298896388237e-05,0.2152057557613201,2.162340495741866e-06,0.2152057557613201,-1.5985213489837676e-05
0.2159998729412512,-5.706915765688811e-06,0.2159998729412512,-2.2995546552728164e-05,0.2159998729412512,-1.0066881093460144e-06,0.2159998729412512,-1.3596257656888113e-05
0.2167939901211822,-7.118607706840621e-06,0.2167939901211822,-2.129686133456304e-05,0.2167939901211822,-2.667609985144785e-07,0.2167939901211822,-1.35958e-05
0.2175881073011133,-9.981307315867142e-06,0.2175881073011133,-2.1158739914945912e-05,0.2175881073011133,2.988268006636173e-08,0.2175881073011133,-1.018129713830886e-05
0.2183822244810444,-9.332531704355144e-06,0.2183822244810444,-2.0527197816673546e-05,0.2183822244810444,5.818402210266119e-07,0.2183822244810444,-8.974303153920909e-06
0.2191763416609755,-7.00091186442287e-06,0.2191763416609755,-2.03098e-05,0.2191763416609755,1.17494e-06,0.2191763416609755,-9.01510186442287e-06
0.2199704588409065,-7.21752e-06,0.2199704588409065,-1.944187296422096e-05,0.2199704588409065,1.8851222565865045e-06,0.2199704588409065,-9.270486967770176e-06
0.2207645760208376,-7.55322e-06,0.2207645760208376,-1.786113310362381e-05,0.2207645760208376,1.5900148679148109e-06,0.2207645760208376,-1.1068074121009413e-05
0.2215586932007686,-7.86919683992696e-06,0.2215586932007686,-2.0150643341327384e-05,0.2215586932007686,-4.936911263419829e-07,0.2215586932007686,-9.685691896653211e-06
0.2223528103806997,-7.869010594191242e-06,0.2223528103806997,-1.9648621021961824e-05,0.2223528103806997,5.03548e-07,0.2223528103806997,-4.670367249024417e-06
0.2231469275606308,-8.422633034108609e-06,0.2231469275606308,-2.003343176058043e-05,0.2231469275606308,7.704090493275857e-07,0.2231469275606308,-6.821477457106666e-06
0.2239410447405619,-6.171371465879893e-06,0.2239410447405619,-2.09812e-05,0.2239410447405619,-5.03548e-07,0.2239410447405619,-1.0613549115727432e-05
0.2247351619204929,-4.5127333758841606e-06,0.2247351619204929,-2.042860556181313e-05,0.2247351619204929,1.8056102327090369e-06,0.2247351619204929,-1.150247415602896e-05
0.225529279100424,-4.591144130967561e-06,0.225529279100424,-2.1909608366381004e-05,0.225529279100424,3.702564347612976e-06,0.225529279100424,-1.265777200638101e-05
0.2263233962803551,-7.079348574372545e-06,0.2263233962803551,-2.29953e-05,0.2263233962803551,3.278173954957111e-06,0.2263233962803551,-1.264805714874509e-05
0.2271175134602862,-4.846614959548464e-06,0.2271175134602862,-2.2698936854054145e-05,0.2271175134602862,2.9517782442783347e-06,0.2271175134602862,-1.3220764233587249e-05
0.2279116306402172,-4.315004674588627e-06,0.2279116306402172,-2.2521262375049364e-05,0.2279116306402172,8.39246e-07,0.2279116306402172,-1.1956655074379778e-05
0.2287057478201483,-6.17088931112126e-06,0.2287057478201483,-2.1416084774129675e-05,0.2287057478201483,3.18914e-06,0.2287057478201483,-1.418813862224252e-05
0.2294998650000794,-6.210614504177454e-06,0.2294998650000794,-2.1652469005857387e-05,0.2294998650000794,2.8535372520887266e-06,0.2294998650000794,-1.5945602747911272e-05
0.2302939821800104,-6.782901973826906e-06,0.2302939821800104,-2.14646716075934e-05,0.2302939821800104,1.4716940785192805e-06,0.2302939821800104,-1.4465036052346189e-05
0.2310880993599415,-9.171932817773656e-06,0.2310880993599415,-2.082303734592328e-05,0.2310880993599415,7.794675300427326e-07,0.2310880993599415,-1.4543122817773656e-05
0.2318822165398726,-8.40374779016011e-06,0.2318822165398726,-2.0586359181367096e-05,0.2318822165398726,2.2994625318402388e-06,0.2318822165398726,-1.5313440843946746e-05
0.2326763337198036,-5.560638143580745e-06,0.2326763337198036,-1.990519498275237e-05,0.2326763337198036,1.5322499175352554e-06,0.2326763337198036,-1.5057703305845084e-05
0.2334704508997347,-4.906389373742127e-06,0.2334704508997347,-2.1513406489718352e-05,0.2334704508997347,1.872291002772881e-07,0.2334704508997347,-1.46029e-05
0.2342645680796658,-7.197543007928083e-06,0.2342645680796658,-2.4397328139390795e-05,0.2342645680796658,3.456860257866894e-07,0.2342645680796658,-1.5254325359174429e-05
0.2350586852595969,-7.908629480329723e-06,0.2350586852595969,-2.3963629375115345e-05,0.2350586852595969,-1.67849e-07,0.2350586852595969,-1.6913361039340557e-05
0.2358528024395279,-6.664660045269812e-06,0.2358528024395279,-2.2481468705007867e-05,0.2358528024395279,7.007837031641156e-07,0.2358528024395279,-1.6745567768826196e-05
0.236646919619459,-6.447098779580194e-06,0.236646919619459,-2.29953e-05,0.236646919619459,1.0566027253017667e-06,0.236646919619459,-1.6340552069129516e-05
0.2374410367993901,-7.830354106886469e-06,0.2374410367993901,-2.1257411895728777e-05,0.2374410367993901,9.173209505381766e-07,0.2374410367993901,-1.69528e-05
0.2382351539793211,-6.88182e-06,0.2382351539793211,-1.975721583484347e-05,0.2382351539793211,1.4123346940464323e-06,0.2382351539793211,-1.643966312936429e-05
0.2390292711592522,-7.711175226286238e-06,0.2390292711592522,-1.9559717997697267e-05,0.2390292711592522,2.0733898291898016e-06,0.2390292711592522,-1.6014763424462298e-05
0.2398233883391833,-7.948261428033986e-06,0.2398233883391833,-2.2273043058911893e-05,0.2398233883391833,2.063337143932029e-06,0.2398233883391833,-1.5806588575728117e-05
0.2406175055191144,-7.631901826928563e-06,0.2406175055191144,-2.175137066260617e-05,0.2406175055191144,1.8069985005735585e-06,0.2406175055191144,-1.1224931995411532e-05
0.2414116226990454,-7.079357935633456e-06,0.2414116226990454,-2.19686513296138e-05,0.2414116226990454,1.84634e-06,0.2414116226990454,-9.764942051274337e-06
0.2422057398789765,-6.5856678879198655e-06,0.2422057398789765,-2.281725602576574e-05,0.2422057398789765,2.073970641768887e-07,0.2422057398789765,-1.284530422416027e-05
0.2429998570589076,-4.196744860931747e-06,0.2429998570589076,-2.2324084914546133e-05,0.2429998570589076,-3.357494863999153e-07,0.2429998570589076,-1.42672e-05
0.2437939742388386,-4.471934963252816e-06,0.2437939742388386,-2.2146093921860785e-05,0.2437939742388386,7.597903073539536e-07,0.2437939742388386,-9.312768404264191e-06
0.2445880914187697,-6.762242703492512e-06,0.2445880914187697,-2.1852053709119387e-05,0.2445880914187697,7.794560641519544e-07,0.2445880914187697,-3.3593108645712896e-06
0.2453822085987008,-7.178384889066964e-06,0.2453822085987008,-1.70720014535835e-05,0.2453822085987008,1.2336426663995532e-06,0.2453822085987008,-1.588910221866071e-06
0.2461763257786318,-5.50111509404331e-06,0.2461763257786318,-1.608508608969361e-05,0.2461763257786318,1.2642760604504698e-06,0.2461763257786318,-3.0104678790990604e-06
0.2469704429585629,-5.932829447871124e-06,0.2469704429585629,-2.061473937033758e-05,0.2469704429585629,3.066462760644378e-07,0.2469704429585629,-4.076805325146686e-06
0.247764560138494,-8.61977268428719e-06,0.247764560138494,-2.0447997319384787e-05,0.247764560138494,-1.4317143809175017e-06,0.247764560138494,-6.012581363419057e-06
0.2485586773184251,-6.299183460045439e-06,0.2485586773184251,-2.078323682998196e-05,0.2485586773184251,8.894879296928128e-08,0.2485586773184251,-1.071294904173479e-05
0.2493527944983561,-5.75617775301759e-06,0.2493527944983561,-2.193002738720433e-05,0.2493527944983561,9.577896595028547e-07,0.2493527944983561,-1.3812954221716478e-05
0.2501469116782872,-6.792437798717361e-06,0.2501469116782872,-2.0902230732949945e-05,0.2501469116782872,1.5299409703291665e-06,0.2501469116782872,-1.4069134627105556e-05
0.2509410288582183,-8.185584397593211e-06,0.2509410288582183,-2.110922983881877e-05,0.2509410288582183,7.026551709181246e-07,0.2509410288582183,-1.7821272544083257e-05
0.2517351460381494,-7.55322e-06,0.2517351460381494,-1.911552378571299e-05,0.2517351460381494,-4.84396019929891e-07,0.2517351460381494,-1.8808725429213536e-05
0.2525292632180804,-7.908706283289618e-06,0.2525292632180804,-2.1040451576096143e-05,0.2525292632180804,2.6559026328944817e-06,0.2525292632180804,-2.1119362632894483e-05
0.2533233803980115,-7.671909646826056e-06,0.2533233803980115,-2.0409244557670712e-05,0.2533233803980115,2.22101252407743e-06,0.2533233803980115,-2.23239e-05
0.2541174975779426,-7.631913292785201e-06,0.2541174975779426,-2.0447894676137435e-05,0.2541174975779426,-4.980788872709907e-08,0.2541174975779426,-2.143492997636947e-05
0.2549116147578736,-9.409797331530196e-06,0.2549116147578736,-2.222563682006773e-05,0.2549116147578736,-1.51064e-06,0.2549116147578736,-1.5806484758083898e-05
0.2557057319378047,-1.0120509839034422e-05,0.2557057319378047,-2.1062739847833316e-05,0.2557057319378047,-1.67849e-07,0.2557057319378047,-3.979629182215707e-06
0.2564998491177358,-6.21107215782767e-06,0.2564998491177358,-1.896719518757644e-05,0.2564998491177358,1.6774030713664893e-07,0.2564998491177358,1.258533051411292e-05
0.2572939662976669,-6.447190507799489e-06,0.2572939662976669,-2.0665507846345946e-05,0.2572939662976669,1.8852515233984689e-06,0.2572939662976669,2.3359373035503384e-05
0.2580880834775979,-7.75096416646268e-06,0.2580880834775979,-2.2027211442218654e-05,0.2580880834775979,2.241840114281161e-06,0.2580880834775979,1.1572764556448935e-05
0.258882200657529,-5.53903e-06,0.258882200657529,-2.2067428396663305e-05,0.258882200657529,1.5415381097667078e-06,0.258882200657529,-7.796226136942093e-06
0.2596763178374601,-6.229364038433466e-06,0.2596763178374601,-2.3193226904186124e-05,0.2596763178374601,-4.8723343599106337e-08,0.2596763178374601,-1.1462473811310504e-05
0.2604704350173911,-6.88182e-06,0.2604704350173911,-2.4999281839611137e-05,0.2604704350173911,3.2278483197482057e-06,0.2604704350173911,-1.2804942010066624e-05
0.2612645521973222,-8.421909745928409e-06,0.2612645521973222,-2.455536426727913e-05,0.2612645521973222,3.2880726557914302e-06,0.2612645521973222,-1.865015867882773e-05
0.2620586693772533,-7.642008670851708e-06,0.2620586693772533,-2.3055546846585103e-05,0.2620586693772533,2.0437864195356787e-06,0.2620586693772533,-2.32520820921248e-05
0.2628527865571843,-4.492608778243074e-06,0.2628527865571843,-2.2837751841052823e-05,0.2628527865571843,1.2934915112972296e-06,0.2628527865571843,-2.3311045466108317e-05
0.2636469037371154,-6.703011941527072e-06,0.2636469037371154,-2.10403484925346e-05,0.2636469037371154,2.0829958475253206e-06,0.2636469037371154,-2.3608883934251568e-05
0.2644410209170465,-7.455683205886848e-06,0.2644410209170465,-1.979663386396647e-05,0.2644410209170465,2.8729473588226305e-06,0.2644410209170465,-1.957987792353211e-05
0.2652351380969776,-5.6181706485527806e-06,0.2652351380969776,-2.332955423105176e-05,0.2652351380969776,3.18914e-06,0.2652351380969776,-1.786162901831304e-05
0.2660292552769086,-6.88182e-06,0.2660292552769086,-2.453536669396364e-05,0.2660292552769086,3.0311915097462965e-06,0.2660292552769086,-1.6794851509746298e-05
0.2668233724568397,-7.119178178797916e-06,0.2668233724568397,-2.129947070607088e-05,0.2668233724568397,1.6683211007541698e-06,0.2668233724568397,-1.7130819959835405e-05
0.2676174896367708,-8.965477586365317e-06,0.2676174896367708,-2.0378824202408742e-05,0.2676174896367708,2.465545792279847e-07,0.2676174896367708,-1.8848941103638375e-05
0.2684116068167018,-1.02388e-05,0.2684116068167018,-2.0951708656822812e-05,0.2684116068167018,8.985962319980521e-07,0.2684116068167018,-1.711044118236369e-05
0.2692057239966329,-8.02720113096904e-06,0.2692057239966329,-2.0665908494529168e-05,0.2692057239966329,1.1255899879680122e-06,0.2692057239966329,-1.630094133266187e-05
0.269999841176564,-8.895552346520075e-06,0.269999841176564,-2.03098e-05,0.269999841176564,8.393032084743105e-07,0.269999841176564,-1.7624314414222037e-05
0.270793958356495,-6.765134079795671e-06,0.270793958356495,-2.0487648786657785e-05,0.270793958356495,-1.3127713178508734e-06,0.270793958356495,-1.4228305675642596e-05
0.2715880755364261,-3.722585790154269e-06,0.2715880755364261,-2.1297446517190257e-05,0.2715880755364261,5.426134929383324e-07,0.2715880755364261,-1.7483802119599587e-05
0.2723821927163572,-4.82850635509438e-06,0.2723821927163572,-1.9796770001374387e-05,0.2723821927163572,1.17494e-06,0.2723821927163572,-1.897014319112842e-05
0.2731763098962882,-5.360323554832487e-06,0.2731763098962882,-1.9046160508399896e-05,0.2731763098962882,1.7272023698883245e-06,0.2731763098962882,-1.4654388425534222e-05
0.2739704270762193,-7.236865362604402e-06,0.2739704270762193,-1.96384e-05,0.2739704270762193,2.51774e-06,0.2739704270762193,-1.653630413171981e-05
0.2747645442561504,-8.066783995414489e-06,0.2747645442561504,-1.9697612729845284e-05,0.2747645442561504,2.675568355320621e-06,0.2747645442561504,-1.772315746701907e-05
0.2755586614360815,-6.921293358741695e-06,0.2755586614360815,-1.9263975514850656e-05,0.2755586614360815,3.6630755688698334e-06,0.2755586614360815,-1.5688946717483392e-05
0.2763527786160125,-5.647594909487187e-06,0.2763527786160125,-2.11387378859168e-05,0.2763527786160125,1.1949156139472742e-06,0.2763527786160125,-1.4287171732932874e-05
0.2771468957959436,-5.993042190749013e-06,0.2771468957959436,-2.2936125826419723e-05,0.2771468957959436,9.382984382145945e-07,0.2771468957959436,-1.4839544381498025e-05
0.2779410129758747,-6.842816748382196e-06,0.2779410129758747,-2.3646657902479982e-05,0.2779410129758747,-1.9145956903311565e-06,0.2779410129758747,-1.4544395122573296e-05
0.2787351301558057,-5.697325095908964e-06,0.2787351301558057,-2.033063996180353e-05,0.2787351301558057,-1.4819900031708489e-06,0.2787351301558057,-1.32109348788331e-05
0.2795292473357368,-6.259669693399168e-06,0.2795292473357368,-1.946059006112313e-05,0.2795292473357368,1.51064e-06,0.2795292473357368,-1.2825590629921685e-05
0.2803233645156679,-7.276854265900675e-06,0.2803233645156679,-2.0466437065037564e-05,0.2803233645156679,7.799120875950982e-07,0.2803233645156679,-1.5373413033947434e-05
0.2811174816955989,-6.960537396935133e-06,0.2811174816955989,-2.354763761242836e-05,0.2811174816955989,1.0962235410141894e-06,0.2811174816955989,-1.5876202608352186e-05
0.2819115988755301,-7.276861473184726e-06,0.2819115988755301,-2.43381e-05,0.2819115988755301,1.17494e-06,0.2819115988755301,-1.6478920736592364e-05
0.2827057160554611,-7.750617403174281e-06,0.2827057160554611,-2.50095e-05,0.2827057160554611,1.885939485043241e-06,0.2827057160554611,-1.3122400365346432e-05
0.2834998332353922,-8.895769730133755e-06,0.2834998332353922,-2.3331539334092825e-05,0.2834998332353922,-1.0063191265133449e-06,0.2834998332353922,-4.1981521517726775e-06
0.2842939504153233,-7.297019448266822e-06,0.2842939504153233,-2.1790422026530757e-05,0.2842939504153233,-2.0442219164557746e-06,0.2842939504153233,1.409955023059126e-06
0.2850880675952543,-6.88182e-06,0.2850880675952543,-2.1020096692589176e-05,0.2850880675952543,-1.1620891580744844e-08,0.2850880675952543,-1.6436367214227437e-06
0.2858821847751854,-6.764466264324322e-06,0.2858821847751854,-2.16526e-05,0.2858821847751854,3.470770515908197e-07,0.2858821847751854,-1.0395271647567568e-05
0.2866763019551165,-6.150845464233078e-06,0.2866763019551165,-2.3173393968450965e-05,0.2866763019551165,-8.39246e-07,0.2866763019551165,-8.268110879930748e-06
0.2874704191350475,-7.55322e-06,0.2874704191350475,-2.374662141872663e-05,0.2874704191350475,1.485156652070095e-07,0.2874704191350475,-2.232130637931024e-06
0.2882645363149786,-7.918338791808267e-06,0.2882645363149786,-2.141576962667964e-05,0.2882645363149786,-2.41876537084756e-06,0.2882645363149786,-5.064218325311656e-06
0.2890586534949096,-8.876267587615424e-06,0.2890586534949096,-1.86528787544458e-05,0.2890586534949096,-2.8731824123845763e-06,0.2890586534949096,-9.46869793807712e-06
0.2898527706748408,-7.573205400160451e-06,0.2898527706748408,-1.991214221476116e-05,0.2898527706748408,1.4506774422544432e-06,0.2898527706748408,-8.22461e-06
0.2906468878547718,-5.638090608999429e-06,0.2906468878547718,-2.3508730646808876e-05,0.2906468878547718,1.748685844296653e-06,0.2906468878547718,-1.0632254595147555e-05
0.2914410050347029,-6.220167946397587e-06,0.2914410050347029,-2.1257493921924936e-05,0.2914410050347029,-1.1554444556568874e-06,0.2914410050347029,-1.639837535677104e-05
0.292235122214634,-6.2499972237632776e-06,0.292235122214634,-1.9757256926964825e-05,0.292235122214634,5.865884839249111e-08,0.292235122214634,-1.932178220989378e-05
0.293029239394565,-5.144187377921214e-06,0.293029239394565,-1.861175914101244e-05,0.293029239394565,2.971720539449534e-06,0.293029239394565,-1.9816162951168487e-05
0.2938233565744961,-3.52483e-06,0.2938233565744961,-2.143371842144151e-05,0.2938233565744961,2.3990829096208275e-06,0.2938233565744961,-2.0013157274052068e-05
0.2946174737544272,-5.006507842593724e-06,0.2946174737544272,-2.192871740143928e-05,0.2946174737544272,1.994507784259372e-06,0.2946174737544272,-1.803862886296251e-05
0.2954115909343582,-5.42036586936147e-06,0.2954115909343582,-2.3588023134212518e-05,0.2954115909343582,2.912770007157269e-06,0.2954115909343582,-1.8651173094145183e-05
0.2962057081142893,-3.149520375956126e-06,0.2962057081142893,-2.347112834024593e-05,0.2962057081142893,3.307635720640185e-06,0.2962057081142893,-1.9006616684084427e-05
0.2969998252942204,-6.880687302951195e-06,0.2969998252942204,-1.997494750817189e-05,0.2969998252942204,3.524704148104845e-06,0.2969998252942204,-1.7624451711288412e-05
0.2977939424741515,-8.323556691241615e-06,0.2977939424741515,-2.100117702725491e-05,0.2977939424741515,3.52483e-06,0.2977939424741515,-1.6528751990735667e-05
0.2985880596540825,-6.605954512363452e-06,0.2985880596540825,-2.0251470370661803e-05,0.2985880596540825,2.6374090247269034e-06,0.2985880596540825,-1.3913236280908629e-05
0.2993821768340136,-6.920932178878244e-06,0.2993821768340136,-1.851312109303749e-05,0.2993821768340136,1.9245643577564885e-06,0.2993821768340136,-1.2253e-05
0.3001762940139447,-7.493639743521961e-06,0.3001762940139447,-1.9796680003701742e-05,0.3001762940139447,3.0699794870439225e-06,0.3001762940139447,-1.2253e-05
0.3009704111938757,-8.066421239880012e-06,0.3009704111938757,-2.033034718043877e-05,0.3009704111938757,1.96588380059994e-06,0.3009704111938757,-1.3673089919040097e-05
0.3017645283738068,-7.395414527523855e-06,0.3017645283738068,-2.045779732427484e-05,0.3017645283738068,7.309406582061764e-07,0.3017645283738068,-1.746565603357603e-05
0.3025586455537379,-6.249916290796525e-06,0.3025586455537379,-2.055729048327528e-05,0.3025586455537379,-1.67849e-07,0.3025586455537379,-1.9924726695166035e-05
0.3033527627336689,-5.10476742067667e-06,0.3033527627336689,-2.072425866992808e-05,0.3033527627336689,1.0003005912235484e-08,0.3033527627336689,-1.6775680972368343e-05
0.3041468799136,-6.466273623607776e-06,0.3041468799136,-2.09812e-05,0.3041468799136,-1.293865856895737e-07,0.3041468799136,-8.563228252631215e-06
0.3049409970935311,-7.237010159781485e-06,0.3049409970935311,-2.2482127541889643e-05,0.3049409970935311,2.43977936087406e-06,0.3049409970935311,-3.60279063912594e-06
0.3057351142734621,-7.040140336475297e-06,0.3057351142734621,-2.36667e-05,0.3057351142734621,1.17494e-06,0.3057351142734621,-5.380709663524703e-06
0.3065292314533932,-6.615166992180585e-06,0.3065292314533932,-2.2560935833927184e-05,0.3065292314533932,1.4839107175508862e-07,0.3065292314533932,-4.689861328120391e-06
0.3073233486333243,-8.283932824478503e-06,0.3073233486333243,-2.3882997901194077e-05,0.3073233486333243,-2.0633943510429958e-06,0.3073233486333243,-4.620914236717753e-06
0.3081174658132554,-7.078669649696709e-06,0.3081174658132554,-2.1840661109838644e-05,0.3081174658132554,-3.253286024795463e-07,0.3081174658132554,-5.77629576154075e-06
0.3089115829931864,-6.329061198754395e-06,0.3089115829931864,-2.099103424613356e-05,0.3089115829931864,2.2716777607824326e-07,0.3089115829931864,-1.0199696822143832e-05
0.3097057001731175,-8.540493058437314e-06,0.3097057001731175,-2.16526e-05,0.3097057001731175,-6.022361176671423e-07,0.3097057001731175,-1.3793177411249752e-05
0.3104998173530486,-9.56714684728934e-06,0.3104998173530486,-2.0478013507067222e-05,0.3104998173530486,-8.39246e-07,0.3104998173530486,-1.628061054186802e-05
0.3112939345329796,-8.857167272766032e-06,0.3112939345329796,-2.173241404299981e-05,0.3112939345329796,1.2526286968768322e-06,0.3112939345329796,-1.476196212127672e-05
0.3120880517129107,-6.863584945976871e-06,0.3120880517129107,-2.5968007711994776e-05,0.3120880517129107,9.198959600774444e-07,0.3120880517129107,-1.3182018967586125e-05
0.3128821688928418,-4.945842891729031e-06,0.3128821688928418,-2.349955908338313e-05,0.3128821688928418,-1.0967280402089102e-06,0.3128821688928418,-1.12459e-05
0.3136762860727728,-6.2293068320040726e-06,0.3136762860727728,-2.094163512571181e-05,0.3136762860727728,6.009031562295373e-07,0.3136762860727728,-1.235035609124335e-05
0.314470403252704,-6.88182e-06,0.314470403252704,-2.042855419666141e-05,0.314470403252704,1.17494e-06,0.314470403252704,-1.2569388961662144e-05
0.315264520432635,-7.039614031053976e-06,0.315264520432635,-1.989500479744704e-05,0.315264520432635,1.9747414922365057e-06,0.315264520432635,-1.1739394031053976e-05
0.3160586376125661,-6.921327756823906e-06,0.3160586376125661,-2.03098e-05,0.3160586376125661,1.6883669392059766e-06,0.3160586376125661,-1.2253e-05
0.3168527547924971,-7.078922226591747e-06,0.3168527547924971,-2.04673070668258e-05,0.3168527547924971,7.406940609801264e-07,0.3168527547924971,-1.1147348886704124e-05
0.3176468719724282,-9.804016459287292e-06,0.3176468719724282,-2.1751315151122303e-05,0.3176468719724282,-2.765458565589106e-07,0.3176468719724282,-1.034752988350387e-05
0.3184409891523593,-8.068735746681403e-06,0.3184409891523593,-2.070456651239625e-05,0.3184409891523593,1.4132185046140954e-06,0.3184409891523593,-1.0988137707071177e-05
0.3192351063322903,-5.282495888948773e-06,0.3192351063322903,-1.8533354946051135e-05,0.3192351063322903,-1.707046788717257e-06,0.3192351063322903,-1.2766068222102454e-05
0.3200292235122214,-5.716799096957888e-06,0.3200292235122214,-1.7920464299530322e-05,0.3200292235122214,-3.654715299556244e-07,0.3200292235122214,-1.2026009503312757e-05
0.3208233406921525,-5.993354207534757e-06,0.3208233406921525,-2.127443872194781e-05,0.3208233406921525,2.6956895443344925e-06,0.3208233406921525,-1.2371634207534756e-05
0.3216174578720835,-7.73140758291414e-06,0.3216174578720835,-2.137646201287689e-05,0.3216174578720835,2.487704468331505e-06,0.3216174578720835,-1.3220724102491287e-05
0.3224115750520147,-7.0200164624487415e-06,0.3224115750520147,-2.2877228925361745e-05,0.3224115750520147,9.774399924494134e-07,0.3224115750520147,-1.42672e-05
0.3232056922319457,-6.259761486305574e-06,0.3232056922319457,-2.640046474626784e-05,0.3232056922319457,1.17494e-06,0.3232056922319457,-1.2964051082166556e-05
0.3239998094118768,-6.881614054400319e-06,0.3239998094118768,-2.5010239658184597e-05,0.3239998094118768,1.846065405867092e-06,0.3239998094118768,-1.2588562702933549e-05
0.3247939265918079,-5.599159681260853e-06,0.3247939265918079,-2.4427040606482747e-05,0.3247939265918079,1.2350768603869451e-06,0.3247939265918079,-1.312231631453804e-05
0.3255880437717389,-4.19623e-06,0.3255880437717389,-2.256244110503541e-05,0.3255880437717389,-1.115086090500869e-06,0.3255880437717389,-1.1404617347863805e-05
0.32638216095167,-6.960021425701574e-06,0.32638216095167,-2.1375968907420493e-05,0.32638216095167,-5.0547443823462953e-08,0.32638216095167,-9.942200712850786e-06
0.3271762781316011,-7.277111697900246e-06,0.3271762781316011,-2.35875805046981e-05,0.3271762781316011,-6.793463716076007e-07,0.3271762781316011,-1.1343233208399011e-05
0.3279703953115321,-6.52682040308435e-06,0.3279703953115321,-2.169372062243369e-05,0.3279703953115321,-6.23146823909214e-07,0.3279703953115321,-1.4039523058879376e-05
0.3287645124914632,-6.703902589631789e-06,0.3287645124914632,-2.1731227654027505e-05,0.3287645124914632,1.4116138844476846e-06,0.3287645124914632,-1.4237783513227588e-05
0.3295586296713942,-6.585639222851362e-06,0.3295586296713942,-2.343001234483259e-05,0.3295586296713942,2.18204e-06,0.3295586296713942,-1.2647978834277044e-05
0.3303527468513254,-7.316059647268497e-06,0.3303527468513254,-2.2444084679683283e-05,0.3303527468513254,9.57824056970285e-07,0.3303527468513254,-1.3240059470902744e-05
0.3311468640312564,-6.862622223917586e-06,0.3311468640312564,-1.9362000430705312e-05,0.3311468640312564,1.4115385173882763e-06,0.3311468640312564,-1.3359201482611725e-05
0.3319409812111875,-6.9305167343851695e-06,0.3319409812111875,-2.1001098557785195e-05,0.3319409812111875,1.8852973875081365e-06,0.3319409812111875,-1.4581093104361014e-05
0.3327350983911186,-7.33627741448977e-06,0.3327350983911186,-2.321211225394418e-05,0.3327350983911186,4.056902700444543e-06,0.3327350983911186,-1.7465856780680307e-05
0.3335292155710496,-6.052500113301797e-06,0.3335292155710496,-2.19883e-05,0.3335292155710496,4.847769773396408e-06,0.3335292155710496,-1.76242e-05
0.3343233327509807,-6.684909297652861e-06,0.3343233327509807,-2.376354614182737e-05,0.3343233327509807,4.827890159303084e-06,0.3343233327509807,-1.793023547448571e-05
0.3351174499309118,-9.488646738955208e-06,0.3351174499309118,-2.445724457181431e-05,0.3351174499309118,2.08262861001461e-06,0.3351174499309118,-1.7199363261044792e-05
0.3359115671108428,-7.632122469551086e-06,0.3359115671108428,-2.240263850396963e-05,0.3359115671108428,1.17494e-06,0.3359115671108428,-1.69528e-05
0.3367056842907739,-7.849248779345144e-06,0.3367056842907739,-2.3351459859680894e-05,0.3367056842907739,1.6489855208051618e-06,0.3367056842907739,-1.920349399421621e-05
0.337499801470705,-8.895866982222463e-06,0.337499801470705,-1.997525567766101e-05,0.337499801470705,1.6827804949835698e-07,0.337499801470705,-2.4336669864827472e-05
0.338293918650636,-6.922568448568957e-06,0.338293918650636,-2.034969241632776e-05,0.338293918650636,1.0158237913710037e-06,0.338293918650636,-2.56809e-05
0.3390880358305671,-5.637916335908847e-06,0.3390880358305671,-2.2601322386549e-05,0.3390880358305671,4.136361089554338e-06,0.3390880358305671,-2.3864484455222832e-05
0.3398821530104982,-4.7894400403258026e-06,0.3398821530104982,-2.066570341402454e-05,0.3398821530104982,3.6259612855582783e-06,0.3398821530104982,-2.1893866867600623e-05
0.3406762701904293,-5.852837263649778e-06,0.3406762701904293,-2.0605945378986327e-05,0.3406762701904293,-8.63682001019999e-08,0.3406762701904293,-1.5041966441947388e-05
0.3414703873703603,-6.349337766759896e-06,0.3414703873703603,-1.8574315757534325e-05,0.3414703873703603,2.4173932569442846e-06,0.3414703873703603,-5.89790940836473e-06
0.3422645045502914,-5.10428437243138e-06,0.3422645045502914,-1.7544670472694376e-05,0.3422645045502914,1.787614009382388e-06,0.3422645045502914,1.648253444628866e-06
0.3430586217302225,-6.19065465556063e-06,0.3430586217302225,-2.125653011412069e-05,0.3430586217302225,-1.2831848775525856e-07,0.3430586217302225,3.18914e-06
0.3438527389101535,-4.10773068282818e-06,0.3438527389101535,-2.015231347923489e-05,0.3438527389101535,7.306896014400845e-07,0.3438527389101535,9.185958568309358e-07
0.3446468560900846,-4.19623e-06,0.3446468560900846,-2.0151789554687493e-05,0.3446468560900846,5.03548e-07,0.3446468560900846,-3.3649717330176143e-06
0.3454409732700157,-4.393289441110569e-06,0.3454409732700157,-1.96384e-05,0.3454409732700157,5.230208447263151e-07,0.3454409732700157,-6.962042256738614e-06
0.3462350904499467,-6.40675837634821e-06,0.3462350904499467,-2.01909019809138e-05,0.3462350904499467,1.0957640847734505e-06,0.3462350904499467,-2.973810945135672e-06
0.3470292076298778,-7.533343627947806e-06,0.3470292076298778,-2.1889569714714823e-05,0.3470292076298778,1.0170286564287369e-06,0.3470292076298778,5.908553335718986e-08
0.3478233248098089,-6.644599117246109e-06,0.3478233248098089,-2.306365387090892e-05,0.3478233248098089,7.799406909801864e-07,0.3478233248098089,-1.2543845764401515e-06
0.34861744198974,-6.724271719146187e-06,0.34861744198974,-2.1574123838406263e-05,0.34861744198974,5.03548e-07,0.34861744198974,-4.078069082682276e-06
0.349411559169671,-7.276804143047601e-06,0.349411559169671,-2.177117852637371e-05,0.349411559169671,6.417551050747784e-07,0.349411559169671,-6.714150841966515e-06
0.3502056763496021,-8.027269926108874e-06,0.3502056763496021,-2.246109784980611e-05,0.3502056763496021,8.982316749138546e-07,0.3502056763496021,-1.6043287118507154e-05
0.3509997935295332,-7.217668738488621e-06,0.3509997935295332,-2.3666432901211186e-05,0.3509997935295332,2.517442523022756e-06,0.3509997935295332,-2.366521265942075e-05
0.3517939107094642,-8.263404078267437e-06,0.3517939107094642,-2.111914609729976e-05,0.3517939107094642,9.489089463085942e-07,0.3517939107094642,-2.27197784931858e-05
0.3525880278893953,-1.0979175446515009e-05,0.3525880278893953,-2.169143954171699e-05,0.3525880278893953,-1.213960609518567e-06,0.3525880278893953,-2.171248037647304e-05
0.3533821450693264,-1.075384417711647e-05,0.3533821450693264,-2.2817364849105316e-05,0.3533821450693264,-1.2875998605861293e-07,0.3533821450693264,-2.1871032259529782e-05
0.3541762622492574,-9.015216278644922e-06,0.3541762622492574,-2.42590010112472e-05,0.3541762622492574,-3.843422540015412e-07,0.3541762622492574,-1.8772425114579694e-05
0.3549703794291886,-9.092775071106909e-06,0.3549703794291886,-2.36667e-05,0.3549703794291886,-9.974548152316922e-07,0.3549703794291886,-1.8669853428142548e-05
0.3557644966091196,-9.409650293212624e-06,0.3557644966091196,-2.398300853547452e-05,0.3557644966091196,4.0448644543968333e-07,0.3557644966091196,-1.7664561172850504e-05
0.3565586137890507,-8.264152154906197e-06,0.3565586137890507,-1.9010486876150832e-05,0.3565586137890507,1.17494e-06,0.3565586137890507,-1.2134781851984084e-05
0.3573527309689818,-6.359124033162206e-06,0.3573527309689818,-1.8332843114806604e-05,0.3573527309689818,9.3775954134761e-07,0.3573527309689818,-3.408099212955388e-06
0.3581468481489128,-4.19623e-06,0.3581468481489128,-2.103049622924396e-05,0.3581468481489128,2.7543155853335228e-06,0.3581468481489128,8.042226453153957e-06
0.3589409653288439,-4.94549833100706e-06,0.3589409653288439,-2.016165896229657e-05,0.3589409653288439,1.3743702177728045e-06,0.3589409653288439,1.6857795325187935e-05
0.3597350825087749,-6.723453897835811e-06,0.3597350825087749,-1.93918723638378e-05,0.3597350825087749,-1.3522753130824789e-06,0.3597350825087749,3.867154301813433e-06
0.360529199688706,-6.585886218895941e-06,0.360529199688706,-1.9658192112708812e-05,0.360529199688706,1.7668117991233336e-06,0.360529199688706,-1.5035702686624356e-05
0.3613233168686371,-5.914419795719303e-06,0.3613233168686371,-2.0901557587697983e-05,0.3613233168686371,3.741931883188235e-06,0.3613233168686371,-2.109979988326817e-05
0.3621174340485681,-6.289206193099635e-06,0.3621174340485681,-1.9155191893896737e-05,0.3621174340485681,2.00391238619927e-06,0.3621174340485681,-2.180070931903169e-05
0.3629115512284993,-5.331709507765169e-06,0.3629115512284993,-1.956946492001284e-05,0.3629115512284993,9.774571911831586e-07,0.3629115512284993,-2.2462113661489887e-05
0.3637056684084303,-6.1117542264299694e-06,0.3637056684084303,-1.9925989184846267e-05,0.3637056684084303,1.4119742264299697e-06,0.3637056684084303,-2.015217113214985e-05
0.3644997855883614,-4.364775061797748e-06,0.3644997855883614,-1.9134869363611024e-05,0.3644997855883614,1.6831237345824e-07,0.3644997855883614,-1.829590891839949e-05
0.3652939027682925,-3.998279287379724e-06,0.3652939027682925,-2.271942401853169e-05,0.3652939027682925,4.5406032184493117e-07,0.3652939027682925,-1.839457535631014e-05
0.3660880199482235,-5.952738128293451e-06,0.3660880199482235,-2.157492989118578e-05,0.3660880199482235,2.2774107488721162e-07,0.3660880199482235,-1.734839184250045e-05
0.3668821371281546,-6.585203513809682e-06,0.3668821371281546,-1.952032382334101e-05,0.3668821371281546,1.2876571903818116e-07,0.3668821371281546,-1.5727250541429048e-05
0.3676762543080857,-5.777463664475528e-06,0.3676762543080857,-1.9796577470956644e-05,0.3676762543080857,1.0824049509818673e-07,0.3676762543080857,-1.6893191139966463e-05
0.3684703714880167,-4.19623e-06,0.3684703714880167,-2.108963031924704e-05,0.3684703714880167,2.18204e-06,0.3684703714880167,-1.4979154571248708e-05
0.3692644886679478,-5.597698313870632e-06,0.3692644886679478,-2.188928946908198e-05,0.3692644886679478,1.09180156037814e-07,0.3692644886679478,-1.3438051734634855e-05
0.3700586058478789,-7.039781594766608e-06,0.3700586058478789,-2.3231972275255683e-05,0.3700586058478789,-1.8067863790664311e-06,0.3700586058478789,-1.1502698592708285e-05
0.3708527230278099,-6.7833147508137135e-06,0.3708527230278099,-2.1416401037943288e-05,0.3708527230278099,4.432706870145109e-07,0.3708527230278099,-1.2439932099452846e-05
0.371646840207741,-6.101711029826517e-06,0.371646840207741,-2.090218450431341e-05,0.371646840207741,2.834293821040901e-06,0.371646840207741,-1.52934461789591e-05
0.3724409573876721,-7.592142409697078e-06,0.3724409573876721,-2.331130393210172e-05,0.3724409573876721,4.646251844927846e-07,0.3724409573876721,-1.4544515515861232e-05
0.3732350745676032,-7.198572728257734e-06,0.3732350745676032,-2.17330972659847e-05,0.3732350745676032,-1.67849e-07,0.3732350745676032,-1.4108822456413703e-05
0.3740291917475342,-6.5262254491298245e-06,0.3740291917475342,-2.1218184468775496e-05,0.3740291917475342,9.947216172201815e-09,0.3740291917475342,-1.3773597275435089e-05
0.3748233089274653,-8.343198441845926e-06,0.3748233089274653,-2.16526e-05,0.3748233089274653,1.412116883691851e-06,0.3748233089274653,-1.385255016281443e-05
0.3756174261073964,-8.30340765912701e-06,0.3756174261073964,-2.1790648447500905e-05,0.3756174261073964,2.2214388295635058e-06,0.3756174261073964,-1.500790879425173e-05
0.3764115432873274,-7.908696236586062e-06,0.3764115432873274,-2.1672300035537907e-05,0.3764115432873274,-1.580011606804649e-07,0.3764115432873274,-1.70713224219856e-05
0.3772056604672585,-1.0436120081112629e-05,0.3772056604672585,-2.196776237316113e-05,0.3772056604672585,3.747779902314685e-07,0.3772056604672585,-1.799961987833106e-05
0.3779997776471896,-9.5680507148718e-06,0.3779997776471896,-2.3330568532725745e-05,0.3779997776471896,3.1884191904012664e-06,0.3779997776471896,-1.661742035982166e-05
0.3787938948271206,-7.079782178647733e-06,0.3787938948271206,-2.228412218810224e-05,0.3787938948271206,1.2953943557922575e-06,0.3787938948271206,-1.561e-05
0.3795880120070517,-6.4681249627918094e-06,0.3795880120070517,-2.173024378009314e-05,0.3795880120070517,-9.590503140623338e-07,0.3795880120070517,-1.3706540213790095e-05
0.3803821291869828,-5.03548e-06,0.3803821291869828,-2.29953e-05,0.3803821291869828,3.32591106871744e-06,0.3803821291869828,-1.1058555289259317e-05
0.3811762463669139,-5.449608128883007e-06,0.3811762463669139,-2.508857848220383e-05,0.3811762463669139,3.949951871116993e-06,0.3811762463669139,-1.1462370838510676e-05
0.3819703635468449,-6.38789691561341e-06,0.3819703635468449,-2.394553903389832e-05,0.3819703635468449,3.347358371157982e-06,0.3819703635468449,-1.1492835108336336e-05
0.382764480726776,-6.960688411971488e-06,0.382764480726776,-2.1475085086828185e-05,0.382764480726776,3.52483e-06,0.382764480726776,-1.1739336823942976e-05
0.3835585979067071,-7.21752e-06,0.3835585979067071,-1.946216425690792e-05,0.3835585979067071,2.5770870411490966e-06,0.3835585979067071,-1.2253e-05
0.3843527150866381,-6.318968445789707e-06,0.3843527150866381,-2.024963575200613e-05,0.3843527150866381,1.0663980212014032e-06,0.3843527150866381,-1.1008693783158827e-05
0.3851468322665692,-8.135033619963156e-06,0.3851468322665692,-2.153405728216627e-05,0.3851468322665692,1.5889071432377055e-06,0.3851468322665692,-1.4068905306557375e-05
0.3859409494465003,-8.857098476601451e-06,0.3859409494465003,-2.1751340633057987e-05,0.3859409494465003,3.130772714902177e-06,0.3859409494465003,-1.3873132714902176e-05
0.3867350666264313,-7.455101118427517e-06,0.3867350666264313,-2.254068887538226e-05,0.3867350666264313,1.1560225545658882e-06,0.3867350666264313,-1.2154883477512787e-05
0.3875291838063624,-7.957910802265524e-06,0.3875291838063624,-2.1297138706382327e-05,0.3875291838063624,7.30436746822344e-07,0.3875291838063624,-1.3871782023122728e-05
0.3883233009862935,-7.010010249258424e-06,0.3883233009862935,-2.2420623108641977e-05,0.3883233009862935,3.18914e-06,0.3883233009862935,-1.4247168998728729e-05
0.3891174181662246,-6.190717718711383e-06,0.3891174181662246,-2.4476143310985716e-05,0.3891174181662246,6.706358428641906e-07,0.3891174181662246,-1.051463193804064e-05
0.3899115353461556,-5.400804872482696e-06,0.3899115353461556,-2.5621784483840712e-05,0.3899115353461556,-1.51064e-06,0.3899115353461556,-8.22461e-06
0.3907056525260867,-5.834989983863874e-06,0.3907056525260867,-2.478337771648438e-05,0.3907056525260867,-1.9052572301705017e-06,0.3907056525260867,-9.81405752391257e-06
0.3914997697060178,-6.210585900621954e-06,0.3914997697060178,-2.5009202082120112e-05,0.3914997697060178,-1.8468377018658607e-06,0.3914997697060178,-9.567824771322607e-06
0.3922938868859488,-5.53903e-06,0.3922938868859488,-2.4258479535830004e-05,0.3922938868859488,6.800094267151693e-07,0.3922938868859488,-7.602713411168777e-06
0.3930880040658799,-6.959797838167125e-06,0.3930880040658799,-2.1058823235562616e-05,0.3930880040658799,7.612658586857626e-07,0.3930880040658799,-9.17179522544475e-06
0.393882121245811,-8.22461e-06,0.393882121245811,-2.1633173696139975e-05,0.393882121245811,1.0266348599933731e-06,0.393882121245811,-8.56031e-06
0.394676238425742,-8.500689698544214e-06,0.394676238425742,-1.914456354214144e-05,0.394676238425742,1.17494e-06,0.394676238425742,-1.0492859665808944e-05
0.3954703556056732,-6.349406415293022e-06,0.3954703556056732,-1.817681498424756e-05,0.3954703556056732,1.0167140229417378e-06,0.3954703556056732,-1.19173e-05
0.3962644727856042,-7.078976728150988e-06,0.3962644727856042,-1.93027e-05,0.3962644727856042,2.3205832718490115e-06,0.3962644727856042,-1.1838437308739604e-05
0.3970585899655353,-8.1949281747218e-06,0.3970585899655353,-1.93027e-05,0.3970585899655353,-6.908347515418215e-07,0.3970585899655353,-1.2213423447011592e-05
0.3978527071454664,-7.020551832557428e-06,0.3978527071454664,-1.94809545713562e-05,0.3978527071454664,4.24117174887842e-07,0.3978527071454664,-1.468125579282863e-05
0.3986468243253974,-5.598161773709049e-06,0.3986468243253974,-1.7426954612301437e-05,0.3986468243253974,2.300310593625642e-06,0.3986468243253974,-1.7189341187251284e-05
0.3994409415053285,-5.616829535354972e-06,0.3994409415053285,-1.782167101284147e-05,0.3994409415053285,2.281814899600589e-06,0.3994409415053285,-1.724959994262891e-05
0.4002350586852595,-7.138319786784613e-06,0.4002350586852595,-1.6914447778018943e-05,0.4002350586852595,2.0700128362421583e-08,0.4002350586852595,-1.584760063964616e-05
0.4010291758651906,-6.526202566285408e-06,0.4010291758651906,-1.8117873729501987e-05,0.4010291758651906,-6.422435867288227e-07,0.4010291758651906,-1.4198186592009676e-05
0.4018232930451217,-7.039671661497714e-06,0.4018232930451217,-2.023012682787446e-05,0.4018232930451217,1.0563758537546154e-06,0.4018232930451217,-1.1897303322995428e-05
0.4026174102250527,-5.914130295590923e-06,0.4026174102250527,-1.9431322178542234e-05,0.4026174102250527,-8.902876101025086e-08,0.4026174102250527,-9.053650008390037e-06
0.4034115274049838,-6.012950860530993e-06,0.4034115274049838,-1.9924821292876583e-05,0.4034115274049838,1.6291190284901578e-06,0.4034115274049838,-9.21194981503525e-06
0.4042056445849149,-5.953491436322242e-06,0.4042056445849149,-1.975819617095365e-05,0.4042056445849149,2.123145701884412e-06,0.4042056445849149,-1.2815394298115588e-05
0.404999761764846,-7.552705136000767e-06,0.404999761764846,-1.930262292932107e-05,0.404999761764846,5.038912385762811e-07,0.404999761764846,-1.3595885785104827e-05
0.4057938789447771,-8.422595110702486e-06,0.4057938789447771,-2.303508968602438e-05,0.4057938789447771,2.668412604672535e-07,0.4057938789447771,-1.3714118466523864e-05
0.4065879961247081,-7.21752e-06,0.4065879961247081,-2.327279364702584e-05,0.4065879961247081,7.103791410516784e-07,0.4065879961247081,-1.3320026240582706e-05
0.4073821133046392,-8.146478534189909e-06,0.4073821133046392,-2.133719061559462e-05,0.4073821133046392,-4.803784707940087e-07,0.4073821133046392,-1.438439894430561e-05
0.4081762304845703,-6.448924088667349e-06,0.4081762304845703,-2.24820159513096e-05,0.4081762304845703,-4.509875643168837e-06,0.4081762304845703,-1.5136221891932714e-05
0.4089703476645013,-6.248886610334314e-06,0.4089703476645013,-2.410051969546473e-05,0.4089703476645013,-3.071556126761296e-06,0.4089703476645013,-1.3240869051617558e-05
0.4097644648444324,-9.389421592067547e-06,0.4097644648444324,-2.3153515905919327e-05,0.4097644648444324,-7.603894992569279e-07,0.4097644648444324,-1.0832461128812918e-05
0.4105585820243635,-9.2712974293819e-06,0.4105585820243635,-2.185065670585535e-05,0.4105585820243635,-1.8764295054450365e-07,0.4105585820243635,-8.550412995246054e-06
0.4113526992042945,-8.323080851104025e-06,0.4113526992042945,-2.090248242219329e-05,0.4113526992042945,2.833296276656036e-06,0.4113526992042945,-1.02388e-05
0.4121468163842256,-1.0021364860611927e-05,0.4121468163842256,-2.1030465413213103e-05,0.4121468163842256,6.02717335656043e-07,0.4121468163842256,-5.994837068343536e-06
0.4129409335641567,-8.107944805185287e-06,0.4129409335641567,-2.1218169620216502e-05,0.4129409335641567,1.8852285913437152e-06,0.4129409335641567,-6.424306093957566e-06
0.4137350507440878,-5.184451376279789e-06,0.4137350507440878,-2.09812e-05,0.4137350507440878,2.2612459339264704e-06,0.4137350507440878,-1.2211546594661768e-05
0.4145291679240188,-4.6898155624316e-06,0.4145291679240188,-2.325198412421125e-05,0.4145291679240188,1.5305688751368018e-06,0.4145291679240188,-1.2115043312705202e-05
0.4153232851039499,-4.86763e-06,0.4153232851039499,-2.404224171270004e-05,0.4153232851039499,-7.110162931439228e-07,0.4153232851039499,-1.2371554117579275e-05
0.416117402283881,-5.460197942790778e-06,0.416117402283881,-2.244320896615216e-05,0.416117402283881,-9.377853670248684e-07,0.416117402283881,-1.29244e-05
0.416911519463812,-4.86763e-06,0.416911519463812,-2.0704646335250217e-05,0.416911519463812,1.9647936258211145e-06,0.416911519463812,-1.4059824520377952e-05
0.4177056366437431,-6.239855683030337e-06,0.4177056366437431,-2.066602149786296e-05,0.4177056366437431,4.353744207575843e-06,0.4177056366437431,-1.5135885683030336e-05
0.4184997538236742,-6.881731328977939e-06,0.4184997538236742,-2.03098e-05,0.4184997538236742,5.203507342044122e-06,0.4184997538236742,-1.5777711355391707e-05
0.4192938710036052,-6.507414865094915e-06,0.4192938710036052,-1.9776423145027235e-05,0.4192938710036052,3.012728492814183e-06,0.4192938710036052,-1.363670533106072e-05
0.4200879881835363,-6.327335160127132e-06,0.4200879881835363,-1.845370439846359e-05,0.4200879881835363,-4.436100612080071e-07,0.4200879881835363,-1.4285205733474591e-05
0.4208821053634674,-9.411167672980449e-06,0.4208821053634674,-1.888764549431222e-05,0.4208821053634674,1.409303490529329e-06,0.4208821053634674,-1.537563650947067e-05
0.4216762225433985,-7.1203451951715445e-06,0.4216762225433985,-2.202781208762409e-05,0.4216762225433985,3.60323416202334e-06,0.4216762225433985,-1.138725394302363e-05
0.4224703397233295,-6.88182e-06,0.4224703397233295,-2.1890155190229037e-05,0.4224703397233295,2.1628204930398063e-06,0.4224703397233295,-8.857570986079612e-06
0.4232644569032606,-7.532922650492164e-06,0.4232644569032606,-2.09812e-05,0.4232644569032606,2.438888750161812e-06,0.4232644569032606,-5.322763599993273e-06
0.4240585740831917,-7.612618637760199e-06,0.4240585740831917,-2.09812e-05,0.4240585740831917,1.234339227564862e-06,0.4240585740831917,-4.788431029913518e-06
0.4248526912631227,-4.552090922385072e-06,0.4248526912631227,-2.16526e-05,0.4248526912631227,2.0835806149233816e-06,0.4248526912631227,-1.1500959843980932e-05
0.4256468084430538,-3.52483e-06,0.4256468084430538,-2.203755770920542e-05,0.4256468084430538,1.17494e-06,0.4256468084430538,-1.3832318255196476e-05
0.4264409256229849,-4.235107125316258e-06,0.4264409256229849,-2.295577575943865e-05,0.4264409256229849,1.865778562658129e-06,0.4264409256229849,-1.605260919939143e-05
0.4272350428029159,-5.380606690724873e-06,0.4272350428029159,-2.504780085682933e-05,0.4272350428029159,2.6950166907248724e-06,0.4272350428029159,-1.971570079223575e-05
0.428029159982847,-6.5062393668819006e-06,0.428029159982847,-2.477255662334588e-05,0.428029159982847,8.990661229814649e-07,0.428029159982847,-1.9125677672076817e-05
0.4288232771627781,-6.644736413290003e-06,0.4288232771627781,-2.43381e-05,0.4288232771627781,7.999032779094541e-07,0.4288232771627781,-1.4879328661921411e-05
0.4296173943427092,-5.09461264242751e-06,0.4296173943427092,-2.2521572098559783e-05,0.4296173943427092,9.969323418842323e-07,0.4296173943427092,-1.46029e-05
0.4304115115226402,-6.328854811797972e-06,0.4304115115226402,-2.4535755928809835e-05,0.4304115115226402,-1.2341578177021632e-06,0.4304115115226402,-1.237151105967188e-05
0.4312056287025713,-7.750491278751372e-06,0.4312056287025713,-2.3235058140072987e-05,0.4312056287025713,-2.076378497961068e-07,0.4312056287025713,-1.235163710850152e-05
0.4319997458825024,-8.22461e-06,0.4319997458825024,-1.997508621091265e-05,0.4319997458825024,-1.6748287612545873e-07,0.4319997458825024,-1.325973387448951e-05
0.4327938630624334,-8.540966032068051e-06,0.4327938630624334,-2.09812e-05,0.4327938630624334,2.0227216626153717e-06,0.4327938630624334,-1.47405919572426e-05
0.4335879802423645,-7.475287866058226e-06,0.4335879802423645,-1.9086323276700697e-05,0.4335879802423645,2.6376383452749863e-06,0.4335879802423645,-1.310424751791248e-05
0.4343820974222956,-6.171365151258841e-06,0.4343820974222956,-1.869028672317781e-05,0.4343820974222956,8.783001507099043e-07,0.4343820974222956,-1.1815929092446955e-05
0.4351762146022266,-6.150782536410923e-06,0.4351762146022266,-2.027028126544712e-05,0.4351762146022266,1.5890338046163835e-06,0.4351762146022266,-1.4976112682054612e-05
0.4359703317821577,-7.641947016384506e-06,0.4359703317821577,-2.0190999574702057e-05,0.4359703317821577,2.61607104915352e-06,0.4359703317821577,-1.3893083868923947e-05
0.4367644489620888,-8.303455529127074e-06,0.4367644489620888,-2.1010766735719668e-05,0.4367644489620888,-3.052215912032468e-07,0.4367644489620888,-1.2292411021112668e-05
0.4375585661420199,-7.454688574398141e-06,0.4375585661420199,-2.1740651851917853e-05,0.4375585661420199,-1.530445475535309e-06,0.4375585661420199,-1.2894688836819831e-05
0.438352683321951,-6.21042e-06,0.438352683321951,-2.29165926952236e-05,0.438352683321951,-1.0361390184212843e-06,0.438352683321951,-1.537274791904924e-05
0.439146800501882,-5.973916733422417e-06,0.439146800501882,-2.2146358811342184e-05,0.439146800501882,-8.011238596026617e-07,0.439146800501882,-1.5373493210830978e-05
0.4399409176818131,-5.587611495236124e-06,0.4399409176818131,-2.18500108457714e-05,0.4399409176818131,1.4841628613057497e-07,0.4399409176818131,-1.3773319309196588e-05
0.4407350348617442,-6.37827e-06,0.4407350348617442,-2.190961858788401e-05,0.4407350348617442,3.451139572327793e-07,0.4407350348617442,-1.3675017375348648e-05
0.4415291520416752,-7.632157060504705e-06,0.4415291520416752,-2.19091974696488e-05,0.4415291520416752,1.13504072177084e-06,0.4415291520416752,-1.202613821164403e-05
0.4423232692216063,-7.098988765265073e-06,0.4423232692216063,-2.432666021746285e-05,0.4423232692216063,3.781578426051195e-06,0.4423232692216063,-1.1364431234734926e-05
0.4431173864015373,-6.54612e-06,0.4431173864015373,-2.4200077235074976e-05,0.4431173864015373,3.307421309410216e-06,0.4431173864015373,-1.1621027494632067e-05
0.4439115035814684,-8.441747850128002e-06,0.4439115035814684,-2.305447715434125e-05,0.4439115035814684,1.0565369437264477e-06,0.4439115035814684,-1.09102e-05
0.4447056207613995,-9.56741e-06,0.4447056207613995,-2.1810178978038176e-05,0.4447056207613995,-2.941286955131628e-08,0.4447056207613995,-8.30422468515414e-06
0.4454997379413306,-8.225365133865477e-06,0.4454997379413306,-2.366585252548984e-05,0.4454997379413306,-6.71302608829173e-07,0.4454997379413306,-7.552842433067261e-06
0.4462938551212617,-6.576289508784754e-06,0.4462938551212617,-2.347903597607881e-05,0.4462938551212617,1.7860027520418315e-06,0.4462938551212617,-1.0888534668605591e-05
0.4470879723011927,-4.573946342258419e-06,0.4470879723011927,-2.16526e-05,0.4470879723011927,-1.2583601496909782e-07,0.4470879723011927,-1.3811578722670164e-05
0.4478820894811238,-2.228958973286224e-06,0.4478820894811238,-2.046857064955772e-05,0.4478820894811238,-2.1429908842725685e-06,0.4478820894811238,-1.3853401768545138e-05
0.4486762066610549,-6.345033117979638e-06,0.4486762066610549,-1.801916452661759e-05,0.4486762066610549,-2.674510447099515e-06,0.4486762066610549,-1.4640384078499193e-05
0.4494703238409859,-6.88182e-06,0.4494703238409859,-1.9005668400268803e-05,0.4494703238409859,-1.82714337588418e-06,0.4494703238409859,-1.631979324823164e-05
0.450264441020917,-7.474380191584051e-06,0.450264441020917,-1.96384e-05,0.450264441020917,-1.589479808415949e-06,0.450264441020917,-1.7525019425247847e-05
0.4510585582008481,-6.901631208548997e-06,0.4510585582008481,-1.952004399630308e-05,0.4510585582008481,-2.6690451161339065e-07,0.4510585582008481,-1.7979711208549e-05
0.4518526753807791,-6.664751773489107e-06,0.4518526753807791,-1.938140216826121e-05,0.4518526753807791,1.6090764530217848e-06,0.4518526753807791,-1.3429187743971307e-05
0.4526467925607102,-6.506039153926956e-06,0.4526467925607102,-2.066501474088962e-05,0.4526467925607102,2.409013830785391e-06,0.4526467925607102,-1.1472841442888692e-05
0.4534409097406413,-7.178665806738495e-06,0.4534409097406413,-2.0211085000128288e-05,0.4534409097406413,9.779592393130518e-07,0.4534409097406413,-1.2627554193261506e-05
0.4542350269205724,-6.54612e-06,0.4542350269205724,-2.025030989833556e-05,0.4542350269205724,1.529449503710813e-06,0.4542350269205724,-1.4670684771357942e-05
0.4550291441005034,-6.467185799850855e-06,0.4550291441005034,-2.042826141529674e-05,0.4550291441005034,1.8862663988068456e-06,0.4550291441005034,-1.7426405200894867e-05
0.4558232612804345,-5.914279638297212e-06,0.4558232612804345,-2.1533028722164585e-05,0.4558232612804345,6.220663811018696e-07,0.4558232612804345,-1.744642031003096e-05
0.4566173784603656,-6.88182e-06,0.4566173784603656,-2.1445553000693417e-05,0.4566173784603656,1.17494e-06,0.4566173784603656,-1.7505900317062743e-05
0.4574114956402966,-7.543279636908761e-06,0.4574114956402966,-2.351872152904593e-05,0.4574114956402966,8.39246e-07,0.4574114956402966,-1.71305550733312e-05
0.4582056128202277,-8.600133072577811e-06,0.4582056128202277,-2.339265695086197e-05,0.4582056128202277,1.67849e-07,0.4582056128202277,-1.6380025642474064e-05
0.4589997300001588,-6.379145263004551e-06,0.4589997300001588,-2.165294923100848e-05,0.4589997300001588,1.67849e-07,0.4589997300001588,-1.561058351253236e-05
0.4597938471800898,-6.802131281484808e-06,0.4597938471800898,-2.3706407501781623e-05,0.4597938471800898,-4.045328075462239e-07,0.4597938471800898,-1.1977661949624308e-05
0.4605879643600209,-7.376410130865467e-06,0.4605879643600209,-2.291777948709045e-05,0.4605879643600209,-1.3727760523461872e-06,0.4605879643600209,-9.855227782343026e-06
0.461382081539952,-7.037992367811101e-06,0.461382081539952,-2.0863267645765763e-05,0.461382081539952,-1.0928427484254677e-07,0.461382081539952,-9.87191067645423e-06
0.4621761987198831,-9.052763284966242e-06,0.4621761987198831,-2.157358303744327e-05,0.4621761987198831,-6.304758985715183e-07,0.4621761987198831,-1.2290455474943736e-05
0.4629703158998141,-8.541124817306427e-06,0.4629703158998141,-2.0113642793313296e-05,0.4629703158998141,1.8847103653871448e-06,0.4629703158998141,-1.1859744451919282e-05
0.4637644330797452,-7.967744087704897e-06,0.4637644330797452,-2.0398502419367493e-05,0.4637644330797452,2.276298672075404e-07,0.4637644330797452,-7.237883649180417e-06
0.4645585502596763,-7.750794822027092e-06,0.4645585502596763,-2.045838066202498e-05,0.4645585502596763,-1.9757429428068962e-07,0.4645585502596763,-6.21042e-06
0.4653526674396073,-7.000457506502836e-06,0.4653526674396073,-2.09812e-05,0.4653526674396073,1.3326872742793027e-06,0.4653526674396073,-1.015795699003308e-05
0.4661467846195384,-7.354784191978653e-06,0.4661467846195384,-2.1494497097414505e-05,0.4661467846195384,8.9836837317852e-07,0.4661467846195384,-1.781854507124274e-05
0.4669409017994695,-7.840357169490764e-06,0.4669409017994695,-2.29953e-05,0.4669409017994695,2.6148462395517967e-06,0.4669409017994695,-2.516487090893619e-05
0.4677350189794005,-6.921434408385443e-06,0.4677350189794005,-2.271909523817963e-05,0.4677350189794005,3.939758816770886e-06,0.4677350189794005,-2.76951e-05
0.4685291361593316,-5.7858013397936026e-06,0.4685291361593316,-2.23239e-05,0.4685291361593316,4.53193e-06,0.4685291361593316,-2.2010156112770007e-05
0.4693232533392627,-6.388182527835788e-06,0.4693232533392627,-2.1732312564140248e-05,0.4693232533392627,3.7223070879726313e-06,0.4693232533392627,-5.6965160805839965e-06
0.4701173705191938,-8.10629429284921e-06,0.4701173705191938,-2.0921524983789427e-05,0.4701173705191938,3.7123994803297216e-06,0.4701173705191938,1.2827212626018174e-05
0.4709114876991248,-8.698569525599555e-06,0.4709114876991248,-2.100093599114413e-05,0.4709114876991248,3.851845719997052e-07,0.4709114876991248,1.7644097627997777e-05
0.4717056048790559,-7.671760045269812e-06,0.4717056048790559,-2.03098e-05,0.4717056048790559,2.938993759894924e-08,0.4717056048790559,6.864840986169009e-06
0.472499722058987,-7.55322e-06,0.472499722058987,-2.114855058169924e-05,0.472499722058987,-1.674485520122456e-07,0.472499722058987,-5.0317758574552605e-06
0.473293839238918,-6.072762440839611e-06,0.473293839238918,-2.18204e-05,0.473293839238918,3.055064440685252e-07,0.473293839238918,-8.125588779580195e-06
0.4740879564188491,-6.959694643920373e-06,0.4740879564188491,-2.0409785363187106e-05,0.4740879564188491,-8.181984659687136e-07,0.4740879564188491,-7.828932322690596e-06
0.4748820735987802,-7.545400576349776e-06,0.4748820735987802,-1.93027e-05,0.4748820735987802,-1.354490447785584e-06,0.4748820735987802,-9.801634735327209e-06
0.4756761907787112,-5.934374625722377e-06,0.4756761907787112,-2.1060206709282187e-05,0.4756761907787112,9.363234518346012e-07,0.4756761907787112,-1.2961826871388115e-05
0.4764703079586423,-6.615664694046418e-06,0.4764703079586423,-2.16526e-05,0.4764703079586423,3.3473984149427903e-06,0.4764703079586423,-1.4818684353178606e-05
0.4772644251385734,-6.368076733987544e-06,0.4772644251385734,-2.1494289430719508e-05,0.4772644251385734,1.5602474495093425e-06,0.4772644251385734,-1.8453256733987545e-05
0.4780585423185045,-7.197697325423545e-06,0.4780585423185045,-2.23239e-05,0.4780585423185045,1.017010746800453e-06,0.4780585423185045,-1.9124891615150643e-05
0.4788526594984356,-5.104916479033021e-06,0.4788526594984356,-2.19883e-05,0.4788526594984356,6.612818475661015e-07,0.4788526594984356,-1.908564323951651e-05
0.4796467766783666,-6.338160488858513e-06,0.4796467766783666,-2.19883e-05,0.4796467766783666,8.39246e-07,0.4796467766783666,-2.066450858663021e-05
0.4804408938582977,-5.461367477586819e-06,0.4804408938582977,-2.29953e-05,0.4804408938582977,-2.455110018868915e-07,0.4804408938582977,-2.157493747758682e-05
0.4812350110382288,-4.452695462518031e-06,0.4812350110382288,-2.29953e-05,0.4812350110382288,2.8460754201562e-07,0.4812350110382288,-1.877100722489182e-05
0.4820291282181598,-4.670816726181452e-06,0.4820291282181598,-2.419974778260905e-05,0.4820291282181598,2.94236152056195e-06,0.4820291282181598,-1.73084860822478e-05
0.4828232453980909,-3.09043205601398e-06,0.4828232453980909,-2.41419416485446e-05,0.4828232453980909,2.636236910468343e-06,0.4828232453980909,-1.58666608133608e-05
0.483617362578022,-5.381251225307467e-06,0.483617362578022,-2.25122948113332e-05,0.483617362578022,4.818535359796088e-06,0.483617362578022,-1.39315e-05
0.484411479757953,-6.605289482773513e-06,0.484411479757953,-2.039863213417355e-05,0.484411479757953,4.4135910344529744e-06,0.484411479757953,-1.5965292188428062e-05
0.4852055969378841,-5.440415823553326e-06,0.4852055969378841,-2.044679070547803e-05,0.4852055969378841,2.221897470659976e-06,0.4852055969378841,-1.568971494131995e-05
0.4859997141178152,-6.545296223736166e-06,0.4859997141178152,-2.0310169829092264e-05,0.4859997141178152,5.041658318911346e-07,0.4859997141178152,-1.2925223782398644e-05
0.4867938312977463,-7.602733476716746e-06,0.4867938312977463,-2.1178799807245237e-05,0.4867938312977463,-1.3125878630517512e-06,0.4867938312977463,-1.6259611325965545e-05
0.4875879484776773,-6.033642902352885e-06,0.4875879484776773,-2.267897129856702e-05,0.4875879484776773,-1.786344963252792e-06,0.4875879484776773,-1.9380557444879188e-05
0.4883820656576084,-7.1160103374156414e-06,0.4883820656576084,-2.161409907081264e-05,0.4883820656576084,-2.4201602082841853e-06,0.4883820656576084,-1.96384e-05
0.4891761828375395,-9.724120737891968e-06,0.4891761828375395,-1.867079822800385e-05,0.4891761828375395,6.678306097003005e-07,0.4891761828375395,-1.96384e-05
0.4899703000174705,-8.008859535785114e-06,0.4899703000174705,-1.983451611456547e-05,0.4899703000174705,2.479415400301611e-06,0.4899703000174705,-1.91444311499246e-05
0.4907644171974016,-6.624942646282657e-06,0.4907644171974016,-1.9144391636807574e-05,0.4907644171974016,2.072600883404759e-07,0.4907644171974016,-2.062509058513063e-05
0.4915585343773327,-7.829425367888132e-06,0.4915585343773327,-2.1867038596782724e-05,0.4915585343773327,1.1253694535514906e-06,0.4915585343773327,-2.0704985222770426e-05
0.4923526515572637,-7.573463383215526e-06,0.4923526515572637,-2.325231324128429e-05,0.4923526515572637,1.727691027469787e-06,0.4923526515572637,-2.0526851027469788e-05
0.4931467687371948,-5.066108149881292e-06,0.4931467687371948,-2.3251938275676872e-05,0.4931467687371948,2.063809537470323e-06,0.4931467687371948,-2.017257814988129e-05
0.4939408859171259,-5.932949692768821e-06,0.4939408859171259,-2.3074531681378252e-05,0.4939408859171259,1.2040548463844104e-06,0.4939408859171259,-1.817914061446236e-05
0.494735003097057,-5.984210903675721e-06,0.494735003097057,-2.082401653362993e-05,0.494735003097057,2.832558838131215e-06,0.494735003097057,-1.3716802581930631e-05
0.495529120276988,-7.01967371449499e-06,0.495529120276988,-2.1771046005751216e-05,0.495529120276988,2.6755912381649965e-06,0.495529120276988,-4.060508402725291e-06
0.4963232374569191,-8.619552734523087e-06,0.4963232374569191,-2.2875694459841457e-05,0.4963232374569191,3.4853321939214885e-06,0.4963232374569191,5.637782019295548e-06
0.4971173546368502,-8.599760426686863e-06,0.4971173546368502,-2.313330221886437e-05,0.4971173546368502,1.3327417067474471e-06,0.4971173546368502,1.1897947334987345e-05
0.4979114718167812,-7.454505495813486e-06,0.4979114718167812,-2.2699092528348875e-05,0.4979114718167812,4.244350845619144e-07,0.4979114718167812,1.4405470991626973e-05
0.4987055889967123,-6.88182e-06,0.4987055889967123,-2.159438045290824e-05,0.4987055889967123,2.280648443432958e-06,0.4987055889967123,9.23386527383305e-06
0.4994997061766434,-6.546331666310745e-06,0.4994997061766434,-2.031027509934653e-05,0.4994997061766434,1.17578666524298e-06,0.4994997061766434,-1.506406692700767e-06
0.5002938233565745,-6.782787313552806e-06,0.5002938233565745,-1.9282877068200225e-05,0.5002938233565745,1.5492437106796231e-06,0.5002938233565745,-1.0195148289809968e-05
0.5010879405365055,-6.9507433743063415e-06,0.5010879405365055,-2.001283232410366e-05,0.5010879405365055,1.768499754161948e-06,0.5010879405365055,-1.2630872759711213e-05
0.5018820577164366,-7.514193816327438e-06,0.5018820577164366,-2.0053546962960973e-05,0.5018820577164366,1.096888562680105e-06,0.5018820577164366,-8.56031e-06
0.5026761748963677,-6.941486067144504e-06,0.5026761748963677,-1.8828765506833056e-05,0.5026761748963677,-6.005827978396252e-07,0.5026761748963677,-8.836343932855496e-06
0.5034702920762988,-6.960957285393232e-06,0.5034702920762988,-2.074354778425238e-05,0.5034702920762988,-9.279608287018428e-07,0.5034702920762988,-1.2763615151340133e-05
0.5042644092562298,-6.2892369255715735e-06,0.5042644092562298,-2.1335934841950943e-05,0.5042644092562298,1.3909630702981435e-06,0.5042644092562298,-1.576763385114315e-05
0.5050585264361609,-7.493717578188393e-06,0.5050585264361609,-2.4178405044415483e-05,0.5050585264361609,2.557408281207737e-06,0.5050585264361609,-1.7228997578188392e-05
0.505852643616092,-7.612547352771983e-06,0.505852643616092,-2.4102055133398512e-05,0.505852643616092,2.3990852944560326e-06,0.505852643616092,-1.7644464116631902e-05
0.506646760796023,-6.666538050367829e-06,0.506646760796023,-2.2561100582514936e-05,0.506646760796023,2.172552905726056e-06,0.506646760796023,-1.7978874188547888e-05
0.507440877975954,-4.945246080282375e-06,0.507440877975954,-2.16526e-05,0.507440877975954,1.8851483291516812e-06,0.507440877975954,-1.837608414951366e-05
0.5082349951558852,-6.979782063287495e-06,0.5082349951558852,-2.068589613070299e-05,0.5082349951558852,3.415321434454384e-06,0.5082349951558852,-1.69528e-05
0.5090291123358163,-7.908923667073592e-06,0.5090291123358163,-1.7604577392291778e-05,0.5090291123358163,8.992720674560108e-07,0.5090291123358163,-1.890697310472359e-05
0.5098232295157473,-6.15118298618803e-06,0.5098232295157473,-1.9023556805874188e-05,0.5098232295157473,7.997316573943467e-07,0.5098232295157473,-2.056654090331621e-05
0.5106173466956784,-6.763451520898243e-06,0.5106173466956784,-2.1050177987543032e-05,0.5106173466956784,3.070771520898243e-06,0.5106173466956784,-1.65575931179041e-05
0.5114114638756094,-7.632346054865613e-06,0.5114114638756094,-2.1622969957142448e-05,0.5114114638756094,6.026608542577456e-07,0.5114114638756094,-1.570868223296185e-05
0.5122055810555405,-5.440427289580782e-06,0.5122055810555405,-2.2639006590924625e-05,0.5122055810555405,-1.7477372895807824e-06,0.5122055810555405,-1.7002086669074604e-05
0.5129996982354716,-6.209767845410147e-06,0.5129996982354716,-2.1653380692162304e-05,0.5129996982354716,-5.042001558849798e-07,0.5129996982354716,-1.7959356500067262e-05
0.5137938154154027,-7.55322e-06,0.5137938154154027,-2.2126633336142687e-05,0.5137938154154027,7.402081705803253e-07,0.5137938154154027,-1.8967e-05
0.5145879325953338,-6.606137968801994e-06,0.5145879325953338,-2.1949577948926577e-05,0.5145879325953338,-4.7813598749619584e-08,0.5145879325953338,-1.8415635937603988e-05
0.5153820497752648,-4.957439098682173e-06,0.5153820497752648,-2.111958745750215e-05,0.5153820497752648,-2.304062402205141e-07,0.5153820497752648,-1.5531959098682175e-05
0.5161761669551959,-6.158255156471138e-06,0.5161761669551959,-2.18204e-05,0.5161761669551959,2.398396424288612e-06,0.5161761669551959,-1.49386e-05
0.5169702841351269,-6.745261603236975e-06,0.5169702841351269,-2.171199792317091e-05,0.5169702841351269,2.18204e-06,0.5169702841351269,-1.39315e-05
0.5177644013150581,-4.8077668693440825e-06,0.5177644013150581,-2.269871214848109e-05,0.5177644013150581,3.2489931306559178e-06,0.5177644013150581,-1.562893868353377e-05
0.5185585184949891,-5.86480006319124e-06,0.5185585184949891,-2.272023647101644e-05,0.5185585184949891,2.507820063191239e-06,0.5185585184949891,-1.7890457487338136e-05
0.5193526356749202,-7.749971780486206e-06,0.5193526356749202,-2.0863173553198847e-05,0.5193526356749202,3.86053e-06,0.5193526356749202,-1.9519739561442384e-05
0.5201467528548512,-8.777791003497714e-06,0.5201467528548512,-2.240227179703076e-05,0.5201467528548512,2.163083010493142e-06,0.5201467528548512,-1.904730501748857e-05
0.5209408700347823,-7.139926273751249e-06,0.5209408700347823,-2.43777318999438e-05,0.5209408700347823,5.326457629133236e-07,0.5209408700347823,-1.843430524190777e-05
0.5217349872147133,-5.618279338825928e-06,0.5217349872147133,-2.145730854506245e-05,0.5217349872147133,1.3917648113664172e-06,0.5217349872147133,-1.6934106798461246e-05
0.5225291043946444,-5.795800101628636e-06,0.5225291043946444,-2.044784293088343e-05,0.5225291043946444,6.024872452481171e-07,0.5225291043946444,-1.69528e-05
0.5233232215745756,-6.585579525853194e-06,0.5233232215745756,-2.0725265451596087e-05,0.5233232215745756,8.589343470762981e-07,0.5233232215745756,-1.3428042830699602e-05
0.5241173387545066,-7.55322e-06,0.5241173387545066,-1.977639194583404e-05,0.5241173387545066,1.9252637854284867e-06,0.5241173387545066,-9.744993219256718e-06
0.5249114559344377,-6.743537542345634e-06,0.5249114559344377,-1.934221307440956e-05,0.5249114559344377,-5.626823204594343e-07,0.5249114559344377,-1.096933508469127e-05
0.5257055731143687,-7.079013954811138e-06,0.5257055731143687,-2.0111044476841485e-05,0.5257055731143687,-1.7078339548111388e-06,0.5257055731143687,-1.066372224176719e-05
0.5264996902942998,-7.720958446133523e-06,0.5264996902942998,-2.031000032409163e-05,0.5264996902942998,-3.188470676801141e-06,0.5264996902942998,-8.896790903649516e-06
0.5272938074742308,-6.496597923762674e-06,0.5272938074742308,-2.119855596434773e-05,0.5272938074742308,-3.486269507047055e-06,0.5272938074742308,-9.821077962905888e-07
0.528087924654162,-9.309511741849522e-06,0.528087924654162,-2.09037764439139e-05,0.528087924654162,-1.0971374369691697e-06,0.528087924654162,4.519687589605585e-06
0.528882041834093,-9.411351129418976e-06,0.528882041834093,-1.983570740598273e-05,0.528882041834093,-1.6862062294036524e-06,0.528882041834093,4.969242856318444e-06
0.5296761590140241,-8.22461e-06,0.5296761590140241,-2.161311715190788e-05,0.5296761590140241,-4.539405480586424e-06,0.5296761590140241,1.5330050514005138e-06
0.5304702761939551,-8.718596012208713e-06,0.5304702761939551,-2.066630914271243e-05,0.5304702761939551,-3.6639933215230062e-06,0.5304702761939551,-2.9299466174334277e-06
0.5312643933738862,-8.067001379198643e-06,0.5312643933738862,-1.9342824319714903e-05,0.5312643933738862,-2.5776208054773607e-06,0.5312643933738862,-7.827481114797319e-06
0.5320585105538173,-6.9215112132625e-06,0.5320585105538173,-1.914295377804272e-05,0.5320585105538173,-8.888596618755949e-07,0.5320585105538173,-1.3437035146949995e-05
0.5328526277337483,-6.091753828428628e-06,0.5328526277337483,-2.1809919263324205e-05,0.5328526277337483,-4.051802826765109e-07,0.5328526277337483,-1.5372667656857255e-05
0.5336467449136795,-5.520083730930236e-06,0.5336467449136795,-2.1810730711843924e-05,0.5336467449136795,9.385162901396228e-07,0.5336467449136795,-1.8569906107908687e-05
0.5344408620936105,-5.558422120869107e-06,0.5344408620936105,-2.03098e-05,0.5344408620936105,-1.1264587157721976e-06,0.5344408620936105,-2.1575029205805843e-05
0.5352349792735416,-7.413367839001665e-06,0.5352349792735416,-2.1414516316978123e-05,0.5352349792735416,1.3311696010304464e-06,0.5352349792735416,-1.877114452195813e-05
0.5360290964534726,-7.731080625608948e-06,0.5360290964534726,-2.323216119241139e-05,0.5360290964534726,3.1691034504227354e-06,0.5360290964534726,-1.5423302013997217e-05
0.5368232136334037,-6.467242757513e-06,0.5368232136334037,-2.248345140974128e-05,0.5368232136334037,3.712467833266753e-06,0.5368232136334037,-1.2983625572389725e-05
0.5376173308133347,-3.939465251456085e-06,0.5376173308133347,-2.16526e-05,0.5376173308133347,2.428825251456085e-06,0.5376173308133347,-1.3556332374271955e-05
0.5384114479932659,-3.465712261938127e-06,0.5384114479932659,-2.2916259191826885e-05,0.5384114479932659,1.885922286002091e-06,0.5384114479932659,-1.513601180933194e-05
0.539205565173197,-4.116377466351186e-06,0.539205565173197,-2.411871511216002e-05,0.539205565173197,1.3721224887837289e-06,0.539205565173197,-1.4781343778040678e-05
0.539999682353128,-6.88090469304015e-06,0.539999682353128,-2.50095e-05,0.539999682353128,1.1753976568881532e-06,0.539999682353128,-1.0912030627552611e-05
0.5407937995330591,-5.263826591405747e-06,0.5407937995330591,-2.2284368722469355e-05,0.5407937995330591,1.1254180078034985e-06,0.5407937995330591,-1.1856800458046576e-05
0.5415879167129901,-4.19623e-06,0.5415879167129901,-2.094249849498734e-05,0.5415879167129901,2.4488252252142105e-06,0.5415879167129901,-1.1977340900856842e-05
0.5423820338929212,-7.037854776506624e-06,0.5423820338929212,-1.912598638319494e-05,0.5423820338929212,1.0969229603524486e-06,0.5423820338929212,-1.2331017969262913e-05
0.5431761510728523,-7.672584680681751e-06,0.5431761510728523,-1.957904405018398e-05,0.5431761510728523,1.883625275909868e-06,0.5431761510728523,-1.3200416770722138e-05
0.5439702682527834,-5.87472e-06,0.5439702682527834,-2.230311084884944e-05,0.5439702682527834,4.373638267080243e-06,0.5439702682527834,-1.3773208267080245e-05
0.5447643854327144,-6.21042e-06,0.5447643854327144,-2.188902239018442e-05,0.5447643854327144,3.0315404731234367e-06,0.5447643854327144,-1.1424000473123435e-05
0.5455585026126455,-6.842117320710051e-06,0.5455585026126455,-2.346851125794268e-05,0.5455585026126455,3.1494373207100518e-06,0.5455585026126455,-1.2331471928305934e-05
0.5463526197925765,-7.109005952292536e-06,0.5463526197925765,-2.1337935149380013e-05,0.5463526197925765,2.9127759522925363e-06,0.5463526197925765,-1.4721571904585072e-05
0.5471467369725076,-7.572139070199272e-06,0.5471467369725076,-1.9796564540767624e-05,0.5471467369725076,2.843978704287756e-06,0.5471467369725076,-1.2016584939050342e-05
0.5479408541524387,-8.857236068930529e-06,0.5479408541524387,-2.0546820886589155e-05,0.5479408541524387,1.2137139310694708e-06,0.5479408541524387,-1.2253e-05
0.5487349713323698,-6.301341196650744e-06,0.5487349713323698,-1.9757452114541203e-05,0.5487349713323698,2.61565057688762e-06,0.5487349713323698,-1.379162115377524e-05
0.5495290885123009,-5.498938719812189e-06,0.5495290885123009,-2.167214110190165e-05,0.5495290885123009,-8.76774396243764e-08,0.5495290885123009,-1.624131342128241e-05
0.5503232056922319,-8.461489406714715e-06,0.5503232056922319,-2.2028181095551878e-05,0.5503232056922319,-2.063600296642642e-06,0.5503232056922319,-1.722928014832132e-05
0.551117322872163,-9.271183358741693e-06,0.551117322872163,-2.02315549815889e-05,0.551117322872163,-3.257413766997734e-07,0.551117322872163,-1.69528e-05
0.551911440052094,-8.75771607631821e-06,0.551911440052094,-2.0902132759059355e-05,0.551911440052094,1.2931676009278606e-06,0.551911440052094,-1.6419693923681788e-05
0.5527055572320251,-9.17306795448755e-06,0.5527055572320251,-2.174165452112945e-05,0.5527055572320251,1.984868977243775e-06,0.5527055572320251,-1.5314243465865665e-05
0.5534996744119562,-6.211827287943856e-06,0.5534996744119562,-2.182029473280589e-05,0.5534996744119562,1.0074518167458132e-06,0.5534996744119562,-1.2254641844085844e-05
0.5542937915918873,-7.355108762995992e-06,0.5542937915918873,-2.149464091983924e-05,0.5542937915918873,-3.054376482115278e-07,0.5542937915918873,-1.0139744381497996e-05
0.5550879087718184,-7.82886352755081e-06,0.5550879087718184,-2.303399123198229e-05,0.5550879087718184,1.077974014462993e-07,0.5550879087718184,-1.10781e-05
0.5558820259517494,-8.56031e-06,0.5558820259517494,-2.32721057340953e-05,0.5558820259517494,1.17494e-06,0.5558820259517494,-1.0988206503235597e-05
0.5566761431316805,-8.836321050011e-06,0.5566761431316805,-2.210670602615816e-05,0.5566761431316805,1.726962100022e-06,0.5566761431316805,-1.2685644200044e-05
0.5574702603116115,-7.939406372264408e-06,0.5574702603116115,-2.3429006692130952e-05,0.5574702603116115,1.3141355316265097e-06,0.5574702603116115,-1.2746997453630962e-05
0.5582643774915427,-7.167861064090828e-06,0.5582643774915427,-2.368682903920665e-05,0.5582643774915427,1.4113221281816563e-06,0.5582643774915427,-1.1739188085454437e-05
0.5590584946714737,-6.447769754305196e-06,0.5590584946714737,-2.204896847040818e-05,0.5590584946714737,1.076599162792754e-06,0.5590584946714737,-1.3832214636706865e-05
0.5598526118514048,-6.407112984834005e-06,0.5598526118514048,-2.1573938923860137e-05,0.5598526118514048,-5.03548e-07,0.5598526118514048,-1.5837156494944385e-05
0.5606467290313358,-7.435018202538818e-06,0.5606467290313358,-2.157351259310105e-05,0.5606467290313358,1.2931417974611807e-06,0.5606467290313358,-1.385347610361368e-05
0.5614408462112669,-7.611363120225371e-06,0.5614408462112669,-2.3331e-05,0.5614408462112669,-1.387773244197394e-07,0.5614408462112669,-1.3279481232521085e-05
0.5622349633911979,-8.56031e-06,0.5622349633911979,-2.2226407041692764e-05,0.5622349633911979,1.2332008729203844e-06,0.5622349633911979,-1.4108662276502796e-05
0.563029080571129,-7.3953973653905635e-06,0.563029080571129,-2.06455e-05,0.563029080571129,2.6254211063568067e-06,0.563029080571129,-1.3951554730781127e-05
0.5638231977510602,-7.573034672581112e-06,0.5638231977510602,-2.1532905682870595e-05,0.5638231977510602,4.897237065483777e-06,0.5638231977510602,-1.347737173806489e-05
0.5646173149309912,-5.993157275266046e-06,0.5646173149309912,-2.23239e-05,0.5646173149309912,3.99870682114372e-06,0.5646173149309912,-1.2331958183510696e-05
0.5654114321109223,-7.671415492957668e-06,0.5654114321109223,-2.169213800373388e-05,0.5654114321109223,2.51774e-06,0.5654114321109223,-1.130500068660906e-05
0.5662055492908533,-6.9617442663574446e-06,0.5662055492908533,-2.16526e-05,0.5662055492908533,2.714899556728815e-06,0.5662055492908533,-1.2687279778364409e-05
0.5669996664707844,-5.53903e-06,0.5669996664707844,-2.2323468596989563e-05,0.5669996664707844,3.18914e-06,0.5669996664707844,-1.2588940269866244e-05
0.5677937836507154,-8.73640619331045e-06,0.5677937836507154,-2.159323824488268e-05,0.5677937836507154,2.143524054547269e-06,0.5677937836507154,-1.360399324242122e-05
0.5685879008306466,-6.795220540506889e-06,0.5685879008306466,-1.9005680958952043e-05,0.5685879008306466,8.003720536048557e-07,0.5685879008306466,-1.643690850126521e-05
0.5693820180105776,-6.741106431343107e-06,0.5693820180105776,-1.92438160071256e-05,0.5693820180105776,6.595371450744856e-07,0.5693820180105776,-1.9419692555812454e-05
0.5701761351905087,-8.22461e-06,0.5701761351905087,-1.82166650636394e-05,0.5701761351905087,2.398350658599912e-06,0.5701761351905087,-2.03098e-05
0.5709702523704397,-6.704423174342005e-06,0.5709702523704397,-1.76242e-05,0.5709702523704397,-1.3643442736471886e-07,0.5709702523704397,-1.7240715871710026e-05
0.5717643695503708,-4.730602414889857e-06,0.5717643695503708,-1.82553986325576e-05,0.5717643695503708,-7.810012063031024e-07,0.5717643695503708,-1.6596553288064136e-05
0.5725584867303019,-3.18914e-06,0.5725584867303019,-2.105797225418072e-05,0.5725584867303019,1.1352148620017132e-06,0.5725584867303019,-1.8887548777310277e-05
0.573352603910233,-5.301663258775101e-06,0.573352603910233,-2.248121187924938e-05,0.573352603910233,-6.018803193950353e-07,0.573352603910233,-1.96384e-05
0.5741467210901641,-3.959837871105039e-06,0.5741467210901641,-2.1968946613172888e-05,0.5741467210901641,6.854207262986315e-08,0.5741467210901641,-1.4825270839945351e-05
0.5749408382700951,-5.655282419877052e-06,0.5749408382700951,-1.97568802659193e-05,0.5749408382700951,5.03548e-07,0.5749408382700951,-5.306524583078797e-06
0.5757349554500262,-7.040369164919415e-06,0.5757349554500262,-1.96384e-05,0.5757349554500262,1.0163927242574078e-06,0.5757349554500262,5.407480632643953e-07
0.5765290726299572,-6.724003086101607e-06,0.5765290726299572,-1.920383037332039e-05,0.5765290726299572,1.530706172203216e-06,0.5765290726299572,6.761423564521909e-06
