X [s].2,L DELTOID ANTERIOR: EMG 3 [V],X [s].3,L BICEPS BRACHII: EMG 4 [V],X [s].4,L DELTOID POSTERIOR: EMG 5 [V],X [s].7,L DELTOID MEDIUS: EMG 8 [V]
0.0,-3.52483e-06,0.0,2.36667e-05,0.0,-1.02388e-05,0.0,-9.56741e-06
0.000794117179931,-8.392454973301042e-06,0.000794117179931,3.054859289320685e-05,0.000794117179931,-1.4938595146615548e-05,0.000794117179931,-1.023879930666969e-05
0.0015882343598621,-1.1581577349589544e-05,0.0015882343598621,4.078732728038827e-05,0.0015882343598621,-1.242081788231418e-05,0.0015882343598621,-9.567414768451393e-06
0.0023823515397932,-1.0910198047240034e-05,0.0023823515397932,2.702363263013022e-05,0.0023823515397932,-1.2253e-05,0.0023823515397932,-6.881812188998918e-06
0.0031764687197242,-9.903101623640856e-06,0.0031764687197242,-7.721013984680722e-06,0.0031764687197242,-1.2253e-05,0.0031764687197242,-2.8534464945311726e-06
0.0039705858996553,-1.2588686133222205e-05,0.0039705858996553,-3.205907433294582e-05,0.0039705858996553,-1.0910206933388895e-05,0.0039705858996553,-1.5106469333888987e-06
0.0047647030795864,-9.567436329240334e-06,0.0047647030795864,-4.649407420519572e-05,0.0047647030795864,-8.89602755279784e-06,0.0047647030795864,-1.51064e-06
0.0055588202595174,-7.553219780587259e-06,0.0055588202595174,-4.3473000767911913e-05,0.0055588202595174,-8.224610438825481e-06,0.0055588202595174,-2.1820402194127404e-06
0.0063529374394485,-6.881822164854472e-06,0.0063529374394485,-4.582279242333178e-05,0.0063529374394485,-9.567405670291055e-06,0.0063529374394485,-2.853437835145528e-06
0.0071470546193796,-5.539039098175616e-06,0.0071470546193796,-6.663605897722774e-05,0.0071470546193796,-9.903097725506911e-06,0.0071470546193796,-5.539011803581013e-06
0.0079411717993107,-4.1962438667777976e-06,0.0079411717993107,-8.828847639975704e-05,0.0079411717993107,-1.2588672266444404e-05,0.0079411717993107,-8.895975333262043e-06
0.0087352889792417,-7.7210654691297e-06,0.0087352889792417,-0.0001003739844654,0.0087352889792417,-1.493859697941123e-05,0.0087352889792417,-1.1581596547911404e-05
0.0095294061591728,-8.224607564587084e-06,0.0095294061591728,-0.0001129629391122,0.0095294061591728,-1.5945695129077435e-05,0.0095294061591728,-1.4938583763591455e-05
0.0103235233391039,-7.217411469492948e-06,0.0103235233391039,-0.0001057445017493,0.0103235233391039,-1.560999013356355e-05,0.0103235233391039,-1.7120713465488714e-05
0.0111176405190349,-3.524864253941188e-06,0.0111176405190349,-8.879086133957198e-05,0.0111176405190349,-1.5274419888794158e-05,0.0111176405190349,-2.09812e-05
0.011911757698966,-4.196194239594324e-06,0.011911757698966,-6.059510193171217e-05,0.011911757698966,-1.7624074838580133e-05,0.011911757698966,-2.09812e-05
0.0127058748788971,-2.8534824787378445e-06,0.0127058748788971,-2.9710277015082936e-05,0.0127058748788971,-1.6281442479054192e-05,0.0127058748788971,-2.064551061976355e-05
0.0134999920588282,-3.189136642927373e-06,0.0134999920588282,-1.1581781280921848e-05,0.0134999920588282,-1.62814e-05,0.0134999920588282,-2.165258992878212e-05
0.0142941092387592,-5.539014377526826e-06,0.0142941092387592,-5.539098347389396e-06,0.0142941092387592,-1.628139218876341e-05,0.0142941092387592,-2.198827070728109e-05
0.0150882264186903,-4.19628583418226e-06,0.0150882264186903,-1.1413906589368377e-05,0.0150882264186903,-1.5610067001417887e-05,0.0150882264186903,-1.947062283593279e-05
0.0158823435986214,-5.874600799357912e-06,0.0158823435986214,-1.762375895144583e-05,0.0158823435986214,-1.7624056958377294e-05,0.0158823435986214,-2.316293775702504e-05
0.0166764607785524,-6.210403419418296e-06,0.0166764607785524,-1.1917581869888971e-05,0.0166764607785524,-1.8295566838836597e-05,0.0166764607785524,-2.0981307771311527e-05
0.0174705779584835,-4.5319765891763485e-06,0.0174705779584835,-5.874887721478961e-06,0.0174705779584835,-2.03097440926553e-05,0.0174705779584835,-2.0309818635781567e-05
0.0182646951384146,-4.867627944800139e-06,0.0182646951384146,-1.728843012332715e-05,0.0182646951384146,-1.829561233119917e-05,0.0182646951384146,-1.963840411039973e-05
0.0190588123183456,-4.364139885836925e-06,0.0190588123183456,-2.1652558340071533e-05,0.0190588123183456,-1.7624179170035764e-05,0.0190588123183456,-1.8966979170035765e-05
0.0198529294982767,-8.224560125924127e-06,0.0198529294982767,-1.896667581609259e-05,0.0198529294982767,-1.6281375062776354e-05,0.0198529294982767,-1.762415635800151e-05
0.0206470466782078,-6.8819101535750464e-06,0.0206470466782078,-1.023938600260184e-05,0.0206470466782078,-1.5610045077123218e-05,0.0206470466782078,-1.6449278888322583e-05
0.0214411638581389,-4.19635222921639e-06,0.0214411638581389,-3.1894608510672223e-06,0.0214411638581389,-1.39315763935447e-05,0.0214411638581389,-1.460298403062352e-05
0.0222352810380699,-5.035459959954953e-06,0.0222352810380699,5.034598240883365e-07,0.0222352810380699,-1.3595808016018018e-05,0.0222352810380699,-1.0910288176198205e-05
0.023029398218001,-6.881815856723406e-06,0.023029398218001,-8.392440036926175e-06,0.023029398218001,-1.35958e-05,0.023029398218001,-5.539042053166234e-06
0.0238235153979321,-6.54602886929429e-06,0.0238235153979321,-2.786337428551125e-05,0.0238235153979321,-1.0238751180159138e-05,0.0238235153979321,-7.721131838568507e-06
0.0246176325778631,-1.8462160679344075e-06,0.0246176325778631,-4.716409216014209e-05,0.0246176325778631,-7.72099426323634e-06,0.0246176325778631,-1.0910014101491414e-05
0.0254117497577942,1.174748869590334e-06,0.0254117497577942,-1.0409025419562534e-05,0.0254117497577942,-5.874836802690214e-06,0.0254117497577942,-6.378556696247112e-06
0.0262058669377253,-3.188958301962412e-06,0.0262058669377253,8.845248383631844e-05,0.0262058669377253,-7.720993127401032e-06,0.0262058669377253,-3.6927918142730578e-06
0.0269999841176564,-4.196209857764242e-06,0.0269999841176564,0.0001925209186269,0.0269999841176564,-1.0406646286237953e-05,0.0269999841176564,-5.538993072201101e-06
0.0277941012975874,-3.189139451454333e-06,0.0277941012975874,0.0002270999147017,0.0277941012975874,-1.174940301708287e-05,0.0277941012975874,-6.546124388348995e-06
0.0285882184775185,-2.85344e-06,0.0285882184775185,0.0001748967076988,0.0285882184775185,-1.3595862482024411e-05,0.0285882184775185,-9.231788102297862e-06
0.0293823356574496,-2.85344e-06,0.0293823356574496,7.637938226777594e-05,0.0293823356574496,-1.6281182424636963e-05,0.0293823356574496,-1.258842803160636e-05
0.0301764528373806,-5.035350405840758e-06,0.0301764528373806,-2.0975418104000364e-05,0.0301764528373806,-1.4938679750617324e-05,0.0301764528373806,-1.493846043641968e-05
0.0309705700173117,-5.874688312969039e-06,0.0309705700173117,-8.308305514309589e-05,0.0309705700173117,-1.4602912674963411e-05,0.0309705700173117,-1.4435019014332958e-05
0.0317646871972428,-8.560266701981315e-06,0.0317646871972428,-0.0001176614425439,0.0317646871972428,-1.5609983763182535e-05,0.0317646871972428,-1.6281370231695194e-05
0.0325588043771738,-8.560330354547624e-06,0.0325588043771738,-0.0001196769158023,0.0325588043771738,-1.4938596299163137e-05,0.0325588043771738,-1.6281405551255293e-05
0.0333529215571049,-1.2253009111961896e-05,0.0333529215571049,-0.0001044013667281,0.0333529215571049,-1.426720455462379e-05,0.0333529215571049,-1.7288654900637922e-05
0.034147038737036,-1.2588674104788464e-05,0.034147038737036,-8.10729996902036e-05,0.034147038737036,-1.4434987056251129e-05,0.034147038737036,-2.299485978911765e-05
0.0349411559169671,-1.25887e-05,0.0349411559169671,-5.790928586337672e-05,0.0349411559169671,-1.4435e-05,0.0349411559169671,-2.064563044491964e-05
0.0357352730968981,-1.091025686545323e-05,0.0357352730968981,-3.944522551659765e-05,0.0357352730968981,-1.4267205684851386e-05,0.0357352730968981,-1.4603104715631623e-05
0.0365293902768292,-7.217565214152066e-06,0.0365293902768292,-1.7288771285157288e-05,0.0365293902768292,-1.42672e-05,0.0365293902768292,-1.6281379448001386e-05
0.0373235074567603,-8.22461e-06,0.0373235074567603,6.714017283710596e-07,0.0373235074567603,-1.3763620490362272e-05,0.0373235074567603,-1.2420785815159137e-05
0.0381176246366913,-8.224547518285787e-06,0.0381176246366913,1.1743776636414651e-06,0.0381176246366913,-1.594566875898779e-05,0.0381176246366913,-1.0910241654682946e-05
0.0389117418166224,-6.210567560283582e-06,0.0389117418166224,-1.6951471955249957e-05,0.0389117418166224,-1.4938673780508092e-05,0.0389117418166224,-1.2252901625989209e-05
0.0397058589965535,-4.196334002936467e-06,0.0397058589965535,-8.225060681112526e-06,0.0397058589965535,-1.4267234667817604e-05,0.0397058589965535,-1.2253e-05
0.0404999761764846,5.034070036096513e-07,0.0404999761764846,3.340075117468262e-05,0.0404999761764846,-1.2924440284871533e-05,0.0404999761764846,-1.3595759715128468e-05
0.0412940933564156,-3.021260510567312e-06,0.0412940933564156,6.277535425514591e-05,0.0412940933564156,-1.29244e-05,0.0412940933564156,-1.7288469106203438e-05
0.0420882105363467,-5.874671010630977e-06,0.0420882105363467,5.958611699145807e-05,0.0420882105363467,-1.3595764371175014e-05,0.0420882105363467,-1.76242e-05
0.0428823277162778,-2.182376087453098e-06,0.0428823277162778,3.071902759794504e-05,0.0428823277162778,-1.0910444428562462e-05,0.0428823277162778,-1.76242e-05
0.0436764448962088,1.6782221120277878e-06,0.0436764448962088,1.5126666315307302e-06,0.0436764448962088,-9.567503178213926e-06,0.0436764448962088,-1.628149317890784e-05
0.0444705620761399,-2.853223568468637e-06,0.0444705620761399,-1.3595078561243742e-05,0.0444705620761399,-1.0238767936405497e-05,0.0444705620761399,-1.762413587185585e-05
0.045264679256071,-3.1891312306548828e-06,0.045264679256071,-3.642270368714428e-05,0.045264679256071,-1.292432984523906e-05,0.045264679256071,-1.628143507738047e-05
0.046058796436002,-8.392565465524326e-07,0.046058796436002,-6.277548172831895e-05,0.046058796436002,-1.4938590960074833e-05,0.046058796436002,-1.2924415066541943e-05
0.0468529136159331,-4.867687552776751e-06,0.0468529136159331,-8.677840502810521e-05,0.0468529136159331,-1.2924353957504291e-05,0.0468529136159331,-1.2420745325565e-05
0.0476470307958642,-8.22431748312809e-06,0.0476470307958642,-0.0001045684496687,0.0476470307958642,-1.0239034014891718e-05,0.0476470307958642,-9.2319878874557e-06
0.0484411479757953,-5.874873949324227e-06,0.0484411479757953,-0.0001361239326586,0.0484411479757953,-7.553395941523287e-06,0.0484411479757953,-5.539271920085872e-06
0.0492352651557263,-3.5249331107041325e-06,0.0492352651557263,-0.0001801000703793,0.0492352651557263,-9.56732161945914e-06,0.0492352651557263,-5.203344730163275e-06
0.0500293823356574,-1.5106848046116824e-06,0.0500293823356574,-0.000175402104549,0.0500293823356574,-1.1078066395484623e-05,0.0500293823356574,-8.224542793193699e-06
0.0508234995155885,-1.1749402047814316e-06,0.0508234995155885,-8.812095324262321e-05,0.0508234995155885,-1.4434997952246684e-05,0.0508234995155885,-1.4099296416361549e-05
0.0516176166955195,-1.846389398935449e-06,0.0516176166955195,1.5946744434875458e-05,0.0516176166955195,-1.359577177191676e-05,0.0516176166955195,-1.628140705702081e-05
0.0524117338754506,-4.196034349764221e-06,0.0524117338754506,6.562496339406341e-05,0.0524117338754506,-1.2253111800610498e-05,0.0524117338754506,-1.6617072049847375e-05
0.0532058510553817,-2.8535227633093614e-06,0.0532058510553817,2.803311738375649e-05,0.0532058510553817,-1.2924358618037142e-05,0.0532058510553817,-1.8631175854111422e-05
0.0539999682353128,-1.6795642596406297e-07,0.0539999682353128,-7.551796608406226e-06,0.0539999682353128,-1.4938519430256946e-05,0.0539999682353128,-2.1652479145385425e-05
0.0547940854152438,-3.860462178753517e-06,0.0547940854152438,-1.8295402701180585e-05,0.0547940854152438,-1.560998766880083e-05,0.0547940854152438,-1.9806233911716043e-05
0.0555882025951749,-4.867627806093608e-06,0.0555882025951749,-1.174933253783591e-05,0.0555882025951749,-1.6449202193906395e-05,0.0555882025951749,-1.9638407678672373e-05
0.056382319775106,-4.196297820440471e-06,0.056382319775106,8.893924535597424e-06,0.056382319775106,-1.712053217955953e-05,0.056382319775106,-2.1988062628458355e-05
0.057176436955037,-3.524883303599172e-06,0.057176436955037,3.474274782016497e-05,0.057176436955037,-1.695281332193021e-05,0.057176436955037,-2.299522005254041e-05
0.0579705541349681,5.033153319667023e-07,0.0579705541349681,5.673173002204616e-05,0.0579705541349681,-1.846331275189888e-05,0.0579705541349681,-2.249182908077513e-05
0.0587646713148992,-3.5246844837817488e-06,0.0587646713148992,6.025777267080753e-05,0.0587646713148992,-2.1820278735822537e-05,0.0587646713148992,-1.8967127325580197e-05
0.0595587884948302,-2.853449727308763e-06,0.0595587884948302,3.94449015496142e-05,0.0595587884948302,-1.9638431613499936e-05,0.0595587884948302,-1.695282918236094e-05
0.0603529056747613,-4.196263581125605e-06,0.0603529056747613,1.443497481440588e-05,0.0603529056747613,-1.76242e-05,0.0603529056747613,-1.829559280401389e-05
0.0611470228546924,-8.895553482783189e-06,0.0611470228546924,1.0910542384512853e-05,0.0611470228546924,-1.76242e-05,0.0611470228546924,-1.7288597825534185e-05
0.0619411400346235,-8.224660699853646e-06,0.0619411400346235,5.203760946490584e-06,0.0619411400346235,-1.3596104199121875e-05,0.0619411400346235,-1.2253380248902348e-05
0.0627352572145545,-5.53917469680962e-06,0.0627352572145545,-1.1745963441342691e-06,0.0627352572145545,-9.567627046292013e-06,0.0627352572145545,-1.29243638255282e-05
0.0635293743944856,-5.87470917577747e-06,0.0635293743944856,-9.063605624160374e-06,0.0635293743944856,-1.0406672937347767e-05,0.0635293743944856,-1.426715670182009e-05
0.0643234915744167,-2.8534720564743386e-06,0.0643234915744167,-2.13167699924329e-05,0.0643234915744167,-1.225298041033318e-05,0.0643234915744167,-1.158162849483248e-05
0.0651176087543477,-5.2033707038592185e-06,0.0651176087543477,-2.3330944495539093e-05,0.0651176087543477,-1.2252974097403842e-05,0.0651176087543477,-8.392428547067982e-06
0.0659117259342788,-8.895665627037032e-06,0.0659117259342788,-1.8296069592712536e-05,0.0659117259342788,-9.903319147617904e-06,0.0659117259342788,-5.539296105956574e-06
0.0667058431142099,-4.532242623269997e-06,0.0667058431142099,-2.0309655711675676e-05,0.0667058431142099,-8.896082143445807e-06,0.0667058431142099,-7.553075712392028e-06
0.067499960294141,-6.042494466365892e-06,0.067499960294141,-2.03098e-05,0.067499960294141,-6.8819207116788135e-06,0.067499960294141,-7.217536785363137e-06
0.068294077474072,-6.210415238663893e-06,0.068294077474072,-1.225322854413315e-05,0.068294077474072,-1.0238704773845186e-05,0.068294077474072,-6.881829522672214e-06
0.0690881946540031,-4.867639039857869e-06,0.0690881946540031,-9.231730339764357e-06,0.0690881946540031,-1.2588684180130916e-05,0.0690881946540031,-6.042575649953244e-06
0.0698823118339342,-4.196304533740325e-06,0.0698823118339342,-8.224721800610487e-06,0.0698823118339342,-1.3931350932519353e-05,0.0698823118339342,-7.888705033324233e-06
0.0706764290138652,-8.224249895321265e-06,0.0706764290138652,-1.007745187176937e-06,0.0706764290138652,-1.594551994676671e-05,0.0706764290138652,-1.0238589938788417e-05
0.0714705461937963,-5.203534714276476e-06,0.0714705461937963,1.2587778783045556e-05,0.0714705461937963,-1.4938668238543874e-05,0.0714705461937963,-9.567455491685007e-06
0.0722646633737274,-6.546058066499731e-06,0.0722646633737274,2.198786646226951e-05,0.0722646633737274,-1.62813380660385e-05,0.0722646633737274,-1.2924245165557482e-05
0.0730587805536585,-4.364133434951513e-06,0.0730587805536585,1.8295690428793907e-05,0.0730587805536585,-1.6617091779200556e-05,0.0730587805536585,-1.5609934233604434e-05
0.0738528977335895,-7.888899939917529e-06,0.0738528977335895,4.531969282364064e-06,0.0738528977335895,-2.0981187544589126e-05,0.0738528977335895,-2.03097865864806e-05
0.0746470149135206,-9.231566139354713e-06,0.0746470149135206,-9.565899469652566e-06,0.0746470149135206,-1.9974207895483965e-05,0.0746470149135206,-2.2995012289422907e-05
0.0754411320934517,-6.882020948141024e-06,0.0754411320934517,-2.735787853843558e-05,0.0754411320934517,-1.896708612099836e-05,0.0754411320934517,-2.36666425860011e-05
0.0762352492733827,-8.89588133478762e-06,0.0762352492733827,-4.196136717577297e-05,0.0762352492733827,-1.9638357111382943e-05,0.0762352492733827,-2.333102144430853e-05
0.0770293664533138,-8.224638363235212e-06,0.0770293664533138,-4.011607799678459e-05,0.0770293664533138,-1.96384e-05,0.0770293664533138,-2.3163207088696555e-05
0.0778234836332449,-6.881847675500652e-06,0.0778234836332449,-1.8967435890320363e-05,0.0778234836332449,-1.6952855351413514e-05,0.0778234836332449,-2.433807578478711e-05
0.078617600813176,-8.224608968847372e-06,0.078617600813176,-2.853442062315493e-06,0.078617600813176,-1.2252999312558088e-05,0.078617600813176,-2.0309796562790444e-05
0.079411717993107,-7.217623989324872e-06,0.079411717993107,-4.867422020317682e-06,0.079411717993107,-1.1581669326904964e-05,0.079411717993107,-1.695314663452482e-05
0.0802058351730381,-6.881847405126683e-06,0.0802058351730381,-1.0238361520422142e-05,0.0802058351730381,-9.231901835070424e-06,0.0802058351730381,-1.5610109620506735e-05
0.0809999523529692,-6.88182e-06,0.0809999523529692,-2.0980555442055484e-05,0.0809999523529692,-8.224670427307299e-06,0.0809999523529692,-1.0239122278972258e-05
0.0817940695329002,-6.210445759489675e-06,0.0817940695329002,-3.524775261659944e-05,0.0817940695329002,-9.56735848102065e-06,0.0817940695329002,-4.196461834256068e-06
0.0825881867128313,-5.203346850994438e-06,0.0825881867128313,-4.682970621247637e-05,0.0825881867128313,-9.903094383113404e-06,0.0825881867128313,-3.524841234107841e-06
0.0833823038927624,-4.196351870560277e-06,0.0833823038927624,-4.582292187056027e-05,0.0833823038927624,-9.567450622309978e-06,0.0833823038927624,-4.531808129439723e-06
0.0841764210726934,-1.5109069265648246e-06,0.0841764210726934,-4.313756691761953e-05,0.0841764210726934,-9.56741e-06,0.0841764210726934,-4.53193e-06
0.0849705382526245,-3.189009483730427e-06,0.0849705382526245,-4.0451908826031314e-05,0.0849705382526245,-8.896062206507829e-06,0.0849705382526245,-4.867603896746086e-06
0.0857646554325556,-2.853458840562997e-06,0.0857646554325556,-3.709488840562998e-05,0.0857646554325556,-1.1581449276057251e-05,0.0857646554325556,-9.734986812959e-06
0.0865587726124866,-5.538937377368244e-06,0.0865587726124866,-4.649387582303062e-05,0.0865587726124866,-1.124591157787208e-05,0.0865587726124866,-1.2588601588432204e-05
0.0873528897924177,-4.867638630362315e-06,0.0873528897924177,-5.874704249653046e-05,0.0873528897924177,-1.4267161163369582e-05,0.0873528897924177,-1.393148273927537e-05
0.0881470069723488,-4.196308643622504e-06,0.0881470069723488,-4.078950369933192e-05,0.0881470069723488,-1.3595878643622504e-05,0.0881470069723488,-1.5609803390943743e-05
0.0889411241522799,-4.531897935927926e-06,0.0889411241522799,1.1912265959787095e-05,0.0889411241522799,-1.49384717437117e-05,0.0889411241522799,-1.6952671743711704e-05
0.0897352413322109,-2.1822136089293072e-06,0.0897352413322109,8.408716772521499e-05,0.0897352413322109,-1.5609950397237688e-05,0.0897352413322109,-1.5610099205524632e-05
0.090529358512142,-2.8534049226195304e-06,0.090529358512142,9.58412861510663e-05,0.090529358512142,-1.7624094767858592e-05,0.090529358512142,-1.71205210785062e-05
0.0913234756920731,-5.03541320631058e-06,0.0913234756920731,8.375716993291417e-05,0.0913234756920731,-1.5610061655995872e-05,0.0913234756920731,-2.0309702376476003e-05
0.0921175928720041,-3.5248435598877505e-06,0.0921175928720041,9.248482165487952e-05,0.0921175928720041,-1.527430301330839e-05,0.0921175928720041,-1.9302709039925168e-05
0.0929117100519352,-3.1891780189698497e-06,0.0929117100519352,9.903035860234016e-05,0.0929117100519352,-1.6281285939692763e-05,0.0929117100519352,-1.8967038020102413e-05
0.0937058272318663,-6.210143142038914e-06,0.0937058272318663,7.167410711466212e-05,0.0937058272318663,-1.5274392286597937e-05,0.0937058272318663,-1.7959992286597937e-05
0.0944999444117974,-7.888792503158072e-06,0.0944999444117974,1.8299336400833387e-05,0.0944999444117974,-1.4267270498525166e-05,0.0944999444117974,-1.3260428993117446e-05
0.0952940615917284,-6.881868709968745e-06,0.0952940615917284,-2.500740546021953e-05,0.0952940615917284,-1.4602883763182527e-05,0.0952940615917284,-1.2253048710452416e-05
0.0960881787716595,-8.895956155508031e-06,0.0960881787716595,-4.447947950333341e-05,0.0960881787716595,-1.3260135896506196e-05,0.0960881787716595,-1.0238853844759292e-05
0.0968822959515906,-8.560353980170023e-06,0.0968822959515906,-5.287140049574944e-05,0.0968822959515906,-1.3931412039659956e-05,0.0968822959515906,-7.050087808995005e-06
0.0976764131315216,-5.875013783045805e-06,0.0976764131315216,-5.8075230798698894e-05,0.0976764131315216,-1.225318361508733e-05,0.0976764131315216,-6.881838361508733e-06
0.0984705303114527,-9.90274647783657e-06,0.0984705303114527,-8.174052305136619e-05,0.0984705303114527,-1.2253e-05,0.0984705303114527,-5.203477300755167e-06
0.0992646474913838,-9.567432196974392e-06,0.0992646474913838,-9.819071232246666e-05,0.0992646474913838,-1.107817768841852e-05,0.0992646474913838,-7.553064617211851e-06
0.1000587646713148,-4.533421870687761e-06,0.1000587646713148,-9.48357945844088e-05,0.1000587646713148,-1.2252651910270507e-05,0.1000587646713148,-1.0238004338398396e-05
0.1008528818512459,-4.53193e-06,0.1008528818512459,-9.416349990563409e-05,0.1008528818512459,-1.1246049858451112e-05,0.1008528818512459,-1.0910100094365924e-05
0.101646999031177,-4.1962304096144456e-06,0.101646999031177,-0.000104569987302,0.101646999031177,-9.903101638457782e-06,0.101646999031177,-1.0574500409614446e-05
0.1024411162111081,-5.035357166029633e-06,0.1024411162111081,-0.0001082587744967,0.1024411162111081,-9.567360866411851e-06,0.1024411162111081,-1.1581943935117026e-05
0.1032352333910391,-4.195637942194931e-06,0.1032352333910391,-7.938747015948456e-05,0.1032352333910391,-9.23220338101432e-06,0.1032352333910391,-1.3932782798279756e-05
0.1040293505709702,-2.1824100838827484e-06,0.1040293505709702,-6.15993676980221e-05,0.1040293505709702,-1.0910496067106198e-05,0.1040293505709702,-1.8296784268424795e-05
0.1048234677509013,-3.020728125715635e-06,0.1048234677509013,-5.858142274742371e-05,0.1048234677509013,-1.1581150500572508e-05,0.1048234677509013,-2.0979402002290035e-05
0.1056175849308323,-4.5311403021569615e-06,0.1056175849308323,-1.932323217528445e-05,0.1056175849308323,-1.3930271573001272e-05,0.1056175849308323,-2.031015097914249e-05
0.1064117021107634,-4.867504053631352e-06,0.1064117021107634,8.304698650763229e-05,0.1064117021107634,-1.39315e-05,0.1064117021107634,-1.829635567821189e-05
0.1072058192906945,-5.203253596833949e-06,0.1072058192906945,0.000164977357673,0.1072058192906945,-1.2589005612664204e-05,0.1072058192906945,-1.795997640316605e-05
0.1079999364706256,-1.5109354587979257e-06,0.1079999364706256,0.0001602963760554,0.1079999364706256,-1.493841198025579e-05,0.1079999364706256,-2.064528512029233e-05
0.1087940536505566,-6.715444405813786e-07,0.1087940536505566,0.0001191683839777,0.1087940536505566,-1.5610136099434804e-05,0.1087940536505566,-2.09812e-05
0.1095881708304877,-2.8535122264417315e-06,0.1095881708304877,5.0844432587733046e-05,0.1095881708304877,-1.76242e-05,0.1095881708304877,-2.0980911094233077e-05
0.1103822880104188,-3.1895053053056537e-06,0.1103822880104188,-1.3610046975839866e-05,0.1103822880104188,-1.7624687078577317e-05,0.1103822880104188,-1.963815646071134e-05
0.1111764051903498,-4.197085481698586e-06,0.1111764051903498,-5.28808837196268e-05,0.1111764051903498,-1.896605893904148e-05,0.1111764051903498,-1.896614451320468e-05
0.1119705223702809,-5.873711576469014e-06,0.1119705223702809,-6.931181745059792e-05,0.1119705223702809,-1.7121709302532403e-05,0.1119705223702809,-1.7289508429538905e-05
0.112764639550212,-6.210267603282339e-06,0.112764639550212,-8.677017537068158e-05,0.112764639550212,-1.4436219173741294e-05,0.112764639550212,-1.7624047603282338e-05
0.1135587567301431,-5.539235703966276e-06,0.1135587567301431,-9.416113725330712e-05,0.1135587567301431,-1.426725141143827e-05,0.1135587567301431,-1.661740856054519e-05
0.1143528739100741,-7.888536830988769e-06,0.1143528739100741,-9.634515347502876e-05,0.1143528739100741,-1.2924613241249885e-05,0.1143528739100741,-1.460321986187483e-05
0.1151469910900052,-5.706894486102e-06,0.1151469910900052,-9.483481695255554e-05,0.1151469910900052,-1.326009623289012e-05,0.1151469910900052,-1.829555856179133e-05
0.1159411082699363,-1.0406768657321071e-05,0.1159411082699363,-7.200157801568218e-05,0.1159411082699363,-1.4267108447814562e-05,0.1159411082699363,-1.594533379125825e-05
0.1167352254498673,-1.090872255660152e-05,0.1167352254498673,-3.003432429003473e-05,0.1167352254498673,-1.3595418722818757e-05,0.1167352254498673,-1.3259146807046892e-05
0.1175293426297984,-5.706363623326552e-06,0.1175293426297984,7.560526324018321e-06,0.1175293426297984,-1.2253e-05,0.1175293426297984,-9.902665963467018e-06
0.1183234598097295,-4.532728353655857e-06,0.1183234598097295,2.4494480846775208e-05,0.1183234598097295,-1.2253e-05,0.1183234598097295,-8.8966943021629e-06
0.1191175769896605,-4.196408847066675e-06,0.1191175769896605,3.3397260579371054e-05,0.1191175769896605,-1.2588521152933326e-05,0.1191175769896605,-1.0238084617060889e-05
0.1199116941695916,-3.3573032596602064e-06,0.1199116941695916,4.011341392271835e-05,0.1199116941695916,-1.4602124176815505e-05,0.1199116941695916,-1.0574370696135918e-05
0.1207058113495227,-6.209742036753333e-06,0.1207058113495227,1.3266480829159252e-05,0.1207058113495227,-1.3596039281984453e-05,0.1207058113495227,-9.567649279608504e-06
0.1214999285294538,-7.55309913016443e-06,0.1214999285294538,-2.5677394792771145e-05,0.1214999285294538,-1.493847913016443e-05,0.1214999285294538,-1.0910079131064562e-05
0.1222940457093848,-4.8676686514874114e-06,0.1222940457093848,-2.7189039347594268e-05,0.1222940457093848,-1.5609845394050356e-05,0.1222940457093848,-1.3595973931693353e-05
0.1230881628893159,-5.538203574695928e-06,0.1230881628893159,1.7296488756740495e-05,0.1230881628893159,-1.2924606606838892e-05,0.1230881628893159,-1.6617582082624085e-05
0.123882280069247,-1.5104031778186122e-06,0.123882280069247,5.622873033866882e-05,0.123882280069247,-1.393114476355333e-05,0.123882280069247,-1.8967e-05
0.124676397249178,-8.400847174363679e-07,0.124676397249178,5.402502237230559e-05,0.124676397249178,-1.2925406464521369e-05,0.124676397249178,-1.896582579139173e-05
0.1254705144291091,-2.516714807764933e-06,0.1254705144291091,9.091335152388405e-06,0.1254705144291091,-1.4937369764920297e-05,0.1254705144291091,-1.6618535274259655e-05
0.1262646316090402,-1.1755630168523584e-06,0.1262646316090402,-2.096726003968564e-05,0.1262646316090402,-1.393196726263927e-05,0.1262646316090402,-1.4939378771065448e-05
0.1270587487889713,-4.19527410406939e-06,0.1270587487889713,-3.272688264627125e-05,0.1270587487889713,-1.2756871754356076e-05,0.1270587487889713,-1.2925037266062985e-05
0.1278528659689023,-6.210079994840618e-06,0.1278528659689023,-2.63533766883502e-05,0.1278528659689023,-1.2253084993271613e-05,0.1278528659689023,-1.1246183339039527e-05
0.1286469831488334,-4.8676584982090215e-06,0.1286469831488334,-1.1246220605116775e-05,0.1286469831488334,-1.0910228498421252e-05,0.1286469831488334,-1.0238821373815938e-05
0.1294411003287645,-3.860487581402709e-06,0.1294411003287645,-2.182803530960474e-06,0.1294411003287645,-1.191725758140271e-05,0.1294411003287645,-7.217838138216094e-06
0.1302352175086955,-3.5247380409395216e-06,0.1302352175086955,-8.229759830659997e-06,0.1302352175086955,-1.1581048231940106e-05,0.1302352175086955,-9.73521401910006e-06
0.1310293346886266,-3.189987957842648e-06,0.1310293346886266,-2.702659718263001e-05,0.1310293346886266,-9.568823265877693e-06,0.1310293346886266,-9.566986018973716e-06
0.1318234518685577,-5.2019412693462304e-06,0.1318234518685577,-3.390075518118295e-05,0.1318234518685577,-1.2922085444313892e-05,0.1318234518685577,-8.561004368774253e-06
0.1326175690484888,-5.538847795437886e-06,0.1326175690484888,-2.300122162113071e-05,0.1326175690484888,-1.2588882204562114e-05,0.1326175690484888,-1.1244442368930686e-05
0.1334116862284198,-2.8545012869243003e-06,0.1334116862284198,-8.230447056348845e-06,0.1334116862284198,-1.5608806047764407e-05,0.1334116862284198,-1.4601573386404896e-05
0.1342058034083509,-3.86028064800521e-06,0.1342058034083509,3.335784973976395e-07,0.1342058034083509,-1.4603149354470756e-05,0.1342058034083509,-1.2924815590784593e-05
0.134999920588282,-5.5388621252283696e-06,0.134999920588282,2.0307802295018304e-05,0.134999920588282,-1.3595900724862978e-05,0.134999920588282,-1.2588733574954329e-05
0.135794037768213,-3.524766127482559e-06,0.135794037768213,3.742990498430339e-05,0.135794037768213,-1.35958e-05,0.135794037768213,-1.49386e-05
0.1365881549481441,-2.182531333930037e-06,0.1365881549481441,2.701931075816106e-05,0.1365881549481441,-1.3596324091606958e-05,0.1365881549481441,-1.4939124091606958e-05
0.1373822721280752,-4.700067636633655e-06,0.1373822721280752,4.527960631592087e-06,0.1373822721280752,-1.6281169890693075e-05,0.1373822721280752,-1.762466021861385e-05
0.1381763893080062,-5.538701218370548e-06,0.1381763893080062,-7.053204392722695e-06,0.1381763893080062,-1.560967121837055e-05,0.1381763893080062,-1.896584926429692e-05
0.1389705064879373,-4.868046784904239e-06,0.1389705064879373,-1.4262719574694826e-05,0.1389705064879373,-1.493901678490424e-05,0.1389705064879373,-1.6618558747164838e-05
0.1397646236678684,-4.196548223417047e-06,0.1397646236678684,-1.3596118223417048e-05,0.1397646236678684,-1.49386e-05,0.1397646236678684,-2.0308049771206243e-05
0.1405587408477994,-5.538591725976275e-06,0.1405587408477994,-8.897543955819156e-06,0.1405587408477994,-1.6616552157470345e-05,0.1405587408477994,-1.8967438274023725e-05
0.1413528580277305,-5.53903e-06,0.1413528580277305,-5.036170287412272e-06,0.1413528580277305,-1.3931980202426714e-05,0.1413528580277305,-1.796008007591002e-05
0.1421469752076616,-7.049622830858937e-06,0.1421469752076616,-1.1245706082073138e-05,0.1421469752076616,-1.2924431446302205e-05,0.1421469752076616,-1.6952831446302208e-05
0.1429410923875927,-1.09099656345525e-05,0.1429410923875927,-3.10534476021958e-05,0.1429410923875927,-1.15816e-05,0.1429410923875927,-1.3763424230859557e-05
0.1437352095675237,-8.896187208608898e-06,0.1437352095675237,-4.263471893630422e-05,0.1437352095675237,-1.1581245582782203e-05,0.1437352095675237,-1.2252645582782203e-05
0.1445293267474548,-9.567272026263408e-06,0.1445293267474548,-4.649475189494637e-05,0.1445293267474548,-1.0239075947473184e-05,0.1445293267474548,-1.0909786078790222e-05
0.1453234439273859,-9.231944809530254e-06,0.1453234439273859,-4.783606076187899e-05,0.1453234439273859,-1.0909730380939492e-05,0.1453234439273859,-9.90380442859076e-06
0.146117561107317,-8.560681124115073e-06,0.146117561107317,-5.89089764521013e-05,0.146117561107317,-1.2252257751769854e-05,0.146117561107317,-1.0406421629275616e-05
0.146911678287248,-8.895873981145056e-06,0.146911678287248,-6.747193153945791e-05,0.146911678287248,-1.2253e-05,0.146911678287248,-1.2252251916556795e-05
0.1477057954671791,-1.0909681148661868e-05,0.1477057954671791,-8.878680880895553e-05,0.1477057954671791,-1.6280362292171774e-05,0.1477057954671791,-1.2253e-05
0.1484999126471102,-8.560568526048075e-06,0.1484999126471102,-0.000115645045437,0.1484999126471102,-1.644918153927594e-05,0.1484999126471102,-1.3092107674376442e-05
0.1492940298270412,-8.22458477886999e-06,0.1492940298270412,-0.000113295641808,0.1492940298270412,-1.7792018918007523e-05,0.1492940298270412,-1.594576305376416e-05
0.1500881470069723,-7.553592921881143e-06,0.1500881470069723,-5.050438898363087e-05,0.1500881470069723,-1.82956e-05,0.1500881470069723,-1.762451076977718e-05
0.1508822641869034,-9.567186605683944e-06,0.1508822641869034,4.784995683705838e-05,0.1508822641869034,-1.829515321136789e-05,0.1508822641869034,-1.9301247936945636e-05
0.1516763813668344,-8.895687924914887e-06,0.1516763813668344,8.677439613652119e-05,0.1516763813668344,-1.695086754948932e-05,0.1516763813668344,-1.49386e-05
0.1524704985467655,-8.225033491448554e-06,0.1524704985467655,7.906187015165836e-05,0.1524704985467655,-1.2926940948691323e-05,0.1524704985467655,-1.49386e-05
0.1532646157266966,-8.22461e-06,0.1532646157266966,4.885872217996007e-05,0.1532646157266966,-1.2588862469203967e-05,0.1532646157266966,-1.3931987407611908e-05
0.1540587329066277,-6.546684626642929e-06,0.1540587329066277,2.3003995268466146e-05,0.1540587329066277,-1.1581938778004094e-05,0.1540587329066277,-9.568878034653848e-06
0.1548528500865587,-4.700128603505108e-06,0.1548528500865587,-1.8416497031009317e-06,0.1548528500865587,-8.89651706050201e-06,0.1548528500865587,-9.23177338279876e-06
0.1556469672664898,-8.394051546964608e-07,0.1556469672664898,-2.735834819646192e-05,0.1556469672664898,-8.89601e-06,0.1556469672664898,-8.896023839596181e-06
0.1564410844464209,-1.5109613313942515e-06,0.1564410844464209,-4.179371452065869e-05,0.1564410844464209,-8.22461e-06,0.1564410844464209,-8.224681407212847e-06
0.157235201626352,-4.531674259572954e-06,0.157235201626352,-3.4406457348920524e-05,0.157235201626352,-8.224098521685282e-06,0.157235201626352,-8.896350984696687e-06
0.158029318806283,-3.5240222812236035e-06,0.158029318806283,-2.4000380733135076e-05,0.158029318806283,-6.211227718776397e-06,0.158029318806283,-1.0238530763081297e-05
0.1588234359862141,-1.5120689697199508e-06,0.1588234359862141,-1.897057237109103e-05,0.1588234359862141,-8.22318103028005e-06,0.1588234359862141,-9.567886318510308e-06
0.1596175531661451,-3.5236964883097394e-06,0.1596175531661451,-2.4670588423875613e-05,0.1596175531661451,-1.157971081009781e-05,0.1596175531661451,-9.56741e-06
0.1604116703460762,-2.1825975012497e-06,0.1604116703460762,-4.984074681523978e-05,0.1604116703460762,-1.15816e-05,0.1604116703460762,-1.1580763746049544e-05
0.1612057875260073,-1.5108196662955484e-06,0.1612057875260073,-7.065893037159795e-05,0.1612057875260073,-1.4937701668522258e-05,0.1612057875260073,-1.3595261001113355e-05
0.1619999047059384,-3.188938550274032e-06,0.1619999047059384,-5.253897564503869e-05,0.1619999047059384,-1.57776992811379e-05,0.1619999047059384,-1.4267119420109612e-05
0.1627940218858694,-7.2174922402277694e-06,0.1627940218858694,-7.552165133616768e-06,0.1627940218858694,-1.4602946266287051e-05,0.1627940218858694,-1.62814925325741e-05
0.1635881390658005,-6.210126019451447e-06,0.1635881390658005,3.072057453114558e-05,0.1635881390658005,-1.628163518584001e-05,0.1635881390658005,-1.9638458796460005e-05
0.1643822562457316,-4.532471695085697e-06,0.1643822562457316,5.455403351055265e-05,0.1643822562457316,-1.7624633358650376e-05,0.1643822562457316,-1.9974208339662595e-05
0.1651763734256627,-6.21042e-06,0.1651763734256627,6.39543843755178e-05,0.1651763734256627,-1.896644808156771e-05,0.1651763734256627,-2.03104307370816e-05
0.1659704906055937,-6.21042e-06,0.1659704906055937,7.200213768815978e-05,0.1659704906055937,-1.7792752878524984e-05,0.1659704906055937,-2.1651739604014168e-05
0.1667646077855248,-6.21042e-06,0.1667646077855248,5.858603301857835e-05,0.1667646077855248,-2.0979624621657145e-05,0.1667646077855248,-2.0310463306797563e-05
0.1675587249654559,-6.881587433006402e-06,0.1675587249654559,1.3275798202789615e-05,0.1675587249654559,-1.8967697700980797e-05,0.1675587249654559,-1.93030488504904e-05
0.1683528421453869,-8.224343040811267e-06,0.1683528421453869,-2.768695772386865e-05,0.1683528421453869,-1.796010022088262e-05,0.1683528421453869,-1.9638333259705795e-05
0.169146959325318,-8.22461e-06,0.169146959325318,-2.3666906365099235e-05,0.169146959325318,-1.6784960192381985e-05,0.169146959325318,-1.6281571970916026e-05
0.1699410765052491,-8.224432097353101e-06,0.1699410765052491,2.1655656693035364e-05,0.1699410765052491,-1.3763616177873206e-05,0.1699410765052491,-1.561e-05
0.1707351936851801,-6.377451111742904e-06,0.1707351936851801,5.3371063819411535e-05,0.1707351936851801,-1.393141811068642e-05,0.1707351936851801,-1.560942677480493e-05
0.1715293108651112,-3.0224057633137528e-06,0.1715293108651112,3.271904854182416e-05,0.1715293108651112,-1.3594224797603064e-05,0.1715293108651112,-1.3259706198423203e-05
0.1723234280450423,-5.872667127754776e-06,0.1723234280450423,3.210393313842424e-06,0.1723234280450423,-9.570308185700695e-06,0.1723234280450423,-1.2253724548223774e-05
0.1731175452249733,-4.868206825417567e-06,0.1731175452249733,-3.103248783270512e-05,0.1731175452249733,-7.554373656562778e-06,0.1731175452249733,-1.2253e-05
0.1739116624049044,-3.1898536649772314e-06,0.1739116624049044,-6.125215399639521e-05,0.1739116624049044,-1.023765813773716e-05,0.1739116624049044,-1.3595229064616751e-05
0.1747057795848355,-8.398983328369313e-07,0.1747057795848355,-9.01269856602033e-05,0.1747057795848355,-9.90319319064322e-06,0.1747057795848355,-1.258897957192966e-05
0.1754998967647666,-2.181865411017652e-06,0.1754998967647666,-0.000112960031922,0.1754998967647666,-1.1077947227456886e-05,0.1754998967647666,-1.0910418237203078e-05
0.1762940139446976,-2.349863469176481e-06,0.1762940139446976,-0.0001136337641695,0.1762940139446976,-1.1749432427569e-05,0.1762940139446976,-1.443499705299714e-05
0.1770881311246287,-8.39356876938271e-07,0.1770881311246287,-0.000100203560702,0.1770881311246287,-1.3596132633787411e-05,0.1770881311246287,-1.4267532633787411e-05
0.1778822483045598,-1.511269889875703e-06,0.1778822483045598,-8.54358249108358e-05,0.1778822483045598,-1.560979003566568e-05,0.1778822483045598,-1.6282029893002964e-05
0.1786763654844909,-3.52359535936982e-06,0.1786763654844909,-8.711395433099824e-05,0.1786763654844909,-1.4939680316987612e-05,0.1786763654844909,-1.8295908661996463e-05
0.1794704826644219,-8.409936077371358e-07,0.1794704826644219,-8.744928154773139e-05,0.1794704826644219,-1.7286970834119693e-05,0.1794704826644219,-1.896656309546277e-05
0.180264599844353,-2.349128674147135e-06,0.180264599844353,-5.691629571133162e-05,0.180264599844353,-1.896615407902588e-05,0.180264599844353,-2.299326984005954e-05
0.181058717024284,-4.8667326961221815e-06,0.181058717024284,8.186678398597124e-07,0.181058717024284,-1.762467856396893e-05,0.181058717024284,-2.1820818725653186e-05
0.1818528342042151,-5.203259902210372e-06,0.1818528342042151,5.571443907320371e-05,0.1818528342042151,-1.76242e-05,0.1818528342042151,-2.1652635038454275e-05
0.1826469513841462,-5.539009445412963e-06,0.1826469513841462,7.167062366017721e-05,0.1826469513841462,-2.030963556330371e-05,0.1826469513841462,-2.249174861659386e-05
0.1834410685640773,-4.867716964983139e-06,0.1834410685640773,5.152836653231972e-05,0.1834410685640773,-1.7624142022768887e-05,0.1834410685640773,-1.8967057977231112e-05
0.1842351857440083,-5.874955595454444e-06,0.1842351857440083,3.6082731050668295e-05,0.1842351857440083,-1.69528e-05,0.1842351857440083,-1.9638242936363708e-05
0.1850293029239394,-6.880924606369687e-06,0.1850293029239394,1.5262276129614556e-05,0.1850293029239394,-1.695203251647942e-05,0.1850293029239394,-1.8965976688639228e-05
0.1858234201038705,-4.533644078132951e-06,0.1858234201038705,-1.6258382354348516e-05,0.1858234201038705,-1.4940069216080491e-05,0.1858234201038705,-1.6283358954773992e-05
0.1866175372838016,-2.8544181668915286e-06,0.1866175372838016,-1.7958921827280812e-05,0.1866175372838016,-1.359658253817535e-05,0.1866175372838016,-1.3597365076350702e-05
0.1874116544637326,-3.1889939086587543e-06,0.1874116544637326,3.337964811182627e-05,0.1874116544637326,-1.0240260913412454e-05,0.1874116544637326,-1.2253584365364982e-05
0.1882057716436637,-6.209551072504169e-06,0.1882057716436637,8.374231783672248e-05,0.1882057716436637,-6.882785475634486e-06,0.1882057716436637,-8.225768574787818e-06
0.1889998888235948,-6.8817259901279004e-06,0.1889998888235948,9.550455484124032e-05,0.1889998888235948,-5.874861014808149e-06,0.1889998888235948,-3.525488066304281e-06
0.1897940060035258,-1.5106450765330853e-06,0.1897940060035258,9.752036954080148e-05,0.1897940060035258,-8.89602015299056e-06,0.1897940060035258,-5.5390096939432704e-06
0.1905881231834569,-2.18193583706173e-06,0.1905881231834569,9.349017716409458e-05,0.1905881231834569,-1.0238721879347728e-05,0.1905881231834569,-2.8530233496432075e-06
0.191382240363388,-1.5107416246717386e-06,0.191382240363388,8.173203106441165e-05,0.191382240363388,-9.735818932667316e-06,0.191382240363388,-1.6764575156469666e-07
0.192176357543319,-1.8469439109041984e-06,0.192176357543319,4.680453587244829e-05,0.192176357543319,-1.1582052933178149e-05,0.192176357543319,5.04453862758377e-07
0.1929704747232501,-3.188252777836863e-06,0.1929704747232501,-9.530146860758631e-06,0.1929704747232501,-1.2588034583377647e-05,0.1929704747232501,2.516409172041098e-06
0.1937645919031812,-1.847030166761034e-06,0.1937645919031812,-5.318576968820132e-05,0.1937645919031812,-1.0911062708451292e-05,0.1937645919031812,-8.375205902930759e-07
0.1945587090831123,-1.84634e-06,0.1945587090831123,-8.40811841757741e-05,0.1945587090831123,-1.460154701663567e-05,0.1945587090831123,-3.691634518717141e-06
0.1953528262630433,-4.195715815192686e-06,0.1953528262630433,-0.0001079217847185,0.1953528262630433,-1.4938526544714936e-05,0.1953528262630433,-8.223618358027902e-06
0.1961469434429744,-7.552980879887601e-06,0.1961469434429744,-0.0001143045456918,0.1961469434429744,-1.359589564832988e-05,0.1961469434429744,-1.023865652821748e-05
0.1969410606229055,-1.023895378672073e-05,0.1969410606229055,-9.349000078026562e-05,0.1969410606229055,-1.4267379417840852e-05,0.1969410606229055,-1.3595851262240242e-05
0.1977351778028366,-1.225273690106711e-05,0.1977351778028366,-6.73036661319343e-05,0.1977351778028366,-1.661747587161363e-05,0.1977351778028366,-1.4267951743227256e-05
0.1985292949827676,-1.1077788579827835e-05,0.1985292949827676,-5.018409740397427e-05,0.1985292949827676,-1.829497719676042e-05,0.1985292949827676,-1.7625445606479157e-05
0.1993234121626987,-1.0239420593518194e-05,0.1993234121626987,-4.263928497195476e-05,0.1993234121626987,-1.661834111309459e-05,0.1993234121626987,-2.097871777381082e-05
0.2001175293426297,-8.89680596222941e-06,0.2001175293426297,-3.1226765670058486e-05,0.2001175293426297,-1.4939594960196358e-05,0.2001175293426297,-1.896819395223563e-05
0.2009116465225608,-1.1077128564754157e-05,0.2009116465225608,-3.306547805365755e-05,0.2009116465225608,-1.5274150551163322e-05,0.2009116465225608,-2.114802860482087e-05
0.2017057637024919,-1.0574649873331309e-05,0.2017057637024919,-1.8971196006870777e-05,0.2017057637024919,-1.4603099811268151e-05,0.2017057637024919,-1.930324946610722e-05
0.202499880882423,-8.224962535520244e-06,0.202499880882423,-1.706692888126378e-07,0.202499880882423,-1.393160072486299e-05,0.202499880882423,-1.8967050362431493e-05
0.203293998062354,-6.210424915348944e-06,0.203293998062354,4.682978530856777e-05,0.203293998062354,-1.2924402457686674e-05,0.203293998062354,-1.8463401228965355e-05
0.2040881152422851,-6.881332761714286e-06,0.2040881152422851,7.334673806032797e-05,0.2040881152422851,-1.2588651276026289e-05,0.2040881152422851,-1.7288451276026287e-05
0.2048822324222162,-3.52483e-06,0.2048822324222162,5.017451839725893e-05,0.2048822324222162,-1.2252803465647414e-05,0.2048822324222162,-1.695309480152888e-05
0.2056763496021472,-3.525420497815569e-06,0.2056763496021472,7.869128406731164e-06,0.2056763496021472,-1.15816e-05,0.2056763496021472,-1.7958719004368864e-05
0.2064704667820783,-4.866729364748234e-06,0.2064704667820783,-3.706452884650156e-05,0.2064704667820783,-1.15816e-05,0.2064704667820783,-1.5276101270503533e-05
0.2072645839620094,-7.048526660532773e-06,0.2072645839620094,-6.662072092405682e-05,0.2072645839620094,-1.0910551798371383e-05,0.2072645839620094,-1.359667949592846e-05
0.2080587011419405,-7.888594113806235e-06,0.2080587011419405,-7.200527834191013e-05,0.2080587011419405,-1.258806822008456e-05,0.2080587011419405,-1.2924652711966177e-05
0.2088528183218715,-5.539567684887281e-06,0.2088528183218715,-6.361682029663133e-05,0.2088528183218715,-1.25887e-05,0.2088528183218715,-1.4938139123316952e-05
0.2096469355018026,-5.203357269577904e-06,0.2096469355018026,-4.850962713100568e-05,0.2096469355018026,-1.0238990887045327e-05,0.2096469355018026,-1.3595909078311616e-05
0.2104410526817337,-4.1960295380412e-06,0.2104410526817337,-3.3904219276532234e-05,0.2104410526817337,-9.2319104619588e-06,0.2104410526817337,-1.29244222736247e-05
0.2112351698616647,-1.1751554504818406e-06,0.2112351698616647,-1.4601966381245358e-05,0.2112351698616647,-1.2252748651801098e-05,0.2112351698616647,-1.3259669099036318e-05
0.2120292870415958,-2.182403622127275e-06,0.2120292870415958,-1.0246860272435006e-05,0.2120292870415958,-1.1077857585248482e-05,0.2120292870415958,-1.1246263622127277e-05
0.2128234042215269,-3.188385272326739e-06,0.2128234042215269,-3.2546070240713056e-05,0.2128234042215269,-1.0407203151782174e-05,0.2128234042215269,-1.2252245272326738e-05
0.2136175214014579,-1.5116517476735266e-06,0.2136175214014579,-6.460267570985099e-05,0.2136175214014579,-1.2251887107697568e-05,0.2136175214014579,-1.024001409720823e-05
0.214411638581389,-3.188375968339493e-06,0.214411638581389,-6.730627759486191e-05,0.214411638581389,-1.4601830355675293e-05,0.214411638581389,-1.2252083162007392e-05
0.2152057557613201,-5.873893901115941e-06,0.2152057557613201,-5.589731091564317e-05,0.2152057557613201,-1.4938496736870478e-05,0.2152057557613201,-1.2420748383815508e-05
0.2159998729412512,-6.881658840219248e-06,0.2159998729412512,-6.36136644416809e-05,0.2159998729412512,-1.2253429759415335e-05,0.2159998729412512,-1.359561197225461e-05
0.2167939901211822,-4.531959236945774e-06,0.2167939901211822,-7.637124128572029e-05,0.2167939901211822,-1.2924391646551372e-05,0.2167939901211822,-1.2924408353448624e-05
0.2175881073011133,-1.1747131692303432e-06,0.2175881073011133,-7.569755022368757e-05,0.2175881073011133,-1.527448146591307e-05,0.2175881073011133,-1.695298146591307e-05
0.2183822244810444,5.023141803685533e-07,0.2183822244810444,-5.756442252475987e-05,0.2183822244810444,-1.661700509031913e-05,0.2183822244810444,-1.82956e-05
0.2191763416609755,-3.861539893974439e-06,0.2191763416609755,-2.9701076585618007e-05,0.2191763416609755,-1.6282121355908616e-05,0.2191763416609755,-1.8295311457636557e-05
0.2199704588409065,-6.208820422211176e-06,0.2199704588409065,-1.0587525120781652e-05,0.2199704588409065,-1.795875743957439e-05,0.2199704588409065,-1.7624657024170244e-05
0.2207645760208376,-4.86834702138467e-06,0.2207645760208376,4.5457164294447535e-05,0.2207645760208376,-1.8295420743318888e-05,0.2207645760208376,-2.0979407433188855e-05
0.2215586932007686,-6.881041722992766e-06,0.2215586932007686,0.000129714442226,0.2215586932007686,-1.896674057304293e-05,0.2215586932007686,-2.0645629713478532e-05
0.2223528103806997,-7.55305965944814e-06,0.2223528103806997,0.0001844529322689,0.2223528103806997,-2.030947931889628e-05,0.2223528103806997,-1.896740085137965e-05
0.2231469275606308,-9.567226238472307e-06,0.2231469275606308,0.000199571621736,0.2231469275606308,-1.6953106270733382e-05,0.2231469275606308,-1.829566125414668e-05
0.2239410447405619,-7.21752e-06,0.2239410447405619,0.0001560962167797,0.2239410447405619,-1.4267162167741493e-05,0.2239410447405619,-1.661715674838776e-05
0.2247351619204929,-7.218273048571837e-06,0.2247351619204929,8.895027613686088e-05,0.2247351619204929,-1.3596073837327432e-05,0.2247351619204929,-1.762396038214199e-05
0.225529279100424,-1.090972858709634e-05,0.225529279100424,4.077620389877668e-05,0.225529279100424,-1.4939071416414358e-05,0.225529279100424,-1.645008392333041e-05
0.2263233962803551,-9.568429709059069e-06,0.2263233962803551,8.920228186975794e-06,0.2263233962803551,-1.6280380283346974e-05,0.2263233962803551,-1.896508799330579e-05
0.2271175134602862,-5.03825703265131e-06,0.2271175134602862,-1.1065860456218238e-05,0.2271175134602862,-1.644909717712346e-05,0.2271175134602862,-1.8967e-05
0.2279116306402172,-8.894214125286983e-06,0.2279116306402172,-1.4265716466897735e-05,0.2279116306402172,-1.4603758877792075e-05,0.2279116306402172,-1.577928357962113e-05
0.2287057478201483,-9.567196758750116e-06,0.2287057478201483,-1.1246859585624489e-05,0.2287057478201483,-1.37638665674427e-05,0.2287057478201483,-1.42676797769319e-05
0.2294998650000794,-8.224838309689403e-06,0.2294998650000794,-1.493797214835414e-05,0.2294998650000794,-1.393147145278757e-05,0.2294998650000794,-1.1582056619378807e-05
0.2302939821800104,-9.90306232912564e-06,0.2302939821800104,-4.649349178783134e-05,0.2302939821800104,-1.124596027375807e-05,0.2302939821800104,-8.560377807753396e-06
0.2310880993599415,-9.735407030188574e-06,0.2310880993599415,-8.678053655854655e-05,0.2310880993599415,-1.2253252053897073e-05,0.2310880993599415,-8.224525983285694e-06
0.2318822165398726,-1.090873517321461e-05,0.2318822165398726,-0.0001062498238878,0.2318822165398726,-1.4266696449344085e-05,0.2318822165398726,-7.55285379125825e-06
0.2326763337198036,-5.5379026609213015e-06,0.2326763337198036,-0.0001092670405979,0.2326763337198036,-1.242072956203389e-05,0.2326763337198036,-6.211688256988253e-06
0.2334704508997347,-2.85529491595141e-06,0.2334704508997347,-0.0001022248693797,0.2334704508997347,-1.2253115898144036e-05,0.2334704508997347,-9.229623218691298e-06
0.2342645680796658,-3.5244647770867064e-06,0.2342645680796658,-8.947053922991278e-05,0.2342645680796658,-1.1581965228353096e-05,0.2342645680796658,-1.1915839092027418e-05
0.2350586852595969,-2.853706137983927e-06,0.2350586852595969,-7.402762122516212e-05,0.2350586852595969,-1.2588300787078132e-05,0.2350586852595969,-1.359513464513022e-05
0.2358528024395279,-5.538361780317257e-06,0.2358528024395279,-7.30146505833141e-05,0.2358528024395279,-1.2253083527771364e-05,0.2358528024395279,-1.527388236114318e-05
0.236646919619459,-6.042519024159192e-06,0.236646919619459,-7.905638827776211e-05,0.236646919619459,-1.2253e-05,0.236646919619459,-1.8295294138881055e-05
0.2374410367993901,-3.692625545245097e-06,0.2374410367993901,-7.93932678878171e-05,0.2374410367993901,-1.4267308910436745e-05,0.2374410367993901,-1.7288359972295615e-05
0.2382351539793211,-2.51741449198145e-06,0.2382351539793211,-9.164469093123186e-05,0.2382351539793211,-1.6617165101836425e-05,0.2382351539793211,-1.4267427846731052e-05
0.2390292711592522,-8.394749996163557e-07,0.2390292711592522,-8.641852666191907e-05,0.2390292711592522,-1.695262823169883e-05,0.2390292711592522,-1.5442844272458272e-05
0.2398233883391833,-1.5101234397454578e-06,0.2398233883391833,-1.650305169543999e-05,0.2398233883391833,-1.6449587462122372e-05,0.2398233883391833,-1.7622521125700503e-05
0.2406175055191144,-8.396641253144909e-07,0.2406175055191144,9.174607703303106e-05,0.2406175055191144,-1.561052263017531e-05,0.2406175055191144,-1.728870906452556e-05
0.2414116226990454,-1.1747804815281718e-06,0.2414116226990454,0.0001542233293665,0.2414116226990454,-1.6952161914708125e-05,0.2414116226990454,-2.04760845711913e-05
0.2422057398789765,-1.17494e-06,0.2422057398789765,0.0001260642379,0.2422057398789765,-2.1651060306314724e-05,0.2422057398789765,-1.963867492892053e-05
0.2429998570589076,-2.181858695246646e-06,0.2429998570589076,6.765371567569453e-05,0.2429998570589076,-1.997440217458892e-05,0.2429998570589076,-1.9806169791542435e-05
0.2437939742388386,-5.203231974887716e-06,0.2437939742388386,2.366812680820126e-05,0.2437939742388386,-1.863134356686077e-05,0.2437939742388386,-1.762427079452651e-05
0.2445880914187697,-4.196384605949646e-06,0.2445880914187697,-1.2255821547067331e-05,0.2445880914187697,-1.896622697025177e-05,0.2445880914187697,-1.5945757971474266e-05
0.2453822085987008,-5.538677221239986e-06,0.2453822085987008,-3.675873541592999e-05,0.2453822085987008,-1.2252118055727151e-05,0.2453822085987008,-1.644845035827091e-05
0.2461763257786318,-4.1949919223613805e-06,0.2461763257786318,-3.574584719693351e-05,0.2461763257786318,-8.89628512927477e-06,0.2461763257786318,-1.359497461217569e-05
0.2469704429585629,-1.1770569606582292e-06,0.2469704429585629,-2.099154954962765e-05,0.2469704429585629,-9.566939562741102e-06,0.2469704429585629,-1.1583011311776693e-05
0.247764560138494,-4.530070288819881e-06,0.247764560138494,-1.2257835263471837e-05,0.247764560138494,-6.883307767836132e-06,0.247764560138494,-1.0910571943343987e-05
0.2485586773184251,-5.538620714591831e-06,0.2485586773184251,-2.1648780002857083e-05,0.2485586773184251,-8.22406429018644e-06,0.2485586773184251,-6.380111776208763e-06
0.2493527944983561,-4.19657754106719e-06,0.2493527944983561,-4.7158996771487017e-05,0.2493527944983561,-7.888996885266799e-06,0.2493527944983561,-3.1899654048582136e-06
0.2501469116782872,-1.5109387354012795e-06,0.2501469116782872,-7.133321138250085e-05,0.2501469116782872,-4.532303418417327e-06,0.2501469116782872,-4.196117974919748e-06
0.2509410288582183,-3.860468994671579e-06,0.2509410288582183,-7.939251698292437e-05,0.2509410288582183,-3.0213449047592334e-06,0.2509410288582183,-3.524842201138375e-06
0.2517351460381494,-2.181731279766405e-06,0.2517351460381494,-7.435676778961298e-05,0.2517351460381494,-4.53310313696123e-06,0.2517351460381494,-3.860962208547745e-06
0.2525292632180804,-5.043260302660229e-07,0.2525292632180804,-7.200818918047401e-05,0.2525292632180804,-1.0910644590237004e-05,0.2525292632180804,-6.211753764089176e-06
0.2533233803980115,-2.851608556281828e-06,0.2533233803980115,-7.469080691433925e-05,0.2533233803980115,-1.2251953457169622e-05,0.2533233803980115,-1.023566038709634e-05
0.2541174975779426,-3.188927577979005e-06,0.2541174975779426,-6.194447197352046e-05,0.2541174975779426,-1.2253e-05,0.2541174975779426,-1.3090394444460211e-05
0.2549116147578736,-2.3502971970460363e-06,0.2549116147578736,-3.2744770408682904e-05,0.2549116147578736,-1.46017598482711e-05,0.2549116147578736,-1.493770414223914e-05
0.2557057319378047,-4.19560665748914e-06,0.2557057319378047,2.1702531499732684e-06,0.2557057319378047,-1.7287593315073513e-05,0.2557057319378047,-1.560977332876838e-05
0.2564998491177358,-6.545673455007833e-06,0.2564998491177358,2.3662617312158695e-05,0.2564998491177358,-1.628159137723962e-05,0.2564998491177358,-1.6281272415173585e-05
0.2572939662976669,-5.874748498421253e-06,0.2572939662976669,1.7288770730757273e-05,0.2572939662976669,-1.8295514504736243e-05,0.2572939662976669,-1.62814e-05
0.2580880834775979,-1.0071299993675035e-05,0.2580880834775979,6.546755289752887e-06,0.2580880834775979,-1.9134676476284854e-05,0.2580880834775979,-1.6952870587983956e-05
0.258882200657529,-1.2923424374789483e-05,0.258882200657529,1.2587427447135624e-05,0.258882200657529,-1.7959475814027094e-05,0.258882200657529,-1.7624963534751233e-05
0.2596763178374601,-9.063256052854485e-06,0.2596763178374601,7.538859455885106e-06,0.2596763178374601,-1.628166842273043e-05,0.2596763178374601,-2.0645634211365218e-05
0.2604704350173911,-7.554293566450634e-06,0.2604704350173911,-2.8340972934446217e-05,0.2604704350173911,-1.6952322856196743e-05,0.2604704350173911,-2.098096142809837e-05
0.2612645521973222,-6.546687987502317e-06,0.2612645521973222,-3.541222408748378e-05,0.2612645521973222,-1.5946267987502316e-05,0.2612645521973222,-1.963915731666976e-05
0.2620586693772533,-3.526088069519292e-06,0.2620586693772533,2.2635417153007988e-05,0.2620586693772533,-1.59457e-05,0.2620586693772533,-1.6953918287718498e-05
0.2628527865571843,-5.538488543426612e-06,0.2628527865571843,7.031598558152707e-05,0.2628527865571843,-1.5274480485524462e-05,0.2628527865571843,-1.69528e-05
0.2636469037371154,-5.53903e-06,0.2636469037371154,5.757384657114295e-05,0.2636469037371154,-1.7623915103082443e-05,0.2636469037371154,-1.8631096502201743e-05
0.2644410209170465,-4.532009592523349e-06,0.2644410209170465,4.246596190286645e-05,0.2644410209170465,-1.6952764625428094e-05,0.2644410209170465,-1.96384397950762e-05
0.2652351380969776,-7.55345354564297e-06,0.2652351380969776,4.482699774156356e-05,0.2652351380969776,-1.561e-05,0.2652351380969776,-2.1148416131544436e-05
0.2660292552769086,-8.89622558857414e-06,0.2660292552769086,0.0001097879296853,0.2660292552769086,-1.5609029851416368e-05,0.2660292552769086,-1.779022141031849e-05
0.2668233724568397,-9.566880022040495e-06,0.2668233724568397,0.0001562312985921,0.2668233724568397,-1.2591084900817766e-05,0.2668233724568397,-1.225737227869778e-05
0.2676174896367708,-7.889988897582203e-06,0.2676174896367708,0.0001566027846704,0.2676174896367708,-1.225321577951644e-05,0.2676174896367708,-1.0240094677098642e-05
0.2684116068167018,-6.882318703989578e-06,0.2684116068167018,0.000114493862484,0.2684116068167018,-1.3259601291058492e-05,0.2684116068167018,-1.0909867527372329e-05
0.2692057239966329,-8.55972653791995e-06,0.2692057239966329,6.262582892926035e-05,0.2692057239966329,-1.191776677244493e-05,0.2692057239966329,-9.064501808635669e-06
0.269999841176564,-8.895942850091348e-06,0.269999841176564,1.5955033797296754e-05,0.269999841176564,-1.2420699285138495e-05,0.269999841176564,-9.06386e-06
0.270793958356495,-9.567374786587903e-06,0.270793958356495,-3.037827028505488e-05,0.270793958356495,-1.2756482393293952e-05,0.270793958356495,-4.3643264928357215e-06
0.2715880755364261,-9.063796127006888e-06,0.2715880755364261,-8.208213235104645e-05,0.2715880755364261,-9.567346127006888e-06,0.2715880755364261,-4.86798129955943e-06
0.2723821927163572,-8.391604468013388e-06,0.2723821927163572,-0.0001223646072532,0.2723821927163572,-8.89666183516593e-06,0.2723821927163572,-8.559739644533206e-06
0.2731763098962882,-4.86763e-06,0.2731763098962882,-0.0001331040654875,0.2731763098962882,-1.1581207425720824e-05,0.2731763098962882,-6.209896571525833e-06
0.2739704270762193,-4.86763e-06,0.2739704270762193,-0.0001332718789293,0.2739704270762193,-1.0575225775521432e-05,0.2739704270762193,-4.868597693488654e-06
0.2747645442561504,-2.85459611423718e-06,0.2747645442561504,-0.0001166645379037,0.2747645442561504,-8.896973427574342e-06,0.2747645442561504,-7.383924855768564e-06
0.2755586614360815,-1.5112125738410294e-06,0.2755586614360815,-8.947519449235997e-05,0.2755586614360815,-9.902670573883255e-06,0.2755586614360815,-6.882034715190386e-06
0.2763527786160125,-3.188671998711615e-06,0.2763527786160125,-6.64747115758277e-05,0.2763527786160125,-1.3930376796907878e-05,0.2763527786160125,-8.895448401242149e-06
0.2771468957959436,-2.182172171165149e-06,0.2771468957959436,-4.481854167348873e-05,0.2771468957959436,-1.6616747543559604e-05,0.2771468957959436,-1.29238713166518e-05
0.2779410129758747,-2.8534180554098763e-06,0.2779410129758747,-2.2995080555896432e-05,0.2779410129758747,-1.561001097229506e-05,0.2779410129758747,-1.493861097229506e-05
0.2787351301558057,-1.511025203811537e-06,0.2787351301558057,-9.569391054964765e-06,0.2787351301558057,-1.62814e-05,0.2787351301558057,-1.5610550293501113e-05
0.2795292473357368,-3.860425558985087e-06,0.2795292473357368,-2.166011969085091e-05,0.2795292473357368,-1.6280825558862273e-05,0.2795292473357368,-1.8967939969134212e-05
0.2803233645156679,-3.5250983422519326e-06,0.2803233645156679,-4.5803479517731134e-05,0.2803233645156679,-1.4436475922353195e-05,0.2803233645156679,-2.1985884919732608e-05
0.2811174816955989,-3.8603108629881376e-06,0.2811174816955989,-5.806780153170583e-05,0.2811174816955989,-1.7286637302760352e-05,0.2811174816955989,-2.232368092826577e-05
0.2819115988755301,-1.679592354708236e-06,0.2819115988755301,-5.522384152211897e-05,0.2819115988755301,-1.9804928071690288e-05,0.2819115988755301,-2.23239e-05
0.2827057160554611,-2.8530198228766263e-06,0.2827057160554611,-5.723587969635993e-05,0.2827057160554611,-1.4604760766522874e-05,0.2827057160554611,-2.131726011605876e-05
0.2834998332353922,-2.517810507404074e-06,0.2834998332353922,-5.958600644817148e-05,0.2834998332353922,-1.3092517293819883e-05,0.2834998332353922,-2.0981270507404075e-05
0.2842939504153233,-4.363964697516405e-06,0.2842939504153233,-5.3879956391425e-05,0.2842939504153233,-1.5609842765366512e-05,0.2842939504153233,-1.997416289260441e-05
0.2850880675952543,-2.8536686311575546e-06,0.2850880675952543,-4.464748560874054e-05,0.2850880675952543,-1.594558568399556e-05,0.2850880675952543,-1.8966899969239487e-05
0.2858821847751854,-5.539733095178927e-06,0.2858821847751854,-3.977983126677786e-05,0.2858821847751854,-1.4602587511185238e-05,0.2858821847751854,-1.779164846171911e-05
0.2866763019551165,-8.559672479693673e-06,0.2866763019551165,-3.776176483608936e-05,0.2866763019551165,-1.32599724951791e-05,0.2866763019551165,-1.62816550096418e-05
0.2874704191350475,-6.8830463849232444e-06,0.2874704191350475,-2.636063946716211e-05,0.2874704191350475,-1.2924645278445943e-05,0.2874704191350475,-1.6952309443108114e-05
0.2882645363149786,-7.552827911683433e-06,0.2882645363149786,-1.5616273354666452e-05,0.2882645363149786,-1.3092102007120167e-05,0.2882645363149786,-1.49397762649497e-05
0.2890586534949096,-6.211006003822812e-06,0.2890586534949096,-1.2925572007645625e-05,0.2890586534949096,-1.4602240723879115e-05,0.2890586534949096,-1.5106326771342369e-05
0.2898527706748408,-4.532414785877269e-06,0.2898527706748408,-3.527544808422094e-06,0.2898527706748408,-1.49385030422469e-05,0.2898527706748408,-1.560985454892922e-05
0.2906468878547718,-3.189329656789572e-06,0.2906468878547718,-3.860482585449505e-06,0.2906468878547718,-1.3092460787089763e-05,0.2906468878547718,-1.5274347414550497e-05
0.2914410050347029,-4.86763e-06,0.2914410050347029,-2.8534165849158346e-06,0.2914410050347029,-1.225299574269583e-05,0.2914410050347029,-1.493860851460834e-05
0.292235122214634,-4.867319970411092e-06,0.292235122214634,8.397110442294396e-07,0.292235122214634,-1.1581703343709378e-05,0.292235122214634,-1.628129665629062e-05
0.293029239394565,-2.854046523445281e-06,0.293029239394565,3.86164196215906e-06,0.293029239394565,-1.2252797824514487e-05,0.293029239394565,-1.5611010877427556e-05
0.2938233565744961,-4.865999834948864e-06,0.2938233565744961,7.550231357328414e-06,0.2938233565744961,-1.158214339104818e-05,0.2938233565744961,-1.8964283044759106e-05
0.2946174737544272,-4.86763e-06,0.2946174737544272,1.2585362595646288e-05,0.2946174737544272,-1.0239689978029138e-05,0.2946174737544272,-1.8967e-05
0.2954115909343582,-6.209728199933144e-06,0.2954115909343582,2.265441151237848e-05,0.2954115909343582,-1.02388e-05,0.2954115909343582,-1.4269621318265858e-05
0.2962057081142893,-9.23059933075703e-06,0.2962057081142893,7.970742069616181e-05,0.2962057081142893,-9.232080220630227e-06,0.2962057081142893,-1.3596046816204249e-05
0.2969998252942204,-1.0238578407501835e-05,0.2969998252942204,0.0001596074201539,0.2969998252942204,-1.3259213623406368e-05,0.2969998252942204,-1.2924547729798991e-05
0.2977939424741515,-9.567458642669325e-06,0.2977939424741515,0.0001985631786976,0.2977939424741515,-1.7623883817940092e-05,0.2977939424741515,-1.1917372965090748e-05
0.2985880596540825,-7.720754731930504e-06,0.2985880596540825,0.000148875341575,0.2985880596540825,-1.493849911397734e-05,0.2985880596540825,-1.040661172172493e-05
0.2993821768340136,-3.524904764708292e-06,0.2993821768340136,6.024018083094869e-05,0.2993821768340136,-1.3595201882333665e-05,0.2993821768340136,-9.23163523529171e-06
0.3001762940139447,-3.859909245954687e-06,0.3001762940139447,-1.9324240164262867e-05,0.3001762940139447,-1.091044830309744e-05,0.3001762940139447,-8.896816999859835e-06
0.3009704111938757,-2.18328315118426e-06,0.3009704111938757,-7.750316265612809e-05,0.3009704111938757,-1.158110273656375e-05,0.3009704111938757,-1.107648386420672e-05
0.3017645283738068,-2.517540598346271e-06,0.3017645283738068,-0.0001186445736241,0.3017645283738068,-1.4936605983462712e-05,0.3017645283738068,-1.2252302123911332e-05
0.3025586455537379,-1.688980051402217e-07,0.3025586455537379,-0.0001428292099236,0.3025586455537379,-1.560970028309775e-05,0.3025586455537379,-1.2253e-05
0.3033527627336689,-1.5102387416953327e-06,0.3033527627336689,-0.0001421682008097,0.3033527627336689,-1.4267601260994083e-05,0.3033527627336689,-1.0575001576242605e-05
0.3041468799136,-2.1819384559081185e-06,0.3041468799136,-0.000123203868613,0.3041468799136,-1.242107925381479e-05,0.3041468799136,-1.1581447683862178e-05
0.3049409970935311,-8.392509153513835e-07,0.3049409970935311,-0.0001065840608271,0.3049409970935311,-9.903109216142e-06,0.3049409970935311,-9.735266758601749e-06
0.3057351142734621,-4.196036744002144e-06,0.3057351142734621,-0.0001028903572542,0.3057351142734621,-7.2178581990756575e-06,0.3057351142734621,-8.895913371281466e-06
0.3065292314533932,-2.854221872853235e-06,0.3065292314533932,-9.146626739069943e-05,0.3065292314533932,-9.568582810735537e-06,0.3065292314533932,-8.223828130058129e-06
0.3073233486333243,-5.536829617823315e-06,0.3073233486333243,-5.189785559409134e-05,0.3073233486333243,-1.3592499422638324e-05,0.3073233486333243,-5.541230373983395e-06
0.3081174658132554,-5.874494154725063e-06,0.3081174658132554,1.4222707357295954e-05,0.3081174658132554,-1.35958e-05,0.3081174658132554,-8.893751493428285e-06
0.3089115829931864,-4.8681589211484745e-06,0.3089115829931864,8.405582792712812e-05,0.3089115829931864,-1.35958e-05,0.3089115829931864,-1.376104355390968e-05
0.3097057001731175,-7.552205878995978e-06,0.3097057001731175,0.0001273816471623,0.3097057001731175,-1.493809293760991e-05,0.3097057001731175,-1.4434746468804955e-05
0.3104998173530486,-7.049785833592413e-06,0.3104998173530486,0.0001388083746225,0.3104998173530486,-1.326048611197471e-05,0.3104998173530486,-1.6280975265326122e-05
0.3112939345329796,-2.8537859882554746e-06,0.3112939345329796,0.0001077615603046,0.3112939345329796,-1.4938461604038191e-05,0.3112939345329796,-2.0309467849691664e-05
0.3120880517129107,-4.196317456041064e-06,0.3120880517129107,5.270178116505023e-05,0.3120880517129107,-1.6952734407969205e-05,0.3120880517129107,-2.098106881593841e-05
0.3128821688928418,-5.538815778361461e-06,0.3128821688928418,7.885339656374593e-06,0.3128821688928418,-1.5944985927871535e-05,0.3128821688928418,-1.8967e-05
0.3136762860727728,-4.53205079827654e-06,0.3136762860727728,-8.894439629601786e-06,0.3136762860727728,-1.258882079827654e-05,0.3136762860727728,-1.8965671218958065e-05
0.314470403252704,-4.867378015009718e-06,0.314470403252704,-4.535205789861163e-06,0.314470403252704,-1.2924148015009715e-05,0.314470403252704,-1.527707183489311e-05
0.315264520432635,-6.8806034511449855e-06,0.315264520432635,1.1907364843970846e-05,0.315264520432635,-1.5272880685955944e-05,0.315264520432635,-1.0241841387237264e-05
0.3160586376125661,-1.0237267849662675e-05,0.3160586376125661,4.211641061045151e-05,0.3160586376125661,-1.3261019295679282e-05,0.3160586376125661,-7.554445718444228e-06
0.3168527547924971,-8.89642468788761e-06,0.3168527547924971,6.209803151805782e-05,0.3168527547924971,-1.3595696327256033e-05,0.3168527547924971,-8.559998984856357e-06
0.3176468719724282,-7.217790646094375e-06,0.3176468719724282,5.287398855432528e-05,0.3176468719724282,-1.2588862388624088e-05,0.3176468719724282,-8.224664129541362e-06
0.3184409891523593,-9.231682482104068e-06,0.3184409891523593,1.0575077875951205e-05,0.3184409891523593,-1.2253004586338758e-05,0.3184409891523593,-6.210447517895933e-06
0.3192351063322903,-7.217430086272356e-06,0.3192351063322903,-3.844174840354318e-05,0.3192351063322903,-1.02388e-05,0.3192351063322903,-5.539209826116089e-06
0.3200292235122214,-6.5464503341944605e-06,0.3200292235122214,-7.016510556807378e-05,0.3200292235122214,-1.023955504958734e-05,0.3200292235122214,-6.882244712581404e-06
0.3208233406921525,-7.720095592760501e-06,0.3208233406921525,-8.475178955148928e-05,0.3208233406921525,-1.2922172783452575e-05,0.3208233406921525,-8.391207198985255e-06
0.3216174578720835,-7.553334604749087e-06,0.3216174578720835,-9.348604062132552e-05,0.3216174578720835,-1.4937224743010946e-05,0.3216174578720835,-9.566607766756386e-06
0.3224115750520147,-4.198026657603493e-06,0.3224115750520147,-8.745273393979997e-05,0.3224115750520147,-1.258995766406884e-05,0.3224115750520147,-1.2587083008692056e-05
0.3232056922319457,-8.405472247278029e-07,0.3232056922319457,-7.7046833815882e-05,0.3232056922319457,-1.527325901525626e-05,0.3232056922319457,-1.762224815360548e-05
0.3239998094118768,-2.852956522097888e-06,0.3239998094118768,-7.804965826032884e-05,0.3239998094118768,-1.6448917982385418e-05,0.3239998094118768,-2.098039420109613e-05
0.3247939265918079,-4.196105854173403e-06,0.3247939265918079,-7.704289311006335e-05,0.3247939265918079,-1.7624091366970077e-05,0.3247939265918079,-2.2323775862494232e-05
0.3255880437717389,-4.531855974492e-06,0.3255880437717389,-7.805019610423714e-05,0.3255880437717389,-1.8967074026059283e-05,0.3255880437717389,-2.3666885065148205e-05
0.32638216095167,-3.1895142714186053e-06,0.32638216095167,-8.342368586899024e-05,0.32638216095167,-2.0309527801130395e-05,0.32638216095167,-2.70237e-05
0.3271762781316011,-5.035421277497809e-06,0.3271762781316011,-9.617877445004382e-05,0.3271762781316011,-1.896653021998247e-05,0.3271762781316011,-2.702323021998247e-05
0.3279703953115321,-4.867757669131232e-06,0.3279703953115321,-9.953204661737536e-05,0.3279703953115321,-1.7625221353049854e-05,0.3279703953115321,-2.568192135304985e-05
0.3287645124914632,-7.048330247950182e-06,0.3287645124914632,-6.967574431996794e-05,0.3287645124914632,-1.896617553342171e-05,0.3287645124914632,-2.769386330013256e-05
0.3295586296713942,-6.881898286720996e-06,0.3295586296713942,4.8328708684489255e-06,0.3295586296713942,-1.8295913146883988e-05,0.3295586296713942,-2.836618685311601e-05
0.3303527468513254,-8.895367821751939e-06,0.3303527468513254,4.916567208173092e-05,0.3303527468513254,-1.6953228120957557e-05,0.3303527468513254,-2.735972109071817e-05
0.3311468640312564,-7.5534499464347796e-06,0.3311468640312564,5.8577790362969365e-05,0.3311468640312564,-1.4938944922220847e-05,0.3311468640312564,-2.383520360532422e-05
0.3319409812111875,-6.881835887668408e-06,0.3319409812111875,4.683017803419715e-05,0.3319409812111875,-1.49386e-05,0.3319409812111875,-2.030988340907597e-05
0.3327350983911186,-6.54566240942597e-06,0.3327350983911186,3.5414577624632414e-05,0.3327350983911186,-1.29244415993684e-05,0.3327350983911186,-1.6616559208210806e-05
0.3335292155710496,-2.8539861648458343e-06,0.3335292155710496,2.2318256306535527e-05,0.3335292155710496,-1.325955383244258e-05,0.3335292155710496,-1.2252635888295052e-05
0.3343233327509807,-4.865939476349417e-06,0.3343233327509807,1.528108713614777e-06,0.3343233327509807,-1.1247590532043654e-05,0.3343233327509807,-1.0911327021362434e-05
0.3351174499309118,-8.39001806042287e-06,0.3351174499309118,-1.4256269392867845e-05,0.3351174499309118,-1.0407281382844885e-05,0.3351174499309118,-1.2252069732025608e-05
0.3359115671108428,-7.553677554025479e-06,0.3359115671108428,-2.097753952418013e-05,0.3359115671108428,-1.04067e-05,0.3359115671108428,-9.568874184875943e-06
0.3367056842907739,-3.86199828249636e-06,0.3367056842907739,-2.3665632195054564e-05,0.3367056842907739,-1.2419999156231389e-05,0.3367056842907739,-8.896276961176826e-06
0.337499801470705,-3.524913937385809e-06,0.337499801470705,-2.1317487536696974e-05,0.337499801470705,-1.1581809830962678e-05,0.337499801470705,-8.89601e-06
0.338293918650636,-2.85350878734186e-06,0.338293918650636,-2.2323796827695897e-05,0.338293918650636,-1.091026878836641e-05,0.338293918650636,-8.224678788366411e-06
0.3390880358305671,1.6785808936649829e-06,0.3390880358305671,-1.7959945447058125e-05,0.3390880358305671,-9.903145447058125e-06,0.3390880358305671,-5.035328510257518e-06
0.3398821530104982,3.691677276340582e-06,0.3398821530104982,-1.896638541425578e-05,0.3398821530104982,-1.0910588153331872e-05,0.3398821530104982,-1.6786517305549471e-06
0.3406762701904293,-1.5104118185747236e-06,0.3406762701904293,-1.577831342978812e-05,0.3406762701904293,-1.292462818346445e-05,0.3406762701904293,-2.5175118165355503e-06
0.3414703873703603,-8.397633784456685e-07,0.3414703873703603,-1.7287335849563935e-05,0.3414703873703603,-1.3595282616930712e-05,0.3414703873703603,-1.8468573830692885e-06
0.3422645045502914,-2.8521831589039824e-06,0.3422645045502914,-2.6346644260619342e-05,0.3422645045502914,-1.2421533190689586e-05,0.3422645045502914,-3.18830210344002e-06
0.3430586217302225,-4.195590281014445e-06,0.3430586217302225,-2.5010139723749656e-05,0.3430586217302225,-1.1078739676108628e-05,0.3430586217302225,-6.880060769216646e-06
0.3438527389101535,-1.008148676904354e-06,0.3438527389101535,-9.23689818736607e-06,0.3438527389101535,-1.1245844822574007e-05,0.3438527389101535,-6.88182e-06
0.3446468560900846,-2.517466201417431e-06,0.3446468560900846,6.543260319672448e-06,0.3446468560900846,-1.12459e-05,0.3446468560900846,-9.566923245554626e-06
0.3454409732700157,-4.364017843023705e-06,0.3454409732700157,3.1892530126229643e-06,0.3454409732700157,-9.23177780764111e-06,0.3454409732700157,-1.225290958969964e-05
0.3462350904499467,-4.531700549901444e-06,0.3462350904499467,-1.1917835386221358e-05,0.3462350904499467,-9.903252967491816e-06,0.3462350904499467,-1.2924495598986544e-05
0.3470292076298778,-2.517476976037762e-06,0.3470292076298778,-1.6618634293387907e-05,0.3470292076298778,-1.124598767465408e-05,0.3470292076298778,-1.3764608271580397e-05
0.3478233248098089,-1.5114953258382985e-06,0.3478233248098089,-2.2486810641741384e-05,0.3478233248098089,-1.1581314891387232e-05,0.3478233248098089,-1.7620921208488395e-05
0.34861744198974,-4.19434261111568e-06,0.34861744198974,-2.90332995076033e-05,0.34861744198974,-1.4265312604087842e-05,0.34861744198974,-1.76242e-05
0.349411559169671,-6.377058527190164e-06,0.349411559169671,-2.585057059446108e-05,0.349411559169671,-1.695130894970849e-05,0.349411559169671,-1.896625447485424e-05
0.3502056763496021,-7.552741066706576e-06,0.3502056763496021,-1.9137536761676705e-05,0.3502056763496021,-1.4603857866586848e-05,0.3502056763496021,-1.963812632383233e-05
0.3509997935295332,-7.55322e-06,0.3509997935295332,-1.8967043634438697e-05,0.3509997935295332,-1.4938512705118768e-05,0.3509997935295332,-1.829594917952493e-05
0.3517939107094642,-6.881895503357302e-06,0.3517939107094642,-2.165229798657079e-05,0.3517939107094642,-1.5945586744964044e-05,0.3517939107094642,-2.0980897986570796e-05
0.3525880278893953,-4.196241791523953e-06,0.3525880278893953,-2.534514693989847e-05,0.3525880278893953,-1.695283537457186e-05,0.3525880278893953,-2.1652658954107245e-05
0.3533821450693264,-4.5326046783379855e-06,0.3533821450693264,-2.3834753327681044e-05,0.3533821450693264,-1.79599e-05,0.3533821450693264,-2.3330877330546887e-05
0.3541762622492574,-8.22527442746153e-06,0.3541762622492574,-2.467368926153996e-05,0.3541762622492574,-1.796023221538013e-05,0.3541762622492574,-2.2659489261539958e-05
0.3549703794291886,-1.0237227738965251e-05,0.3549703794291886,-2.433836204480678e-05,0.3549703794291886,-1.8966213865579662e-05,0.3549703794291886,-2.232416204480678e-05
0.3557644966091196,-1.1580748673458238e-05,0.3557644966091196,-2.568004867345824e-05,0.3557644966091196,-2.030894867345824e-05,0.3557644966091196,-2.1653025599871524e-05
0.3565586137890507,-1.057498986529858e-05,0.3565586137890507,-2.4003216442164295e-05,0.3565586137890507,-1.829657973059716e-05,0.3565586137890507,-1.8297232884328603e-05
0.3573527309689818,-9.903327490460463e-06,0.3573527309689818,-2.7022676292927906e-05,0.3573527309689818,-1.8966772509539533e-05,0.3573527309689818,-1.8966772509539533e-05
0.3581468481489128,-9.56747420011517e-06,0.3581468481489128,-2.7191567889423764e-05,0.3581468481489128,-1.846349631260389e-05,0.3581468481489128,-1.7624456808110608e-05
0.3589409653288439,-1.0910141365136376e-05,0.3589409653288439,-1.1246596292007587e-05,0.3589409653288439,-1.9470456023524784e-05,0.3589409653288439,-1.76242e-05
0.3597350825087749,-7.553045578112457e-06,0.3597350825087749,2.266389076804202e-05,0.3597350825087749,-1.829500696558236e-05,0.3597350825087749,-1.426695580935744e-05
0.360529199688706,-5.875310247161646e-06,0.360529199688706,6.395675543576223e-05,0.360529199688706,-1.2588952964145763e-05,0.360529199688706,-1.1916794071708469e-05
0.3613233168686371,-8.222590775398382e-06,0.3613233168686371,8.843554236832904e-05,0.3613233168686371,-1.3594934614345228e-05,0.3613233168686371,-9.90483077130954e-06
0.3621174340485681,-4.870022805588949e-06,0.3621174340485681,0.0001030485916257,0.3621174340485681,-1.292487856396893e-05,0.3621174340485681,-1.1580403590077673e-05
0.3629115512284993,-3.693344085736515e-06,0.3629115512284993,0.0001028920943889,0.3629115512284993,-1.2756594897651102e-05,0.3629115512284993,-1.0910579477563724e-05
0.3637056684084303,-2.8537904847719277e-06,0.3637056684084303,8.846262853519455e-05,0.3637056684084303,-8.56206241968342e-06,0.3637056684084303,-1.09102e-05
0.3644997855883614,-4.531476740817014e-06,0.3644997855883614,6.697770172510334e-05,0.3644997855883614,-1.0238346740817014e-05,0.3644997855883614,-9.56777260680631e-06
0.3652939027682925,-2.350157208406894e-06,0.3652939027682925,3.374176979598743e-05,0.3652939027682925,-1.4266706689911124e-05,0.3652939027682925,-9.56741e-06
0.3660880199482235,-3.524893254962568e-06,0.3660880199482235,-1.687936074493881e-07,0.3660880199482235,-1.0574525302085522e-05,0.3660880199482235,-9.903159038199553e-06
0.3668821371281546,-6.042512022768889e-06,0.3668821371281546,-3.777375295996558e-05,0.3668821371281546,-1.1581860888904726e-05,0.3668821371281546,-1.225311595446222e-05
0.3676762543080857,-5.706279384665468e-06,0.3676762543080857,-8.209075652185264e-05,0.3676762543080857,-1.309203893821239e-05,0.3676762543080857,-1.2924185229624226e-05
0.3684703714880167,-3.861989681528464e-06,0.3684703714880167,-0.0001209882142181,0.3684703714880167,-1.2589098057589385e-05,0.3684703714880167,-1.2253530796157917e-05
0.3692644886679478,-3.525046189130886e-06,0.3692644886679478,-0.000123031702994,0.3692644886679478,-1.3595151432607342e-05,0.3692644886679478,-1.174972431589608e-05
0.3700586058478789,-4.195896708143436e-06,0.3700586058478789,-8.176309710168942e-05,0.3700586058478789,-1.0911533167426256e-05,0.3700586058478789,-1.292381671443035e-05
0.3708527230278099,-6.8808831816828885e-06,0.3708527230278099,-1.966006389960104e-05,0.3708527230278099,-7.722182468917314e-06,0.3708527230278099,-1.2588817102725678e-05
0.371646840207741,-4.86803535512609e-06,0.371646840207741,2.466488218320103e-05,0.371646840207741,-8.895773543681655e-06,0.371646840207741,-1.1078404007791456e-05
0.3724409573876721,-4.86763e-06,0.3724409573876721,6.69696299489816e-05,0.3724409573876721,-1.0406618924410954e-05,0.3724409573876721,-1.0910209010843654e-05
0.3732350745676032,-5.53903e-06,0.3732350745676032,7.166690252273977e-05,0.3732350745676032,-8.896136106589301e-06,0.3732350745676032,-1.5274016258061012e-05
0.3740291917475342,-5.538787095670777e-06,0.3740291917475342,2.163664935473856e-05,0.3740291917475342,-1.023960968109741e-05,0.3740291917475342,-1.2253971617316893e-05
0.3748233089274653,-4.532805445471313e-06,0.3748233089274653,-4.442251267483252e-05,0.3748233089274653,-1.3592881848428955e-05,0.3748233089274653,-1.6277898218114748e-05
0.3756174261073964,-6.209206809828431e-06,0.3756174261073964,-0.0001028497805859,0.3756174261073964,-1.35958e-05,0.3756174261073964,-1.8965058884160903e-05
0.3764115432873274,-3.861881668189099e-06,0.3764115432873274,-0.0001304031663353,0.3764115432873274,-1.460232071116808e-05,0.3764115432873274,-1.8967e-05
0.3772056604672585,-4.196086446925297e-06,0.3772056604672585,-0.0001414922627912,0.3772056604672585,-1.225400487152292e-05,0.3772056604672585,-1.8967e-05
0.3779997776471896,-8.401860942403293e-07,0.3779997776471896,-0.0001398184701893,0.3779997776471896,-1.3931029950639504e-05,0.3779997776471896,-2.1148388949833426e-05
0.3787938948271206,-2.853173200777645e-06,0.3787938948271206,-0.0001136374683207,0.3787938948271206,-1.628108873331337e-05,0.3787938948271206,-2.2323744373279662e-05
0.3795880120070517,-4.196283303446173e-06,0.3795880120070517,-8.610642586721339e-05,0.3795880120070517,-1.6617107614043518e-05,0.3795880120070517,-1.8295592384444263e-05
0.3803821291869828,-7.720824211189398e-06,0.3803821291869828,-6.797343805897189e-05,0.3803821291869828,-1.7120463458795977e-05,0.3803821291869828,-1.7792e-05
0.3811762463669139,-6.210836127662823e-06,0.3811762463669139,-3.43877215497859e-05,0.3811762463669139,-1.62814e-05,0.3811762463669139,-1.7790387520801334e-05
0.3819703635468449,-7.552144994595441e-06,0.3819703635468449,3.452167187754027e-05,0.3819703635468449,-1.62814e-05,0.3819703635468449,-1.2592865605914169e-05
0.382764480726776,-8.224170913287349e-06,0.382764480726776,0.000109891712142,0.382764480726776,-1.62814e-05,0.382764480726776,-8.562944552975732e-06
0.3835585979067071,-6.211440015478078e-06,0.3835585979067071,0.0001448363195426,0.3835585979067071,-1.51069950373037e-05,0.3835585979067071,-1.0909009981098217e-05
0.3843527150866381,-6.545999539778876e-06,0.3843527150866381,0.0001381424092044,0.3843527150866381,-1.359634205305341e-05,0.3843527150866381,-1.2923677238673258e-05
0.3851468322665692,-6.21049091701852e-06,0.3851468322665692,0.0001260575529704,0.3851468322665692,-1.493831633192592e-05,0.3851468322665692,-1.258877091701852e-05
0.3859409494465003,-5.706902060723874e-06,0.3859409494465003,0.0001190054488692,0.3859409494465003,-1.5274278626184085e-05,0.3859409494465003,-1.3595735878552253e-05
0.3867350666264313,-5.203639861575062e-06,0.3867350666264313,8.84515858659562e-05,0.3867350666264313,-1.1581402815132471e-05,0.3867350666264313,-1.577772958072896e-05
0.3875291838063624,-8.89585477032488e-06,0.3875291838063624,2.8691799658007515e-05,0.3875291838063624,-9.23163238516244e-06,0.3875291838063624,-1.4937668621949276e-05
0.3883233009862935,-8.225200336858524e-06,0.3883233009862935,-1.6241847606331428e-05,0.3883233009862935,-8.896305168429261e-06,0.3883233009862935,-1.091374202115114e-05
0.3891174181662246,-7.553711986622784e-06,0.3891174181662246,-2.299038013377216e-05,0.3891174181662246,-1.2250540037574553e-05,0.3891174181662246,-8.562031971499448e-06
0.3899115353461556,-8.559720644533878e-06,0.3899115353461556,-2.567932836981817e-05,0.3899115353461556,-1.2924007092454542e-05,0.3899115353461556,-7.553809355466123e-06
0.3907056525260867,-8.56031e-06,0.3907056525260867,-4.849841012499395e-05,0.3907056525260867,-1.15821876422805e-05,0.3907056525260867,-4.868805280184754e-06
0.3914997697060178,-6.882306833937294e-06,0.3914997697060178,-6.663094216215261e-05,0.3914997697060178,-9.064590252356156e-06,0.3914997697060178,-5.874427900797795e-06
0.3922938868859488,-6.88182e-06,0.3922938868859488,-9.9529913260328e-05,0.3922938868859488,-1.1245589144352496e-05,0.3922938868859488,-5.539077822740331e-06
0.3930880040658799,-9.231697966787563e-06,0.3930880040658799,-9.987013325385874e-05,0.3930880040658799,-1.2252993123849346e-05,0.3930880040658799,-1.510650314174772e-06
0.393882121245811,-6.881461165845319e-06,0.393882121245811,-6.729740139059087e-05,0.393882121245811,-1.0910225638755248e-05,0.393882121245811,-3.525240096394924e-06
0.394676238425742,-4.531829321356475e-06,0.394676238425742,-1.1579253872200018e-06,0.394676238425742,-1.1079056432118158e-05,0.394676238425742,-6.21062135728705e-06
0.3954703556056732,-4.196502104623297e-06,0.3954703556056732,5.55121145294081e-05,0.3954703556056732,-1.4264615046606622e-05,0.3954703556056732,-6.8812757907534055e-06
0.3962644727856042,-5.059999333870678e-07,0.3962644727856042,7.635758001085254e-05,0.3962644727856042,-1.09124290412173e-05,0.3962644727856042,-1.0907525163819196e-05
0.3970585899655353,-3.357846804595749e-07,0.3970585899655353,4.734849564204402e-05,0.3970585899655353,-9.568103438512435e-06,0.3970585899655353,-1.2587833195404252e-05
0.3978527071454664,-2.181359005509673e-06,0.3978527071454664,2.534269595080323e-06,0.3978527071454664,-1.090970473282216e-05,0.3978527071454664,-1.560888564055109e-05
0.3986468243253974,-1.5107885490278838e-06,0.3986468243253974,-2.7352789603659592e-05,0.3986468243253974,-1.1581451450972117e-05,0.3986468243253974,-1.896625725486058e-05
0.3994409415053285,1.1747421509825256e-06,0.3994409415053285,-4.04507354788569e-05,0.3994409415053285,-1.15816e-05,0.3994409415053285,-2.1820189787536968e-05
0.4002350586852595,2.181568576284167e-06,0.4002350586852595,-4.313705188108781e-05,0.4002350586852595,-1.2924524059456094e-05,0.4002350586852595,-2.333097518810878e-05
0.4010291758651906,-4.196452784696209e-06,0.4010291758651906,-3.977914893467555e-05,0.4010291758651906,-1.4602974261565403e-05,0.4010291758651906,-2.29953e-05
0.4018232930451217,-5.202434434895673e-06,0.4018232930451217,-3.4581527130834926e-05,0.4018232930451217,-1.4938301478298557e-05,0.4018232930451217,-2.29953e-05
0.4026174102250527,-7.216023880603366e-06,0.4026174102250527,-3.1390168830332685e-05,0.4026174102250527,-1.7957655809763206e-05,0.4026174102250527,-1.846676624821571e-05
0.4034115274049838,-6.882019811268151e-06,0.4034115274049838,-2.5348796602826717e-05,0.4034115274049838,-1.494039830141336e-05,0.4034115274049838,-1.5108398112681508e-05
0.4042056445849149,-8.224008932213978e-06,0.4042056445849149,-2.7358498391606574e-05,0.4042056445849149,-1.6280798927737717e-05,0.4042056445849149,-1.5609774575520344e-05
0.404999761764846,-5.875425071040489e-06,0.404999761764846,-3.1050992026507106e-05,0.404999761764846,-1.359660579890392e-05,0.404999761764846,-1.409975327688567e-05
0.4057938789447771,-6.210368818339637e-06,0.4057938789447771,-4.447795274883174e-05,0.4057938789447771,-1.3931448818339638e-05,0.4057938789447771,-1.3092353544981088e-05
0.4065879961247081,-4.196239830697887e-06,0.4065879961247081,-5.488664920780874e-05,0.4065879961247081,-1.4602896723084435e-05,0.4065879961247081,-1.1245909011273766e-05
0.4073821133046392,-4.19623e-06,0.4073821133046392,-5.622825447663525e-05,0.4073821133046392,-1.35958e-05,0.4073821133046392,-1.1582222761682376e-05
0.4081762304845703,-4.195646050670832e-06,0.4081762304845703,-4.749964549767812e-05,0.4081762304845703,-1.3596286626856955e-05,0.4081762304845703,-1.59457e-05
0.4089703476645013,-2.1836927391672487e-06,0.4089703476645013,-4.179918270216795e-05,0.4089703476645013,-1.5272922710522726e-05,0.4089703476645013,-1.59457e-05
0.4097644648444324,-1.846566261617176e-06,0.4097644648444324,-4.078807878485153e-05,0.4097644648444324,-1.628072121514847e-05,0.4097644648444324,-1.4939278784851526e-05
0.4105585820243635,-4.194992976362175e-06,0.4105585820243635,-4.783328896593576e-05,0.4105585820243635,-1.7959016407927143e-05,0.4105585820243635,-1.896487937902514e-05
0.4113526992042945,-2.1828030474835887e-06,0.4113526992042945,-6.142764942285616e-05,0.4113526992042945,-1.9302191299152035e-05,0.4113526992042945,-1.8967e-05
0.4121468163842256,-1.007371709720315e-06,0.4121468163842256,-7.502545591518251e-05,0.4121468163842256,-2.030956710397184e-05,0.4121468163842256,-1.762451052803755e-05
0.4129409335641567,-2.853285512399414e-06,0.4129409335641567,-9.550448659115344e-05,0.4129409335641567,-1.9638456177613568e-05,0.4129409335641567,-1.7959871911193218e-05
0.4137350507440878,-8.395892686711052e-07,0.4137350507440878,-0.0001079263456505,0.4137350507440878,-1.4938578545604202e-05,0.4137350507440878,-1.8966881997627644e-05
0.4145291679240188,-6.209994552352779e-06,0.4145291679240188,-9.767940104088144e-05,0.4145291679240188,-1.460286453529212e-05,0.4145291679240188,-1.712084818958762e-05
0.4153232851039499,-4.198041240849338e-06,0.4153232851039499,-5.559598517430368e-05,0.4153232851039499,-1.4435150982448828e-05,0.4153232851039499,-1.8294543392630305e-05
0.416117402283881,-5.5380191521352925e-06,0.416117402283881,-1.027291596487567e-05,0.416117402283881,-1.644768372820294e-05,0.416117402283881,-1.82956e-05
0.416911519463812,-6.2100136685249e-06,0.416911519463812,1.6600846559433215e-05,0.416911519463812,-1.32620300729937e-05,0.416911519463812,-1.7289109506290788e-05
0.4177056366437431,-4.868244497667789e-06,0.4177056366437431,5.2855908530935774e-05,0.4177056366437431,-1.0575729004488128e-05,0.4177056366437431,-1.6617407251122033e-05
0.4184997538236742,-6.881195508950125e-06,0.4184997538236742,7.770649793648381e-05,0.4184997538236742,-1.2588075505849667e-05,0.4184997538236742,-1.7288291835283222e-05
0.4192938710036052,-6.88182e-06,0.4192938710036052,5.958944509816725e-05,0.4192938710036052,-1.2420827277701102e-05,0.4192938710036052,-1.6617209078311617e-05
0.4200879881835363,-7.217515004046772e-06,0.4200879881835363,4.1123374775939306e-05,0.4200879881835363,-1.4267172521513135e-05,0.4200879881835363,-1.628140499595323e-05
0.4208821053634674,-7.2171413497071e-06,0.4208821053634674,5.421993288739764e-05,0.4208821053634674,-1.8295421811002404e-05,0.4208821053634674,-1.6281221811002402e-05
0.4216762225433985,-4.364220958148815e-06,0.4216762225433985,8.91307191629763e-05,0.4216762225433985,-1.695289397209921e-05,0.4216762225433985,-1.49386e-05
0.4224703397233295,-4.867211783248547e-06,0.4224703397233295,9.919053566497096e-05,0.4224703397233295,-1.7288221188832364e-05,0.4224703397233295,-1.49386e-05
0.4232644569032606,-6.880442292164423e-06,0.4232644569032606,7.03485471752833e-05,0.4232644569032606,-1.6282088857337793e-05,0.4232644569032606,-1.7622363047099218e-05
0.4240585740831917,-4.868710450095912e-06,0.4240585740831917,4.180980634506764e-05,0.4240585740831917,-1.62814e-05,0.4240585740831917,-1.6617640227730054e-05
0.4248526912631227,-6.20989787305872e-06,0.4248526912631227,2.602273503724843e-05,0.4248526912631227,-1.527469159812224e-05,0.4248526912631227,-1.4939252663537066e-05
0.4256468084430538,-7.049467526237977e-06,0.4256468084430538,1.7122746209814673e-05,0.4256468084430538,-1.4267442968514428e-05,0.4256468084430538,-1.4267361979009618e-05
0.4264409256229849,-1.2252512584188925e-05,0.4264409256229849,1.4603135842583027e-05,0.4264409256229849,-1.3595862892604456e-05,0.4264409256229849,-1.3763647174137036e-05
0.4272350428029159,-1.023872761293758e-05,0.4272350428029159,2.735959906590413e-05,0.4272350428029159,-1.2924381903099624e-05,0.4272350428029159,-1.124589095424521e-05
0.428029159982847,-8.895604671885974e-06,0.428029159982847,3.104750628070359e-05,0.428029159982847,-1.2588362224894677e-05,0.428029159982847,-1.107786354736446e-05
0.4288232771627781,-6.883651360382251e-06,0.4288232771627781,8.245365420696282e-06,0.4288232771627781,-1.0911726141228784e-05,0.4288232771627781,-9.904168344321612e-06
0.4296173943427092,-7.552707861076755e-06,0.4296173943427092,-3.1693027878997514e-05,0.4296173943427092,-1.1916531791615134e-05,0.4296173943427092,-7.219568540437127e-06
0.4304115115226402,-3.862801782697353e-06,0.4304115115226402,-6.627912791836083e-05,0.4304115115226402,-1.2923780421222871e-05,0.4304115115226402,-5.036822414531665e-06
0.4312056287025713,-4.53161603388717e-06,0.4312056287025713,-9.381482743613692e-05,0.4312056287025713,-9.904512847507732e-06,0.4312056287025713,-7.719814140224973e-06
0.4319997458825024,-3.189569756214864e-06,0.4319997458825024,-0.0001142984462969,0.4319997458825024,-1.107772394450922e-05,0.4319997458825024,-1.0573586767643354e-05
0.4327938630624334,-2.182213689953761e-06,0.4327938630624334,-0.0001213537841185,0.4327938630624334,-1.2588439473692632e-05,0.4327938630624334,-1.2252710516743731e-05
0.4335879802423645,-5.5389464657625735e-06,0.4335879802423645,-0.0001169911085923,0.4335879802423645,-1.1245933413794506e-05,0.4335879802423645,-1.2253e-05
0.4343820974222956,-4.531724052457211e-06,0.4343820974222956,-9.701440802602068e-05,0.4343820974222956,-1.0239088328277677e-05,0.4343820974222956,-8.225001295300677e-06
0.4351762146022266,-2.8534853094135145e-06,0.4351762146022266,-7.66982194089391e-05,0.4351762146022266,-1.258879061882703e-05,0.4351762146022266,-1.1414560892353777e-05
0.4359703317821577,-3.0211489177801034e-06,0.4359703317821577,-4.383635194699456e-05,0.4359703317821577,-1.2924117835560206e-05,0.4359703317821577,-1.460021939579569e-05
0.4367644489620888,-4.53088161220383e-06,0.4367644489620888,1.6910631372744667e-05,0.4367644489620888,-1.2253465953216086e-05,0.4367644489620888,-1.1751380335868488e-05
0.4375585661420199,-6.880535971626131e-06,0.4375585661420199,8.237823064986552e-05,0.4375585661420199,-1.2253e-05,0.4375585661420199,-1.0239625423003444e-05
0.438352683321951,-2.3516975097615004e-06,0.438352683321951,0.0001099300211629,0.438352683321951,-1.2924132219594328e-05,0.438352683321951,-1.3930027207768813e-05
0.439146800501882,-2.1820821735001275e-06,0.439146800501882,0.0001018860243782,0.439146800501882,-1.158193738800102e-05,0.439146800501882,-1.594519391799847e-05
0.4399409176818131,-4.867351570655357e-06,0.4399409176818131,6.361886756036219e-05,0.4399409176818131,-1.4266921569618605e-05,0.4399409176818131,-1.359604362658372e-05
0.4407350348617442,-6.8817610428192535e-06,0.4407350348617442,1.7287726183523113e-05,0.4407350348617442,-1.124600317583467e-05,0.4407350348617442,-1.258859682416533e-05
0.4415291520416752,-5.538901596502185e-06,0.4415291520416752,-3.356658993167937e-07,0.4415291520416752,-1.359599260524672e-05,0.4415291520416752,-1.023924941224235e-05
0.4423232692216063,-4.868247163035876e-06,0.4423232692216063,-1.6800328983975097e-07,0.4423232692216063,-1.4601974255446186e-05,0.4423232692216063,-1.2586539929374432e-05
0.4431173864015373,-3.525867707828272e-06,0.4431173864015373,1.0566198376786323e-05,0.4431173864015373,-1.1583934842613613e-05,0.4431173864015373,-1.3762692044289965e-05
0.4439115035814684,-8.409250600321285e-07,0.4439115035814684,1.8290772673647866e-05,0.4439115035814684,-1.0239639535017762e-05,0.4439115035814684,-1.1247474096897692e-05
0.4447056207613995,-1.6780891514861328e-06,0.4447056207613995,1.0578187832692782e-05,0.4447056207613995,-8.561111697982996e-06,0.4447056207613995,-1.158143965944814e-05
0.4454997379413306,-8.395229913929071e-07,0.4454997379413306,-1.392341182650745e-05,0.4454997379413306,-7.217963186096631e-06,0.4454997379413306,-1.191718920265072e-05
0.4462938551212617,-4.195617461452713e-06,0.4462938551212617,-4.514570340085254e-05,0.4462938551212617,-6.881881254146676e-06,0.4462938551212617,-1.359549372926662e-05
0.4470879723011927,-4.531918289055928e-06,0.4470879723011927,-6.76424153702357e-05,0.4470879723011927,-8.392407301100528e-06,0.4470879723011927,-1.6281306312447424e-05
0.4478820894811238,-8.559969511927356e-06,0.4478820894811238,-8.006508363872122e-05,0.4478820894811238,-8.22495048919961e-06,0.4478820894811238,-1.1245710839834425e-05
0.4486762066610549,-5.538331878160535e-06,0.4486762066610549,-8.879317262955361e-05,0.4486762066610549,-1.1245987265554871e-05,0.4486762066610549,-9.567671794065106e-06
0.4494703238409859,-2.8557241331906428e-06,0.4494703238409859,-9.214634490793172e-05,0.4494703238409859,-1.1581314482288026e-05,0.4494703238409859,-1.0573643455369225e-05
0.450264441020917,-5.033943835367362e-06,0.450264441020917,-0.0001022129101176,0.450264441020917,-1.4936236658965112e-05,0.450264441020917,-1.2587281995379067e-05
0.4510585582008481,-6.880792655609483e-06,0.4510585582008481,-9.28258300339397e-05,0.4510585582008481,-1.8964758509189665e-05,0.4510585582008481,-1.0240107536306029e-05
0.4518526753807791,-7.217382752301719e-06,0.4518526753807791,-4.215092427978832e-05,0.4518526753807791,-1.8295874495396565e-05,0.4518526753807791,-1.2923302018413752e-05
0.4526467925607102,-7.888734593621185e-06,0.4526467925607102,7.875842079779748e-06,0.4526467925607102,-1.644968238778928e-05,0.4526467925607102,-1.4266849182017197e-05
0.4534409097406413,-6.881934482742451e-06,0.4534409097406413,4.212630756061098e-05,0.4534409097406413,-1.6617080913669625e-05,0.4534409097406413,-1.4602861838706927e-05
0.4542350269205724,-6.881899673027501e-06,0.4542350269205724,4.280032523054284e-05,0.4542350269205724,-1.6952754472361972e-05,0.4542350269205724,-1.8295560161621474e-05
0.4550291441005034,-9.231466606093094e-06,0.4550291441005034,5.195663122746395e-06,0.4550291441005034,-1.5610060848476727e-05,0.4550291441005034,-1.7121056372638373e-05
0.4558232612804345,-7.890157739160476e-06,0.4558232612804345,-3.7055396374410206e-05,0.4558232612804345,-1.594538806520988e-05,0.4558232612804345,-1.963606044261376e-05
0.4566173784603656,-8.22434721554751e-06,0.4566173784603656,-6.426501453762785e-05,0.4566173784603656,-1.59457e-05,0.4566173784603656,-1.96384e-05
0.4574114956402966,-4.198788882294359e-06,0.4574114956402966,-0.0001008537570848,0.4574114956402966,-1.426826620624943e-05,0.4574114956402966,-1.4941585377498404e-05
0.4582056128202277,-3.02186293828925e-06,0.4582056128202277,-0.000125036213448,0.4582056128202277,-1.5273808905858082e-05,0.4582056128202277,-1.49386e-05
0.4589997300001588,-4.867002151754643e-06,0.4589997300001588,-0.0001104499657527,0.4589997300001588,-1.6281057535465896e-05,0.4589997300001588,-1.443517124926956e-05
0.4597938471800898,-1.511286114496294e-06,0.4597938471800898,-5.6239934770575386e-05,0.4597938471800898,-1.4938858446568393e-05,0.4597938471800898,-1.560977384962924e-05
0.4605879643600209,-1.6790927335409025e-07,0.4605879643600209,2.668427811339384e-05,0.4605879643600209,-1.5274284931560483e-05,0.4605879643600209,-1.812758698894795e-05
0.461382081539952,-1.846133152551128e-06,0.461382081539952,7.100185478862815e-05,0.461382081539952,-1.4938462100947654e-05,0.461382081539952,-2.131686552523691e-05
0.4621761987198831,1.6726161677058085e-07,0.4621761987198831,8.711325455766426e-05,0.4621761987198831,-1.3596135649130856e-05,0.4621761987198831,-2.098044478945557e-05
0.4629703158998141,-2.180017912576457e-06,0.4629703158998141,8.493357770442218e-05,0.4629703158998141,-1.4937444516063382e-05,0.4629703158998141,-1.796249983885739e-05
0.4637644330797452,-6.20754371509346e-06,0.4637644330797452,7.218430820935719e-05,0.4637644330797452,-1.6951361850406678e-05,0.4637644330797452,-1.9972661850406675e-05
0.4645585502596763,-1.0236518230572789e-05,0.4645585502596763,5.892261083333295e-05,0.4645585502596763,-1.69528e-05,0.4645585502596763,-1.796104089037784e-05
0.4653526674396073,-1.0909918789612546e-05,0.4653526674396073,3.710383929570804e-05,0.4653526674396073,-1.2926087262324716e-05,0.4653526674396073,-1.4939865446743538e-05
0.4661467846195384,-6.882912738467988e-06,0.4661467846195384,1.6958263692339946e-05,0.4661467846195384,-1.5273662566062305e-05,0.4661467846195384,-1.3260555309955496e-05
0.4669409017994695,-5.203537592705811e-06,0.4669409017994695,4.197807710253362e-06,0.4669409017994695,-1.6281275443634442e-05,0.4669409017994695,-1.292444151878852e-05
0.4677350189794005,-7.04981042676801e-06,0.4677350189794005,-8.389571223845675e-07,0.4677350189794005,-1.8966935804687506e-05,0.4677350189794005,-1.6617075926757815e-05
0.4685291361593316,-1.2923997533567851e-05,0.4685291361593316,1.1248860994473042e-05,0.4685291361593316,-1.6281285009590814e-05,0.4685291361593316,-1.560994250479541e-05
0.4693232533392627,-1.0576707016435936e-05,0.4693232533392627,2.8518162711752567e-05,0.4693232533392627,-1.5610630576124555e-05,0.4693232533392627,-1.5274615288062277e-05
0.4701173705191938,-1.1580801574156264e-05,0.4701173705191938,3.0714670116978425e-05,0.4701173705191938,-1.4939132283895825e-05,0.4701173705191938,-1.4267998425843736e-05
0.4709114876991248,-1.3091225337906768e-05,0.4709114876991248,2.1322964700347763e-05,0.4709114876991248,-1.376435812786942e-05,0.4709114876991248,-1.2254299592471989e-05
0.4717056048790559,-1.3763265888914544e-05,0.4717056048790559,1.729050466651273e-05,0.4717056048790559,-1.4266949391804236e-05,0.4717056048790559,-1.057533527771364e-05
0.472499722058987,-1.5105929950639503e-05,0.472499722058987,1.4435998872393635e-05,0.472499722058987,-1.3931617512340123e-05,0.472499722058987,-1.1077923713987232e-05
0.473293839238918,-1.2421343753100348e-05,0.473293839238918,-8.361534252986431e-07,0.473293839238918,-1.5777426179867006e-05,0.473293839238918,-1.1245866025554722e-05
0.4740879564188491,-9.5675666171537e-06,0.4740879564188491,-2.030873129829836e-05,0.4740879564188491,-1.7959780228678488e-05,0.4740879564188491,-1.4267034166585543e-05
0.4748820735987802,-7.888692180980388e-06,0.4748820735987802,-3.206041356416863e-05,0.4748820735987802,-1.896693776546472e-05,0.4748820735987802,-1.3596235641746972e-05
0.4756761907787112,-5.538546645936797e-06,0.4756761907787112,-4.515502515547403e-05,0.4756761907787112,-1.8295438881978933e-05,0.4756761907787112,-1.82956e-05
0.4764703079586423,-3.526583345537729e-06,0.4764703079586423,-6.024474990846703e-05,0.4764703079586423,-1.7624784448512576e-05,0.4764703079586423,-1.82956e-05
0.4772644251385734,-3.52483e-06,0.4772644251385734,-6.461884036177368e-05,0.4772644251385734,-1.6953286098188667e-05,0.4772644251385734,-1.5947401343660327e-05
0.4780585423185045,-2.015060770748635e-06,0.4780585423185045,-6.931899097515797e-05,0.4780585423185045,-1.963685195286598e-05,0.4780585423185045,-1.728772597643299e-05
0.4788526594984356,-1.8464119813445624e-06,0.4788526594984356,-7.502615263428487e-05,0.4788526594984356,-1.6953951701513002e-05,0.4788526594984356,-1.7624056037310876e-05
0.4796467766783666,-3.188762322053821e-06,0.4796467766783666,-8.207631719078257e-05,0.4796467766783666,-1.6617194419486546e-05,0.4796467766783666,-1.76242e-05
0.4804408938582977,-3.524785125052833e-06,0.4804408938582977,-8.543485123716036e-05,0.4804408938582977,-1.863103074229621e-05,0.4804408938582977,-1.930247561858018e-05
0.4812350110382288,2.5177073316946404e-06,0.4812350110382288,-9.097428366508964e-05,0.4812350110382288,-2.06455e-05,0.4812350110382288,-1.863130466691864e-05
0.4820291282181598,1.6833627594018028e-07,0.4820291282181598,-8.97961597840482e-05,0.4820291282181598,-2.064490443874347e-05,0.4820291282181598,-1.8966783432270352e-05
0.4828232453980909,3.1862722365327604e-06,0.4828232453980909,-7.034728110247867e-05,0.4828232453980909,-1.695630505467877e-05,0.4828232453980909,-1.7625474565337736e-05
0.483617362578022,3.859991009141317e-06,0.483617362578022,-4.751962588186687e-05,0.483617362578022,-1.6281938998886667e-05,0.483617362578022,-1.5276186496103338e-05
0.484411479757953,1.847659730892355e-06,0.484411479757953,-3.575959840290471e-05,0.484411479757953,-1.7791010229677443e-05,0.484411479757953,-1.711939027343669e-05
0.4852055969378841,5.042296480916136e-07,0.4852055969378841,-3.239660413038173e-05,0.4852055969378841,-1.5275578072404552e-05,0.4852055969378841,-1.7623944355060995e-05
0.4859997141178152,5.03548e-07,0.4859997141178152,-1.7629518236759736e-05,0.4859997141178152,-1.460314173967114e-05,0.4859997141178152,-1.5946304349177844e-05
0.4867938312977463,-5.033340209509892e-07,0.4867938312977463,3.1713015027448354e-05,0.4867938312977463,-1.158224193969669e-05,0.4867938312977463,-1.5610071326632966e-05
0.4875879484776773,-8.392242166993942e-07,0.4875879484776773,0.0001203422491938,0.4875879484776773,-1.1245921783430386e-05,0.4875879484776773,-1.426728713372154e-05
0.4883820656576084,-2.18204e-06,0.4883820656576084,0.0001653300839357,0.4883820656576084,-1.2924177921822248e-05,0.4883820656576084,-1.5610055519544438e-05
0.4891761828375395,-2.181885588523247e-06,0.4891761828375395,0.000154239411951,0.4891761828375395,-1.0238336767869583e-05,0.4891761828375395,-1.6281013971308118e-05
0.4899703000174705,-1.511231155056938e-06,0.4899703000174705,9.522252102867374e-05,0.4899703000174705,-8.226383456366002e-06,0.4899703000174705,-1.4604377887642343e-05
0.4907644171974016,-3.858805161211635e-06,0.4907644171974016,2.472554516365096e-05,0.4907644171974016,-1.15791359414423e-05,0.4907644171974016,-1.091291047248756e-05
0.4915585343773327,-4.196033136612826e-06,0.4915585343773327,-7.869814362865122e-06,0.4915585343773327,-7.723333917223974e-06,0.4915585343773327,-7.555188622143213e-06
0.4923526515572637,-5.538440719261718e-06,0.4923526515572637,-1.9968796477743902e-05,0.4923526515572637,-6.211082940830568e-06,0.4923526515572637,-8.895420723650165e-06
0.4931467687371948,-5.706821114421635e-06,0.4931467687371948,-1.5160177223589405e-06,0.4931467687371948,-6.042618888490995e-06,0.4931467687371948,-8.56040777698199e-06
0.4939408859171259,-1.1580755911734363e-05,0.4939408859171259,4.413784022899246e-05,0.4939408859171259,-5.5391023492322674e-06,0.4939408859171259,-5.5394641011408524e-06
0.494735003097057,-6.881816071730347e-06,0.494735003097057,8.946364844670876e-05,0.494735003097057,-4.867620179364873e-06,0.494735003097057,-1.8463452376928707e-06
0.495529120276988,-5.874821577320462e-06,0.495529120276988,0.0001018786672965,0.495529120276988,-2.3504740665668204e-06,0.495529120276988,-3.1893177587978906e-06
0.4963232374569191,-6.545476010786818e-06,0.4963232374569191,6.667000876227049e-05,0.4963232374569191,-6.206717081207677e-06,0.4963232374569191,-4.362953028468668e-06
0.4971173546368502,-7.21697428612244e-06,0.4971173546368502,6.930388356286782e-06,0.4971173546368502,-1.0570952876051864e-05,0.4971173546368502,-4.19636642846939e-06
0.4979114718167812,-9.062631781103086e-06,0.4979114718167812,-4.8136076733524416e-05,0.4979114718167812,-8.226173189501212e-06,0.4979114718167812,-2.1833798757650136e-06
0.4987055889967123,-6.882949503292006e-06,0.4987055889967123,-8.424161974528396e-05,0.4987055889967123,-1.09088098409076e-05,0.4987055889967123,-6.208334763949584e-06
0.4994997061766434,-4.868375360285402e-06,0.4994997061766434,-0.000110603248062,0.4994997061766434,-1.2252503090676034e-05,0.4994997061766434,-9.566167730390632e-06
0.5002938233565745,-4.196379368256822e-06,0.5002938233565745,-0.0001185002449118,0.5002938233565745,-1.0239248104770464e-05,0.5002938233565745,-1.0574275949839496e-05
0.5010879405365055,-2.182190844805932e-06,0.5010879405365055,-0.0001129634148215,0.5010879405365055,-1.0910149718148383e-05,0.5010879405365055,-1.2252874295370965e-05
0.5018820577164366,-4.532100815210342e-06,0.5018820577164366,-9.768736051597966e-05,0.5018820577164366,-9.56741e-06,0.5018820577164366,-1.393191483870475e-05
0.5026761748963677,-6.881376887402639e-06,0.5026761748963677,-8.476301377040536e-05,0.5026761748963677,-9.5680008175298e-06,0.5026761748963677,-1.9639433912527524e-05
0.5034702920762988,-4.869423575899058e-06,0.5034702920762988,-8.073908716960751e-05,0.5034702920762988,-1.2250608562499687e-05,0.5034702920762988,-2.433391505783824e-05
0.5042644092562298,-3.525829056340708e-06,0.5042644092562298,-6.933019197889603e-05,0.5042644092562298,-1.3594800943659292e-05,0.5042644092562298,-2.4002649764085176e-05
0.5050585264361609,-6.544318018020701e-06,0.5050585264361609,-5.321781054272296e-05,0.5050585264361609,-1.426679955823476e-05,0.5050585264361609,-2.198950126565292e-05
0.505852643616092,-5.875021355360032e-06,0.505852643616092,-3.173314332663641e-05,0.505852643616092,-1.2925002710720063e-05,0.505852643616092,-2.098165203304005e-05
0.506646760796023,-5.20353226594218e-06,0.506646760796023,-1.4272458962698989e-05,0.506646760796023,-9.90401021029671e-06,0.506646760796023,-1.963880453790965e-05
0.507440877975954,-5.538978408725145e-06,0.507440877975954,-1.628109045235087e-05,0.507440877975954,-1.124569363490058e-05,0.507440877975954,-1.5946267504023408e-05
0.5082349951558852,-2.853456384516626e-06,0.5082349951558852,-2.803072831808293e-05,0.5082349951558852,-1.426718156735016e-05,0.5082349951558852,-1.5610002048072206e-05
0.5090291123358163,-4.8672505183082525e-06,0.5090291123358163,-5.925682419537629e-05,0.5090291123358163,-1.3092366030923484e-05,0.5090291123358163,-1.0239369224657164e-05
0.5098232295157473,-2.184642773338736e-06,0.5098232295157473,-0.0001018426814978,0.5098232295157473,-1.4266061233966088e-05,0.5098232295157473,-1.4263295825454457e-05
0.5106173466956784,-4.529996507188439e-06,0.5106173466956784,-0.0001183204649167,0.5106173466956784,-1.69505902845262e-05,0.5106173466956784,-1.762143785565775e-05
0.5114114638756094,-6.880233308130848e-06,0.5114114638756094,-7.6735207300243e-05,0.5114114638756094,-1.8630166643841893e-05,0.5114114638756094,-1.5611360027389727e-05
0.5122055810555405,-4.533169890927072e-06,0.5122055810555405,4.743576294582893e-05,0.5122055810555405,-1.8295777128029063e-05,0.5122055810555405,-1.2254771280290642e-05
0.5129996982354716,-4.196357584826413e-06,0.5129996982354716,0.000148172724666,0.5129996982354716,-1.6617737924132068e-05,0.5129996982354716,-1.2420736226589595e-05
0.5137938154154027,-6.209951752581886e-06,0.5137938154154027,0.0001676764737253,0.5137938154154027,-1.527461216649524e-05,0.5137938154154027,-1.3259904884316762e-05
0.5145879325953338,-8.560110511900157e-06,0.5145879325953338,0.0001280723627627,0.5145879325953338,-1.5609971501578747e-05,0.5145879325953338,-1.3595771501578747e-05
0.5153820497752648,-1.1581515820874596e-05,0.5153820497752648,7.13321330029449e-05,0.5153820497752648,-1.4267168429693513e-05,0.5153820497752648,-1.2253084179125404e-05
0.5161761669551959,-1.0237883514677631e-05,0.5161761669551959,1.123246995603734e-05,0.5161761669551959,-1.376384675767946e-05,0.5161761669551959,-1.35958e-05
0.5169702841351269,-5.878649674937315e-06,0.5169702841351269,-5.264711510924497e-05,0.5169702841351269,-1.4937541960722227e-05,0.5169702841351269,-1.35958e-05
0.5177644013150581,-5.53928311404051e-06,0.5177644013150581,-9.882839597116724e-05,0.5177644013150581,-1.5609493756838756e-05,0.5177644013150581,-1.0912224972644978e-05
0.5185585184949891,-4.1970443135120745e-06,0.5185585184949891,-0.000103224353663,0.5185585184949891,-1.2926028627024148e-05,0.5185585184949891,-8.561735042581836e-06
0.5193526356749202,-8.222761587071978e-06,0.5193526356749202,-9.215428302313436e-05,0.5193526356749202,-1.2421031075705508e-05,0.5193526356749202,-4.533778412928023e-06
0.5201467528548512,-6.211046948724487e-06,0.5201467528548512,-9.919670566857e-05,0.5201467528548512,-1.5273411802667413e-05,0.5201467528548512,-4.3641322459864286e-06
0.5209408700347823,-5.035672319059047e-06,0.5209408700347823,-0.0001069187361782,0.5209408700347823,-1.6616880204918987e-05,0.5209408700347823,-4.86754757684462e-06
0.5217349872147133,-4.196243513919125e-06,0.5217349872147133,-7.70432810939106e-05,0.5217349872147133,-1.493862702783825e-05,0.5217349872147133,-4.86763e-06
0.5225291043946444,-4.867762245034468e-06,0.5225291043946444,-9.558858107602398e-06,0.5225291043946444,-1.628144408211587e-05,0.5225291043946444,-8.392922860903489e-06
0.5233232215745756,-5.873733906338728e-06,0.5233232215745756,5.549433226067367e-05,0.5233232215745756,-1.661677129884907e-05,0.5233232215745756,-1.1913848647706758e-05
0.5241173387545066,-7.216401712281505e-06,0.5241173387545066,0.0001068772256613,0.5241173387545066,-1.5946259143859247e-05,0.5241173387545066,-1.4265242996492634e-05
0.5249114559344377,-6.546580057454133e-06,0.5249114559344377,0.0001371122974145,0.5249114559344377,-1.3597410201089466e-05,0.5249114559344377,-1.82928396552752e-05
0.5257055731143687,-8.894746606705154e-06,0.5257055731143687,0.0001324355269048,0.5257055731143687,-1.124716339867124e-05,0.5257055731143687,-1.8463309784119736e-05
0.5264996902942998,-8.224871884643718e-06,0.5264996902942998,0.000105251606445,0.5264996902942998,-1.158146905767814e-05,0.5264996902942998,-1.963794168237062e-05
0.5272938074742308,-8.22461e-06,0.5272938074742308,6.39606119219411e-05,0.5272938074742308,-1.493778600880698e-05,0.5272938074742308,-2.299448603305456e-05
0.528087924654162,-6.210611134550967e-06,0.528087924654162,6.006300357590956e-05,0.528087924654162,-1.49386e-05,0.528087924654162,-2.4337972576333397e-05
0.528882041834093,-7.553158094499165e-06,0.528882041834093,5.617446441438479e-05,0.528882041834093,-1.4267376872859528e-05,0.528882041834093,-2.5177391153722635e-05
0.5296761590140241,-6.378102137195533e-06,0.5296761590140241,5.228592525286001e-05,0.5296761590140241,-1.76242e-05,0.5296761590140241,-2.50084928311739e-05
0.5304702761939551,-5.539794084257992e-06,0.5304702761939551,4.839738609133524e-05,0.5304702761939551,-1.76242e-05,0.5304702761939551,-1.9978684469130037e-05
0.5312643933738862,-4.5326994372282044e-06,0.5312643933738862,4.4508846929810464e-05,0.5312643933738862,-1.8295087041847864e-05,0.5312643933738862,-1.6955108311684613e-05
0.5320585105538173,-3.1899677373295468e-06,0.5320585105538173,4.062030776828569e-05,0.5320585105538173,-1.896658612825307e-05,0.5320585105538173,-1.4268855486987712e-05
0.5328526277337483,-5.873460868009727e-06,0.5328526277337483,3.673176860676092e-05,0.5328526277337483,-1.7624829570683627e-05,0.5328526277337483,-1.5609370429316374e-05
0.5336467449136795,-3.8611770935968645e-06,0.5336467449136795,3.28432294452356e-05,0.5336467449136795,-1.493946279574605e-05,0.5336467449136795,-1.3596447096809536e-05
0.5344408620936105,-1.511048142123039e-06,0.5344408620936105,2.8954690283710828e-05,0.5344408620936105,-1.2253466450125594e-05,0.5344408620936105,-1.2253233225062795e-05
0.5352349792735416,-5.538924843503893e-06,0.5352349792735416,2.506615112218605e-05,0.5352349792735416,-1.1245926289189286e-05,0.5352349792735416,-1.0910235052252382e-05
0.5360290964534726,-6.881412712775896e-06,0.5360290964534726,2.1177611960661288e-05,0.5360290964534726,-1.0909955628150836e-05,0.5360290964534726,-1.091036291537494e-05
0.5368232136334037,-3.5281505343396965e-06,0.5368232136334037,1.7289072799136514e-05,0.5368232136334037,-8.898002316647256e-06,0.5368232136334037,-1.225167178230756e-05
0.5376173308133347,-1.706782782378787e-07,0.5376173308133347,1.340053363761174e-05,0.5376173308133347,-6.8835175681226525e-06,0.5376173308133347,-1.493633656459907e-05
0.5384114479932659,-3.522496150984576e-06,0.5384114479932659,9.511994476086423e-06,0.5384114479932659,-8.5591430758399e-06,0.5384114479932659,-1.359673354488986e-05
0.539205565173197,-1.847259209622899e-06,0.539205565173197,5.623455314561651e-06,0.539205565173197,-8.224793843019861e-06,0.539205565173197,-1.35958e-05
0.539999682353128,-4.19528990527946e-06,0.539999682353128,1.734916153036878e-06,0.539999682353128,-1.2922519806558327e-05,0.539999682353128,-1.6280325601461564e-05
0.5407937995330591,-8.559208169058438e-06,0.5407937995330591,-2.1536230084879025e-06,0.5407937995330591,-1.6280552433852993e-05,0.5407937995330591,-1.863070670369709e-05
0.5415879167129901,-5.53934691861096e-06,0.5415879167129901,-6.042162170012669e-06,0.5415879167129901,-1.4938740853648386e-05,0.5415879167129901,-1.7959970426824194e-05
0.5423820338929212,-7.2175773187349775e-06,0.5423820338929212,1.2589387825673464e-05,0.5423820338929212,-1.3931585978742762e-05,0.5423820338929212,-2.1316892832970453e-05
0.5431761510728523,-8.5597996607025e-06,0.5431761510728523,2.8704943083938117e-05,0.5431761510728523,-1.594538103675138e-05,0.5431761510728523,-2.1148585357278235e-05
0.5439702682527834,-5.877191915732609e-06,0.5439702682527834,4.312401340346375e-05,0.5439702682527834,-1.4268744953085607e-05,0.5439702682527834,-1.8969008392989456e-05
0.5447643854327144,-7.551920817142433e-06,0.5447643854327144,4.749792220197175e-05,0.5447643854327144,-1.4938080326856972e-05,0.5447643854327144,-1.9637880326856976e-05
0.5455585026126455,-6.2112611734756384e-06,0.5455585026126455,4.112709551136604e-05,0.5455585026126455,-1.5777274297899347e-05,0.5455585026126455,-1.4270564693902552e-05
0.5463526197925765,-5.036042620793563e-06,0.5463526197925765,3.172800100465656e-05,0.5463526197925765,-1.8294394349810176e-05,0.5463526197925765,-1.42672e-05
0.5471467369725076,-1.1243842681108714e-05,0.5471467369725076,3.273026637910875e-05,0.5471467369725076,-1.7120989240936564e-05,0.5471467369725076,-1.6951910344290013e-05
0.5479408541524387,-9.567718316968854e-06,0.5479408541524387,3.541570668991084e-05,0.5479408541524387,-1.7624107495173928e-05,0.5479408541524387,-1.3260778301372596e-05
0.5487349713323698,-8.560346361675483e-06,0.5487349713323698,3.205932120558494e-05,0.5487349713323698,-1.3595945446701926e-05,0.5487349713323698,-9.56754332578238e-06
0.5495290885123009,-8.224460498827143e-06,0.5495290885123009,1.8294403983936972e-05,0.5495290885123009,-1.493852524885689e-05,0.5495290885123009,-6.881408870939623e-06
0.5503232056922319,-6.88316162078987e-06,0.5503232056922319,7.563953026266719e-06,0.5503232056922319,-1.426787081539058e-05,0.5503232056922319,-3.192829464665613e-06
0.551117322872163,-9.061999143544711e-06,0.551117322872163,-9.552809426750156e-06,0.551117322872163,-1.627968227847691e-05,0.551117322872163,-4.530784860846e-06
0.551911440052094,-8.896128371858956e-06,0.551911440052094,-2.3824538434302235e-05,0.551911440052094,-1.3597693949743286e-05,0.551911440052094,-6.209236288462687e-06
0.5527055572320251,-5.540901994000693e-06,0.5527055572320251,-3.6416280008556345e-05,0.5527055572320251,-1.0408478377013748e-05,0.5527055572320251,-7.216958398453938e-06
0.5534996744119562,-4.3645618005944605e-06,0.5534996744119562,-7.299939543492748e-05,0.5534996744119562,-9.064410645653232e-06,0.5534996744119562,-7.21752e-06
0.5542937915918873,-3.1894483967605595e-06,0.5542937915918873,-0.0001253692543563,0.5542937915918873,-9.56727782883485e-06,0.5542937915918873,-9.231181317964192e-06
0.5550879087718184,-1.1751714254452528e-06,0.5550879087718184,-0.0001324321899764,0.5550879087718184,-1.0238722859333884e-05,0.5550879087718184,-1.2588314292073548e-05
0.5558820259517494,-3.524851944590124e-06,0.5558820259517494,-7.670542124539252e-05,0.5558820259517494,-8.224664861148461e-06,0.5558820259517494,-1.4435043889180249e-05
0.5566761431316805,-4.195504730890244e-06,0.5566761431316805,-2.5346227469418224e-05,0.5566761431316805,-9.903402196887714e-06,0.5566761431316805,-1.5778071986200936e-05
0.5574702603116115,-1.715971089941078e-07,0.5574702603116115,-3.104679015388106e-05,0.5574702603116115,-1.1580038280553251e-05,0.5574702603116115,-1.7287094405976643e-05
0.5582643774915427,-1.67849e-07,0.5582643774915427,-2.501423749320441e-05,0.5582643774915427,-1.15816e-05,0.5582643774915427,-2.030743125339779e-05
0.5590584946714737,-1.845271751406364e-06,0.5590584946714737,3.6384202082761775e-05,0.5590584946714737,-1.4265490793085534e-05,0.5590584946714737,-2.1651745396542768e-05
0.5598526118514048,-2.349643838507373e-06,0.5598526118514048,8.3062589132787e-05,0.5598526118514048,-1.6615951246367743e-05,0.5598526118514048,-2.2323571833561716e-05
0.5606467290313358,-8.397615380185407e-07,0.5606467290313358,0.0001025493552613,0.5606467290313358,-1.7623856306622558e-05,0.5606467290313358,-2.2995070871081704e-05
0.5614408462112669,-2.349597405507686e-06,0.5614408462112669,9.91995502319343e-05,0.5614408462112669,-1.695293004251309e-05,0.5614408462112669,-2.114935760722656e-05
0.5622349633911979,-3.3569335662991085e-06,0.5622349633911979,0.000105240721418,0.5622349633911979,-1.7624169043892026e-05,0.5622349633911979,-1.8295731561153547e-05
0.563029080571129,-4.868140331450189e-06,0.563029080571129,9.88603761592867e-05,0.563029080571129,-1.5106280927019558e-05,0.563029080571129,-1.561e-05
0.5638231977510602,-9.898018615762171e-06,0.5638231977510602,7.102831705938444e-05,0.5638231977510602,-1.3932685612930078e-05,0.5638231977510602,-1.561e-05
0.5646173149309912,-9.9031e-06,0.5646173149309912,3.980723675811848e-05,0.5646173149309912,-1.4266910355584089e-05,0.5646173149309912,-1.3262127510911394e-05
0.5654114321109223,-7.554900694188984e-06,0.5654114321109223,1.6633666912199034e-05,0.5654114321109223,-1.4938119797573286e-05,0.5654114321109223,-1.2924640101213355e-05
0.5662055492908533,-6.2111822320430105e-06,0.5662055492908533,-1.1565593183861163e-05,0.5662055492908533,-1.5609618883978498e-05,0.5662055492908533,-8.562787248463346e-06
0.5669996664707844,-9.565999856119134e-06,0.5669996664707844,-5.117736033665087e-05,0.5669996664707844,-1.4938882029616296e-05,0.5669996664707844,-1.090921290054358e-05
0.5677937836507154,-6.211334713331115e-06,0.5677937836507154,-8.542596992347769e-05,0.5677937836507154,-1.3596165886422366e-05,0.5677937836507154,-1.4266285283944084e-05
0.5685879008306466,-4.53213964076572e-06,0.5685879008306466,-0.0001089310650492,0.5685879008306466,-1.292448385680588e-05,0.5685879008306466,-1.1246277355626468e-05
0.5693820180105776,-5.874674311429137e-06,0.5693820180105776,-0.0001211869048206,0.5693820180105776,-1.5274292385200385e-05,0.5693820180105776,-1.0910230459198465e-05
0.5701761351905087,-3.8609296010370245e-06,0.5701761351905087,-0.000116990486276,0.5701761351905087,-1.4938428741683911e-05,0.5701761351905087,-1.2253456688842895e-05
