X [s].2,L DELTOID ANTERIOR: EMG 3 [V],X [s].3,L BICEPS BRACHII: EMG 4 [V],X [s].4,L DELTOID POSTERIOR: EMG 5 [V],X [s].7,L DELTOID MEDIUS: EMG 8 [V]
0.0,-8.22461e-06,0.0,-1.35958e-05,0.0,-2.85344e-06,0.0,-1.59457e-05
0.000794117179931,-7.049671213335786e-06,0.000794117179931,-1.1078102599975753e-05,0.000794117179931,2.635226983984756e-05,0.000794117179931,-1.9638396186626506e-05
0.0015882343598621,-6.881821192130604e-06,0.0015882343598621,-1.0910201192485722e-05,0.0015882343598621,5.085812594964203e-05,0.0015882343598621,-1.930270238426121e-05
0.0023823515397932,-3.860529349080012e-06,0.0023823515397932,-1.3260100650919989e-05,0.0023823515397932,3.944453621007382e-05,0.0023823515397932,-1.963839283988013e-05
0.0031764687197242,-3.524830541213618e-06,0.0031764687197242,-1.3595799458786382e-05,0.0031764687197242,6.5461730387411e-06,0.0031764687197242,-1.5945705953349798e-05
0.0039705858996553,-6.0425569999474495e-06,0.0039705858996553,-1.1245912133430572e-05,0.0039705858996553,-1.9134667399608557e-05,0.0039705858996553,-1.2588717333472248e-05
0.0047647030795864,-5.035488776355348e-06,0.0047647030795864,-1.0238808776442491e-05,0.0047647030795864,-4.112290838144129e-05,0.0047647030795864,-1.1078113164228012e-05
0.0055588202595174,-5.874720109706371e-06,0.0055588202595174,-1.1581599835456783e-05,0.0055588202595174,-6.529340197468199e-05,0.0055588202595174,-1.0574502303833778e-05
0.0063529374394485,-6.210418917572764e-06,0.0063529374394485,-1.1078101623479635e-05,0.0063529374394485,-7.133588051663219e-05,0.0063529374394485,-1.7624177269028042e-05
0.0071470546193796,-2.8534627454729173e-06,0.0071470546193796,-1.2924387490254144e-05,0.0071470546193796,-4.850855466945975e-05,0.0071470546193796,-2.299526360770407e-05
0.0079411717993107,-4.867609199936572e-06,0.0079411717993107,-1.3595793066611102e-05,0.0079411717993107,-2.6520427066937417e-05,0.0079411717993107,-1.4938683199634109e-05
0.0087352889792417,-4.531930431512682e-06,0.0087352889792417,-1.4938598273949274e-05,0.0087352889792417,-2.030980798292033e-05,0.0087352889792417,-9.567416904190048e-06
0.0095294061591728,-5.203326752718292e-06,0.0095294061591728,-1.4602901623640857e-05,0.0095294061591728,-1.8967006494563415e-05,0.0095294061591728,-1.3092182952061223e-05
0.0103235233391039,-2.853479465451896e-06,0.0103235233391039,-1.3595839465745802e-05,0.0103235233391039,-1.8966827335892586e-05,0.0103235233391039,-1.3595859198618704e-05
0.0111176405190349,-4.196315634342782e-06,0.0111176405190349,-1.4938497238176437e-05,0.0111176405190349,-1.3091951661987513e-05,0.0111176405190349,-1.5610008560934366e-05
0.011911757698966,-5.874630599518434e-06,0.011911757698966,-1.292450728121703e-05,0.011911757698966,-8.224869259745406e-06,0.011911757698966,-1.5777791062561703e-05
0.0127058748788971,-7.721011591300486e-06,0.0127058748788971,-1.2588710619763548e-05,0.0127058748788971,-1.0910115042207964e-05,0.0127058748788971,-1.1581732745462611e-05
0.0134999920588282,-8.22460496449106e-06,0.0134999920588282,-1.2253003357072628e-05,0.0134999920588282,-1.930261607318432e-05,0.0134999920588282,-1.2252993285854745e-05
0.0142941092387592,-8.560267038431457e-06,0.0142941092387592,-1.174939023653598e-05,0.0142941092387592,-2.8702172660671948e-05,0.0142941092387592,-1.35958e-05
0.0150882264186903,-4.867697001085242e-06,0.0150882264186903,-1.0910183251308754e-05,0.0150882264186903,-2.6352165997164227e-05,0.0150882264186903,-1.35958e-05
0.0158823435986214,-6.88167695908746e-06,0.0158823435986214,-1.0406735756854847e-05,0.0158823435986214,-2.2324186083245413e-05,0.0158823435986214,-1.35958e-05
0.0166764607785524,-9.567277355840275e-06,0.0166764607785524,-1.0238808292760404e-05,0.0166764607785524,-2.16526331562243e-05,0.0166764607785524,-1.426716683883659e-05
0.0174705779584835,-8.224647271563131e-06,0.0174705779584835,-1.2252944092655302e-05,0.0174705779584835,-2.2995262731212528e-05,0.0174705779584835,-1.2253055907344697e-05
0.0182646951384146,-6.210432331137947e-06,0.0182646951384146,-1.6281375337601662e-05,0.0182646951384146,-2.4338091779200555e-05,0.0182646951384146,-1.2253e-05
0.0190588123183456,-9.23171e-06,0.0190588123183456,-1.3260063547562593e-05,0.0190588123183456,-2.5680889585017884e-05,0.0190588123183456,-1.0910205207491056e-05
0.0198529294982767,-9.23163518870048e-06,0.0198529294982767,-1.0910112720088657e-05,0.0198529294982767,-2.50095e-05,0.0198529294982767,-1.1245868830327548e-05
0.0206470466782078,-7.217655230698265e-06,0.0206470466782078,-8.560467769259875e-06,0.0206470466782078,-2.50095e-05,0.0206470466782078,-1.0406756343047073e-05
0.0214411638581389,-5.53910639308957e-06,0.0214411638581389,-8.22462527870894e-06,0.0214411638581389,-2.83663472129106e-05,0.0214411638581389,-1.091017708421224e-05
0.0222352810380699,-6.210403968202748e-06,0.0222352810380699,-8.895993967963963e-06,0.0222352810380699,-2.9205779958761028e-05,0.0222352810380699,-1.09102e-05
0.023029398218001,-5.539031506631754e-06,0.023029398218001,-6.881824519940143e-06,0.023029398218001,-2.1652616949747483e-05,0.023029398218001,-1.64491875702151e-05
0.0238235153979321,-7.553206981272354e-06,0.0238235153979321,-1.057454556554676e-05,0.0238235153979321,-4.195852458255611e-06,0.0238235153979321,-1.76242e-05
0.0246176325778631,-6.8817236081655405e-06,0.0246176325778631,-1.292445508128266e-05,0.0246176325778631,1.527470622240864e-05,0.0246176325778631,-1.762439278038734e-05
0.0254117497577942,-4.532078657336748e-06,0.0254117497577942,-1.4267115052588935e-05,0.0254117497577942,2.5176773516006477e-05,0.0254117497577942,-2.2323602690387417e-05
0.0262058669377253,-5.035459034745736e-06,0.0262058669377253,-1.309224892100836e-05,0.0262058669377253,1.594608436091309e-05,0.0262058669377253,-2.1988313972672687e-05
0.0269999841176564,-4.196246785363136e-06,0.0269999841176564,-1.3595789927782097e-05,0.0269999841176564,8.395481356164282e-07,0.0269999841176564,-1.5610127568759834e-05
0.0277941012975874,-4.867631097091334e-06,0.0277941012975874,-1.5274299451454332e-05,0.0277941012975874,-9.567420970897e-06,0.0277941012975874,-1.02388e-05
0.0285882184775185,-5.53903e-06,0.0285882184775185,-1.4938521897469482e-05,0.0285882184775185,-1.6281415620506102e-05,0.0285882184775185,-1.02388e-05
0.0293823356574496,-5.53903e-06,0.0293823356574496,-1.1581871969203796e-05,0.0293823356574496,-1.695274560615924e-05,0.0293823356574496,-1.02388e-05
0.0301764528373806,-5.53903e-06,0.0301764528373806,-9.90319968827166e-06,0.0301764528373806,-1.69528e-05,0.0301764528373806,-9.56744987471475e-06
0.0309705700173117,-6.881769300523921e-06,0.0309705700173117,-1.3092079589735431e-05,0.0309705700173117,-1.2588864774524353e-05,0.0309705700173117,-1.0238774650450744e-05
0.0317646871972428,-6.88182e-06,0.0317646871972428,-1.1917318942147593e-05,0.0317646871972428,-1.3595783763182531e-05,0.0317646871972428,-1.0406697293057638e-05
0.0325588043771738,-7.049670925209215e-06,0.0325588043771738,-1.1245905551255294e-05,0.0325588043771738,-1.8966990747907845e-05,0.0325588043771738,-8.22461e-06
0.0333529215571049,-7.217515444019051e-06,0.0333529215571049,-1.2252981776076209e-05,0.0333529215571049,-1.7288563783733275e-05,0.0333529215571049,-8.224701119347532e-06
0.034147038737036,-7.049682947605769e-06,0.034147038737036,-1.1581651790423076e-05,0.034147038737036,-1.963821873351924e-05,0.034147038737036,-1.1581341048656e-05
0.0349411559169671,-7.217510682109217e-06,0.0349411559169671,-1.091023727156313e-05,0.0349411559169671,-2.198816954952904e-05,0.0349411559169671,-1.2924325456873737e-05
0.0357352730968981,-9.567330388704266e-06,0.0357352730968981,-1.2924331761456123e-05,0.0357352730968981,-1.8967102357815813e-05,0.0357352730968981,-1.6281286269093542e-05
0.0365293902768292,-6.881852883075341e-06,0.0365293902768292,-1.4602879448001384e-05,0.0365293902768292,-1.7288520551998612e-05,0.0365293902768292,-1.6617095889600276e-05
0.0373235074567603,-5.539052065850554e-06,0.0373235074567603,-1.561001576145597e-05,0.0373235074567603,-1.4938618913747163e-05,0.0373235074567603,-1.7624203152291192e-05
0.0381176246366913,-7.88890479347484e-06,0.0381176246366913,-1.728846875898779e-05,0.0381176246366913,-1.695284165468295e-05,0.0381176246366913,-1.7959847931646317e-05
0.0389117418166224,-7.721082296018744e-06,0.0389117418166224,-1.6281473780508094e-05,0.0389117418166224,-1.829550162598921e-05,0.0389117418166224,-1.6281522967513487e-05
0.0397058589965535,-5.539142669890869e-06,0.0397058589965535,-1.5945717333908803e-05,0.0397058589965535,-1.963833066436479e-05,0.0397058589965535,-1.7624130664364788e-05
0.0404999761764846,-7.721004537383765e-06,0.0404999761764846,-1.0910351068268246e-05,0.0404999761764846,-1.76242604273073e-05,0.0404999761764846,-2.0309719430256937e-05
0.0412940933564156,-8.896000170239302e-06,0.0412940933564156,-1.09102e-05,0.0412940933564156,-1.59457140426348e-05,0.0412940933564156,-1.7959919659688723e-05
0.0420882105363467,-5.203343360676704e-06,0.0420882105363467,-1.02387554642341e-05,0.0420882105363467,-1.9302704453603123e-05,0.0420882105363467,-1.7288451010365642e-05
0.0428823277162778,-6.210328340199222e-06,0.0428823277162778,-6.8821255338827895e-06,0.0428823277162778,-1.963836944642969e-05,0.0428823277162778,-1.3596136089273388e-05
0.0436764448962088,-8.224470232332154e-06,0.0436764448962088,-6.210466589453921e-06,0.0436764448962088,-2.4337773880761707e-05,0.0436764448962088,-1.426715341054608e-05
0.0444705620761399,-6.881884127666578e-06,0.0444705620761399,-1.0238607616522692e-05,0.0444705620761399,-2.534515190389189e-05,0.0444705620761399,-1.2588780160180187e-05
0.045264679256071,-6.210437538690236e-06,0.045264679256071,-1.0910182461309764e-05,0.045264679256071,-1.7624401692325442e-05,0.045264679256071,-1.1581626308035351e-05
0.046058796436002,-4.867636026571897e-06,0.046058796436002,-1.1245898493345803e-05,0.046058796436002,-1.393151657319614e-05,0.046058796436002,-1.4099288700317946e-05
0.0468529136159331,-2.517757265764448e-06,0.0468529136159331,-1.3595846042495708e-05,0.0468529136159331,-9.231592016619076e-06,0.0468529136159331,-1.594568273406411e-05
0.0476470307958642,-3.524742245286975e-06,0.0476470307958642,-1.6281165985108283e-05,0.0476470307958642,-2.350489660545922e-06,0.0476470307958642,-1.4938687755584396e-05
0.0484411479757953,-3.692669003572903e-06,0.0484411479757953,-1.443512096397374e-05,0.0484411479757953,-1.678533985708389e-06,0.0484411479757953,-1.5609956014291612e-05
0.0492352651557263,-4.364050539673451e-06,0.0492352651557263,-1.2588781013704063e-05,0.0492352651557263,-3.0212310793469017e-06,0.0492352651557263,-1.5274314730163274e-05
0.0500293823356574,-3.0213198696669734e-06,0.0500293823356574,-1.2924392532527645e-05,0.0500293823356574,-5.035435195388317e-06,0.0500293823356574,-1.3595837337361772e-05
0.0508234995155885,-4.867628873708226e-06,0.0508234995155885,-1.29244e-05,0.0508234995155885,-1.8295591911151756e-05,0.0508234995155885,-1.5777798668951193e-05
0.0516176166955195,-6.546134114041619e-06,0.0516176166955195,-1.2253e-05,0.0516176166955195,-2.970927177191676e-05,0.0516176166955195,-1.661701178618879e-05
0.0524117338754506,-7.21746409969475e-06,0.0524117338754506,-1.2253e-05,0.0524117338754506,-2.8366611800610497e-05,0.0524117338754506,-1.2421149381070773e-05
0.0532058510553817,-3.860736909197934e-06,0.0532058510553817,-1.2924358618037142e-05,0.0532058510553817,-1.6282144869167902e-05,0.0532058510553817,-1.3931406887501805e-05
0.0539999682353128,-5.203276286837965e-06,0.0539999682353128,-1.0910280569743053e-05,0.0539999682353128,-9.231991993700676e-06,0.0539999682353128,-9.064054709812367e-06
0.0547940854152438,-5.539023834400414e-06,0.0547940854152438,-1.09102e-05,0.0547940854152438,-1.5107818082394842e-06,0.0547940854152438,-6.881860076213644e-06
0.0555882025951749,-4.3640772576170096e-06,0.0555882025951749,-8.896011096953196e-06,0.0555882025951749,-8.39259163386071e-07,0.0555882025951749,-7.5532265816865e-06
0.056382319775106,-3.524914775550588e-06,0.056382319775106,-9.231676089779766e-06,0.056382319775106,-4.867223078973394e-06,0.056382319775106,-9.567206539688725e-06
0.057176436955037,-5.538870089202485e-06,0.057176436955037,-1.1581413438196814e-05,0.057176436955037,-7.888670135391561e-06,0.057176436955037,-1.3763266857268678e-05
0.0579705541349681,-6.88174244414292e-06,0.0579705541349681,-1.3595683665348022e-05,0.0579705541349681,-4.532123889931485e-06,0.0579705541349681,-1.6281254578797166e-05
0.0587646713148992,-6.88182e-06,0.0587646713148992,-1.5609927241493527e-05,0.0587646713148992,5.202978335330277e-06,0.0587646713148992,-1.8295527241493527e-05
0.0595587884948302,-7.888895408964415e-06,0.0595587884948302,-1.4267219454907293e-05,0.0595587884948302,1.2924288134717715e-05,0.0595587884948302,-1.7959904863726823e-05
0.0603529056747613,-6.21042e-06,0.0603529056747613,-1.5609990405351856e-05,0.0603529056747613,9.903061621621776e-06,0.0603529056747613,-1.4938602398662037e-05
0.0611470228546924,-6.21042e-06,0.0611470228546924,-1.426733043404558e-05,0.0611470228546924,4.532451733268242e-06,0.0611470228546924,-1.5274267391488606e-05
0.0619411400346235,-4.364219423842391e-06,0.0619411400346235,-1.2924501399707291e-05,0.0619411400346235,3.860580699853646e-06,0.0619411400346235,-1.628132395021953e-05
0.0627352572145545,-7.720889128179787e-06,0.0627352572145545,-1.15816723489436e-05,0.0627352572145545,-3.0209192132804207e-06,0.0627352572145545,-1.5610036174471802e-05
0.0635293743944856,-6.881847061362443e-06,0.0635293743944856,-1.292435670182009e-05,0.0635293743944856,-1.3259769852667978e-05,0.0635293743944856,-1.9638270105460277e-05
0.0643234915744167,-8.89598862898174e-06,0.0643234915744167,-1.107811958966682e-05,0.0643234915744167,-1.6952760819605338e-05,0.0643234915744167,-2.064548931443782e-05
0.0651176087543477,-4.867622599258241e-06,0.0651176087543477,-1.2253e-05,0.0651176087543477,-2.1988288898887364e-05,0.0651176087543477,-1.6617059295920327e-05
0.0659117259342788,-4.196292613605115e-06,0.0659117259342788,-1.2253e-05,0.0659117259342788,-2.0981293920407677e-05,0.0659117259342788,-1.2924744374828133e-05
0.0667058431142099,-6.881627616283919e-06,0.0667058431142099,-1.359570380778378e-05,0.0667058431142099,-1.963849619221622e-05,0.0667058431142099,-1.3595751903891893e-05
0.067499960294141,-5.874770356089413e-06,0.067499960294141,-1.2924433570726276e-05,0.067499960294141,-2.1148924468365932e-05,0.067499960294141,-1.5609899287821177e-05
0.068294077474072,-6.881791431983356e-06,0.068294077474072,-1.1917328568016644e-05,0.068294077474072,-3.2562476229144706e-05,0.068294077474072,-1.4602928568016644e-05
0.0690881946540031,-8.224600960142131e-06,0.0690881946540031,-1.326009096007481e-05,0.0690881946540031,-4.599060960142132e-05,0.0690881946540031,-1.628138870009351e-05
0.0698823118339342,-4.1966772002216985e-06,0.0698823118339342,-1.3595762733129835e-05,0.0698823118339342,-5.270395466259675e-05,0.0698823118339342,-1.62814e-05
0.0706764290138652,-7.2172499210439875e-06,0.0706764290138652,-1.225312003548886e-05,0.0706764290138652,-5.1865475026650135e-05,0.0706764290138652,-1.6617069991127786e-05
0.0714705461937963,-7.721035880728062e-06,0.0714705461937963,-1.3595709015274832e-05,0.0714705461937963,-4.280221414011913e-05,0.0714705461937963,-1.7624131761456125e-05
0.0722646633737274,-5.539130642226206e-06,0.0722646633737274,-1.35958e-05,0.0722646633737274,-2.7695796757066856e-05,0.0722646633737274,-1.5777885161503212e-05
0.0730587805536585,-4.867646441598892e-06,0.0730587805536585,-1.3763595890824704e-05,0.0730587805536585,-2.030998085513896e-05,0.0730587805536585,-1.7288463005178066e-05
0.0738528977335895,-4.86763e-06,0.0738528977335895,-1.359580047891156e-05,0.0738528977335895,-2.316319185622021e-05,0.0738528977335895,-1.695280095810853e-05
0.0746470149135206,-5.203294034838679e-06,0.0746470149135206,-1.0574823686451898e-05,0.0746470149135206,-2.970859868471096e-05,0.0746470149135206,-1.3931823686451898e-05
0.0754411320934517,-4.531987413998904e-06,0.0754411320934517,-9.567496120143216e-06,0.0754411320934517,-2.299587413998904e-05,0.0754411320934517,-1.2588814827997808e-05
0.0762352492733827,-3.524894332925587e-06,0.0762352492733827,-9.56741e-06,0.0762352492733827,-1.292504332286793e-05,0.0762352492733827,-1.3763524948114116e-05
0.0770293664533138,-2.853468362812763e-06,0.0770293664533138,-1.0910143273952024e-05,0.0770293664533138,5.029807374924921e-07,0.0770293664533138,-1.560992199899092e-05
0.0778234836332449,-4.196202324499348e-06,0.0778234836332449,-1.1917279243219932e-05,0.0778234836332449,2.4673301840328735e-05,0.0778234836332449,-1.5106410379420556e-05
0.078617600813176,-5.53903e-06,0.078617600813176,-1.4267199312558088e-05,0.078617600813176,3.57519030934886e-05,0.078617600813176,-1.2252994844206146e-05
0.079411717993107,-5.53903e-06,0.079411717993107,-1.3595869326904965e-05,0.079411717993107,3.877288802892766e-05,0.079411717993107,-7.21803994972208e-06
0.0802058351730381,-6.881710380309624e-06,0.0802058351730381,-1.35958e-05,0.0802058351730381,4.011589037949327e-05,0.0802058351730381,-6.881847405126683e-06
0.0809999523529692,-7.553179715128467e-06,0.0809999523529692,-1.4267159715128468e-05,0.0809999523529692,2.635312583986641e-05,0.0809999523529692,-5.0355907827967e-06
0.0817940695329002,-4.196358797064706e-06,0.0817940695329002,-1.42672e-05,0.0817940695329002,1.2421334507492411e-05,0.0817940695329002,-2.3499930375750308e-06
0.0825881867128313,-5.539007531784319e-06,0.0825881867128313,-1.2588728085269604e-05,0.0825881867128313,2.1822113186386576e-06,0.0825881867128313,-4.867587872262921e-06
0.0833823038927624,-3.8607331176004616e-06,0.0833823038927624,-1.2924359376479908e-05,0.0833823038927624,-8.22335067692771e-06,0.0833823038927624,-7.385065324809422e-06
0.0841764210726934,-5.203196536220627e-06,0.0841764210726934,-1.393139990216547e-05,0.0841764210726934,-1.023859980532486e-05,0.0841764210726934,-1.3595182732008242e-05
0.0849705382526245,-4.867656103253915e-06,0.0849705382526245,-1.2253130516269571e-05,0.0849705382526245,-1.2252843380476512e-05,0.0849705382526245,-1.963793014142954e-05
0.0857646554325556,-4.86763e-06,0.0857646554325556,-1.1245956521688992e-05,0.0857646554325556,-1.762389855099204e-05,0.0857646554325556,-2.1820277539146675e-05
0.0865587726124866,-6.546062110984485e-06,0.0865587726124866,-1.5274161065535034e-05,0.0865587726124866,-1.896695368851168e-05,0.0865587726124866,-2.635214370045135e-05
0.0873528897924177,-6.2104243151811576e-06,0.0873528897924177,-1.2924430206268105e-05,0.0873528897924177,-2.4002335273568065e-05,0.0873528897924177,-2.9373561163369585e-05
0.0881470069723488,-4.196465929696174e-06,0.0881470069723488,-1.2588739321811253e-05,0.0881470069723488,-3.373655966747369e-05,0.0881470069723488,-2.501001118354628e-05
0.0889411241522799,-3.189236191261083e-06,0.0889411241522799,-1.0071240475764856e-05,0.0889411241522799,-4.313640220598191e-05,0.0889411241522799,-1.7624905400034235e-05
0.0897352413322109,-4.196155596595324e-06,0.0897352413322109,-8.22474641055155e-06,0.0897352413322109,-4.867589078090488e-05,0.0897352413322109,-1.3763885219577292e-05
0.090529358512142,-6.881679691000573e-06,0.090529358512142,-8.22461e-06,0.090529358512142,-5.79075176886308e-05,0.090529358512142,-1.4267173689352391e-05
0.0913234756920731,-5.874750827997936e-06,0.0913234756920731,-1.091011779231161e-05,0.0913234756920731,-5.455110275999312e-05,0.0913234756920731,-1.42672e-05
0.0921175928720041,-5.87472e-06,0.0921175928720041,-1.3595775893532889e-05,0.0921175928720041,-3.860544313169967e-05,0.0921175928720041,-1.0238836159700664e-05
0.0929117100519352,-9.902643761036182e-06,0.0929117100519352,-1.2924476040204824e-05,0.0929117100519352,-2.9038983567255923e-05,0.0929117100519352,-1.0910123959795176e-05
0.0937058272318663,-8.56043304788089e-06,0.0937058272318663,-1.3595738475601376e-05,0.0937058272318663,-2.8702230762199318e-05,0.0937058272318663,-1.0406746138717169e-05
0.0944999444117974,-7.553290497825151e-06,0.0944999444117974,-1.7623918005899332e-05,0.0944999444117974,-4.749998403453037e-05,0.0944999444117974,-1.5106071013882706e-05
0.0952940615917284,-7.55322e-06,0.0952940615917284,-1.6281464947269886e-05,0.0952940615917284,-6.999201213806608e-05,0.0952940615917284,-1.2924505536895217e-05
0.0960881787716595,-7.888901026140778e-06,0.0960881787716595,-1.3092285255538845e-05,0.0960881787716595,-6.025816024699666e-05,0.0960881787716595,-1.0910253844759292e-05
0.0968822959515906,-8.224566019829978e-06,0.0968822959515906,-1.2924421983534494e-05,0.0968822959515906,-3.055249222539542e-05,0.0968822959515906,-1.09102e-05
0.0976764131315216,-6.210640337010873e-06,0.0976764131315216,-1.2253073446034932e-05,0.0976764131315216,3.856765903836804e-06,0.0976764131315216,-9.735388529467207e-06
0.0984705303114527,-8.39226850875501e-06,0.0984705303114527,-1.1581658920653097e-05,0.0984705303114527,3.7427453978753616e-05,0.0984705303114527,-1.3931131746795716e-05
0.0992646474913838,-6.210564283970336e-06,0.0992646474913838,-1.1917277802364374e-05,0.0992646474913838,6.797688002838271e-05,0.0992646474913838,-1.2924466592906878e-05
0.1000587646713148,-5.035828101580361e-06,0.1000587646713148,-1.19173e-05,0.1000587646713148,7.771131570521448e-05,0.1000587646713148,-1.359560108311824e-05
0.1008528818512459,-6.545895213811349e-06,0.1008528818512459,-1.2588600094365925e-05,0.1008528818512459,6.193874776752058e-05,0.1008528818512459,-1.7959250613378508e-05
0.101646999031177,-6.378270204807223e-06,0.101646999031177,-1.1581601228843336e-05,0.101646999031177,3.340203481710586e-05,0.101646999031177,-1.8295599590385554e-05
0.1024411162111081,-7.049645433205927e-06,0.1024411162111081,-1.1246440469469613e-05,0.1024411162111081,4.864804836244963e-06,0.1024411162111081,-2.030950519847112e-05
0.1032352333910391,-6.88122794219493e-06,0.1032352333910391,-1.493869867679075e-05,0.1032352333910391,-1.4439193748909726e-05,0.1032352333910391,-1.82936757878832e-05
0.1040293505709702,-4.868518196908899e-06,0.1040293505709702,-1.5272671630915907e-05,0.1040293505709702,-2.870738117435848e-05,0.1040293505709702,-1.1746217313885944e-05
0.1048234677509013,-6.8804715084124805e-06,0.1048234677509013,-1.1584072246851205e-05,0.1048234677509013,-4.044383376001889e-05,0.1048234677509013,-4.5367620652858815e-06
0.1056175849308323,-7.552869020857506e-06,0.1056175849308323,-1.15816e-05,0.1056175849308323,-4.3806945104287535e-05,0.1056175849308323,-3.5253564687137407e-06
0.1064117021107634,-4.533063513566086e-06,0.1064117021107634,-1.0239303785474594e-05,0.1064117021107634,-3.944623730279244e-05,0.1064117021107634,-2.182543781722841e-06
0.1072058192906945,-3.525059209498152e-06,0.1072058192906945,-8.896315610388267e-06,0.1072058192906945,-3.441024604749076e-05,0.1072058192906945,-6.377314964976237e-06
0.1079999364706256,-3.18916685916334e-06,0.1079999364706256,-1.560946280153095e-05,0.1079999364706256,-3.776583140036541e-05,0.1079999364706256,-1.5609261352605128e-05
0.1087940536505566,-2.1822668317156364e-06,0.1087940536505566,-1.4938327801130397e-05,0.1087940536505566,-4.078730926704347e-05,0.1087940536505566,-1.6281422683239133e-05
0.1095881708304877,-5.539752260114282e-06,0.1095881708304877,-1.0909622190617665e-05,0.1095881708304877,-3.944254155716824e-05,0.1095881708304877,-1.6617677811533853e-05
0.1103822880104188,-8.896253539288659e-06,0.1103822880104188,-8.225340614238642e-06,0.1103822880104188,-2.987397312256194e-05,0.1103822880104188,-1.930306530893299e-05
0.1111764051903498,-9.56638342094235e-06,0.1111764051903498,-1.023965548679532e-05,0.1111764051903498,-2.0976751468664337e-05,0.1111764051903498,-2.031056991263212e-05
0.1119705223702809,-7.554430109438767e-06,0.1119705223702809,-1.1916291570461093e-05,0.1119705223702809,-1.2258243833602317e-05,0.1119705223702809,-2.1819492443454587e-05
0.112764639550212,-6.882124793435324e-06,0.112764639550212,-8.561833962636948e-06,0.112764639550212,-5.5420779207342245e-06,0.112764639550212,-2.0310485762531128e-05
0.1135587567301431,-5.539441410996403e-06,0.1135587567301431,-8.895907146484936e-06,0.1135587567301431,8.372917905670349e-07,0.1135587567301431,-2.064539714648494e-05
0.1143528739100741,-6.881606760338148e-06,0.1143528739100741,-8.89601e-06,0.1143528739100741,3.524403520041083e-06,0.1143528739100741,-1.913503990434629e-05
0.1151469910900052,-9.56737986323318e-06,0.1151469910900052,-1.0238784931672698e-05,0.1151469910900052,-4.196143356921641e-06,0.1151469910900052,-1.8631305650103736e-05
0.1159411082699363,-1.0574454223907282e-05,0.1159411082699363,-1.0910383104370876e-05,0.1159411082699363,-1.3932117970433696e-05,0.1159411082699363,-1.6952616895629126e-05
0.1167352254498673,-1.023794213202104e-05,0.1167352254498673,-1.2252809361409375e-05,0.1167352254498673,-1.846373363173068e-05,0.1167352254498673,-1.5609428084228136e-05
0.1175293426297984,-7.21737531971907e-06,0.1175293426297984,-1.158131063943814e-05,0.1175293426297984,-1.9634638312695813e-05,0.1175293426297984,-1.359551063943814e-05
0.1183234598097295,-6.882048102985915e-06,0.1183234598097295,-1.091065620597183e-05,0.1183234598097295,-1.0916130677633792e-05,0.1183234598097295,-1.292485620597183e-05
0.1191175769896605,-7.55286230586665e-06,0.1191175769896605,-7.890519618272486e-06,0.1191175769896605,-3.02549288475651e-06,0.1191175769896605,-1.1582315388266698e-05
0.1199116941695916,-7.721005348067957e-06,0.1199116941695916,-8.895622088407753e-06,0.1199116941695916,2.515606493946174e-06,0.1199116941695916,-1.2252741392271836e-05
0.1207058113495227,-8.727920720391496e-06,0.1207058113495227,-8.560389760661486e-06,0.1207058113495227,2.1821197606614844e-06,0.1207058113495227,-1.2253e-05
0.1214999285294538,-5.203647281518104e-06,0.1214999285294538,-9.567319347623322e-06,0.1214999285294538,-8.223673263275003e-06,0.1214999285294538,-1.0238981304753352e-05
0.1222940457093848,-7.553200674256294e-06,0.1222940457093848,-1.2253154605949644e-05,0.1222940457093848,-1.695299325743706e-05,0.1222940457093848,-1.4267257977231116e-05
0.1230881628893159,-7.217451131053702e-06,0.1230881628893159,-1.4938324524214808e-05,0.1230881628893159,-2.031066085157121e-05,0.1230881628893159,-1.52742311310537e-05
0.123882280069247,-6.88122794278287e-06,0.123882280069247,-1.359508952710666e-05,0.123882280069247,-2.4505467127693392e-05,0.123882280069247,-1.493907364859556e-05
0.124676397249178,-5.203665483176945e-06,0.124676397249178,-1.1582438720434476e-05,0.124676397249178,-2.299496451182621e-05,0.124676397249178,-1.6280896767739314e-05
0.1254705144291091,-5.87430992774791e-06,0.1254705144291091,-1.3259074804100248e-05,0.1254705144291091,-2.2324310078359905e-05,0.1254705144291091,-1.527491511753985e-05
0.1262646316090402,-7.552441228934552e-06,0.1262646316090402,-1.3595644245786907e-05,0.1262646316090402,-2.7021519441016748e-05,0.1262646316090402,-1.628093273736073e-05
0.1270587487889713,-6.882032422020995e-06,0.1270587487889713,-1.091104968808398e-05,0.1270587487889713,-3.0379637889895024e-05,0.1270587487889713,-1.6616993788989504e-05
0.1278528659689023,-6.378355001711858e-06,0.1278528659689023,-1.4602276654113042e-05,0.1278528659689023,-3.03807e-05,0.1278528659689023,-1.5610170003423717e-05
0.1286469831488334,-5.203354935906365e-06,0.1286469831488334,-1.2924435623026563e-05,0.1286469831488334,-3.306624300315749e-05,0.1286469831488334,-1.4938614249210628e-05
0.1294411003287645,-5.8748472557918725e-06,0.1294411003287645,-1.3595990877369875e-05,0.1294411003287645,-3.2059454511583744e-05,0.1294411003287645,-1.0910454511583744e-05
0.1302352175086955,-6.88149813370041e-06,0.1302352175086955,-1.5105802261997784e-05,0.1302352175086955,-3.407202057300175e-05,0.1302352175086955,-1.2925135694399062e-05
0.1310293346886266,-5.706234032670494e-06,0.1310293346886266,-1.292454132700876e-05,0.1310293346886266,-2.903535611384229e-05,0.1310293346886266,-1.5610282654017523e-05
0.1318234518685577,-4.197271546266644e-06,0.1318234518685577,-1.3259868543741917e-05,0.1318234518685577,-2.299946621264552e-05,0.1318234518685577,-1.6280937087483833e-05
0.1326175690484888,-4.5317477954378855e-06,0.1326175690484888,-1.4266653386313657e-05,0.1326175690484888,-1.292986608258742e-05,0.1326175690484888,-1.4939328818248456e-05
0.1334116862284198,-2.18296862556479e-06,0.1334116862284198,-1.527390201592147e-05,0.1334116862284198,-5.206381199413392e-06,0.1334116862284198,-1.2925195968157062e-05
0.1342058034083509,-5.03963588803819e-07,0.1342058034083509,-1.5442058453301368e-05,0.1342058034083509,-1.5271806462720348e-05,0.1342058034083509,-8.39358209264243e-06
0.134999920588282,-3.357147874771631e-07,0.134999920588282,-1.5274316782476427e-05,0.134999920588282,-3.675685121292461e-05,0.134999920588282,-4.8679825350201286e-06
0.135794037768213,-1.5107437931381351e-06,0.135794037768213,-1.4602868063503444e-05,0.135794037768213,-4.850801676679803e-05,0.135794037768213,-8.560565491496775e-06
0.1365881549481441,-3.692712755725435e-06,0.1365881549481441,-1.393182755725435e-05,0.1365881549481441,-4.0446852172150505e-05,0.1365881549481441,-1.393195858015609e-05
0.1373822721280752,-3.861450433800391e-06,0.1373822721280752,-1.561e-05,0.1373822721280752,-1.5599299951501084e-05,0.1373822721280752,-1.6281630109306924e-05
0.1381763893080062,-6.545133660008601e-06,0.1381763893080062,-1.560802731022329e-05,0.1381763893080062,1.5619370227469817e-05,0.1381763893080062,-1.6953786344888355e-05
0.1389705064879373,-4.533180348505019e-06,0.1389705064879373,-1.1584100709425436e-05,0.1389705064879373,3.473292169230617e-05,0.1389705064879373,-1.896574964528728e-05
0.1397646236678684,-2.3509242213657026e-06,0.1397646236678684,-1.15816e-05,0.1397646236678684,3.541588177658296e-05,0.1397646236678684,-1.2591723122461946e-05
0.1405587408477994,-6.209159968709555e-06,0.1405587408477994,-1.15816e-05,0.1405587408477994,1.796559752966961e-05,0.1405587408477994,-1.560901388344662e-05
0.1413528580277305,-5.539150048818615e-06,0.1413528580277305,-1.124596002530334e-05,0.1413528580277305,-7.884288067735465e-06,0.1413528580277305,-1.7959479822876627e-05
0.1421469752076616,-3.1892133743929e-06,0.1421469752076616,-1.393141614319412e-05,0.1421469752076616,-2.970861866688692e-05,0.1421469752076616,-1.8295589517899262e-05
0.1429410923875927,-6.21042e-06,0.1429410923875927,-1.3931460938898156e-05,0.1429410923875927,-3.776516253355572e-05,0.1429410923875927,-1.9302895305509227e-05
0.1437352095675237,-6.210774417217797e-06,0.1437352095675237,-1.3596331625826694e-05,0.1437352095675237,-2.9700971237612013e-05,0.1437352095675237,-2.0980136748346613e-05
0.1445293267474548,-7.552116214217293e-06,0.1445293267474548,-1.560862026263408e-05,0.1445293267474548,1.8597233949090088e-06,0.1445293267474548,-1.6951006341424304e-05
0.1453234439273859,-4.869508469247403e-06,0.1453234439273859,-1.2255348095302532e-05,0.1453234439273859,3.438632357349017e-05,0.1453234439273859,-1.2591752523893292e-05
0.146117561107317,-2.3512817099039077e-06,0.146117561107317,-1.2253e-05,0.146117561107317,3.742872994148217e-05,0.146117561107317,-1.829244544502188e-05
0.146911678287248,-3.524353938059493e-06,0.146911678287248,-1.4937511849160446e-05,0.146911678287248,1.931004497764901e-05,0.146911678287248,-2.030898388687033e-05
0.1477057954671791,-4.867284097390592e-06,0.1477057954671791,-1.628105409739059e-05,0.1477057954671791,1.0576748366961154e-05,0.1477057954671791,-1.5946824183480577e-05
0.1484999126471102,-4.196303864899497e-06,0.1484999126471102,-1.3596095459597985e-05,0.1484999126471102,3.525605578144224e-06,0.1484999126471102,-1.426738466224874e-05
0.1492940298270412,-4.196242610752833e-06,0.1492940298270412,-1.3260062167741504e-05,0.1492940298270412,-8.394603818214443e-07,0.1492940298270412,-1.2924475664516993e-05
0.1500881470069723,-4.531867846044564e-06,0.1500881470069723,-1.2253062153955435e-05,0.1500881470069723,-6.546430767925707e-06,0.1500881470069723,-1.4938972923732616e-05
0.1508822641869034,-4.197123573936936e-06,0.1508822641869034,-1.2588811697158028e-05,0.1508822641869034,-8.222822855453419e-06,0.1508822641869034,-1.6952632437626503e-05
0.1516763813668344,-6.882142075085113e-06,0.1516763813668344,-1.2922950662116988e-05,0.1516763813668344,-2.851829630330913e-06,0.1516763813668344,-1.644750912978849e-05
0.1524704985467655,-7.552796508551446e-06,0.1524704985467655,-9.905005711518492e-06,0.1524704985467655,5.01430550326336e-07,0.1524704985467655,-1.2926623298566968e-05
0.1532646157266966,-8.224285066431777e-06,0.1532646157266966,-9.064266168170209e-06,0.1532646157266966,-9.898063479843478e-06,0.1532646157266966,-1.0911174815223813e-05
0.1540587329066277,-6.882271700641564e-06,0.1540587329066277,-1.2419670760169727e-05,0.1540587329066277,-2.231972177158846e-05,0.1540587329066277,-9.903438778004095e-06
0.1548528500865587,-5.539283529306966e-06,0.1548528500865587,-1.2253031681958986e-05,0.1548528500865587,-3.071481543003097e-05,0.1548528500865587,-1.023873661720124e-05
0.1556469672664898,-6.2103923212199e-06,0.1556469672664898,-1.1245941518788545e-05,0.1556469672664898,-4.045129865171076e-05,0.1556469672664898,-8.896065357972461e-06
0.1564410844464209,-5.539244220574982e-06,0.1564410844464209,-1.4267164296393575e-05,0.1564410844464209,-4.179496413624793e-05,0.1564410844464209,-6.882034220574982e-06
0.157235201626352,-7.553560984696686e-06,0.157235201626352,-1.3931073765954924e-05,0.157235201626352,-4.61596082085172e-05,0.157235201626352,-8.896521478314717e-06
0.158029318806283,-8.895202281223603e-06,0.158029318806283,-1.2253e-05,0.158029318806283,-5.052058069303365e-05,0.158029318806283,-1.09102e-05
0.1588234359862141,-6.883248969719951e-06,0.1588234359862141,-1.2253e-05,0.1588234359862141,-4.549067244203616e-05,0.1588234359862141,-1.09102e-05
0.1596175531661451,-8.223854327415702e-06,0.1596175531661451,-1.1581977839105965e-05,0.1596175531661451,-3.44153342889721e-05,0.1596175531661451,-1.1078005512085356e-05
0.1604116703460762,-7.217938124899321e-06,0.1604116703460762,-1.0574918129051136e-05,0.1604116703460762,-3.306685750540151e-05,0.1604116703460762,-9.568037210183952e-06
0.1612057875260073,-6.546299666295548e-06,0.1612057875260073,-1.2252550834261129e-05,0.1612057875260073,-3.642240166852226e-05,0.1612057875260073,-1.4937162672311608e-05
0.1619999047059384,-7.04960956508221e-06,0.1619999047059384,-1.0910361159780776e-05,0.1619999047059384,-4.061899638168596e-05,0.1619999047059384,-2.0309155360876905e-05
0.1627940218858694,-9.56733597421636e-06,0.1627940218858694,-9.567447012754e-06,0.1627940218858694,-4.515080779428216e-05,0.1627940218858694,-2.165248896091108e-05
0.1635881390658005,-6.881467222991444e-06,0.1635881390658005,-1.0910435185840008e-05,0.1635881390658005,-2.366140835012604e-05,0.1635881390658005,-1.762443518584001e-05
0.1643822562457316,-4.867413320674811e-06,0.1643822562457316,-1.2253e-05,0.1643822562457316,6.547745088484365e-06,0.1643822562457316,-1.8967216679325188e-05
0.1651763734256627,-4.197176100925219e-06,0.1651763734256627,-1.2252369262918402e-05,0.1651763734256627,1.157158709110424e-05,0.1651763734256627,-1.963540399886241e-05
0.1659704906055937,-6.20912941242873e-06,0.1659704906055937,-1.0911060395985831e-05,0.1659704906055937,-9.721601271392226e-06,0.1659704906055937,-1.32641868809327e-05
0.1667646077855248,-5.539361648459053e-06,0.1667646077855248,-1.023913165339878e-05,0.1667646077855248,-4.446283704034734e-05,0.1667646077855248,-1.1582429133496957e-05
0.1675587249654559,-6.210187436470314e-06,0.1675587249654559,-1.02388e-05,0.1675587249654559,-4.48155837165032e-05,0.1675587249654559,-1.0910432566993596e-05
0.1683528421453869,-4.867896959188733e-06,0.1683528421453869,-1.02388e-05,0.1683528421453869,-8.231884650318566e-06,0.1683528421453869,-1.09102e-05
0.169146959325318,-5.538995605816795e-06,0.169146959325318,-1.0574482802908398e-05,0.169146959325318,3.742806120527526e-05,0.169146959325318,-7.217709166983079e-06
0.1699410765052491,-7.21781111307182e-06,0.1699410765052491,-1.426726469222198e-05,0.1699410765052491,5.82430854238912e-05,0.1699410765052491,-6.5464919831670046e-06
0.1707351936851801,-1.0238963778627165e-05,0.1707351936851801,-1.4938763778627163e-05,0.1707351936851801,5.186065044420587e-05,0.1707351936851801,-1.0406536211615396e-05
0.1715293108651112,-1.0908624801513315e-05,0.1715293108651112,-1.560973746561547e-05,0.1715293108651112,3.238833667948924e-05,0.1715293108651112,-9.733356633532654e-06
0.1723234280450423,-6.884718178506294e-06,0.1723234280450423,-1.4939083032149182e-05,0.1723234280450423,1.5622075731785555e-05,0.1723234280450423,-4.871131968692773e-06
0.1731175452249733,-7.217327722951596e-06,0.1731175452249733,-1.6951646337709578e-05,0.1731175452249733,6.048049884424222e-06,0.1731175452249733,-6.20965089753403e-06
0.1739116624049044,-4.533071866514668e-06,0.1739116624049044,-1.896614359692513e-05,0.1739116624049044,4.532572298054326e-06,0.1739116624049044,-1.3760388518232025e-05
0.1747057795848355,-3.189512759796869e-06,0.1747057795848355,-1.4604111478361857e-05,0.1747057795848355,1.1758719036561866e-06,0.1747057795848355,-1.3092386381286438e-05
0.1754998967647666,-5.035239940376805e-06,0.1754998967647666,-9.568064710309043e-06,0.1754998967647666,-6.377287937786914e-06,0.1754998967647666,-1.82949234581695e-05
0.1762940139446976,-4.196218208476048e-06,0.1762940139446976,-6.210417052119012e-06,0.1762940139446976,-1.2253100227953598e-05,0.1762940139446976,-2.0309794104238023e-05
0.1770881311246287,-3.524996316893706e-06,0.1770881311246287,-6.043373861683357e-06,0.1770881311246287,-1.7960177194822845e-05,0.1770881311246287,-1.9974266316893704e-05
0.1778822483045598,-4.5325073987921225e-06,0.1778822483045598,-1.0909885053498516e-05,0.1778822483045598,-1.964070957640492e-05,0.1778822483045598,-2.098036014266272e-05
0.1786763654844909,-6.378655827495576e-06,0.1786763654844909,-9.90294567359906e-06,0.1786763654844909,-2.7026169295971686e-05,0.1786763654844909,-1.8294674014010615e-05
0.1794704826644219,-7.216973869328462e-06,0.1794704826644219,-9.567628445761247e-06,0.1794704826644219,-3.239140476370215e-05,0.1794704826644219,-1.6282710713611692e-05
0.180264599844353,-6.881989184194824e-06,0.180264599844353,-1.0909523268260444e-05,0.180264599844353,-3.575020815805175e-05,0.180264599844353,-1.3932684289363774e-05
0.181058717024284,-6.88182e-06,0.181058717024284,-1.359484287206214e-05,0.181058717024284,-3.7429801795038834e-05,0.181058717024284,-1.661614287206214e-05
0.1818528342042151,-7.888699708719223e-06,0.1818528342042151,-1.091076078231703e-05,0.1818528342042151,-4.179358872873483e-05,0.1818528342042151,-1.8630879413262226e-05
0.1826469513841462,-6.881881663148819e-06,0.1826469513841462,-1.3259956117890743e-05,0.1826469513841462,-4.045178221834814e-05,0.1826469513841462,-1.896697944541296e-05
0.1834410685640773,-8.22446505778575e-06,0.1834410685640773,-1.4938571011384443e-05,0.1834410685640773,-3.508003618215111e-05,0.1834410685640773,-1.9638110113844445e-05
0.1842351857440083,-6.545805875066753e-06,0.1842351857440083,-1.46029e-05,0.1842351857440083,-2.9708671745454814e-05,0.1842351857440083,-1.628171412727259e-05
0.1850293029239394,-5.203713737949926e-06,0.1850293029239394,-1.460251625823971e-05,0.1850293029239394,-2.702293251647942e-05,0.1850293029239394,-1.7624711655680386e-05
0.1858234201038705,-6.209685399254045e-06,0.1858234201038705,-1.3596534608040244e-05,0.1858234201038705,-2.501096921608049e-05,0.1858234201038705,-1.8966020522613005e-05
0.1866175372838016,-5.539421263260016e-06,0.1866175372838016,-1.493781746182465e-05,0.1866175372838016,-2.50095e-05,0.1866175372838016,-1.7289478172719187e-05
0.1874116544637326,-7.887887369314966e-06,0.1874116544637326,-1.49386e-05,0.1874116544637326,-3.138502426451633e-05,0.1874116544637326,-1.72885e-05
0.1882057716436637,-5.539705831218525e-06,0.1882057716436637,-1.4267393096277306e-05,0.1882057716436637,-3.172340345186135e-05,0.1882057716436637,-1.561048274069327e-05
0.1889998888235948,-5.53903e-06,0.1889998888235948,-1.5274158985191853e-05,0.1889998888235948,-2.9373929034552347e-05,0.1889998888235948,-1.5777776504533008e-05
0.1897940060035258,-5.539050305981119e-06,0.1897940060035258,-1.4938584770400744e-05,0.1897940060035258,-2.5009474618090683e-05,0.1897940060035258,-1.460287969386766e-05
0.1905881231834569,-8.224714162938269e-06,0.1905881231834569,-1.2924139592654324e-05,0.1905881231834569,-2.1651141718864227e-05,0.1905881231834569,-1.1917039592654326e-05
0.191382240363388,-8.895095380981598e-06,0.191382240363388,-1.1245595125984785e-05,0.191382240363388,-1.2250154521300304e-05,0.191382240363388,-1.023925729588659e-05
0.192176357543319,-5.875172933178149e-06,0.192176357543319,-1.02384980490453e-05,0.192176357543319,-2.85344e-06,0.192176357543319,-1.17494e-05
0.1929704747232501,-6.881154583377647e-06,0.1929704747232501,-9.567853604474314e-06,0.1929704747232501,-2.85344e-06,0.1929704747232501,-1.17494e-05
0.1937645919031812,-5.539720161621276e-06,0.1937645919031812,-8.225300166761033e-06,0.1937645919031812,-8.892904264994622e-06,0.1937645919031812,-1.2588268620075562e-05
0.1945587090831123,-6.8813280097132745e-06,0.1945587090831123,-9.231341004537e-06,0.1945587090831123,-1.795657904449695e-05,0.1945587090831123,-1.527331601209867e-05
0.1953528262630433,-7.553073089429875e-06,0.1953528262630433,-1.1581085815192685e-05,0.1953528262630433,-2.232294510317542e-05,0.1953528262630433,-1.5609926544714937e-05
0.1961469434429744,-7.55322e-06,0.1961469434429744,-1.3595656527505178e-05,0.1961469434429744,-2.467363261542271e-05,0.1961469434429744,-1.493864782416494e-05
0.1969410606229055,-6.21036873852327e-06,0.1969410606229055,-1.4602823106639635e-05,0.1969410606229055,-2.165224116431829e-05,0.1969410606229055,-1.1245733398482722e-05
0.1977351778028366,-5.539556215780419e-06,0.1977351778028366,-1.3595499302709095e-05,0.1977351778028366,-1.695238653002836e-05,0.1977351778028366,-9.063897587161364e-06
0.1985292949827676,-7.888536321766728e-06,0.1985292949827676,-1.2252128075464589e-05,0.1985292949827676,-1.5104593889157597e-05,0.1985292949827676,-9.232581920824936e-06
0.1993234121626987,-6.882564660462574e-06,0.1993234121626987,-9.904837558332426e-06,0.1993234121626987,-1.024239919100341e-05,0.1993234121626987,-1.1579862449061754e-05
0.2001175293426297,-4.868823946307954e-06,0.2001175293426297,-1.0574102015921458e-05,0.2001175293426297,-1.5942317135332383e-05,0.2001175293426297,-1.4265608063685829e-05
0.2009116465225608,-5.538731102326642e-06,0.2009116465225608,-1.2587803306979924e-05,0.2009116465225608,-3.138092539803132e-05,0.2009116465225608,-1.393164944883668e-05
0.2017057637024919,-5.53903e-06,0.2017057637024919,-1.4266700471829622e-05,0.2017057637024919,-3.4072600754927394e-05,0.2017057637024919,-1.39315e-05
0.202499880882423,-3.189492535520244e-06,0.202499880882423,-1.1917652537020466e-05,0.202499880882423,-1.4941470643593e-05,0.202499880882423,-1.4938448912705514e-05
0.203293998062354,-4.19622754233773e-06,0.203293998062354,-1.2252999180771109e-05,0.203293998062354,-7.217538842215688e-06,0.203293998062354,-1.7288494265397763e-05
0.2040881152422851,-3.525219790338288e-06,0.2040881152422851,-1.42672e-05,0.2040881152422851,-1.644870677301745e-07,0.2040881152422851,-1.7623907656157723e-05
0.2048822324222162,-6.209633865516887e-06,0.2048822324222162,-1.42670525845994e-05,0.2048822324222162,2.2997560145054743e-05,0.2048822324222162,-1.561058960305776e-05
0.2056763496021472,-3.5243871310358347e-06,0.2056763496021472,-1.376352620976061e-05,0.2056763496021472,3.070665683441574e-05,0.2056763496021472,-1.762567624453892e-05
0.2064704667820783,-2.518415469731681e-06,0.2064704667820783,-1.3595912545870751e-05,0.2064704667820783,8.575170407875567e-06,0.2064704667820783,-2.0978948411870585e-05
0.2072645839620094,-5.872961018622624e-06,0.2072645839620094,-1.3931324100814308e-05,0.2072645839620094,-7.209252774950871e-06,0.2072645839620094,-2.249100847986325e-05
0.2080587011419405,-5.87472e-06,0.2080587011419405,-1.560936822008456e-05,0.2080587011419405,1.1717811154786117e-06,0.2080587011419405,-1.863275307498574e-05
0.2088528183218715,-3.1897544976677884e-06,0.2088528183218715,-1.426750725112203e-05,0.2088528183218715,2.836027819681277e-05,0.2088528183218715,-1.7624430438341524e-05
0.2096469355018026,-4.363984557289656e-06,0.2096469355018026,-1.3260181808733712e-05,0.2096469355018026,4.1457736486461735e-05,0.2096469355018026,-1.3931799965356946e-05
0.2104410526817337,-3.69271341043705e-06,0.2104410526817337,-1.19172554527506e-05,0.2104410526817337,3.32325072091673e-05,0.2104410526817337,-7.049725683398252e-06
0.2112351698616647,-4.19623e-06,0.2112351698616647,-1.124568454951816e-05,0.2112351698616647,7.716509648582233e-06,0.2112351698616647,-7.88826365283311e-06
0.2120292870415958,-4.19629060368788e-06,0.2120292870415958,-1.023734551871207e-05,0.2120292870415958,-1.3598769562653153e-05,0.2120292870415958,-4.866539137228761e-06
0.2128234042215269,-4.363954212054456e-06,0.2128234042215269,-6.213438895704907e-06,0.2128234042215269,-2.181423642813871e-05,0.2128234042215269,-1.8486041755257144e-06
0.2136175214014579,-8.557780642871563e-06,0.2136175214014579,-8.558893559284753e-06,0.2136175214014579,-3.5743502524448174e-05,0.2136175214014579,-5.536804161145932e-06
0.214411638581389,-7.721452011278382e-06,0.214411638581389,-1.1915771941230856e-05,0.214411638581389,-4.1791749486022175e-05,0.214411638581389,-8.391161155280882e-06
0.2152057557613201,-7.55327163156476e-06,0.2152057557613201,-1.0239316315647604e-05,0.2152057557613201,-1.8974021862046886e-05,0.2152057557613201,-1.292300595082752e-05
0.2159998729412512,-6.210634879707669e-06,0.2159998729412512,-8.896224878107432e-06,0.2159998729412512,2.34647879424218e-06,0.2159998729412512,-1.9301679321388577e-05
0.2167939901211822,-8.224584939778539e-06,0.2167939901211822,-1.19172624096056e-05,0.2167939901211822,-8.392063212932101e-07,0.2167939901211822,-2.568082064348223e-05
0.2175881073011133,-8.895556337920126e-06,0.2175881073011133,-1.2253136099434802e-05,0.2175881073011133,-1.3932225863652276e-05,0.2175881073011133,-2.36665639005652e-05
0.2183822244810444,-5.540168910516019e-06,0.2183822244810444,-1.3260574548404357e-05,0.2183822244810444,-1.930507271374961e-05,0.2183822244810444,-2.265969490968087e-05
0.2191763416609755,-9.566832915273109e-06,0.2191763416609755,-1.4938311457636554e-05,0.2191763416609755,-2.769769688127101e-05,0.2191763416609755,-2.2996021355908617e-05
0.2199704588409065,-8.225524048340489e-06,0.2199704588409065,-1.4267657024170244e-05,0.2199704588409065,-3.37335867824678e-05,0.2199704588409065,-2.467265743957439e-05
0.2207645760208376,-7.889089256681116e-06,0.2207645760208376,-1.3596158513362228e-05,0.2207645760208376,-2.702728513362229e-05,0.2207645760208376,-2.4338279256681117e-05
0.2215586932007686,-6.2110685635287e-06,0.2215586932007686,-1.527365143260733e-05,0.2215586932007686,-1.2929847927458724e-05,0.2215586932007686,-1.896907537701684e-05
0.2223528103806997,-4.3645209341294624e-06,0.2223528103806997,-1.5945539659448138e-05,0.2223528103806997,-9.736021615233185e-06,0.2223528103806997,-2.030947931889628e-05
0.2231469275606308,-6.210251552008976e-06,0.2231469275606308,-1.292467564366004e-05,0.2231469275606308,-1.4434571226447275e-05,0.2231469275606308,-2.182026218273165e-05
0.2239410447405619,-3.524905664517017e-06,0.2239410447405619,-1.661700541935373e-05,0.2239410447405619,-2.165278915565771e-05,0.2239410447405619,-1.9638324335482984e-05
0.2247351619204929,-4.867835375956273e-06,0.2247351619204929,-1.4937915406681418e-05,0.2247351619204929,-2.500895232534513e-05,0.2247351619204929,-1.829491540668142e-05
0.225529279100424,-5.87365932008909e-06,0.225529279100424,-1.15816e-05,0.225529279100424,-2.2324607124621537e-05,0.225529279100424,-1.4937657167171285e-05
0.2263233962803551,-2.8557343472813896e-06,0.2263233962803551,-1.15816e-05,0.2263233962803551,-2.4336570425020463e-05,0.2263233962803551,-1.2255039433306047e-05
0.2271175134602862,-4.195407178007195e-06,0.2271175134602862,-1.258808287890962e-05,0.2271175134602862,-2.8364031515638472e-05,0.2271175134602862,-9.569055650113316e-06
0.2279116306402172,-4.867317672344906e-06,0.2279116306402172,-1.493750685320717e-05,0.2279116306402172,-2.92054095671717e-05,0.2279116306402172,-7.889690819137736e-06
0.2287057478201483,-8.223543800102707e-06,0.2287057478201483,-1.40995665674427e-05,0.2287057478201483,-2.635320629119236e-05,0.2287057478201483,-7.217733238073817e-06
0.2294998650000794,-7.888967077422352e-06,0.2294998650000794,-1.2421085387111754e-05,0.2294998650000794,-2.5009728309689403e-05,0.2294998650000794,-5.539315385411504e-06
0.2302939821800104,-5.539082739089445e-06,0.2302939821800104,-1.0238848971306266e-05,0.2302939821800104,-2.1652675339953257e-05,0.2302939821800104,-2.182115341973154e-06
0.2310880993599415,-6.8819880346799954e-06,0.2310880993599415,-8.224652008982845e-06,0.2310880993599415,-1.560983196406862e-05,0.2310880993599415,-1.675969474794521e-07
0.2318822165398726,-8.223877587970907e-06,0.2318822165398726,-8.560035346170892e-06,0.2318822165398726,-1.4266650686887376e-05,0.2318822165398726,1.8461568956291253e-06
0.2326763337198036,-5.539593667440483e-06,0.2326763337198036,-7.55406550325959e-06,0.2326763337198036,-1.2252436328361783e-05,0.2326763337198036,1.1732489934808189e-06
0.2334704508997347,-6.880892545477755e-06,0.2334704508997347,-9.566018814763173e-06,0.2334704508997347,-1.0911127461429164e-05,0.2334704508997347,-2.850657629526345e-06
0.2342645680796658,-7.2173373858234514e-06,0.2342645680796658,-1.0238434777086706e-05,0.2342645680796658,-1.3594339086587614e-05,0.2342645680796658,-1.1241334667345506e-05
0.2350586852595969,-9.566478507146292e-06,0.2350586852595969,-1.1581067716104176e-05,0.2350586852595969,-1.9636004722468798e-05,0.2350586852595969,-1.4937136219286484e-05
0.2358528024395279,-8.560560583314092e-06,0.2358528024395279,-1.3595298833371817e-05,0.2358528024395279,-2.3665697691625303e-05,0.2358528024395279,-1.5609832944457273e-05
0.236646919619459,-6.881989921831509e-06,0.236646919619459,-1.2588801953706316e-05,0.236646919619459,-2.4338032030862456e-05,0.236646919619459,-1.7120447074502275e-05
0.2374410367993901,-6.546166675901461e-06,0.2374410367993901,-1.359581555863382e-05,0.2374410367993901,-2.4841583307929005e-05,0.2374410367993901,-1.7624145542464286e-05
0.2382351539793211,-7.552829390920739e-06,0.2382351539793211,-1.3931304694490729e-05,0.2382351539793211,-2.2323639612047167e-05,0.2382351539793211,-1.644916745877822e-05
0.2390292711592522,-5.539144497420612e-06,0.2390292711592522,-1.29244e-05,0.2390292711592522,-2.0979024484203016e-05,0.2390292711592522,-1.628174350249426e-05
0.2398233883391833,-5.874461725258422e-06,0.2398233883391833,-1.29244e-05,0.2398233883391833,-1.460780736627308e-05,0.2398233883391833,-1.7287725152693724e-05
0.2406175055191144,-3.1908125037490517e-06,0.2406175055191144,-1.325989093547444e-05,0.2406175055191144,-1.6280354677372195e-05,0.2406175055191144,-1.4940063451678928e-05
0.2414116226990454,-1.846978085291876e-06,0.2414116226990454,-1.3931180957354062e-05,0.2414116226990454,-2.7018595365184003e-05,0.2414116226990454,-1.510632026309802e-05
0.2422057398789765,-3.1887000875184926e-06,0.2422057398789765,-1.3595909978120375e-05,0.2422057398789765,-3.843376074390719e-05,0.2422057398789765,-1.5777580043759245e-05
0.2429998570589076,-4.196048697046912e-06,0.2429998570589076,-1.225324173967114e-05,0.2429998570589076,-4.045133739049329e-05,0.2429998570589076,-1.57778e-05
0.2437939742388386,-6.210354650033294e-06,0.2437939742388386,-1.2924378216569615e-05,0.2437939742388386,-1.7624940633388613e-05,0.2437939742388386,-1.3260181686241705e-05
0.2445880914187697,-3.52483e-06,0.2445880914187697,-1.2253115954462231e-05,0.2445880914187697,1.2591096380705808e-05,0.2445880914187697,-1.39315e-05
0.2453822085987008,-3.525535554892841e-06,0.2453822085987008,-1.325983541592999e-05,0.2453822085987008,3.340217638938001e-05,0.2453822085987008,-1.393123541592999e-05
0.2461763257786318,-6.21042e-06,0.2461763257786318,-1.225217461217569e-05,0.2461763257786318,3.4066246679834425e-05,0.2461763257786318,-1.2925775646373848e-05
0.2469704429585629,-6.21042e-06,0.2469704429585629,-1.0240211311776693e-05,0.2469704429585629,1.6629331298663236e-05,0.2469704429585629,-1.627904781370551e-05
0.247764560138494,-7.049205070820015e-06,0.247764560138494,-1.1580856113312025e-05,0.247764560138494,5.124746136645735e-07,0.247764560138494,-1.62814e-05
0.2485586773184251,-7.217451785765305e-06,0.2485586773184251,-1.124603642846939e-05,0.2485586773184251,-9.898870738581716e-06,0.2485586773184251,-1.527470928540817e-05
0.2493527944983561,-7.553133114733202e-06,0.2493527944983561,-1.12459e-05,0.2493527944983561,-1.594413606519764e-05,0.2493527944983561,-1.7120122143973523e-05
0.2501469116782872,-7.049726013096308e-06,0.2501469116782872,-1.0910237342064204e-05,0.2501469116782872,-2.030931455316533e-05,0.2501469116782872,-1.7288481323406077e-05
0.2509410288582183,-9.567312391256452e-06,0.2509410288582183,-1.107810609875192e-05,0.2509410288582183,-2.9373514592031372e-05,0.2509410288582183,-1.56099511954465e-05
0.2517351460381494,-6.881696511317995e-06,0.2517351460381494,-1.1246085233023009e-05,0.2517351460381494,-2.7023607392684853e-05,0.2517351460381494,-1.426775569906902e-05
0.2525292632180804,-6.209753117955413e-06,0.2525292632180804,-1.2253e-05,0.2525292632180804,-2.65221450657323e-05,0.2525292632180804,-1.728772196708524e-05
0.2533233803980115,-4.197799806451831e-06,0.2533233803980115,-1.2253e-05,0.2533233803980115,-3.2390321414085776e-05,0.2533233803980115,-1.494043144995316e-05
0.2541174975779426,-3.52525484404199e-06,0.2541174975779426,-1.2588487577979006e-05,0.2541174975779426,-3.776270124766408e-05,0.2541174975779426,-1.175141804083812e-05
0.2549116147578736,-5.034747045317135e-06,0.2549116147578736,-1.25887e-05,0.2549116147578736,-3.441072878818415e-05,0.2549116147578736,-1.359490414223914e-05
0.2557057319378047,-6.88119665748914e-06,0.2557057319378047,-1.1246353342463245e-05,0.2557057319378047,-3.239558001369486e-05,0.2557057319378047,-1.5944906650689325e-05
0.2564998491177358,-7.553092415173586e-06,0.2564998491177358,-1.1581536207586792e-05,0.2564998491177358,-3.038108275447924e-05,0.2564998491177358,-1.6616972415173586e-05
0.2572939662976669,-6.546162747631879e-06,0.2572939662976669,-1.258865725236812e-05,0.2572939662976669,-2.836658549526376e-05,0.2572939662976669,-1.6281414249210627e-05
0.2580880834775979,-9.231815880924578e-06,0.2580880834775979,-1.1917547057943844e-05,0.2580880834775979,-2.2993605901001336e-05,0.2580880834775979,-1.5777958828220676e-05
0.258882200657529,-1.0238715162805418e-05,0.258882200657529,-1.4267709023167488e-05,0.258882200657529,-6.877747832350298e-06,0.258882200657529,-1.7287948545599355e-05
0.2596763178374601,-9.902697369902308e-06,0.2596763178374601,-1.628166842273043e-05,0.2596763178374601,9.235132365825271e-06,0.2596763178374601,-1.5105796068846304e-05
0.2604704350173911,-8.89672570859819e-06,0.2604704350173911,-1.6952322856196743e-05,0.2604704350173911,1.7785916459148638e-05,0.2604704350173911,-1.3596873538023835e-05
0.2612645521973222,-6.2119346276996815e-06,0.2612645521973222,-1.3765398655289831e-05,0.2612645521973222,2.399889743860153e-05,0.2612645521973222,-1.2924778658334878e-05
0.2620586693772533,-5.8748597859648124e-06,0.2620586693772533,-1.4266990300232709e-05,0.2620586693772533,2.467352042807038e-05,0.2620586693772533,-1.695112256842226e-05
0.2628527865571843,-6.210329757237769e-06,0.2628527865571843,-1.376373537758433e-05,0.2628527865571843,1.4605607255984977e-05,0.2628527865571843,-2.030889757237769e-05
0.2636469037371154,-3.189506293612101e-06,0.2636469037371154,-1.2253183141956535e-05,0.2636469037371154,5.204469584033091e-06,0.2636469037371154,-2.09811186008807e-05
0.2644410209170465,-5.539069796129955e-06,0.2644410209170465,-9.903135374571906e-06,0.2644410209170465,1.2253053061857858e-05,0.2644410209170465,-1.829548503264131e-05
0.2652351380969776,-7.049465646040551e-06,0.2652351380969776,-1.1246425481610013e-05,0.2652351380969776,1.4265156467362538e-05,0.2652351380969776,-1.3931791934227784e-05
0.2660292552769086,-5.874881691430606e-06,0.2660292552769086,-1.426698441142586e-05,0.2660292552769086,2.5136438363575078e-06,0.2660292552769086,-1.560989220571293e-05
0.2668233724568397,-6.3778725165303724e-06,0.2668233724568397,-1.3596329977959502e-05,0.2668233724568397,-1.0228730466131184e-05,0.2668233724568397,-1.527456498897975e-05
0.2676174896367708,-3.862148339945555e-06,0.2676174896367708,-1.0240957795164403e-05,0.2676174896367708,-3.0367753293291056e-05,0.2676174896367708,-1.493881577951644e-05
0.2684116068167018,-1.0085129987637494e-06,0.2684116068167018,-9.903266236313836e-06,0.2684116068167018,-5.185476092543377e-05,0.2684116068167018,-9.234536012383293e-06
0.2692057239966329,-3.859538115506749e-06,0.2692057239966329,-1.0574266613777534e-05,0.2692057239966329,-6.76377154585332e-05,0.2692057239966329,-2.8556571586850814e-06
0.269999841176564,-6.20994995263973e-06,0.269999841176564,-1.0910132850091348e-05,0.269999841176564,-7.939034975319717e-05,0.269999841176564,-3.5246957021829902e-06
0.270793958356495,-5.53906521288762e-06,0.270793958356495,-1.2588611966469758e-05,0.270793958356495,-8.107111196646976e-05,0.270793958356495,-1.5107456397118125e-06
0.2715880755364261,-6.882011618027993e-06,0.2715880755364261,-1.3092407591984313e-05,0.2715880755364261,-6.025563251825796e-05,0.2715880755364261,-1.5113745365667567e-06
0.2723821927163572,-8.895521124232343e-06,0.2723821927163572,-1.5273974081203455e-05,0.2723821927163572,-3.641995933233543e-05,0.2723821927163572,-9.234887681567565e-06
0.2731763098962882,-6.882081716186117e-06,0.2731763098962882,-1.3931172835277022e-05,0.2731763098962882,-2.2655543438095853e-05,0.2731763098962882,-2.232638630376811e-05
0.2739704270762193,-7.552736149652378e-06,0.2739704270762193,-1.3092804848967468e-05,0.2739704270762193,-1.226049960832224e-05,0.2739704270762193,-2.86976034216976e-05
0.2747645442561504,-7.217712686662837e-06,0.2747645442561504,-1.3931018254643673e-05,0.2747645442561504,-2.8588352036000707e-06,0.2747645442561504,-2.970872194001149e-05
0.2755586614360815,-7.720855284809614e-06,0.2755586614360815,-1.5944841139238456e-05,0.2755586614360815,2.566873287410259e-05,0.2755586614360815,-2.97093e-05
0.2763527786160125,-6.546447600901869e-06,0.2763527786160125,-1.4267668001288384e-05,0.2763527786160125,6.897392562252392e-05,0.2763527786160125,-2.333277840489586e-05
0.2771468957959436,-5.539162169852755e-06,0.2771468957959436,-1.3260232171165148e-05,0.2771468957959436,9.080353630454573e-05,0.2771468957959436,-2.131716432920636e-05
0.2779410129758747,-5.203313541557408e-06,0.2779410129758747,-1.2252945138688115e-05,0.2779410129758747,5.891429902572898e-05,0.2779410129758747,-1.930262319393457e-05
0.2787351301558057,-4.196119941299777e-06,0.2787351301558057,-8.896230115761203e-06,0.2787351301558057,9.89836749228285e-06,0.2787351301558057,-1.460245976519911e-05
0.2795292473357368,-3.524307798036577e-06,0.2795292473357368,-1.023838223905149e-05,0.2795292473357368,-1.896334457070033e-05,0.2795292473357368,-1.1916255592962011e-05
0.2803233645156679,-1.8476817032661489e-06,0.2803233645156679,-8.897083361014216e-06,0.2803233645156679,-7.226911962830608e-06,0.2803233645156679,-8.562993414525812e-06
0.2811174816955989,-4.194696047444726e-06,0.2811174816955989,-8.89601e-06,0.2811174816955989,5.195221963199902e-06,0.2811174816955989,-1.023770432146845e-05
0.2819115988755301,-4.531760406190742e-06,0.2819115988755301,-9.90259122362417e-06,0.2819115988755301,-1.6513550966094775e-07,0.2819115988755301,-1.292304324952593e-05
0.2827057160554611,-6.209819750542737e-06,0.2827057160554611,-1.1580999746966608e-05,0.2827057160554611,-1.224867819568261e-05,0.2827057160554611,-1.1582080202426713e-05
0.2834998332353922,-4.867912027515987e-06,0.2834998332353922,-1.2924117970383704e-05,0.2834998332353922,-2.6013709217436057e-05,0.2834998332353922,-8.56094456453636e-06
0.2842939504153233,-5.20330903579853e-06,0.2842939504153233,-9.735459159289475e-06,0.2842939504153233,-4.011511950353824e-05,0.2842939504153233,-4.86786060496719e-06
0.2850880675952543,-8.22432421169155e-06,0.2850880675952543,-1.1245871420998893e-05,0.2850880675952543,-4.5487171451759406e-05,0.2850880675952543,-1.5108829206581098e-06
0.2858821847751854,-4.867942486487619e-06,0.2858821847751854,-1.0910043755592618e-05,0.2858821847751854,-4.632534536188589e-05,0.2858821847751854,-4.364978400688153e-06
0.2866763019551165,-6.210675009641803e-06,0.2866763019551165,-1.0239565028925406e-05,0.2866763019551165,-4.179061112195341e-05,0.2866763019551165,-8.226203787472198e-06
0.2874704191350475,-6.881329443108111e-06,0.2874704191350475,-1.2251528329324332e-05,0.2874704191350475,-3.156318095606892e-05,0.2874704191350475,-1.241773406326456e-05
0.2882645363149786,-4.365550325347264e-06,0.2882645363149786,-1.2253e-05,0.2882645363149786,-2.467781893444412e-05,0.2882645363149786,-2.16472087564479e-05
0.2890586534949096,-4.196303250477852e-06,0.2890586534949096,-1.4937427992354376e-05,0.2890586534949096,-2.1653918464960886e-05,0.2890586534949096,-2.63502490302606e-05
0.2898527706748408,-6.209838256369633e-06,0.2898527706748408,-1.52742030422469e-05,0.2898527706748408,-1.762536349303719e-05,0.2898527706748408,-2.7023506084493803e-05
0.2906468878547718,-6.88172517089901e-06,0.2906468878547718,-1.5609952585449505e-05,0.2906468878547718,-1.829550517089901e-05,0.2906468878547718,-2.4002826730954456e-05
0.2914410050347029,-9.567397228150895e-06,0.2914410050347029,-1.4602897871347916e-05,0.2914410050347029,-1.829558722808749e-05,0.2914410050347029,-1.8966974456174976e-05
0.292235122214634,-7.5531683281453105e-06,0.292235122214634,-1.4266915797103074e-05,0.292235122214634,-1.6281606687418756e-05,0.292235122214634,-1.493852248452183e-05
0.293029239394565,-7.217115649028977e-06,0.293029239394565,-1.2420547295699372e-05,0.293029239394565,-1.7623391298057955e-05,0.293029239394565,-1.4433938593757328e-05
0.2938233565744961,-5.875806782096359e-06,0.2938233565744961,-1.158227919834321e-05,0.2938233565744961,-1.494077356419272e-05,0.2938233565744961,-1.091305276253593e-05
0.2946174737544272,-3.694126207669572e-06,0.2946174737544272,-1.4265420043941723e-05,0.2946174737544272,-2.9364032802464547e-05,0.2946174737544272,-1.3258542538449007e-05
0.2954115909343582,-6.20912287036668e-06,0.2954115909343582,-1.527378114608589e-05,0.2954115909343582,-5.45380287036668e-05,0.2954115909343582,-1.661537048695296e-05
0.2962057081142893,-4.868123628732353e-06,0.2962057081142893,-1.2254110672919114e-05,0.2962057081142893,-8.089361251912543e-05,0.2962057081142893,-1.5274793632408496e-05
0.2969998252942204,-6.21012454260234e-06,0.2969998252942204,-9.568000916995648e-06,0.2969998252942204,-7.956079545959799e-05,0.2969998252942204,-1.158241251389446e-05
0.2977939424741515,-9.567166783755348e-06,0.2977939424741515,-1.057442703563376e-05,0.2977939424741515,-3.172696582369784e-05,0.2977939424741515,-1.15816e-05
0.2985880596540825,-5.53903e-06,0.2985880596540825,-1.2253126107528325e-05,0.2985880596540825,3.575485090113653e-05,0.2985880596540825,-9.9031e-06
0.2993821768340136,-5.538880470583416e-06,0.2993821768340136,-1.3931724294124876e-05,0.2993821768340136,7.502613278689766e-05,0.2993821768340136,-9.90392241179121e-06
0.3001762940139447,-4.868499057142753e-06,0.3001762940139447,-1.493810339380512e-05,0.3001762940139447,6.393595015423389e-05,0.3001762940139447,-1.359542754535384e-05
0.3009704111938757,-7.21577958537949e-06,0.3009704111938757,-1.35967945268725e-05,0.3009704111938757,2.436743846867512e-05,0.3009704111938757,-1.2589445895154376e-05
0.3017645283738068,-8.22401180097869e-06,0.3017645283738068,-1.2253797606614917e-05,0.3017645283738068,-8.205268152445957e-06,0.3017645283738068,-5.543217416908676e-06
0.3025586455537379,-4.533578434034257e-06,0.3025586455537379,-1.0575249292255624e-05,0.3025586455537379,-2.5337557268097277e-05,0.3025586455537379,-3.0224139339193786e-06
0.3033527627336689,-2.853941573254364e-06,0.3033527627336689,-1.05745e-05,0.3033527627336689,-3.3063992749284016e-05,0.3033527627336689,-9.229854176867083e-06
0.3041468799136,-5.538623825144899e-06,0.3041468799136,-1.1749222305401323e-05,0.3041468799136,-3.105240463227564e-05,0.3041468799136,-1.594468456059361e-05
0.3049409970935311,-4.531933686530011e-06,0.3049409970935311,-1.2588696927708632e-05,0.3049409970935311,-1.9974140551464055e-05,0.3049409970935311,-1.695279631346999e-05
0.3057351142734621,-3.189671455073514e-06,0.3057351142734621,-1.628086854204806e-05,0.3057351142734621,-6.88104697313015e-06,0.3057351142734621,-1.6281303371281464e-05
0.3065292314533932,-6.882210934970935e-06,0.3065292314533932,-1.2588211327647126e-05,0.3065292314533932,-1.5120082767653208e-06,0.3065292314533932,-1.5610048852678472e-05
0.3073233486333243,-8.223509813008303e-06,0.3073233486333243,-1.0911575243981236e-05,0.3073233486333243,-6.206569333239123e-06,0.3073233486333243,-1.5777662516568334e-05
0.3081174658132554,-8.56008414799727e-06,0.3081174658132554,-1.057472585200273e-05,0.3081174658132554,-1.8958417637351843e-05,0.3081174658132554,-1.795843192834329e-05
0.3089115829931864,-7.553748921148474e-06,0.3089115829931864,-1.158107107359955e-05,0.3089115829931864,-2.651623307825651e-05,0.3089115829931864,-2.0476277710258752e-05
0.3097057001731175,-6.882073531195044e-06,0.3097057001731175,-1.1749336636082024e-05,0.3097057001731175,-2.5010070464069637e-05,0.3097057001731175,-1.963871689511302e-05
0.3104998173530486,-6.88182e-06,0.3104998173530486,-1.2588506932510948e-05,0.3104998173530486,-1.6283407759265094e-05,0.3104998173530486,-1.829590888957977e-05
0.3112939345329796,-6.210475358384723e-06,0.3112939345329796,-1.4938406245653469e-05,0.3112939345329796,-1.359602143353889e-05,0.3112939345329796,-1.7624255358384722e-05
0.3120880517129107,-5.538734837164003e-06,0.3120880517129107,-1.2924531184061596e-05,0.3120880517129107,-1.1581403224558902e-05,0.3120880517129107,-2.0309756271979467e-05
0.3128821688928418,-1.0075641447563876e-06,0.3128821688928418,-1.4938350064119468e-05,0.3128821688928418,-8.560274296393578e-06,0.3128821688928418,-1.9637828742297232e-05
0.3136762860727728,-3.190227177292056e-06,0.3136762860727728,-1.3762573232641413e-05,0.3136762860727728,-8.393486781752186e-06,0.3136762860727728,-1.6952558403446922e-05
0.314470403252704,-6.208152150099967e-06,0.314470403252704,-1.0912341834886125e-05,0.314470403252704,-1.1243758135088854e-05,0.314470403252704,-1.6281903969980565e-05
0.315264520432635,-6.21042e-06,0.315264520432635,-1.2252188963403395e-05,0.315264520432635,-1.9633331021271232e-05,0.315264520432635,-1.7623388963403397e-05
0.3160586376125661,-5.203789643275568e-06,0.3160586376125661,-1.3259640352160358e-05,0.3160586376125661,-2.181940411916781e-05,0.3160586376125661,-1.6953106431893096e-05
0.3168527547924971,-4.1965410182319e-06,0.3168527547924971,-1.22533110182319e-05,0.3168527547924971,-1.896788120288244e-05,0.3168527547924971,-1.6617203672743967e-05
0.3176468719724282,-7.217032835740173e-06,0.3176468719724282,-9.064374229030507e-06,0.3176468719724282,-1.8631354129541363e-05,0.3176468719724282,-1.3596287165872263e-05
0.3184409891523593,-6.378281465846897e-06,0.3184409891523593,-8.224621465846898e-06,0.3184409891523593,-2.232384955163985e-05,0.3184409891523593,-9.567465035928483e-06
0.3192351063322903,-9.567275129408536e-06,0.3192351063322903,-8.89601e-06,0.3192351063322903,-2.030957521568089e-05,0.3192351063322903,-8.896099913727644e-06
0.3200292235122214,-8.55917743124194e-06,0.3200292235122214,-8.89601e-06,0.3200292235122214,-1.8630733712809492e-05,0.3200292235122214,-9.56741e-06
0.3208233406921525,-4.535270808234776e-06,0.3208233406921525,-8.89601e-06,0.3208233406921525,-1.661877041241057e-05,0.3208233406921525,-9.56741e-06
0.3216174578720835,-6.544744749838754e-06,0.3216174578720835,-1.0908824749838754e-05,0.3216174578720835,-1.66171e-05,0.3216174578720835,-7.890056047490878e-06
0.3224115750520147,-5.539568993534656e-06,0.3224115750520147,-1.4265403337044515e-05,0.3224115750520147,-2.332740672760893e-05,0.3224115750520147,-1.1244103342396507e-05
0.3232056922319457,-5.53903e-06,0.3232056922319457,-1.3092655450206247e-05,0.3232056922319457,-2.7022268645977358e-05,0.3232056922319457,-1.37626240961836e-05
0.3239998094118768,-6.713687972783998e-06,0.3239998094118768,-1.2253201437724195e-05,0.3239998094118768,-3.172237188153458e-05,0.3239998094118768,-9.568417234227717e-06
0.3247939265918079,-7.217473444968324e-06,0.3247939265918079,-1.326000688993665e-05,0.3247939265918079,-3.97795551194932e-05,0.3247939265918079,-6.882068292577731e-06
0.3255880437717389,-6.210382987521641e-06,0.3255880437717389,-1.4267209250501005e-05,0.3255880437717389,-4.078760356615021e-05,0.3255880437717389,-1.0238688961462358e-05
0.32638216095167,-5.538349504853091e-06,0.32638216095167,-1.4435102084711596e-05,0.32638216095167,-4.4482177590956825e-05,0.32638216095167,-8.224337803157496e-06
0.3271762781316011,-2.183097001540928e-06,0.3271762781316011,-1.4938834890008764e-05,0.3271762781316011,-5.52211081049518e-05,0.3271762781316011,-6.881350223480982e-06
0.3279703953115321,-5.201031963243973e-06,0.3279703953115321,-1.5609489323475076e-05,0.3279703953115321,-5.15325087208871e-05,0.3279703953115321,-5.540051345443709e-06
0.3287645124914632,-4.867836116644573e-06,0.3287645124914632,-1.6280987766710852e-05,0.3287645124914632,-3.274214247069703e-05,0.3287645124914632,-6.545501656206187e-06
0.3295586296713942,-2.8543794359878668e-06,0.3295586296713942,-1.4268139440651957e-05,0.3295586296713942,-3.5384518288201967e-06,0.3295586296713942,-1.1579251407698288e-05
0.3303527468513254,-3.524615942709493e-06,0.3303527468513254,-1.0911270302393886e-05,0.3303527468513254,3.406141266738907e-05,0.3303527468513254,-1.2923971879042444e-05
0.3311468640312564,-4.867400051852767e-06,0.3311468640312564,-1.09102e-05,0.3311468640312564,7.351124529886182e-05,0.3311468640312564,-1.6952110155558303e-05
0.3319409812111875,-4.86763e-06,0.3319409812111875,-1.1917276168497387e-05,0.3319409812111875,9.651275585090652e-05,0.3319409812111875,-3.0044690192832383e-05
0.3327350983911186,-9.567202003158002e-06,0.3327350983911186,-1.39313752018948e-05,0.3327350983911186,7.09957072929965e-05,0.3327350983911186,-4.196186321282772e-05
0.3335292155710496,-7.889001027926237e-06,0.3335292155710496,-1.2925173723815084e-05,0.3335292155710496,3.4738063960574343e-05,0.3335292155710496,-3.843595252525398e-05
0.3343233327509807,-8.22432824465939e-06,0.3343233327509807,-1.5775405121570172e-05,0.3343233327509807,9.92394981127436e-06,0.3343233327509807,-3.273538984079035e-05
0.3351174499309118,-6.882750261046568e-06,0.3351174499309118,-1.2926376784806468e-05,0.3351174499309118,-1.838200196791016e-06,0.3351174499309118,-2.7698588504903963e-05
0.3359115671108428,-6.88182e-06,0.3359115671108428,-1.2588883023790996e-05,0.3359115671108428,-6.208040701621091e-06,0.3359115671108428,-2.4507738698754412e-05
0.3367056842907739,-8.55964260103412e-06,0.3367056842907739,-1.2253133480588412e-05,0.3367056842907739,-1.4935129512653628e-05,0.3367056842907739,-2.2324767643705626e-05
0.337499801470705,-7.553471809657059e-06,0.337499801470705,-1.3595464250456762e-05,0.337499801470705,-1.863037668875609e-05,0.337499801470705,-1.9303455411468595e-05
0.338293918650636,-8.392374015566538e-06,0.338293918650636,-1.4434914019664742e-05,0.338293918650636,-1.3931981518564878e-05,0.338293918650636,-1.4939047124381671e-05
0.3390880358305671,-9.73513123378658e-06,0.3390880358305671,-1.29244e-05,0.3390880358305671,-2.4674557450968745e-05,0.3390880358305671,-1.3595724254903124e-05
0.3398821530104982,-6.882337535848745e-06,0.3398821530104982,-1.2924529384443956e-05,0.3398821530104982,-4.146028790183466e-05,0.3398821530104982,-1.1916459004968444e-05
0.3406762701904293,-9.56741e-06,0.3406762701904293,-1.359408862741525e-05,0.3406762701904293,-4.918116910078669e-05,0.3406762701904293,-7.5525354530052735e-06
0.3414703873703603,-9.56741e-06,0.3414703873703603,-8.56419036531363e-06,0.3414703873703603,-5.3205095701584274e-05,0.3414703873703603,-5.5405821415018326e-06
0.3422645045502914,-8.89642894827999e-06,0.3422645045502914,-7.553848416180064e-06,0.3422645045502914,-4.5995203662810286e-05,0.3422645045502914,-1.848644209300024e-06
0.3430586217302225,-8.89601e-06,0.3430586217302225,-1.1747400896631038e-05,0.3430586217302225,-1.9650954507125496e-05,0.3430586217302225,-2.517420138125171e-06
0.3438527389101535,-6.882482323120719e-06,0.3438527389101535,-1.3762937673590996e-05,0.3438527389101535,-1.5166009245279018e-06,0.3438527389101535,-3.524498840083783e-06
0.3446468560900846,-6.210541689064461e-06,0.3446468560900846,-1.0575078013993851e-05,0.3446468560900846,4.866473959325028e-06,0.3446468560900846,-4.867386621871079e-06
0.3454409732700157,-6.21042e-06,0.3454409732700157,-8.224689108970734e-06,0.3454409732700157,-4.195924865446688e-06,0.3454409732700157,-5.706841747012584e-06
0.3462350904499467,-3.860644725618862e-06,0.3462350904499467,-1.091039120936477e-05,0.3462350904499467,-1.4939383952699718e-05,0.3462350904499467,-6.881858241872954e-06
0.3470292076298778,-4.867849184023502e-06,0.3470292076298778,-1.2588875349308158e-05,0.3470292076298778,-2.182210964269606e-05,0.3470292076298778,-7.21822139200924e-06
0.3478233248098089,-5.706157236961043e-06,0.3478233248098089,-1.3259529782774468e-05,0.3478233248098089,-2.836094042451585e-05,0.3478233248098089,-9.900819148083787e-06
0.34861744198974,-3.861827577661771e-06,0.34861744198974,-1.292463592448902e-05,0.34861744198974,-2.870196407551098e-05,0.34861744198974,-1.3593204830620782e-05
0.349411559169671,-3.52501638128644e-06,0.349411559169671,-1.2253372762572878e-05,0.349411559169671,-3.1050795330994926e-05,0.349411559169671,-1.2253745525145756e-05
0.3502056763496021,-1.5114610244268105e-06,0.3502056763496021,-1.2253e-05,0.3502056763496021,-3.239435264766465e-05,0.3502056763496021,-1.4937505295329315e-05
0.3509997935295332,-5.873585171744759e-06,0.3509997935295332,-1.2588612705118768e-05,0.3509997935295332,-3.306612541023754e-05,0.3509997935295332,-2.030840328190029e-05
0.3517939107094642,-4.196418757268689e-06,0.3517939107094642,-1.3595686744964048e-05,0.3517939107094642,-2.433908154364493e-05,0.3517939107094642,-1.6953177516786513e-05
0.3525880278893953,-3.860636123364324e-06,0.3525880278893953,-1.3595729250856282e-05,0.3525880278893953,-1.493851745933233e-05,0.3525880278893953,-1.8631358957619764e-05
0.3533821450693264,-6.881574662920843e-06,0.3533821450693264,-1.158163065822793e-05,0.3533821450693264,-1.258888400417967e-05,0.3533821450693264,-2.030881864437509e-05
0.3541762622492574,-5.538808523079912e-06,0.3541762622492574,-1.1749344647263642e-05,0.3541762622492574,-1.3596353692300218e-05,0.3541762622492574,-1.4937714092319648e-05
0.3549703794291886,-4.868154089613556e-06,0.3549703794291886,-1.1581730983373778e-05,0.3549703794291886,-1.5272989775966108e-05,0.3549703794291886,-1.2255096358454224e-05
0.3557644966091196,-6.880543016527292e-06,0.3557644966091196,-1.15816e-05,0.3557644966091196,-1.493881283163544e-05,0.3557644966091196,-1.2253e-05
0.3565586137890507,-6.88182e-06,0.3565586137890507,-1.5104685495775555e-05,0.3565586137890507,-1.359645315373144e-05,0.3565586137890507,-9.904243019030022e-06
0.3573527309689818,-3.525967448914028e-06,0.3573527309689818,-1.3931898091364317e-05,0.3573527309689818,-1.2253454980920933e-05,0.3573527309689818,-1.1581031273848836e-05
0.3581468481489128,-4.196101595944695e-06,0.3581468481489128,-1.258895680811061e-05,0.3581468481489128,-1.7287536969585217e-05,0.3581468481489128,-1.2252871595944695e-05
0.3589409653288439,-7.049545400423554e-06,0.3589409653288439,-1.2924385341174929e-05,0.3589409653288439,-2.4337792169040137e-05,0.3589409653288439,-1.4938482729399424e-05
0.3597350825087749,-6.881750231244983e-06,0.3597350825087749,-1.3931395346867474e-05,0.3597350825087749,-2.87025837281526e-05,0.3597350825087749,-1.6953497677158638e-05
0.360529199688706,-6.2105886427638445e-06,0.360529199688706,-1.2924231357236156e-05,0.360529199688706,-3.239325574561156e-05,0.360529199688706,-2.366653135723616e-05
0.3613233168686371,-6.881243076230153e-06,0.3613233168686371,-1.2253576923769846e-05,0.3613233168686371,-2.585442496379177e-05,0.3613233168686371,-2.299587692376985e-05
0.3621174340485681,-6.88182e-06,0.3621174340485681,-1.1917539281984464e-05,0.3621174340485681,-2.601648039464703e-05,0.3621174340485681,-1.863441059451953e-05
0.3629115512284993,-9.565892095397144e-06,0.3629115512284993,-1.2923830783654415e-05,0.3629115512284993,-2.7023130783654416e-05,0.3629115512284993,-1.359864608172792e-05
0.3637056684084303,-1.0406349494346991e-05,0.3637056684084303,-1.3259959804420744e-05,0.3637056684084303,-2.9037058826524452e-05,0.3637056684084303,-1.2589120586737772e-05
0.3644997855883614,-7.55399055330295e-06,0.3644997855883614,-1.2924490652376676e-05,0.3644997855883614,-1.628484476330974e-05,0.3644997855883614,-9.568225868689695e-06
0.3652939027682925,-6.881902218348146e-06,0.3652939027682925,-1.29244e-05,0.3652939027682925,1.2249505732449592e-05,0.3652939027682925,-8.896092218348146e-06
0.3660880199482235,-6.881769396080193e-06,0.3660880199482235,-1.3092162048127905e-05,0.3660880199482235,3.8773478320428367e-05,0.3660880199482235,-1.2588657829857465e-05
0.3668821371281546,-4.867658988615556e-06,0.3668821371281546,-1.1581310113844445e-05,0.3668821371281546,4.984882295079499e-05,0.3668821371281546,-1.0909620231142995e-05
0.3676762543080857,-5.035909537552702e-06,0.3676762543080857,-9.903314770375771e-06,0.3676762543080857,3.607943875770906e-05,0.3676762543080857,-7.553971689917518e-06
0.3684703714880167,-6.377208415589976e-06,0.3684703714880167,-1.0573969203842085e-05,0.3684703714880167,1.059467017494277e-05,0.3684703714880167,-9.90124222925891e-06
0.3692644886679478,-5.539570466387265e-06,0.3692644886679478,-1.2251919054345569e-05,0.3692644886679478,-1.2909266825237482e-05,0.3692644886679478,-1.6948260028251394e-05
0.3700586058478789,-6.881153421251004e-06,0.3700586058478789,-1.2253e-05,0.3700586058478789,-2.9700967753227225e-05,0.3700586058478789,-1.7959400062215156e-05
0.3708527230278099,-4.868332612865755e-06,0.3708527230278099,-1.2253e-05,0.3708527230278099,-4.514601330950195e-05,0.3708527230278099,-1.829548289727432e-05
0.371646840207741,-5.203262440476902e-06,0.371646840207741,-1.2253e-05,0.371646840207741,-4.582266488095381e-05,0.371646840207741,-1.779210134934713e-05
0.3724409573876721,-1.510838178989012e-06,0.3724409573876721,-1.4267091902076897e-05,0.3724409573876721,-3.44097125495308e-05,0.3724409573876721,-1.2924661233964103e-05
0.3732350745676032,-5.03548e-06,0.3732350745676032,-1.6952689651216922e-05,0.3732350745676032,-1.6279792134083738e-05,0.3732350745676032,-1.023886305376422e-05
0.3740291917475342,-5.035803870027046e-06,0.3740291917475342,-1.5777273719346276e-05,0.3740291917475342,8.405414834848693e-07,0.3740291917475342,-1.0910523872438965e-05
0.3748233089274653,-6.377102748064319e-06,0.3748233089274653,-1.3597696755057496e-05,0.3748233089274653,6.205750980087445e-06,0.3748233089274653,-1.225183273937158e-05
0.3756174261073964,-8.5587328506086e-06,0.3756174261073964,-1.0241226394798872e-05,0.3756174261073964,-4.859622933303053e-06,0.3756174261073964,-1.5272116244681014e-05
0.3764115432873274,-6.547278571911792e-06,0.3764115432873274,-1.0909813807445386e-05,0.3764115432873274,-1.9629903781054645e-05,0.3764115432873274,-2.0977917363285785e-05
0.3772056604672585,-7.72056756423854e-06,0.3772056604672585,-1.3930208022327674e-05,0.3772056604672585,-2.2322751618164687e-05,0.3772056604672585,-1.8967861318448215e-05
0.3779997776471896,-9.566892948503869e-06,0.3779997776471896,-1.2924682029616296e-05,0.3779997776471896,-1.0913396307647234e-05,0.3779997776471896,-1.79601820296163e-05
0.3787938948271206,-8.560443400008556e-06,0.3787938948271206,-1.1246122333347591e-05,0.3787938948271206,3.0194446411625506e-06,0.3787938948271206,-1.930252213332193e-05
0.3795880120070517,-4.867665535580375e-06,0.3795880120070517,-9.567394770400744e-06,0.3795880120070517,1.1749392385956484e-05,0.3795880120070517,-2.2156067003291058e-05
0.3803821291869828,-7.217410760528621e-06,0.3803821291869828,-8.560173452287817e-06,0.3803821291869828,1.124469837069596e-05,0.3803821291869828,-1.997328070396466e-05
0.3811762463669139,-6.545391779689015e-06,0.3811762463669139,-7.722058297001293e-06,0.3811762463669139,3.856680837712617e-06,0.3811762463669139,-1.4939016127662825e-05
0.3819703635468449,-4.198111251452278e-06,0.3819703635468449,-1.0907646878175572e-05,0.3819703635468449,-8.55036624804203e-06,0.3819703635468449,-1.628032499459544e-05
0.382764480726776,-5.8736222734084255e-06,0.382764480726776,-1.3594043626989536e-05,0.382764480726776,-1.7282791794255956e-05,0.382764480726776,-1.795880226686846e-05
0.3835585979067071,-5.5391999983595575e-06,0.3835585979067071,-1.1247090023965929e-05,0.3835585979067071,-1.896614998288148e-05,0.3835585979067071,-1.561119002396593e-05
0.3843527150866381,-3.861132301105619e-06,0.3843527150866381,-1.1581479539778876e-05,0.3843527150866381,-2.0980477238673255e-05,0.3843527150866381,-1.5106580708273334e-05
0.3851468322665692,-3.52490091701852e-06,0.3851468322665692,-1.393100358087036e-05,0.3851468322665692,-1.896742550211112e-05,0.3851468322665692,-1.560989361390966e-05
0.3859409494465003,-2.853482746995138e-06,0.3859409494465003,-1.3595821373815916e-05,0.3859409494465003,-1.6281570990527326e-05,0.3859409494465003,-1.6281357252368166e-05
0.3867350666264313,-3.524886338773329e-06,0.3867350666264313,-1.0910312677546658e-05,0.3867350666264313,-1.4939304226275372e-05,0.3867350666264313,-1.5274271830613337e-05
0.3875291838063624,-4.19630761483756e-06,0.3875291838063624,-1.225346568902536e-05,0.3875291838063624,-2.3332862756101447e-05,0.3875291838063624,-1.4939143303862922e-05
0.3883233009862935,-4.531634831570738e-06,0.3883233009862935,-1.426542898942443e-05,0.3883233009862935,-3.138071595769772e-05,0.3883233009862935,-1.7286433820995166e-05
0.3891174181662246,-8.419519550040506e-07,0.3891174181662246,-1.3931745996975332e-05,0.3891174181662246,-3.7929103095620415e-05,0.3891174181662246,-1.2927597960679324e-05
0.3899115353461556,-3.5232583791814706e-06,0.3899115353461556,-1.2924989361318186e-05,0.3899115353461556,-3.843720529008059e-05,0.3899115353461556,-9.569374531875226e-06
0.3907056525260867,-5.873691630385372e-06,0.3907056525260867,-1.1246634552850624e-05,0.3907056525260867,-3.910860617885975e-05,0.3907056525260867,-1.2251824719815244e-05
0.3914997697060178,-4.867922099202206e-06,0.3914997697060178,-1.12459e-05,0.3914997697060178,-3.4410463143145625e-05,0.3914997697060178,-9.568188936039928e-06
0.3922938868859488,-5.538934351670119e-06,0.3922938868859488,-9.903291296659764e-06,0.3922938868859488,-2.702475213162869e-05,0.3922938868859488,-1.1245660880599908e-05
0.3930880040658799,-3.5248334380753267e-06,0.3930880040658799,-1.091022750460261e-05,0.3930880040658799,-2.064548796673636e-05,0.3930880040658799,-1.2252993123849346e-05
0.393882121245811,-4.196332524480488e-06,0.393882121245811,-1.628114368879878e-05,0.393882121245811,-1.8294779804156105e-05,0.393882121245811,-1.0910456311201216e-05
0.394676238425742,-4.868435426149134e-06,0.394676238425742,-1.4601993892208276e-05,0.394676238425742,-1.2922185078839649e-05,0.394676238425742,-1.2589656432118158e-05
0.3954703556056732,-7.551043171119212e-06,0.3954703556056732,-1.1584048941609674e-05,0.3954703556056732,-5.54501627739577e-06,0.3954703556056732,-1.577521504660662e-05
0.3962644727856042,-5.875834520608651e-06,0.3962644727856042,-1.225255419175654e-05,0.3962644727856042,-5.53903e-06,0.3962644727856042,-1.7622973994130586e-05
0.3970585899655353,-5.539203355754988e-06,0.3970585899655353,-1.29240532781617e-05,0.3970585899655353,-1.3591639353432892e-05,0.3970585899655353,-1.4939986887353195e-05
0.3978527071454664,-7.55247709738907e-06,0.3978527071454664,-1.5609009458267634e-05,0.3978527071454664,-1.711929993241799e-05,0.3978527071454664,-1.661648091141727e-05
0.3986468243253974,-8.560087178670701e-06,0.3986468243253974,-1.5274374274513942e-05,0.3986468243253974,-1.661721140070828e-05,0.3986468243253974,-1.4435482795403257e-05
0.3994409415053285,-7.553294193197375e-06,0.3994409415053285,-1.493862473131136e-05,0.3994409415053285,-1.963817741819775e-05,0.3994409415053285,-1.1917485481151668e-05
0.4002350586852595,-5.706956841619266e-06,0.4002350586852595,-1.4267051128652684e-05,0.4002350586852595,-8.22322054074372e-06,0.4002350586852595,-1.091042330702097e-05
0.4010291758651906,-6.88182e-06,0.4010291758651906,-1.2252851476869194e-05,0.4010291758651906,1.057776748675632e-05,0.4010291758651906,-1.3930831645911374e-05
0.4018232930451217,-6.88182e-06,0.4018232930451217,-1.1582197043402884e-05,0.4018232930451217,2.533206513406167e-05,0.4018232930451217,-1.0912886695312982e-05
0.4026174102250527,-6.21091870894151e-06,0.4026174102250527,-9.23345547386739e-06,0.4026174102250527,1.997808959725312e-05,0.4026174102250527,-8.226604828338142e-06
0.4034115274049838,-6.21042e-06,0.4034115274049838,-1.0909200949611324e-05,0.4034115274049838,5.151370249827784e-07,0.4034115274049838,-9.063360471829624e-06
0.4042056445849149,-8.223708396082837e-06,0.4042056445849149,-1.2420123816086235e-05,0.4042056445849149,-1.7783810436084262e-05,0.4042056445849149,-1.3593771385591055e-05
0.404999761764846,-7.88901072486299e-06,0.404999761764846,-1.29242488977033e-05,0.404999761764846,-3.07125221077771e-05,0.404999761764846,-1.426699855027402e-05
0.4057938789447771,-9.734978500868006e-06,0.4057938789447771,-1.0239209453282902e-05,0.4057938789447771,-4.112151336852875e-05,0.4057938789447771,-1.0575062998263993e-05
0.4065879961247081,-7.553230649926777e-06,0.4065879961247081,-1.02388e-05,0.4065879961247081,-5.186534756983904e-05,0.4065879961247081,-1.023880163845778e-05
0.4073821133046392,-6.881915809489596e-06,0.4073821133046392,-1.4267247904744798e-05,0.4073821133046392,-5.7235210762400855e-05,0.4073821133046392,-1.2253143714234394e-05
0.4081762304845703,-7.553268662685695e-06,0.4081762304845703,-1.460270534925722e-05,0.4081762304845703,-4.749857491859282e-05,0.4081762304845703,-1.3261365229828085e-05
0.4089703476645013,-7.720932271052271e-06,0.4089703476645013,-1.393205091579091e-05,0.4089703476645013,-3.810951273901795e-05,0.4089703476645013,-1.7620619047359093e-05
0.4097644648444324,-8.224270614314231e-06,0.4097644648444324,-1.4434660641274207e-05,0.4097644648444324,-2.0992739275076016e-05,0.4097644648444324,-2.0978937383828245e-05
0.4105585820243635,-5.875957023637826e-06,0.4105585820243635,-1.5777093126341713e-05,0.4105585820243635,4.854022718927212e-06,0.4105585820243635,-2.2323193178983484e-05
0.4113526992042945,-3.1901573941192125e-06,0.4113526992042945,-1.5610063568664202e-05,0.4113526992042945,2.8693170609197283e-05,0.4113526992042945,-2.400176412394004e-05
0.4121468163842256,-4.867241842265604e-06,0.4121468163842256,-1.1918153952103265e-05,0.4121468163842256,3.105155657593429e-05,0.4121468163842256,-1.62831855130905e-05
0.4129409335641567,-5.538973822386433e-06,0.4129409335641567,-7.553585152814738e-06,0.4129409335641567,2.7024037065681403e-05,0.4129409335641567,-1.2253337065681404e-05
0.4137350507440878,-4.364069272802101e-06,0.4137350507440878,-8.896063635989493e-06,0.4137350507440878,2.333027055693385e-05,0.4137350507440878,-1.4602878545604205e-05
0.4145291679240188,-4.196442724879737e-06,0.4145291679240188,-9.734940912680396e-06,0.4145291679240188,1.1912620073768313e-05,0.4145291679240188,-1.4266774550240528e-05
0.4153232851039499,-5.20242437507913e-06,0.4153232851039499,-8.225968437381305e-06,0.4153232851039499,-1.0218876341664889e-05,0.4153232851039499,-1.225481124984174e-05
0.416117402283881,-5.538777288033824e-06,0.416117402283881,-6.882830840336796e-06,0.416117402283881,-3.1707326509443783e-05,0.416117402283881,-1.2253e-05
0.416911519463812,-5.53903e-06,0.416911519463812,-9.90127149323182e-06,0.416911519463812,-4.11174112746193e-05,0.416911519463812,-1.6446660420715512e-05
0.4177056366437431,-7.216751876771194e-06,0.4177056366437431,-1.0909739123316952e-05,0.4177056366437431,-2.6694605899123685e-05,0.4177056366437431,-1.7623662287655067e-05
0.4184997538236742,-7.553115917641611e-06,0.4184997538236742,-1.2923775505849668e-05,0.4184997538236742,-5.545587148272539e-06,0.4184997538236742,-1.493943265886711e-05
0.4192938710036052,-5.203711772466019e-06,0.4192938710036052,-1.3092172738545294e-05,0.4192938710036052,6.208511137669911e-06,0.4192938710036052,-1.6952472765065153e-05
0.4200879881835363,-5.539025004046773e-06,0.4200879881835363,-1.393148750937282e-05,0.4200879881835363,2.517794955187862e-06,0.4200879881835363,-1.9638360032374177e-05
0.4208821053634674,-8.224387265079997e-06,0.4208821053634674,-1.3931811830745796e-05,0.4208821053634674,-3.861465488256403e-06,0.4208821053634674,-1.6281466814239118e-05
0.4216762225433985,-6.545368226005606e-06,0.4216762225433985,-1.62814e-05,0.4216762225433985,-1.0909448226005606e-05,0.4216762225433985,-1.6786074665236567e-05
0.4224703397233295,-3.862760481035716e-06,0.4224703397233295,-1.62814e-05,0.4224703397233295,-8.226840481035716e-06,0.4224703397233295,-2.0977714818877727e-05
0.4232644569032606,-3.525059619112598e-06,0.4232644569032606,-1.2926696191125976e-05,0.4232644569032606,-1.5152323617319255e-06,0.4232644569032606,-1.8968377714675586e-05
0.4240585740831917,-7.2155391703540015e-06,0.4240585740831917,-1.0911280455460102e-05,0.4240585740831917,7.548357971886301e-06,0.4240585740831917,-1.6282840607280138e-05
0.4248526912631227,-6.21081159812224e-06,0.4248526912631227,-1.2252477869170343e-05,0.4248526912631227,9.231057340351307e-06,0.4248526912631227,-1.6952538934585174e-05
0.4256468084430538,-1.057344714126259e-05,0.4256468084430538,-1.577694962226228e-05,0.4256468084430538,-2.1792863688992586e-06,0.4256468084430538,-1.7959657031485572e-05
0.4264409256229849,-9.56750433796995e-06,0.4264409256229849,-1.4938678611071882e-05,0.4264409256229849,-1.829409058123996e-05,0.4264409256229849,-1.1246528926044582e-05
0.4272350428029159,-2.8534038061992502e-06,0.4272350428029159,-1.6952727612398504e-05,0.4272350428029159,-2.735959906590413e-05,0.4272350428029159,-8.896136677763545e-06
0.428029159982847,-2.18264799317722e-06,0.428029159982847,-1.5609189339747225e-05,0.428029159982847,-3.1052640440168515e-05,0.428029159982847,-1.1245494671885974e-05
0.4288232771627781,-5.200582954880477e-06,0.4288232771627781,-1.1585262738949089e-05,0.4288232771627781,-3.3735258174033944e-05,0.4288232771627781,-9.233541360382252e-06
0.4296173943427092,-6.880539660319813e-06,0.4296173943427092,-1.15816e-05,0.4296173943427092,-3.6924367378254216e-05,0.4296173943427092,-6.883612478603431e-06
0.4304115115226402,-4.1978822039202284e-06,0.4304115115226402,-1.0239626105036169e-05,0.4304115115226402,-3.877206407481473e-05,0.4304115115226402,-5.875339578777126e-06
0.4312056287025713,-2.8540679275493683e-06,0.4312056287025713,-6.883389821211565e-06,0.4312056287025713,-3.3404511728902634e-05,0.4312056287025713,-5.539186978380125e-06
0.4319997458825024,-4.195800243785136e-06,0.4319997458825024,-8.224180243785136e-06,0.4319997458825024,-2.6018963676784354e-05,0.4319997458825024,-8.559343047716438e-06
0.4327938630624334,-7.552641035212117e-06,0.4327938630624334,-1.1748792095509765e-05,0.4327938630624334,-2.517754473300486e-05,0.4327938630624334,-1.3091418405556e-05
0.4335879802423645,-8.224593293351584e-06,0.4335879802423645,-1.1917295822031504e-05,0.4335879802423645,-3.3905282812824085e-05,0.4335879802423645,-1.6281320640993864e-05
0.4343820974222956,-7.55322e-06,0.4343820974222956,-1.2924482379507908e-05,0.4343820974222956,-3.709486475901582e-05,0.4343820974222956,-1.6449014652242115e-05
0.4351762146022266,-7.55322e-06,0.4351762146022266,-1.35958e-05,0.4351762146022266,-3.843885928240544e-05,0.4351762146022266,-1.4937693811729703e-05
0.4359703317821577,-7.55322e-06,0.4359703317821577,-1.35958e-05,0.4359703317821577,-4.346876753340311e-05,0.4359703317821577,-1.1584421644397926e-05
0.4367644489620888,-7.55322e-06,0.4367644489620888,-1.2589398929824127e-05,0.4367644489620888,-4.313753297660804e-05,0.4367644489620888,-1.2588001070175871e-05
0.4375585661420199,-5.875637167027197e-06,0.4375585661420199,-1.292421656659456e-05,0.4375585661420199,-3.642696866810879e-05,0.4375585661420199,-1.25887e-05
0.438352683321951,-4.1968994470257886e-06,0.438352683321951,-1.29244e-05,0.438352683321951,-3.0383110023651035e-05,0.438352683321951,-1.0575303341217013e-05
0.439146800501882,-4.531845652999745e-06,0.439146800501882,-1.4434620451061706e-05,0.439146800501882,-2.299715563400561e-05,0.439146800501882,-1.443403002205992e-05
0.4399409176818131,-4.53193e-06,0.4399409176818131,-1.3931552200512749e-05,0.4399409176818131,-6.212160177442691e-06,0.4399409176818131,-1.829519975114298e-05
0.4407350348617442,-8.224551042819254e-06,0.4407350348617442,-1.393139682416533e-05,0.4407350348617442,2.0478196943705264e-05,0.4407350348617442,-1.9638429478809908e-05
0.4415291520416752,-6.881434791419029e-06,0.4415291520416752,-1.1581664201748907e-05,0.4415291520416752,3.40725653772642e-05,0.4415291520416752,-2.030941478950656e-05
0.4423232692216063,-4.869481479915448e-06,0.4423232692216063,-1.1916991418482062e-05,0.4423232692216063,2.9713311559733198e-05,0.4423232692216063,-1.829745148910763e-05
0.4431173864015373,-5.70622144033527e-06,0.4431173864015373,-1.024009713478534e-05,0.4431173864015373,5.557708640445665e-06,0.4431173864015373,-1.242534001038839e-05
0.4439115035814684,-5.539134935625098e-06,0.4439115035814684,-1.02388e-05,0.4439115035814684,-1.693873783221734e-05,0.4439115035814684,-5.207842450703492e-06
0.4447056207613995,-2.183643400742296e-06,0.4447056207613995,-1.124541897834442e-05,0.4447056207613995,-2.3831313042568392e-05,0.4447056207613995,-2.854562379086716e-06
0.4454997379413306,-3.859976016554089e-06,0.4454997379413306,-1.258825681060288e-05,0.4454997379413306,-2.4337933820478515e-05,0.4454997379413306,-8.222837252312985e-06
0.4462938551212617,-6.209991222797939e-06,0.4462938551212617,-1.5273809966826595e-05,0.4462938551212617,-1.443680698820359e-05,0.4462938551212617,-9.567164983413296e-06
0.4470879723011927,-5.539053421539293e-06,0.4470879723011927,-1.4938611710944071e-05,0.4470879723011927,1.325913385234684e-05,0.4470879723011927,-1.1917218023740347e-05
0.4478820894811238,-6.881744335482983e-06,0.4478820894811238,-1.2252886503224474e-05,0.4478820894811238,4.0116151329034034e-05,0.4478820894811238,-1.9302983736303984e-05
0.4486762066610549,-6.21042e-06,0.4486762066610549,-1.1245725468890256e-05,0.4486762066610549,4.145321503048329e-05,0.4486762066610549,-2.1820356380220112e-05
0.4494703238409859,-6.21042e-06,0.4494703238409859,-1.0575071035423948e-05,0.4494703238409859,1.9992373048514854e-05,0.4494703238409859,-2.1652742716330263e-05
0.450264441020917,-6.378151832948256e-06,0.450264441020917,-1.3593672993068602e-05,0.450264441020917,-4.346945826777337e-06,0.450264441020917,-2.0981672668206975e-05
0.4510585582008481,-3.526417717093101e-06,0.4510585582008481,-1.35958e-05,0.4510585582008481,-2.3655959595535343e-05,0.4510585582008481,-2.2323152892038768e-05
0.4518526753807791,-4.867081009206876e-06,0.4518526753807791,-1.2421280387386e-05,0.4518526753807791,-3.138464330293953e-05,0.4518526753807791,-2.567952752301719e-05
0.4526467925607102,-6.210069184629784e-06,0.4526467925607102,-1.2588656134689225e-05,0.4526467925607102,-2.9709738522478503e-05,0.4526467925607102,-2.719120531670642e-05
0.4534409097406413,-7.72089827418117e-06,0.4534409097406413,-1.1246052645172291e-05,0.4534409097406413,-1.963954482742452e-05,0.4534409097406413,-2.2324453344433403e-05
0.4542350269205724,-8.895907563153485e-06,0.4542350269205724,-1.1581645527638028e-05,0.4542350269205724,-1.4267268291457045e-05,0.4542350269205724,-1.9302608944723943e-05
0.4550291441005034,-5.874476607905679e-06,0.4550291441005034,-1.2924156606093093e-05,0.4550291441005034,-1.62833471331294e-05,0.4550291441005034,-1.6616369818279283e-05
0.4558232612804345,-4.533177729868405e-06,0.4558232612804345,-1.1582847739160476e-05,0.4558232612804345,-2.7013718179636892e-05,0.4558232612804345,-1.2592443217481428e-05
0.4566173784603656,-5.538241646642531e-06,0.4566173784603656,-1.124616278445249e-05,0.4566173784603656,-3.406788152649771e-05,0.4566173784603656,-9.569775052244456e-06
0.4574114956402966,-5.2035432412498864e-06,0.4574114956402966,-1.0574926482499773e-05,0.4574114956402966,-4.111862193375239e-05,0.4574114956402966,-8.896436482499772e-06
0.4582056128202277,-3.6934166412128752e-06,0.4582056128202277,-1.05745e-05,0.4582056128202277,-4.313631781171616e-05,0.4582056128202277,-9.567082603905388e-06
0.4589997300001588,-4.699437535465895e-06,0.4589997300001588,-1.2923600916087087e-05,0.4589997300001588,-3.575441140658344e-05,0.4589997300001588,-8.560652464534106e-06
0.4597938471800898,-5.874493861177342e-06,0.4597938471800898,-1.124622305821049e-05,0.4597938471800898,-2.8367921456126152e-05,0.4597938471800898,-6.882143056285805e-06
0.4605879643600209,-8.224504521372245e-06,0.4605879643600209,-1.12459e-05,0.4605879643600209,-1.8967421911817827e-05,0.4605879643600209,-4.1963505470672735e-06
0.461382081539952,-7.553116575710739e-06,0.461382081539952,-1.0910544747630865e-05,0.461382081539952,-1.0910268949526172e-05,0.461382081539952,-7.55366816986622e-06
0.4621761987198831,-6.546791295762096e-06,0.4621761987198831,-1.426703217543457e-05,0.4621761987198831,-1.1581767824565428e-05,0.4621761987198831,-1.1919062157937008e-05
0.4629703158998141,-9.2293990407318e-06,0.4629703158998141,-1.3596377741968308e-05,0.4629703158998141,-1.225242225803169e-05,0.4629703158998141,-1.896093370933276e-05
0.4637644330797452,-8.560789383197776e-06,0.4637644330797452,-1.2757099264697489e-05,0.4637644330797452,-1.2253e-05,0.4637644330797452,-2.634702685622501e-05
0.4645585502596763,-5.7084862557043726e-06,0.4645585502596763,-1.325981474908436e-05,0.4645585502596763,-1.023994089037784e-05,0.4645585502596763,-2.735882955481108e-05
0.4653526674396073,-4.8679815087958985e-06,0.4653526674396073,-9.568956652942572e-06,0.4653526674396073,-7.554344833172975e-06,0.4653526674396073,-2.3500516938785765e-05
0.4661467846195384,-1.847159555207292e-06,0.4661467846195384,-9.56741e-06,0.4661467846195384,-4.868358493216193e-06,0.4661467846195384,-2.031066507535244e-05
0.4669409017994695,-1.5106815187885187e-06,0.4669409017994695,-1.0910033926082708e-05,0.4669409017994695,-2.182372149071367e-06,0.4669409017994695,-1.695321518788519e-05
0.4677350189794005,-4.531962097417212e-06,0.4677350189794005,-1.158164814648437e-05,0.4677350189794005,-2.8535082070414543e-06,0.4677350189794005,-1.6281319755859383e-05
0.4685291361593316,-5.874231294186355e-06,0.4685291361593316,-1.3595627514386222e-05,0.4685291361593316,-5.709256047565203e-06,0.4685291361593316,-1.2924170019181627e-05
0.4693232533392627,-3.0239699297454303e-06,0.4693232533392627,-1.2589645864186828e-05,0.4693232533392627,-1.9625315564199452e-05,0.4693232533392627,-1.1582861152249104e-05
0.4701173705191938,-4.195298511110278e-06,0.4701173705191938,-1.3595001574156264e-05,0.4701173705191938,-2.7017844956425637e-05,0.4701173705191938,-1.0910732283895824e-05
0.4709114876991248,-2.8543063885291743e-06,0.4709114876991248,-1.5608700407528014e-05,0.4709114876991248,-2.735918340125467e-05,0.4709114876991248,-1.09102e-05
0.4717056048790559,-2.1823741110854557e-06,0.4717056048790559,-1.527446705554273e-05,0.4717056048790559,-2.8365998833371817e-05,0.4717056048790559,-9.232545272737304e-06
0.472499722058987,-4.866689904779526e-06,0.472499722058987,-1.3931970049360495e-05,0.472499722058987,-1.7963542847538673e-05,0.472499722058987,-1.04062886928075e-05
0.473293839238918,-4.86763e-06,0.473293839238918,-1.4267132030862455e-05,0.473293839238918,-2.856498603090657e-06,0.473293839238918,-1.2252626179867006e-05
0.4740879564188491,-5.7068239357115325e-06,0.4740879564188491,-1.5106353937907056e-05,0.4740879564188491,4.531524631077974e-06,0.4740879564188491,-1.359572629626024e-05
0.4748820735987802,-6.8820378199465496e-06,0.4748820735987802,-1.3595675530929436e-05,0.4748820735987802,2.852599837481442e-06,0.4748820735987802,-1.49386e-05
0.4756761907787112,-9.231186368831263e-06,0.4756761907787112,-1.2253725031094804e-05,0.4756761907787112,-6.211870057390145e-06,0.4756761907787112,-1.4938922236042137e-05
0.4764703079586423,-7.051569448960951e-06,0.4764703079586423,-1.5271669981693405e-05,0.4764703079586423,-1.2247739980796656e-05,0.4764703079586423,-1.6280231102974848e-05
0.4772644251385734,-7.04967e-06,0.4772644251385734,-1.560975695090567e-05,0.4772644251385734,-1.0911172196377331e-05,0.4772644251385734,-1.5610486098188666e-05
0.4780585423185045,-7.217423247054124e-06,0.4780585423185045,-1.2254935058917524e-05,0.4780585423185045,-1.1581212988216497e-05,0.4780585423185045,-1.3261454541242269e-05
0.4788526594984356,-9.901948307063864e-06,0.4788526594984356,-9.233005659913694e-06,0.4788526594984356,-2.09771690447045e-05,0.4788526594984356,-1.3595656037310875e-05
0.4796467766783666,-9.56750441667393e-06,0.4796467766783666,-6.546875353079741e-06,0.4796467766783666,-3.927155418017255e-05,0.4796467766783666,-1.0910955355892356e-05
0.4804408938582977,-6.54652388521888e-06,0.4804408938582977,-4.196544132650952e-06,0.4804408938582977,-5.186371714603533e-05,0.4804408938582977,-6.211048265301904e-06
0.4812350110382288,-6.378300334832137e-06,0.4812350110382288,-6.8818783369000575e-06,0.4812350110382288,-6.260769732778992e-05,0.4812350110382288,-7.5532666689083556e-06
0.4820291282181598,-8.560851417711312e-06,0.4820291282181598,-1.107839777256423e-05,0.4820291282181598,-5.521644441969084e-05,0.4820291282181598,-1.0910524851594473e-05
0.4828232453980909,-1.1914113596147511e-05,0.4828232453980909,-1.2922647520119854e-05,0.4828232453980909,-1.8330650356950743e-05,0.4828232453980909,-1.2922488151993395e-05
0.483617362578022,-9.737011738353687e-06,0.483617362578022,-1.1582677997773337e-05,0.483617362578022,2.2626721228472937e-05,0.483617362578022,-1.29244e-05
0.484411479757953,-5.541779439905087e-06,0.484411479757953,-1.426544035007397e-05,0.484411479757953,4.345936271307327e-05,0.484411479757953,-1.4601800218796232e-05
0.4852055969378841,-5.874549592038176e-06,0.4852055969378841,-1.661590710873279e-05,0.4852055969378841,2.636099106494683e-05,0.4852055969378841,-1.762266628265644e-05
0.4859997141178152,-6.210299130164431e-06,0.4859997141178152,-1.4268046088848984e-05,0.4859997141178152,1.1840051872602596e-06,0.4859997141178152,-1.8295358260328864e-05
0.4867938312977463,-4.196657957673079e-06,0.4867938312977463,-1.2253427959797792e-05,0.4867938312977463,-1.25857756207967e-05,0.4867938312977463,-1.6953085306531863e-05
0.4875879484776773,-5.53894286627846e-06,0.4875879484776773,-1.292435643313923e-05,0.4875879484776773,-1.393141286627846e-05,0.4875879484776773,-1.6617121783430386e-05
0.4883820656576084,-2.853689836296126e-06,0.4883820656576084,-1.5106122402277811e-05,0.4883820656576084,-1.6282510382619534e-05,0.4883820656576084,-1.2924288960911124e-05
0.4891761828375395,-5.874411179346337e-06,0.4891761828375395,-1.17494e-05,0.4891761828375395,-2.9710072057383764e-05,0.4891761828375395,-1.158206323443026e-05
0.4899703000174705,-4.533112301309065e-06,0.4899703000174705,-1.17494e-05,0.4899703000174705,-3.3063344224715306e-05,0.4899703000174705,-1.3594026534829185e-05
0.4907644171974016,-2.351491635493476e-06,0.4907644171974016,-1.3594444727055802e-05,0.4907644171974016,-2.3673599384513795e-05,0.4907644171974016,-1.2253985626359112e-05
0.4915585343773327,-3.020896273225651e-06,0.4915585343773327,-1.2421489051176438e-05,0.4915585343773327,-1.1085482289055064e-05,0.4915585343773327,-9.904478043710222e-06
0.4923526515572637,-6.544573146838904e-06,0.4923526515572637,-1.3259731677596336e-05,0.4923526515572637,-1.8503913094641385e-06,0.4923526515572637,-8.225346596534405e-06
0.4931467687371948,-5.5393233280333405e-06,0.4931467687371948,-1.3763453349090165e-05,0.4931467687371948,9.731886708684489e-06,0.4931467687371948,-9.56701889207204e-06
0.4939408859171259,-4.699900584448465e-06,0.4939408859171259,-1.3595824109705632e-05,0.4939408859171259,1.997262887116553e-05,0.4939408859171259,-1.4266524728525405e-05
0.494735003097057,-6.546124582981262e-06,0.494735003097057,-1.4267190179130838e-05,0.494735003097057,1.3595750242097156e-05,0.494735003097057,-1.4267201309423217e-05
0.495529120276988,-7.720866845359076e-06,0.495529120276988,-1.1749323824574244e-05,0.495529120276988,8.372652504207474e-07,0.495529120276988,-1.46029e-05
0.4963232374569191,-6.379557978426364e-06,0.4963232374569191,-1.1246382943951205e-05,0.4963232374569191,-1.2240442262138327e-05,0.4963232374569191,-1.46029e-05
0.4971173546368502,-6.21055642846939e-06,0.4971173546368502,-1.225218142918366e-05,0.4971173546368502,-1.6948980002857088e-05,0.4971173546368502,-1.393204571387756e-05
0.4979114718167812,-3.0234114671895286e-06,0.4979114718167812,-1.3594906745055202e-05,0.4979114718167812,-2.097852023516561e-05,0.4979114718167812,-1.7286266862638006e-05
0.4987055889967123,-3.1890531147332024e-06,0.4987055889967123,-1.1918168852667976e-05,0.4987055889967123,-1.6954885246403146e-05,0.4987055889967123,-1.930165737679843e-05
0.4994997061766434,-6.880453506760187e-06,0.4994997061766434,-9.568279587616394e-06,0.4994997061766434,-6.54997103985964e-06,0.4994997061766434,-1.695366959131694e-05
0.5002938233565745,-9.56681252919744e-06,0.5002938233565745,-1.2755790514128469e-05,0.5002938233565745,3.1869741691749944e-06,0.5002938233565745,-1.628154936825682e-05
0.5010879405365055,-7.217695985731739e-06,0.5010879405365055,-1.1581687989495772e-05,0.5010879405365055,9.231257465582203e-06,0.5010879405365055,-1.829544915444516e-05
0.5018820577164366,-4.86765440227675e-06,0.5018820577164366,-1.258872440227675e-05,0.5018820577164366,3.859651522398448e-06,0.5018820577164366,-1.930262679316975e-05
0.5026761748963677,-5.2034777027324845e-06,0.5026761748963677,-1.29244e-05,0.5026761748963677,-8.226308604523084e-06,0.5026761748963677,-1.8294639917939152e-05
0.5034702920762988,-5.874122147303448e-06,0.5034702920762988,-1.29244e-05,0.5034702920762988,-1.5938824600490292e-05,0.5034702920762988,-1.3935386100408143e-05
0.5042644092562298,-4.197478812985787e-06,0.5042644092562298,-1.29244e-05,0.5042644092562298,-2.4331855972271556e-05,0.5042644092562298,-1.1583348348596238e-05
0.5050585264361609,-3.86073022088262e-06,0.5050585264361609,-1.29244e-05,0.5050585264361609,-3.641609204822568e-05,0.5050585264361609,-1.359459867470428e-05
0.505852643616092,-4.867177966959952e-06,0.505852643616092,-1.3931047966959952e-05,0.505852643616092,-4.665750435320182e-05,0.505852643616092,-1.2924701355360031e-05
0.506646760796023,-6.210015465102996e-06,0.506646760796023,-1.39315e-05,0.506646760796023,-5.874355918893961e-05,0.506646760796023,-1.460239432761294e-05
0.507440877975954,-8.224300453887696e-06,0.507440877975954,-1.3595851591274856e-05,0.507440877975954,-6.999137169997648e-05,0.507440877975954,-1.9301977722152027e-05
0.5082349951558852,-5.035499456563923e-06,0.5082349951558852,-1.3931497951927795e-05,0.5082349951558852,-6.193644915312281e-05,0.5082349951558852,-1.96383979519278e-05
0.5090291123358163,-5.874814870776195e-06,0.5090291123358163,-1.4267389741552388e-05,0.5090291123358163,-3.50771321015754e-05,0.5090291123358163,-1.7288073081507125e-05
0.5098232295157473,-6.545469304242409e-06,0.5098232295157473,-1.560869860848482e-05,0.5098232295157473,-1.1268999602478204e-05,0.5098232295157473,-1.4270128130909156e-05
0.5106173466956784,-6.881543785565775e-06,0.5106173466956784,-1.4435966791659858e-05,0.5106173466956784,8.293023247991707e-07,0.5106173466956784,-1.29255048577369e-05
0.5114114638756094,-5.875400013694864e-06,0.5114114638756094,-1.2254473329244556e-05,0.5114114638756094,-6.205659927093422e-06,0.5114114638756094,-1.3595346657536757e-05
0.5122055810555405,-4.868161378810814e-06,0.5122055810555405,-1.1749665718425488e-05,0.5122055810555405,-8.894592981043865e-06,0.5122055810555405,-1.527341435985468e-05
0.5129996982354716,-4.532057584826413e-06,0.5129996982354716,-1.1246091358236816e-05,0.5129996982354716,-2.184591685126586e-06,0.5129996982354716,-1.644875347211036e-05
0.5137938154154027,-4.86755195837619e-06,0.5137938154154027,-1.158152195837619e-05,0.5137938154154027,-2.51766195837619e-06,0.5137938154154027,-1.4603329217307237e-05
0.5145879325953338,-5.874634505585168e-06,0.5145879325953338,-9.56758098967859e-06,0.5145879325953338,-7.552792525379061e-06,0.5145879325953338,-1.2253199488948766e-05
0.5153820497752648,-5.035532611326486e-06,0.5153820497752648,-8.224883581530675e-06,0.5153820497752648,-9.903089478236217e-06,0.5153820497752648,-1.7624452537376217e-05
0.5161761669551959,-5.874297006935836e-06,0.5161761669551959,-1.2588629500805964e-05,0.5161761669551959,-9.73466075895074e-06,0.5161761669551959,-2.1652388502417884e-05
0.5169702841351269,-3.862343695432254e-06,0.5169702841351269,-1.2253302284072806e-05,0.5169702841351269,-6.884389405614271e-06,0.5169702841351269,-2.064640685221842e-05
0.5177644013150581,-5.537764392096888e-06,0.5177644013150581,-1.0911212486322489e-05,0.5177644013150581,-2.8564774438872443e-06,0.5177644013150581,-1.7626478094225603e-05
0.5185585184949891,-6.210012849308258e-06,0.5185585184949891,-9.56822430744778e-06,0.5185585184949891,-7.71811812564732e-06,0.5185585184949891,-1.8295192843243964e-05
0.5193526356749202,-8.89477772318516e-06,0.5193526356749202,-8.560772105526244e-06,0.5193526356749202,-1.7619655971502223e-05,0.5193526356749202,-1.846332300535468e-05
0.5201467528548512,-8.224818983945715e-06,0.5201467528548512,-8.72810775401357e-06,0.5201467528548512,-1.829539101605429e-05,0.5201467528548512,-1.2926124101988856e-05
0.5209408700347823,-4.196889381969363e-06,0.5209408700347823,-1.0238552732170698e-05,0.5209408700347823,-1.4939149487702538e-05,0.5209408700347823,-8.56102433237646e-06
0.5217349872147133,-5.5390083777294e-06,0.5217349872147133,-1.124588378329705e-05,0.5217349872147133,-7.889023516759625e-06,0.5217349872147133,-4.8676894609221015e-06
0.5225291043946444,-6.881643672849663e-06,0.5225291043946444,-1.3595579589420651e-05,0.5225291043946444,-1.846913064880022e-06,0.5225291043946444,-6.2109489827641534e-06
0.5233232215745756,-5.540344794812203e-06,0.5233232215745756,-1.1918943505754646e-05,0.5233232215745756,-6.20614690462095e-06,0.5233232215745756,-1.0234855605771878e-05
0.5241173387545066,-5.53903e-06,0.5241173387545066,-1.2252720428070375e-05,0.5241173387545066,-1.0906286009641325e-05,0.5241173387545066,-1.3593004280703762e-05
0.5249114559344377,-5.53903e-06,0.5249114559344377,-1.2923939942545866e-05,0.5249114559344377,-1.4935839655275198e-05,0.5249114559344377,-1.2253920114908264e-05
0.5257055731143687,-7.04885782051631e-06,0.5257055731143687,-1.3930958543426613e-05,0.5257055731143687,-2.03069122316086e-05,0.5257055731143687,-1.174967075516866e-05
0.5264996902942998,-8.22415170577407e-06,0.5264996902942998,-1.3595930942321858e-05,0.5264996902942998,-1.5611833192506027e-05,0.5264996902942998,-1.5944063201473885e-05
0.5272938074742308,-7.2177641949331475e-06,0.5272938074742308,-1.0910851192954416e-05,0.5272938074742308,-8.897637979961282e-06,0.5272938074742308,-1.728817440352279e-05
0.528087924654162,-6.378349639791628e-06,0.528087924654162,-1.2252872576333395e-05,0.528087924654162,-5.539348557268632e-06,0.528087924654162,-1.628149556774995e-05
0.528882041834093,-6.210402312714048e-06,0.528882041834093,-1.292434693814214e-05,0.528882041834093,-8.560407282180252e-06,0.528882041834093,-1.76242e-05
0.5296761590140241,-5.875055729609288e-06,0.5296761590140241,-1.1917702875531144e-05,0.5296761590140241,-1.040740502217862e-05,0.5296761590140241,-1.7623729978546997e-05
0.5304702761939551,-7.5516918132750594e-06,0.5304702761939551,-1.3929666175930071e-05,0.5304702761939551,-1.392829085340002e-05,0.5304702761939551,-1.5276439461414918e-05
0.5312643933738862,-8.224097049487991e-06,0.5312643933738862,-1.39315e-05,0.5312643933738862,-1.6279604646467522e-05,0.5312643933738862,-1.6280630562771797e-05
0.5320585105538173,-5.540685474659094e-06,0.5320585105538173,-1.2925020807620391e-05,0.5320585105538173,-1.963633064126536e-05,0.5320585105538173,-1.4939427743493856e-05
0.5328526277337483,-4.1968595706836285e-06,0.5328526277337483,-1.2253314785341811e-05,0.5328526277337483,-2.2322640905517663e-05,0.5328526277337483,-1.2254259141367256e-05
0.5336467449136795,-4.867414301063487e-06,0.5336467449136795,-1.1246223548404769e-05,0.5336467449136795,-2.2995084301063488e-05,0.5336467449136795,-1.1246223548404769e-05
0.5344408620936105,-6.210186776674059e-06,0.5344408620936105,-1.0238974918797096e-05,0.5344408620936105,-2.4841379306854373e-05,0.5344408620936105,-1.2924108468671504e-05
0.5352349792735416,-4.867665051991343e-06,0.5352349792735416,-1.3595712369369046e-05,0.5352349792735416,-2.7023643041395077e-05,0.5352349792735416,-1.225301752612619e-05
0.5360290964534726,-4.19623e-06,0.5360290964534726,-1.510646109933186e-05,0.5360290964534726,-2.433801854231253e-05,0.5360290964534726,-1.4938559271156264e-05
0.5368232136334037,-4.19623e-06,0.5368232136334037,-1.5609501868908318e-05,0.5368232136334037,-2.3667364108846225e-05,0.5368232136334037,-1.460323205442311e-05
0.5376173308133347,-3.860812929425116e-06,0.5376173308133347,-1.4939165858850233e-05,0.5376173308133347,-2.1318880421695372e-05,0.5376173308133347,-1.2254980505975813e-05
0.5384114479932659,-4.531463227555069e-06,0.5384114479932659,-1.359673354488986e-05,0.5384114479932659,-1.2930234655561632e-05,0.5384114479932659,-1.3930333068887671e-05
0.539205565173197,-6.880533104337378e-06,0.539205565173197,-1.3260283843019862e-05,0.539205565173197,-9.737006503212275e-06,0.539205565173197,-1.359598384301986e-05
0.539999682353128,-6.88182e-06,0.539999682353128,-1.393123140036539e-05,0.539999682353128,-4.36622878907569e-06,0.539999682353128,-1.5609194201096176e-05
0.5407937995330591,-4.868138537163431e-06,0.5407937995330591,-1.35958847566147e-05,0.5407937995330591,-4.196272378307351e-06,0.5407937995330591,-1.49387695132294e-05
0.5415879167129901,-8.559922654564847e-06,0.5415879167129901,-1.158181128047258e-05,0.5415879167129901,-1.1580825308080738e-05,0.5415879167129901,-1.1581952134120966e-05
0.5423820338929212,-6.8817483514745615e-06,0.5423820338929212,-1.0910343297904602e-05,0.5423820338929212,-1.7624343297904602e-05,0.5423820338929212,-1.158168597874276e-05
0.5431761510728523,-5.203393792649724e-06,0.5431761510728523,-1.4267136207350277e-05,0.5431761510728523,-2.0981646529545197e-05,0.5431761510728523,-1.359560862205083e-05
0.5439702682527834,-5.538721009382879e-06,0.5439702682527834,-1.3931808990617122e-05,0.5439702682527834,-2.3328837157723824e-05,0.5439702682527834,-1.2589626971851368e-05
0.5447643854327144,-5.53903e-06,0.5447643854327144,-9.90621803885816e-06,0.5447643854327144,-2.5175970860155966e-05,0.5447643854327144,-1.1917819673143028e-05
0.5455585026126455,-7.216468539419776e-06,0.5455585026126455,-9.567620287104583e-06,0.5455585026126455,-2.199029775568302e-05,0.5455585026126455,-1.2252789706631087e-05
0.5463526197925765,-6.881980750166305e-06,0.5463526197925765,-9.902939254622202e-06,0.5463526197925765,-1.5277515003326114e-05,0.5463526197925765,-1.0910843000665222e-05
0.5471467369725076,-5.203886031506056e-06,0.5471467369725076,-1.0406533172990933e-05,0.5471467369725076,-1.1582823276601236e-05,0.5471467369725076,-1.3594910344290007e-05
0.5479408541524387,-6.210235010553437e-06,0.5479408541524387,-1.0238830841064927e-05,0.5479408541524387,-6.882683288982285e-06,0.5479408541524387,-1.493835334495542e-05
0.5487349713323698,-7.217483638324518e-06,0.5487349713323698,-1.0910175758883012e-05,0.5487349713323698,-4.196326964106899e-06,0.5487349713323698,-1.5609975758883014e-05
0.5495290885123009,-7.217557375571554e-06,0.5495290885123009,-1.1581375747684032e-05,0.5495290885123009,-5.874944252315967e-06,0.5495290885123009,-1.728868687785777e-05
0.5503232056922319,-7.552884592304709e-06,0.5503232056922319,-9.569422436180452e-06,0.5503232056922319,-7.886897563819549e-06,0.5503232056922319,-1.8965322961523544e-05
0.551117322872163,-5.037627143375802e-06,0.551117322872163,-1.2586123426243426e-05,0.551117322872163,-1.4932587983197249e-05,0.551117322872163,-1.6619104008443603e-05
0.551911440052094,-3.525895346730599e-06,0.551911440052094,-1.3595089768846268e-05,0.551911440052094,-3.271805265347313e-05,0.551911440052094,-1.0578761386922397e-05
0.5527055572320251,-3.692586399742323e-06,0.5527055572320251,-1.2253748802061416e-05,0.5527055572320251,-4.883511443102725e-05,0.5527055572320251,-1.4265140794331107e-05
0.5534996744119562,1.6626594951518496e-07,0.5534996744119562,-1.2253e-05,0.5534996744119562,-5.3206410454934864e-05,0.5534996744119562,-1.5945011713436482e-05
0.5542937915918873,-4.866308293860566e-06,0.5542937915918873,-1.3931059429449505e-05,0.5542937915918873,-4.21331077393854e-05,0.5542937915918873,-1.1582745483431288e-05
0.5550879087718184,-4.531968570907543e-06,0.5550879087718184,-1.1246208567260338e-05,0.5550879087718184,-1.695569280657597e-05,0.5550879087718184,-1.2252922858184916e-05
0.5558820259517494,-3.524873889180247e-06,0.5558820259517494,-1.1581627429103411e-05,0.5558820259517494,9.903670556074724e-06,0.5558820259517494,-1.4267221944590125e-05
0.5566761431316805,-4.86802285415363e-06,0.5566761431316805,-1.242076978931322e-05,0.5566761431316805,2.7357586836677704e-05,0.5566761431316805,-1.4938720878755084e-05
0.5574702603116115,-7.0476397740234846e-06,0.5574702603116115,-1.2253156125423392e-05,0.5574702603116115,1.7297870223637922e-05,0.5574702603116115,-1.5609375312221303e-05
0.5582643774915427,-6.21107798516728e-06,0.5582643774915427,-1.2756105248100418e-05,0.5582643774915427,8.399434634933015e-06,0.5582643774915427,-1.4939126388133824e-05
0.5590584946714737,-6.21042e-06,0.5590584946714737,-1.292429314274615e-05,0.5590584946714737,2.1811854003613705e-05,0.5590584946714737,-1.6951518094814152e-05
0.5598526118514048,-6.881491784676497e-06,0.5598526118514048,-1.4266543569352996e-05,0.5598526118514048,2.9202189631441476e-05,0.5598526118514048,-2.165030249273548e-05
0.5606467290313358,-2.854814766684361e-06,0.5606467290313358,-1.5609541742163413e-05,0.5606467290313358,3.172264078361992e-05,0.5606467290313358,-2.232367090520874e-05
0.5614408462112669,-4.195969916910713e-06,0.5614408462112669,-1.443522758408233e-05,0.5614408462112669,3.340167489371729e-05,0.5614408462112669,-2.0310190108170404e-05
0.5622349633911979,-4.531914521946014e-06,0.5622349633911979,-1.5106369043892028e-05,0.5622349633911979,3.7262322004684496e-05,0.5622349633911979,-2.131685356583804e-05
0.563029080571129,-9.73505586721723e-06,0.563029080571129,-1.2252931955401252e-05,0.563029080571129,2.232158649904737e-05,0.563029080571129,-1.661660667159171e-05
0.5638231977510602,-7.723102555713366e-06,0.5638231977510602,-1.158227752193485e-05,0.5638231977510602,-4.805124076010797e-07,0.5638231977510602,-1.1754312084483567e-05
0.5646173149309912,-6.2117233998716105e-06,0.5646173149309912,-1.2252420711168173e-05,0.5646173149309912,-1.4255324620362309e-05,0.5646173149309912,-1.5103503555840867e-05
0.5654114321109223,-8.558629298658761e-06,0.5654114321109223,-1.2588459898786644e-05,0.5654114321109223,-3.036917521328145e-05,0.5654114321109223,-2.097699819300499e-05
0.5662055492908533,-7.218282226366572e-06,0.5662055492908533,-1.1749876423409068e-05,0.5662055492908533,-3.574885107182796e-05,0.5662055492908533,-1.6619577254139784e-05
0.5669996664707844,-5.204176084648272e-06,0.5669996664707844,-1.2252788456784678e-05,0.5669996664707844,-4.044972579268592e-05,0.5669996664707844,-1.2422562706104955e-05
0.5677937836507154,-6.881362644696843e-06,0.5677937836507154,-1.510562250497648e-05,0.5677937836507154,-5.4211549691418766e-05,0.5677937836507154,-1.2924262778967604e-05
0.5685879008306466,-8.56010035923428e-06,0.5685879008306466,-1.2924672528374192e-05,0.5685879008306466,-5.925017107395589e-05,0.5685879008306466,-9.903477355626468e-06
