X [s].2,L DELTOID ANTERIOR: EMG 3 [V],X [s].3,L BICEPS BRACHII: EMG 4 [V],X [s].4,L DELTOID POSTERIOR: EMG 5 [V],X [s].7,L DELTOID MEDIUS: EMG 8 [V]
0.0,-1.49386e-05,0.0,-1.49386e-05,0.0,0.000156603,0.0,-0.000129076
0.000794117179931,-1.795989687996714e-05,0.000794117179931,-1.4267200693340636e-05,0.000794117179931,9.584196274670796e-05,0.000794117179931,-0.0001351189937595
0.0015882343598621,-9.903157222269e-06,0.0015882343598621,-1.2253014305567249e-05,0.0015882343598621,4.5151760022021977e-05,0.0015882343598621,-0.0001280690500716
0.0023823515397932,-5.539019585317027e-06,0.0023823515397932,-8.560305443579473e-06,0.0023823515397932,1.5106339139271932e-05,0.0023823515397932,-0.0001284049339313
0.0031764687197242,-1.6785765938725708e-07,0.0031764687197242,-6.210423788479205e-06,0.0031764687197242,-1.628134939676854e-05,0.0031764687197242,-9.433135493342406e-05
0.0039705858996553,7.385330999847509e-06,0.0039705858996553,-1.0910175733242122e-05,0.0039705858996553,-2.0309779199833303e-05,0.0039705858996553,-6.596484646758231e-05
0.0047647030795864,1.6952716623970607e-05,0.0047647030795864,-1.510636343192534e-05,0.0047647030795864,-1.2924464360578285e-05,0.0047647030795864,-5.925085850874516e-05
0.0055588202595174,1.7959898354404445e-05,0.0055588202595174,-1.7288500109706368e-05,0.0055588202595174,-2.299530614355674e-05,0.0055588202595174,-5.3208196379722464e-05
0.0063529374394485,1.292441623640854e-05,0.0063529374394485,-1.7624198917572764e-05,0.0063529374394485,-4.179443938407478e-05,0.0063529374394485,-4.213023571977635e-05
0.0071470546193796,4.867684589256963e-06,0.0071470546193796,-1.829559545087832e-05,0.0071470546193796,-5.018684313665648e-05,0.0071470546193796,-4.733346474464571e-05
0.0079411717993107,2.5177642667578777e-06,0.0079411717993107,-1.795990346669445e-05,0.0079411717993107,-4.682993466694449e-05,0.0079411717993107,-5.7907890799641184e-05
0.0087352889792417,1.1749417260507251e-06,0.0087352889792417,-1.5610003020588772e-05,0.0087352889792417,-3.1723519417942123e-05,0.0087352889792417,-5.001911014048374e-05
0.0095294061591728,1.8463367527182917e-06,0.0095294061591728,-1.4267206494563416e-05,0.0095294061591728,-2.9037912989126832e-05,0.0095294061591728,-4.313733328439568e-05
0.0103235233391039,-8.394729269803024e-07,0.0103235233391039,-1.5609881602762593e-05,0.0103235233391039,-4.045166546600289e-05,0.0103235233391039,-2.9037090956325733e-05
0.0111176405190349,-8.560464142225158e-06,0.0111176405190349,-1.1581411603833656e-05,0.0111176405190349,-3.927648591541851e-05,0.0111176405190349,-1.5089786920153905e-06
0.011911757698966,-1.158143907870708e-05,0.011911757698966,-7.889106681698596e-06,0.011911757698966,-3.5080723499872354e-05,0.011911757698966,3.105036562884669e-05
0.0127058748788971,-1.5609872562837426e-05,0.0127058748788971,-7.88891e-06,0.0127058748788971,-3.1052227437162575e-05,0.0127058748788971,6.159973360468061e-05
0.0134999920588282,-2.232383285954748e-05,0.0134999920588282,-5.7068918208720745e-06,0.0134999920588282,-3.944451607318432e-05,0.0134999920588282,8.526716332787981e-05
0.0142941092387592,-2.6352307811236587e-05,0.0142941092387592,-4.196200707979141e-06,0.0142941092387592,-7.301459137413296e-05,0.0142941092387592,8.946340862586704e-05
0.0150882264186903,-2.702382283593279e-05,0.0150882264186903,-1.6784844165485094e-06,0.0150882264186903,-8.94628239052325e-05,0.0150882264186903,7.301370765534163e-05
0.0158823435986214,-3.071613775702504e-05,0.0158823435986214,-1.5106519201352255e-06,0.0158823435986214,-6.613425688814384e-05,0.0158823435986214,5.220257808966629e-05
0.0166764607785524,-2.3834939899455387e-05,0.0166764607785524,-6.210187872843961e-06,0.0166764607785524,-2.836836530803308e-05,0.0166764607785524,4.246638083193032e-05
0.0174705779584835,-1.913493045047096e-05,0.0174705779584835,-8.560244775042086e-06,0.0174705779584835,7.887903673069203e-06,0.0174705779584835,5.622911796925356e-05
0.0182646951384146,-2.064549075129452e-05,0.0182646951384146,-9.567403834400416e-06,0.0182646951384146,1.72884424544651e-05,0.0182646951384146,6.462194862000346e-05
0.0190588123183456,-2.232384792664065e-05,0.0190588123183456,-1.09102e-05,0.0190588123183456,-6.378613693323996e-06,0.0190588123183456,6.126472400452514e-05
0.0198529294982767,-1.896682543943447e-05,0.0198529294982767,-1.09102561068961e-05,0.0198529294982767,-2.8534680541908923e-05,0.0198529294982767,4.347238903802065e-05
0.0206470466782078,-1.4267515539862528e-05,0.0206470466782078,-1.2420698579829708e-05,0.0206470466782078,-3.608709288572074e-05,0.0206470466782078,2.702480438951885e-05
0.0214411638581389,-8.224885016305791e-06,0.0214411638581389,-1.6281224292571538e-05,0.0214411638581389,-3.10523291806341e-05,0.0214411638581389,1.5946204192843724e-05
0.0222352810380699,-1.6804138350118498e-07,0.0222352810380699,-1.896693587185585e-05,0.0222352810380699,-1.628175270240497e-05,0.0222352810380699,-4.867133008554338e-06
0.023029398218001,9.90307740030153e-06,0.023029398218001,-1.8967e-05,0.023029398218001,8.895953500669671e-06,0.023029398218001,-3.810172542090911e-05
0.0238235153979321,1.628147160300205e-05,0.0238235153979321,-1.6617015378270306e-05,0.0238235153979321,2.9373560943817063e-05,0.0238235153979321,-6.898602603745529e-05
0.0246176325778631,1.997398983743468e-05,0.0246176325778631,-1.2252903607755344e-05,0.0246176325778631,2.735849116416866e-05,0.0246176325778631,-7.0328469516406e-05
0.0254117497577942,1.7288669894822127e-05,0.0254117497577942,-9.903248657969362e-06,0.0254117497577942,5.204731624058574e-06,0.0254117497577942,-6.227260967814024e-05
0.0262058669377253,9.06420243206996e-06,0.0262058669377253,-1.0574472046327647e-05,0.0262058669377253,-3.524466603924824e-06,0.0262058669377253,-5.220151930508527e-05
0.0269999841176564,7.88893349950839e-06,0.0269999841176564,-1.05745e-05,0.0269999841176564,-5.5389897151284745e-06,0.0269999841176564,-4.078762827893861e-05
0.0277941012975874,7.553212868939009e-06,0.0277941012975874,-1.3595798354363e-05,0.0277941012975874,-9.567400126210676e-06,0.0277941012975874,-3.373769451454333e-05
0.0285882184775185,3.189155620273448e-06,0.0285882184775185,-1.25887e-05,0.0285882184775185,-3.52507992739969e-06,0.0285882184775185,-3.03807156205061e-05
0.0293823356574496,3.8604756069693965e-06,0.0293823356574496,-1.25887e-05,0.0293823356574496,-1.4266329700978325e-05,0.0293823356574496,-3.1052045606159244e-05
0.0301764528373806,-2.853041248695108e-06,0.0301764528373806,-1.1581659812962994e-05,0.0301764528373806,-4.749932618409943e-05,0.0301764528373806,-3.64229809975307e-05
0.0309705700173117,-6.210293251121021e-06,0.0309705700173117,-1.3092142964552488e-05,0.0309705700173117,-6.730675218093441e-05,0.0309705700173117,-3.877311127525612e-05
0.0317646871972428,-8.560272114253804e-06,0.0317646871972428,-1.4938570231695194e-05,0.0317646871972428,-9.080602114253802e-05,0.0317646871972428,-3.105222448226724e-05
0.0325588043771738,-1.376364348510874e-05,0.0325588043771738,-1.561e-05,0.0325588043771738,-0.0001505615292185,0.0325588043771738,-1.963832228259125e-05
0.0333529215571049,-2.165268200494275e-05,0.0333529215571049,-1.5609981776076207e-05,0.0333529215571049,-0.0002465712141053,0.0333529215571049,-5.5377269940631495e-06
0.034147038737036,-2.467356695080996e-05,0.034147038737036,-1.4938651790423076e-05,0.034147038737036,-0.0002544583915358,0.034147038737036,4.246219699786356e-05
0.0349411559169671,-2.165276771648277e-05,0.0349411559169671,-1.2253149086252523e-05,0.0349411559169671,-9.719343079982342e-05,0.0349411559169671,5.857850548803616e-05
0.0357352730968981,-2.2323877257206584e-05,0.0357352730968981,-1.4267131761456124e-05,0.0357352730968981,0.0001455167773028,0.0357352730968981,1.997540789864853e-05
0.0365293902768292,-2.0981216440374468e-05,0.0365293902768292,-1.7959854785603046e-05,0.0365293902768292,0.0003257927927263,0.0365293902768292,1.3931573987195013e-05
0.0373235074567603,-1.5945671629379252e-05,0.0373235074567603,-1.6281381086252834e-05,0.0373235074567603,0.0003435861788361,0.0373235074567603,5.874477274329274e-06
0.0381176246366913,-1.2924420827341472e-05,0.0381176246366913,-1.4267220827341474e-05,0.0381176246366913,0.0002561340792545,0.0381176246366913,-1.9973641799418207e-05
0.0389117418166224,-1.3595750812994604e-05,0.0389117418166224,-1.4938550812994604e-05,0.0389117418166224,0.0001297562594501,0.0389117418166224,-5.204412111920881e-06
0.0397058589965535,-1.4267165332182394e-05,0.0397058589965535,-1.393155200172641e-05,0.0397058589965535,4.079199343936119e-05,0.0397058589965535,3.105022794662724e-05
0.0404999761764846,-9.90323092583248e-06,0.0404999761764846,-1.1917360427307298e-05,0.0404999761764846,-2.8700115266898395e-05,0.0404999761764846,1.1078699232963944e-05
0.0412940933564156,-3.860580553234298e-06,0.0412940933564156,-9.0638838723955e-06,0.0412940933564156,-5.925054442488325e-05,0.0412940933564156,-3.273023348848663e-05
0.0420882105363467,1.17494e-06,0.0420882105363467,-6.546082144506119e-06,0.0420882105363467,-5.958671822522638e-05,0.0420882105363467,-8.006460771208271e-05
0.0428823277162778,1.17494e-06,0.0428823277162778,-3.692939704437473e-06,0.0428823277162778,-7.603420288415636e-05,0.0428823277162778,-0.0001183305168838
0.0436764448962088,1.5106167052730395e-06,0.0436764448962088,-4.19619505790956e-06,0.0436764448962088,-5.555952097140542e-05,0.0436764448962088,-0.0001284043011581
0.0444705620761399,1.846323967963963e-06,0.0444705620761399,-6.881691744189272e-06,0.0444705620761399,-9.905280347349672e-06,0.0444705620761399,-0.0001109488336945
0.045264679256071,2.517722461309765e-06,0.045264679256071,-5.874746308035352e-06,0.045264679256071,4.145745829542154e-05,0.045264679256071,-8.627514453511098e-05
0.046058796436002,5.8747049335478176e-06,0.046058796436002,-4.531936026571897e-06,0.046058796436002,6.344690131482348e-05,0.046058796436002,-6.529349416521394e-05
0.0468529136159331,1.2588642447051807e-05,0.0468529136159331,-6.210529350584422e-06,0.0468529136159331,4.380826835331716e-05,0.0468529136159331,-4.750102950205214e-05
0.0476470307958642,9.23200251774328e-06,0.0476470307958642,-1.2588144216374906e-05,0.0476470307958642,1.863349388089617e-05,0.0476470307958642,-3.172487482877516e-05
0.0484411479757953,5.2035939129400655e-06,0.0484411479757953,-1.560980206431225e-05,0.0484411479757953,-8.222850577560649e-06,0.0484411479757953,-2.131758177192869e-05
0.0492352651557263,3.860588920653098e-06,0.0492352651557263,-1.4938629460326547e-05,0.0492352651557263,-4.917800292929509e-05,0.0492352651557263,-4.364823871928996e-06
0.0500293823356574,-2.349751852428775e-06,0.0500293823356574,-1.4267214934944707e-05,0.0500293823356574,-8.627367484764149e-05,0.0500293823356574,2.920505325543388e-05
0.0508234995155885,-5.874717849807168e-06,0.0508234995155885,-1.4938599590437137e-05,0.0508234995155885,-0.0001111159848463,0.0508234995155885,5.539028402710932e-05
0.0516176166955195,-1.107815292660498e-05,0.0516176166955195,-1.7959864714895952e-05,0.0516176166955195,-0.0001233689929366,0.0516176166955195,5.28725105865823e-05
0.0524117338754506,-1.359559037801828e-05,0.0524117338754506,-1.6281539750763123e-05,0.0524117338754506,-0.0001230330279751,0.0524117338754506,5.3376058070608094e-05
0.0532058510553817,-1.5609875854111428e-05,0.0532058510553817,-1.4938682763925714e-05,0.0532058510553817,-0.0001210191241335,0.0532058510553817,3.877410005461038e-05
0.0539999682353128,-1.7624119430256947e-05,0.0539999682353128,-1.762409257367593e-05,0.0539999682353128,-0.0001539166840115,0.0539999682353128,8.225831970036209e-06
0.0547940854152438,-1.8966975337601656e-05,0.0547940854152438,-1.6784915414917284e-05,0.0547940854152438,-0.000162645839698,0.0547940854152438,-1.6280949912883202e-05
0.0555882025951749,-1.8295584642655252e-05,0.0555882025951749,-1.7288492321327627e-05,0.0555882025951749,-0.0001156476802399,0.0555882025951749,-3.910895704123944e-05
0.056382319775106,-1.3596274743083291e-05,0.056382319775106,-1.4938837371541646e-05,0.056382319775106,-1.7801884773641126e-05,0.056382319775106,-5.656343667864912e-05
0.057176436955037,-1.4267146696400828e-05,0.057176436955037,-6.211112945201399e-06,0.057176436955037,5.4545256564976337e-05,0.057176436955037,-4.1124325974841786e-05
0.0579705541349681,-1.829536733069605e-05,0.0579705541349681,-9.567216109490942e-06,0.0579705541349681,5.690076427623936e-05,0.0579705541349681,-7.890829515404344e-06
0.0587646713148992,-1.762422425283549e-05,0.0587646713148992,-1.779170290493259e-05,0.0587646713148992,4.783732741327914e-05,0.0587646713148992,-1.3595593851259543e-05
0.0595587884948302,-1.2253077819629168e-05,0.0595587884948302,-1.628142188604629e-05,0.0595587884948302,7.334973035821028e-05,0.0595587884948302,-2.7023505452375903e-05
0.0603529056747613,-2.8534136148176334e-06,0.0603529056747613,-1.107809880031172e-05,0.0603529056747613,0.0001112840551685,0.0603529056747613,-4.179454317520213e-05
0.0611470228546924,8.388873077345588e-07,0.0611470228546924,-1.091021630911249e-05,0.0611470228546924,0.0001190042500139,0.0611470228546924,-4.783641305650848e-05
0.0619411400346235,1.1749146505262586e-06,0.0619411400346235,-9.567511398952155e-06,0.0619411400346235,8.308811241951599e-05,0.0619411400346235,-3.776686049025333e-05
0.0627352572145545,5.87446677977498e-06,0.0627352572145545,-1.6784511127660894e-05,0.0627352572145545,1.997750038418549e-05,0.0627352572145545,-2.6352914966020607e-05
0.0635293743944856,4.531973297857463e-06,0.0635293743944856,-1.896692963884541e-05,0.0635293743944856,-5.152739438159323e-05,0.0635293743944856,2.7693357257932043e-05
0.0643234915744167,7.888874381671602e-06,0.0643234915744167,-1.0238892608205568e-05,0.0643234915744167,-8.476354737750904e-05,0.0643234915744167,8.308481229620208e-05
0.0651176087543477,1.326009259925824e-05,0.0651176087543477,-1.0238844404450554e-05,0.0651176087543477,-6.327882256327257e-05,0.0651176087543477,0.0001038988556822
0.0659117259342788,1.2588762613605116e-05,0.0659117259342788,-1.426682431836931e-05,0.0659117259342788,-2.904109328453504e-05,0.0659117259342788,9.080762099327724e-05
0.0667058431142099,9.903292384432436e-06,0.0667058431142099,-1.5777691787338532e-05,0.0667058431142099,-1.1769359784575509e-06,0.0667058431142099,4.873786271034669e-06
0.067499960294141,3.1894757052627056e-06,0.067499960294141,-1.896684053655014e-05,0.067499960294141,1.1748753769019324e-05,0.067499960294141,-5.051983042858262e-05
0.068294077474072,-6.210153366312658e-06,0.068294077474072,-2.0309761909311143e-05,0.068294077474072,2.5180018709329065e-06,0.068294077474072,-7.402083341578163e-05
0.0690881946540031,-7.888898700160834e-06,0.0690881946540031,-1.762421807985038e-05,0.0690881946540031,-8.543470788732361e-05,0.0690881946540031,-8.006405932033665e-05
0.0698823118339342,-1.0238539133018988e-05,0.0698823118339342,-1.3596247202441947e-05,0.0698823118339342,-0.0001653221305848,0.0698823118339342,-2.5015611744504124e-05
0.0706764290138652,-1.1917149955638928e-05,0.0706764290138652,-9.567770105572657e-06,0.0706764290138652,-0.0001324359408158,0.0706764290138652,-2.855420573051292e-06
0.0714705461937963,-9.90323647708775e-06,0.0714705461937963,-5.539302952820352e-06,0.0714705461937963,-3.5758450866333274e-05,0.0714705461937963,-1.8965908186008296e-05
0.0722646633737274,-6.042748059216849e-06,0.0722646633737274,-4.531976450471125e-06,0.0722646633737274,8.005875821888224e-05,0.0722646633737274,-1.393173225235562e-05
0.0730587805536585,-4.867658772553176e-06,0.0730587805536585,-5.539005337601662e-06,0.0730587805536585,0.0001458593887306,0.0730587805536585,-2.182327727001067e-06
0.0738528977335895,-6.881814251377367e-06,0.0738528977335895,-3.5248357486511733e-06,0.0738528977335895,7.670729736950074e-05,0.0738528977335895,-4.783686969792505e-05
0.0746470149135206,-9.567122279780772e-06,0.0746470149135206,-5.8744682449420944e-06,0.0746470149135206,-6.729207102078728e-05,0.0746470149135206,-9.31514447246485e-05
0.0754411320934517,-1.091008517285733e-05,0.0754411320934517,-7.720912111503014e-06,0.0754411320934517,-9.348976086259416e-05,0.0754411320934517,-0.0001049049952379
0.0762352492733827,-1.3595628445531769e-05,0.0762352492733827,-9.73513133478762e-06,0.0762352492733827,-3.978373107020082e-05,0.0762352492733827,-0.0001183331422276
0.0770293664533138,-8.224836905459247e-06,0.0770293664533138,-1.3259951093437586e-05,0.0770293664533138,4.749761279632039e-05,0.0770293664533138,-0.0001230328014911
0.0778234836332449,-3.0213972427453665e-06,0.0778234836332449,-1.1581634594633444e-05,0.0778234836332449,0.0001032258514684,0.0778234836332449,-5.2538252958116345e-05
0.078617600813176,-1.678448753700369e-07,0.078617600813176,-1.0574503437209554e-05,0.078617600813176,8.845654431741e-05,0.078617600813176,4.196232406036449e-06
0.079411717993107,3.860114040738622e-06,0.079411717993107,-1.3931153365475184e-05,0.079411717993107,3.407901545865059e-05,0.079411717993107,6.5458773568652e-06
0.0802058351730381,1.443413674504034e-05,0.0802058351730381,-1.7623898543606484e-05,0.0802058351730381,-2.8361402670927657e-05,0.0802058351730381,1.0909843734985833e-05
0.0809999523529692,1.1078301418357533e-05,0.0809999523529692,-1.6281480569743063e-05,0.0809999523529692,-9.415945210059025e-05,0.0809999523529692,3.4743369893060737e-05
0.0817940695329002,-2.852905490972917e-06,0.0817940695329002,-1.4267277278469024e-05,0.0817940695329002,-0.0001371313513926,0.0817940695329002,4.951493329506383e-05
0.0825881867128313,-8.224520127639246e-06,0.0825881867128313,-1.326011685116176e-05,0.0825881867128313,-8.778602570525305e-05,0.0825881867128313,5.421522136124512e-05
0.0833823038927624,-1.5776885978058607e-05,0.0833823038927624,-1.5609715635359354e-05,0.0833823038927624,-5.92542529871067e-05,0.0833823038927624,3.206188114022495e-05
0.0841764210726934,-1.829534975044407e-05,0.0841764210726934,-1.8295333072441257e-05,0.0841764210726934,-2.904090292509668e-05,0.0841764210726934,-1.3759045573376929e-05
0.0849705382526245,-2.0980991173968685e-05,0.0849705382526245,-1.7120691365276584e-05,0.0849705382526245,9.56440814057379e-06,0.0849705382526245,-5.689754574353564e-05
0.0857646554325556,-1.6617344927318966e-05,0.0857646554325556,-1.2253273185357304e-05,0.0857646554325556,4.464593117014648e-05,0.0857646554325556,-3.776717390647854e-05
0.0865587726124866,-1.2924527356592883e-05,0.0865587726124866,-1.158162315574416e-05,0.0865587726124866,0.0001012110491406,0.0865587726124866,2.7357153903163016e-05
0.0873528897924177,-8.224670412407664e-06,0.0873528897924177,-1.2252991369637683e-05,0.0873528897924177,0.0001044019590077,0.0873528897924177,8.2916785840732e-05
0.0881470069723488,-9.567252712754992e-06,0.0881470069723488,-1.3595642712754992e-05,0.0881470069723488,3.810956599329868e-05,0.0881470069723488,9.785435018525596e-05
0.0889411241522799,-8.560406192216224e-06,0.0889411241522799,-1.8966486974846808e-05,0.0889411241522799,-2.836015134238345e-05,0.0889411241522799,7.301677273178212e-05
0.0897352413322109,-5.5392532109528265e-06,0.0897352413322109,-2.131672639033189e-05,0.0897352413322109,-5.589176629413303e-05,0.0897352413322109,1.5278565815395227e-05
0.090529358512142,1.1745892277626595e-06,0.090529358512142,-1.4267568312494928e-05,0.090529358512142,-4.112387169714581e-05,0.090529358512142,-2.500739536762085e-05
0.0913234756920731,9.063618514934492e-06,0.0913234756920731,-5.707132037370239e-06,0.0913234756920731,-5.875798976254461e-06,0.0913234756920731,-3.944415813202959e-05
0.0921175928720041,1.359575932042651e-05,0.0921175928720041,-4.86763753318121e-06,0.0921175928720041,9.23157440175083e-06,0.0921175928720041,-5.2536682481870456e-05
0.0929117100519352,1.4602785939692764e-05,0.0929117100519352,-6.881591880518092e-06,0.0929117100519352,-1.6278510482409764e-05,0.0929117100519352,-6.361364533662042e-05
0.0937058272318663,1.091053838419243e-05,0.0937058272318663,-7.049654618900344e-06,0.0937058272318663,-6.39462317860249e-05,0.0937058272318663,-7.80485772345932e-05
0.0944999444117974,4.868052989050956e-06,0.0944999444117974,-6.546155249262583e-06,0.0944999444117974,-0.0001344420651452,0.0944999444117974,-5.052452695268775e-05
0.0952940615917284,-5.874200424259252e-06,0.0952940615917284,-6.881803763182528e-06,0.0952940615917284,-0.0001988978825503,0.0952940615917284,-3.862786906504182e-06
0.0960881787716595,-9.567311284875289e-06,0.0960881787716595,-1.0910092311016062e-05,0.0960881787716595,-0.0002056148205174,0.0960881787716595,4.6157162862362e-05
0.0968822959515906,-1.5609208358249703e-05,0.0968822959515906,-1.2924136118979866e-05,0.0968822959515906,-0.0001304288514532,0.0968822959515906,9.180751872307904e-05
0.0976764131315216,-1.7959642938877738e-05,0.0976764131315216,-1.2420855089995818e-05,0.0976764131315216,-2.8042000487509447e-05,0.0976764131315216,0.0001099390169898
0.0984705303114527,-1.9638252698367257e-05,0.0984705303114527,-1.661673174153024e-05,0.0984705303114527,3.339660878656889e-05,0.0984705303114527,7.93953808546128e-05
0.0992646474913838,-2.0309755604728748e-05,0.0992646474913838,-2.0309555826008112e-05,0.0992646474913838,5.001800122034267e-05,0.0992646474913838,2.5013096003746757e-05
0.1000587646713148,-2.165220216623648e-05,0.1000587646713148,-2.0981001083118243e-05,0.1000587646713148,8.576040772048708e-05,0.1000587646713148,-4.378831110850118e-05
0.1008528818512459,-2.433770039234389e-05,0.1008528818512459,-1.8295999622536304e-05,0.1008528818512459,9.785430171346683e-05,0.1008528818512459,-7.368135422904403e-05
0.101646999031177,-2.0309804915251328e-05,0.101646999031177,-1.4267204915373346e-05,0.101646999031177,9.886319877115668e-05,0.101646999031177,-6.529341024023912e-05
0.1024411162111081,-1.4267101732823706e-05,0.1024411162111081,-8.89635393365341e-06,0.1024411162111081,9.516644650093216e-05,0.1024411162111081,-6.227047859159116e-05
0.1032352333910391,-1.3594615881450428e-05,0.1032352333910391,-1.1245505292836998e-05,0.1032352333910391,6.74680486231806e-05,0.1032352333910391,-5.118857280590306e-05
0.1040293505709702,-9.56741e-06,0.1040293505709702,-9.9019157403946e-06,0.1040293505709702,4.245435342695523e-05,0.1040293505709702,-3.274051820396069e-05
0.1048234677509013,-9.56741e-06,0.1048234677509013,-7.219317984320054e-06,0.1048234677509013,1.629893041072262e-05,0.1048234677509013,-5.520734183612859e-05
0.1056175849308323,-1.1245022557371335e-05,0.1056175849308323,-8.224083536513832e-06,0.1056175849308323,-1.4922279522149764e-05,0.1056175849308323,-0.0001129328156891
0.1064117021107634,-5.2055970233804166e-06,0.1064117021107634,-7.553471888985543e-06,0.1064117021107634,-2.701916596824618e-05,0.1064117021107634,-0.0001049090227878
0.1072058192906945,5.022491511841968e-07,0.1072058192906945,-5.539488416720369e-06,0.1072058192906945,-2.4674334822162357e-05,0.1072058192906945,-8.946711459115704e-05
0.1079999364706256,6.881309662934617e-06,0.1079999364706256,-1.510962318761384e-06,0.1079999364706256,-4.9177839230668703e-05,0.1079999364706256,-8.879235371192573e-05
0.1087940536505566,1.426741548739327e-05,0.1087940536505566,3.524693901240898e-06,0.1087940536505566,-7.93935165898518e-05,0.1087940536505566,-6.159972462071726e-05
0.1095881708304877,1.7456408350420186e-05,0.1095881708304877,1.5087982343419131e-06,0.1095881708304877,-9.147570545470496e-05,0.1095881708304877,-4.716401103979708e-05
0.1103822880104188,1.795722106782475e-05,0.1103822880104188,-7.053018657964396e-06,0.1103822880104188,-8.174272176964434e-05,0.1103822880104188,-3.9768610157672376e-05
0.1111764051903498,1.0566629557160193e-05,0.1111764051903498,-1.6282426584154384e-05,0.1111764051903498,-8.207248268979182e-05,0.1111764051903498,-7.5342282848851e-06
0.1119705223702809,-4.858352490297501e-06,0.1119705223702809,-1.8294389884553317e-05,0.1119705223702809,-7.067135732086456e-05,0.1119705223702809,2.968691297237884e-05
0.112764639550212,-8.8941812484674e-06,0.112764639550212,-2.0644433222976367e-05,0.112764639550212,-4.7847362931404295e-05,0.112764639550212,3.910463289190547e-05
0.1135587567301431,-1.4265554346822833e-05,0.1135587567301431,-2.131669429296987e-05,0.1135587567301431,-2.9043659766205044e-05,0.1135587567301431,4.3471662904304174e-05
0.1143528739100741,-1.8630606965937868e-05,0.1143528739100741,-2.165254668968753e-05,0.1143528739100741,-2.232496620624943e-05,0.1143528739100741,5.622747422400643e-05
0.1151469910900052,-2.0981173630230847e-05,0.1151469910900052,-1.9302726369769155e-05,0.1151469910900052,-2.8366432192022174e-05,0.1151469910900052,3.205947123078915e-05
0.1159411082699363,-1.6280942239072813e-05,0.1159411082699363,-1.4938554223907282e-05,0.1159411082699363,-2.7860962970692025e-05,0.1159411082699363,-9.905205686629047e-06
0.1167352254498673,-1.292249361977262e-05,0.1167352254498673,-1.460394851224842e-05,0.1167352254498673,-1.2919062142177944e-05,0.1167352254498673,-2.534586723506717e-05
0.1175293426297984,-6.209551922624227e-06,0.1175293426297984,-1.8296612761966512e-05,0.1175293426297984,5.886945410471866e-06,0.1175293426297984,-2.769452127887628e-05
0.1183234598097295,-4.197598611120645e-06,0.1183234598097295,-2.0643903279098595e-05,0.1183234598097295,3.422192541320255e-05,0.1183234598097295,-2.635321241194366e-05
0.1191175769896605,1.5075996158492892e-06,0.1191175769896605,-2.0477689450171268e-05,0.1191175769896605,7.299374324371287e-05,0.1191175769896605,-1.4273638441124427e-05
0.1199116941695916,6.208609753606382e-06,0.1199116941695916,-1.796086975972178e-05,0.1199116941695916,8.207480879566977e-05,0.1199116941695916,-1.2589346519320412e-05
0.1207058113495227,3.861088322254441e-06,0.1207058113495227,-1.963800119669258e-05,0.1207058113495227,4.0125970035166544e-05,0.1207058113495227,-1.997234526544734e-05
0.1214999285294538,5.203209130164431e-06,0.1214999285294538,-1.8967060434917785e-05,0.1214999285294538,3.392787555567755e-07,0.1214999285294538,-1.1078900758159984e-05
0.1222940457093848,3.189294604798276e-06,0.1222940457093848,-1.6448997082569517e-05,0.1222940457093848,-1.6953225160604678e-05,0.1222940457093848,-4.197176959714524e-06
0.1230881628893159,5.874857737892596e-06,0.1230881628893159,-1.2924709900000826e-05,0.1230881628893159,-2.4339236347871428e-05,0.1230881628893159,-2.0647497178927613e-05
0.123882280069247,6.543514944717309e-06,0.123882280069247,-1.4435059223711049e-05,0.123882280069247,-2.987714077628895e-05,0.123882280069247,-3.0373121661271564e-05
0.124676397249178,-8.411750490043403e-07,0.124676397249178,-1.460256451182621e-05,0.124676397249178,-2.970493870370918e-05,0.124676397249178,-8.886280887931696e-06
0.1254705144291091,-4.697422059203065e-06,0.1254705144291091,-1.39319100783599e-05,0.1254705144291091,-2.098653095760061e-05,0.1254705144291091,1.056260778253316e-05
0.1262646316090402,-6.880807602254602e-06,0.1262646316090402,-1.0911601787917806e-05,0.1262646316090402,-1.7625757542130897e-05,0.1262646316090402,1.3258853966295284e-05
0.1270587487889713,-9.902144107233256e-06,0.1270587487889713,-8.896647262899117e-06,0.1270587487889713,-1.9637762733937016e-05,0.1270587487889713,1.460247515595801e-05
0.1278528659689023,-1.0910029996576284e-05,0.1278528659689023,-8.89601e-06,0.1278528659689023,-2.030968666438419e-05,0.1278528659689023,4.533630029173011e-06
0.1286469831488334,-1.292435725236812e-05,0.1286469831488334,-8.224624249210627e-06,0.1286469831488334,-1.158178523973814e-05,0.1286469831488334,8.895917380555392e-06
0.1294411003287645,-1.3595672744208127e-05,0.1294411003287645,-8.895607024589325e-06,0.1294411003287645,-3.020547677074585e-06,0.1294411003287645,1.3929803262173584e-05
0.1302352175086955,-1.2587228616680682e-05,0.1302352175086955,-5.707421770799297e-06,0.1302352175086955,2.8542676507201378e-06,0.1302352175086955,5.018926936287969e-07
0.1310293346886266,-7.218509284851408e-06,0.1310293346886266,-7.72128198630322e-06,0.1310293346886266,5.870762864804284e-06,0.1310293346886266,-5.537192753096024e-06
0.1318234518685577,-9.565789813088143e-06,0.1318234518685577,-8.22426282250761e-06,0.1318234518685577,-3.5183492592473183e-06,0.1318234518685577,-1.1779489244603592e-06
0.1326175690484888,-1.4264649141558e-05,0.1326175690484888,-4.869452034765942e-06,0.1326175690484888,-1.5267922856608804e-05,0.1326175690484888,-1.683956088015021e-07
0.1334116862284198,-1.5945036693202446e-05,0.1334116862284198,-5.706538350553007e-06,0.1334116862284198,-4.010618309891406e-05,0.1334116862284198,-5.034153390356679e-07
0.1342058034083509,-1.59457e-05,0.1342058034083509,-7.552762850136949e-06,0.1342058034083509,-7.401310511567056e-05,0.1342058034083509,3.0708670049041274e-05
0.134999920588282,-1.5274367149908654e-05,0.134999920588282,-6.210554299817305e-06,0.134999920588282,-0.000103560045414,0.134999920588282,5.287028406301595e-05
0.135794037768213,-1.762413612700689e-05,0.135794037768213,-9.567601618503664e-06,0.135794037768213,-0.0001164864331438,0.135794037768213,4.280086546057922e-05
0.1365881549481441,-1.6281039677262776e-05,0.1365881549481441,-1.359606204580348e-05,0.1365881549481441,-0.0001045607629439,0.1365881549481441,2.7353504000645516e-05
0.1373822721280752,-1.44340220525821e-05,0.1373822721280752,-1.493975054653462e-05,0.1373822721280752,-5.722141285428912e-05,0.1373822721280752,-2.8613212129164023e-06
0.1381763893080062,-1.1579956096749696e-05,0.1381763893080062,-1.8296586344888355e-05,0.1381763893080062,-1.2920125853507994e-05,0.1381763893080062,-2.585044390814726e-05
0.1389705064879373,-8.226693918313497e-06,0.1389705064879373,-2.030854964528728e-05,0.1389705064879373,-4.201648185132012e-06,0.1389705064879373,-2.9203716075478804e-05
0.1397646236678684,-3.527057554439929e-06,0.1397646236678684,-1.6451029808346518e-05,0.1397646236678684,-8.408371095017153e-07,0.1397646236678684,-6.997376804590689e-05
0.1405587408477994,2.5157677766848826e-06,0.1405587408477994,-1.561027390494542e-05,0.1405587408477994,2.36587015493308e-05,0.1405587408477994,-0.0001250300307323
0.1413528580277305,6.881039674632719e-06,0.1413528580277305,-1.527436002530334e-05,0.1413528580277305,6.746756672473521e-05,0.1413528580277305,-0.0001287393398468
0.1421469752076616,1.0070900419106278e-05,0.1421469752076616,-1.4267231446302205e-05,0.1421469752076616,0.0001037298679331,0.1421469752076616,-9.953551192715166e-05
0.1429410923875927,1.1581560938898156e-05,0.1429410923875927,-1.6616904694490775e-05,0.1429410923875927,9.516557832443894e-05,0.1429410923875927,-7.905549615339682e-05
0.1437352095675237,1.1244615242864268e-05,0.1437352095675237,-1.4937802561259957e-05,0.1437352095675237,5.285761454811606e-05,0.1437352095675237,-6.612812549582226e-05
0.1445293267474548,6.375579524877548e-06,0.1445293267474548,-1.1917713921209776e-05,0.1445293267474548,-3.5681534943579973e-06,0.1445293267474548,-4.9159379990557135e-05
0.1453234439273859,-1.6327023584339614e-07,0.1453234439273859,-1.292369557140924e-05,0.1453234439273859,-0.0001088602702481,0.1453234439273859,4.6879636578703846e-07
0.146117561107317,-7.213623212821822e-06,0.146117561107317,-1.0408091687793443e-05,0.146117561107317,-0.0001861023207267,0.146117561107317,5.586318239759136e-05
0.146911678287248,-9.230893890922131e-06,0.146911678287248,-9.567750063344553e-06,0.146911678287248,-0.0001540989896588,0.146911678287248,5.790718388687034e-05
0.1477057954671791,-1.1077624373608143e-05,0.1477057954671791,-1.3930375819095405e-05,0.1477057954671791,-3.611799615316205e-05,0.1477057954671791,1.5285282356329107e-05
0.1484999126471102,-9.90322926907493e-06,0.1484999126471102,-1.6281141472851763e-05,0.1484999126471102,4.212159477221356e-05,0.1484999126471102,-2.9704351073736992e-05
0.1492940298270412,-1.1245950443011329e-05,0.1492940298270412,-1.493849911397734e-05,0.1492940298270412,-6.462497613015531e-05,0.1492940298270412,4.5341116515999055e-06
0.1500881470069723,-1.2588202768356512e-05,0.1500881470069723,-1.2252005540415968e-05,0.1500881470069723,-0.0001438403495082,0.1500881470069723,6.26139532045587e-05
0.1508822641869034,-9.900866070148598e-06,0.1508822641869034,-6.880814728905036e-06,0.1508822641869034,-0.0001078737207218,0.1508822641869034,9.583653856968755e-05
0.1516763813668344,-3.187368592788356e-06,0.1516763813668344,-3.85940274199917e-06,0.1516763813668344,5.227066797853118e-05,0.1516763813668344,7.967139294978824e-05
0.1524704985467655,5.012188046020591e-07,0.1524704985467655,-1.5121222137623507e-06,0.1524704985467655,0.0001971315261624,0.1524704985467655,-3.903394232898536e-05
0.1532646157266966,-2.851815313767968e-06,0.1532646157266966,-3.859392720411932e-06,0.1532646157266966,0.0001727288602034,0.1532646157266966,-0.0001122555819555
0.1540587329066277,-8.390596731069166e-06,0.1540587329066277,-1.2921351008054832e-05,0.1540587329066277,3.730806549017543e-05,0.1540587329066277,-8.880020471917865e-05
0.1548528500865587,-1.0084944140204305e-06,0.1548528500865587,-1.711980772445588e-05,0.1548528500865587,-7.400048870605502e-05,0.1548528500865587,-7.15070642046958e-05
0.1556469672664898,7.552867091534174e-06,0.1556469672664898,-1.6952806917736788e-05,0.1556469672664898,-5.522317501326352e-05,0.1556469672664898,-0.0001049046229581
0.1564410844464209,1.3259528743360786e-05,0.1564410844464209,-1.3763296524663188e-05,0.1564410844464209,6.631646658034815e-05,0.1564410844464209,-0.0001576093216633
0.157235201626352,7.88660834885346e-06,0.157235201626352,-1.0909432781258235e-05,0.157235201626352,0.0002173878459924,0.157235201626352,-0.0001512148655183
0.158029318806283,-1.1780362586513052e-06,0.158029318806283,-7.890660062027358e-06,0.158029318806283,0.0003073009699227,0.158029318806283,-8.374374185505238e-05
0.1588234359862141,-8.890532276828094e-06,0.1588234359862141,-1.2249903890663171e-05,0.1588234359862141,0.0002300078966323,0.1588234359862141,-5.121710172088871e-05
0.1596175531661451,-1.3593155131885884e-05,0.1596175531661451,-1.6279132965364218e-05,0.1596175531661451,6.437953109594277e-05,0.1596175531661451,-2.8379346473326467e-05
0.1604116703460762,-1.6280284989196975e-05,0.1604116703460762,-1.3596915010803024e-05,0.1604116703460762,-5.852838846335226e-05,0.1604116703460762,2.985301830700473e-05
0.1612057875260073,-1.6952620333704455e-05,0.1612057875260073,-9.904088164625516e-06,0.1612057875260073,-9.34826574061514e-05,0.1612057875260073,7.602334800908093e-05
0.1619999047059384,-1.5610161159780777e-05,0.1619999047059384,-1.2252717970383643e-05,0.1619999047059384,-9.013540289945194e-05,0.1619999047059384,8.006361652065768e-05
0.1627940218858694,-1.628134910570604e-05,0.1627940218858694,-1.326008149348518e-05,0.1627940218858694,-7.301404375096791e-05,0.1627940218858694,5.857872451496546e-05
0.1635881390658005,-1.4434265053007262e-05,0.1635881390658005,-1.2589111575220016e-05,0.1635881390658005,-6.008885347778725e-05,0.1635881390658005,3.406963704407443e-05
0.1643822562457316,-1.0236199861006835e-05,0.1643822562457316,-1.4940116755276324e-05,0.1643822562457316,-5.353902474745601e-05,0.1643822562457316,1.259184181794248e-05
0.1651763734256627,-2.180463166690362e-06,0.1651763734256627,-1.9640607532813813e-05,0.1651763734256627,-3.844065363843621e-05,0.1651763734256627,2.2305135665766036e-05
0.1659704906055937,1.172789022850376e-06,0.1659704906055937,-2.433508867812436e-05,0.1659704906055937,-4.5147098084145616e-05,0.1659704906055937,-1.7598603347571055e-05
0.1667646077855248,3.859203391344601e-06,0.1667646077855248,-2.3667031653398783e-05,0.1667646077855248,-6.72965554872375e-05,0.1667646077855248,-4.916421238905183e-05
0.1675587249654559,8.89426575447584e-06,0.1675587249654559,-1.561279076928406e-05,0.1675587249654559,-5.992475820229047e-05,0.1675587249654559,-3.441421643922004e-05
0.1683528421453869,7.88911022088262e-06,0.1683528421453869,-1.1582400883530478e-05,0.1683528421453869,-5.388080132529572e-05,0.1683528421453869,-2.5011368728237784e-05
0.169146959325318,5.874823182037341e-06,0.169146959325318,-1.4938428029083971e-05,0.169146959325318,-6.193598726980154e-05,0.169146959325318,-4.196143154943544e-05
0.1699410765052491,3.860206540624482e-06,0.1699410765052491,-1.62814e-05,0.1699410765052491,-0.0001010478626838,0.1699410765052491,-4.111938021072581e-05
0.1707351936851801,5.025653336036132e-07,0.1707351936851801,-1.628033543892344e-05,0.1707351936851801,-0.0001307506598907,0.1707351936851801,-2.511352672570397e-06
0.1715293108651112,-3.5243049351411903e-06,0.1715293108651112,-1.1917431267192266e-05,0.1715293108651112,-0.0001129480354227,0.1715293108651112,2.3668143939114924e-05
0.1723234280450423,-2.183006057103964e-06,0.1723234280450423,-1.2252758483925407e-05,0.1723234280450423,-7.472043304833549e-05,0.1723234280450423,2.735674332317949e-05
0.1731175452249733,-2.853055445903192e-06,0.1731175452249733,-1.5272569506564363e-05,0.1731175452249733,-4.8523397552499055e-05,0.1731175452249733,4.128292053112946e-05
0.1739116624049044,-6.208992670045537e-06,0.1739116624049044,-1.292539913692068e-05,0.1739116624049044,-4.985062906461676e-05,0.1739116624049044,3.944538501489282e-05
0.1747057795848355,-9.902074908476604e-06,0.1747057795848355,-1.007179210658732e-05,0.1747057795848355,-6.495350642105511e-05,0.1747057795848355,2.1321932266973764e-05
0.1754998967647666,-1.2924007173034458e-05,0.1754998967647666,-5.875265596908273e-06,0.1754998967647666,-6.999244530139269e-05,0.1754998967647666,-5.535538213852084e-06
0.1762940139446976,-2.1652658955863507e-05,0.1762940139446976,-7.553249478634256e-06,0.1762940139446976,-3.994733060692584e-05,0.1762940139446976,-2.4337926075899824e-05
0.1770881311246287,-2.5009167366212588e-05,0.1770881311246287,-9.23171e-06,0.1770881311246287,3.865962997058953e-06,0.1770881311246287,-1.443031543226561e-05
0.1778822483045598,-2.299367279204532e-05,0.1778822483045598,-9.230240255914274e-06,0.1778822483045598,3.676235939807653e-05,0.1778822483045598,1.3930555160495554e-05
0.1786763654844909,-1.7790688209501486e-05,0.1786763654844909,-4.530541025613216e-06,0.1786763654844909,4.749412367754163e-05,0.1786763654844909,1.090711339382726e-05
0.1794704826644219,-1.49404568117464e-05,0.1794704826644219,-1.5126060639101706e-06,0.1794704826644219,3.190155793288012e-05,0.1794704826644219,4.200599025850205e-06
0.180264599844353,-6.885880410596307e-06,0.180264599844353,-2.8527632632207006e-06,0.180264599844353,1.662479785566581e-05,0.180264599844353,5.706108676163032e-06
0.181058717024284,1.1720686304421217e-06,0.181058717024284,-3.524590721579461e-06,0.181058717024284,-2.846500843834064e-06,0.181058717024284,-8.890805641785365e-06
0.1818528342042151,5.705923684016229e-06,0.1818528342042151,-6.881119024191821e-06,0.1818528342042151,-2.366235396627653e-05,0.1818528342042151,-3.037621376443295e-05
0.1826469513841462,3.860643049616411e-06,0.1826469513841462,-1.1245632791593106e-05,0.1826469513841462,-7.23400195971255e-05,0.1826469513841462,-3.877268613532408e-05
0.1834410685640773,-5.707638196585169e-06,0.1834410685640773,-1.09102e-05,0.1834410685640773,-0.0001032266231739,0.1834410685640773,-6.876515107532091e-06
0.1842351857440083,-1.4603803104211972e-05,0.1842351857440083,-1.09102e-05,0.1842351857440083,-9.886210055454592e-05,0.1842351857440083,5.4565214095330586e-05
0.1850293029239394,-1.846499890494939e-05,0.1850293029239394,-1.0909944172159806e-05,0.1850293029239394,-9.416429539744068e-05,0.1850293029239394,0.00011532248917
0.1858234201038705,-2.2656539169637093e-05,0.1858234201038705,-1.0239289738693497e-05,0.1858234201038705,-9.651158591457276e-05,0.1858234201038705,0.0001428199202759
0.1866175372838016,-2.4672626192736976e-05,0.1866175372838016,-1.02388e-05,0.1866175372838016,-9.81908218272808e-05,0.1866175372838016,9.888882818351934e-05
0.1874116544637326,-2.4338246091341244e-05,0.1874116544637326,-1.2419850428041116e-05,0.1874116544637326,-0.0001515447715202,0.1874116544637326,1.6652892204531476e-05
0.1882057716436637,-2.232447928883192e-05,0.1882057716436637,-1.460227242271863e-05,0.1882057716436637,-0.0001331093102914,0.1882057716436637,-5.889337675508371e-05
0.1889998888235948,-1.796051105016658e-05,0.1889998888235948,-2.299412489060083e-05,0.1889998888235948,-2.116467601315289e-05,0.1889998888235948,-0.0001317517999288
0.1897940060035258,-1.2252935274429996e-05,0.1897940060035258,-2.7695094923466912e-05,0.1897940060035258,0.0001092709873834,0.1897940060035258,-0.0001767450723447
0.1905881231834569,-3.6901019781378303e-06,0.1905881231834569,-2.702203340850197e-05,0.1905881231834569,0.0002398714003633,0.1905881231834569,-0.0001863100574047
0.191382240363388,1.2928160082581863e-05,0.191382240363388,-1.6279469131236965e-05,0.191382240363388,0.000332666278703,0.191382240363388,-0.0001673260816248
0.192176357543319,2.5348823465425187e-05,0.192176357543319,-9.90294902677135e-06,0.192176357543319,0.0002972138951293,0.192176357543319,-0.0001015324679165
0.1929704747232501,3.339667666702118e-05,0.1929704747232501,-9.567631798933529e-06,0.1929704747232501,0.0001925922030644,0.1929704747232501,-6.481408773975214e-05
0.1937645919031812,3.0717780333522074e-05,0.1937645919031812,-8.896355083380518e-06,0.1937645919031812,9.371071324509442e-05,0.1937645919031812,-6.797726087964134e-05
0.1945587090831123,2.7360629984876663e-05,0.1945587090831123,-1.2587347020299611e-05,0.1945587090831123,-1.475770078968145e-06,0.1945587090831123,-6.865005400302467e-05
0.1953528262630433,1.896883636024533e-05,0.1953528262630433,-1.124619382114025e-05,0.1953528262630433,-3.238814214440797e-05,0.1953528262630433,-5.690347091309596e-05
0.1961469434429744,9.568079537596863e-06,0.1961469434429744,-1.091022391208247e-05,0.1961469434429744,-2.9709491296659764e-05,0.1961469434429744,-4.1795576036588114e-05
0.1969410606229055,3.6923339817107857e-06,0.1969410606229055,-9.567333106639636e-06,0.1969410606229055,-3.709495631120122e-05,0.1969410606229055,1.1250359791995815e-05
0.1977351778028366,-8.405991319868038e-07,0.1977351778028366,-8.560610695051573e-06,0.1977351778028366,-4.045410555593392e-05,0.1977351778028366,6.966160976207264e-05
0.1985292949827676,-6.884871709900612e-06,0.1985292949827676,-9.902477200470895e-06,0.1985292949827676,-5.119985435045204e-05,0.1985292949827676,8.845385966574584e-05
0.1993234121626987,-1.5100318597595769e-05,0.1993234121626987,-8.22585110570041e-06,0.1993234121626987,-6.696023353691086e-05,0.1993234121626987,8.10766608976162e-05
0.2001175293426297,-2.164871962559583e-05,0.2001175293426297,-8.560111007960729e-06,0.2001175293426297,-7.904983634586297e-05,0.2001175293426297,2.6720236591808497e-05
0.2009116465225608,-2.5343556107315092e-05,0.2009116465225608,-5.037049203881419e-06,0.2009116465225608,-0.0001065717453734,0.2009116465225608,-3.907960816156656e-05
0.2017057637024919,-2.635200028309777e-05,0.2017057637024919,-4.364279811268151e-06,0.2017057637024919,-0.0001841079217092,0.2017057637024919,-4.88412027663722e-05
0.202499880882423,-2.467405181215748e-05,0.202499880882423,-8.89533011017526e-06,0.202499880882423,-0.0002203805609474,0.202499880882423,-6.629778116856448e-05
0.203293998062354,-2.5009499180771107e-05,0.203293998062354,-1.5609983615446582e-05,0.203293998062354,-0.0001430081888301,0.203293998062354,-6.730749754231334e-05
0.2040881152422851,-1.896505104540573e-05,0.2040881152422851,-1.896719489589485e-05,0.2040881152422851,-4.849992033274877e-06,0.2040881152422851,-5.001235175576624e-05
0.2048822324222162,-5.534902796159078e-06,0.2048822324222162,-2.0309996534352587e-05,0.2048822324222162,0.0001166595202315,0.2048822324222162,-3.5203097303811376e-06
0.2056763496021472,8.56311486022644e-06,0.2056763496021472,-2.098179045384046e-05,0.2056763496021472,0.0001320721993555,0.2056763496021472,1.1908147323436287e-05
0.2064704667820783,1.4934321989261252e-05,0.2064704667820783,-2.2322999431819677e-05,0.2064704667820783,7.573782627814557e-05,0.2064704667820783,-8.882050213961914e-06
0.2072645839620094,1.4603075899185692e-05,0.2072645839620094,-2.2659424100814303e-05,0.2072645839620094,2.7384729377944232e-05,0.2072645839620094,-9.902572307682696e-06
0.2080587011419405,4.535720668200786e-06,0.2080587011419405,-2.1988552674326623e-05,0.2080587011419405,-6.029997647433896e-06,0.2080587011419405,1.056679232267116e-05
0.2088528183218715,-3.0195617193029837e-06,0.2088528183218715,-1.896769131502457e-05,0.2088528183218715,-2.8361391977553868e-05,0.2088528183218715,4.533312623184732e-06
0.2096469355018026,-4.196134557289656e-06,0.2096469355018026,-1.4938927234934848e-05,0.2096469355018026,-3.189111366537041e-05,0.2096469355018026,-5.202539185490059e-06
0.2104410526817337,-7.217809555794101e-06,0.2104410526817337,-1.35958445472494e-05,0.2104410526817337,-3.17240345669928e-05,0.2104410526817337,-1.510239076745898e-06
0.2112351698616647,-1.158188726730912e-05,0.2112351698616647,-1.426748726730912e-05,0.2112351698616647,-3.978173631515245e-05,0.2112351698616647,4.533438146954937e-06
0.2120292870415958,-1.29258544885091e-05,0.2120292870415958,-1.5609757585248484e-05,0.2120292870415958,-4.649444241475152e-05,0.2120292870415958,1.1583660525387892e-05
0.2128234042215269,-1.694978108930696e-05,0.2128234042215269,-1.4939103151782174e-05,0.2128234042215269,-4.716509684821783e-05,0.2128234042215269,1.728422320985152e-05
0.2136175214014579,-1.963678120372236e-05,0.2136175214014579,-1.359660939813882e-05,0.2136175214014579,-4.582360939813882e-05,0.2136175214014579,9.23656638280524e-06
0.214411638581389,-1.5276286482317318e-05,0.214411638581389,-1.2253611225328403e-05,0.214411638581389,-5.1191555098686375e-05,0.214411638581389,5.540710860549372e-06
0.2152057557613201,-1.493870326312952e-05,0.2152057557613201,-8.225849154478199e-06,0.2152057557613201,-8.643155740216083e-05,0.2152057557613201,9.230574111727378e-06
0.2159998729412512,-1.3596014879707668e-05,0.2159998729412512,-8.22461e-06,0.2159998729412512,-0.0001070846962164,0.2159998729412512,9.902992561746402e-06
0.2167939901211822,-1.1917320883621564e-05,0.2167939901211822,-7.888914176724314e-06,0.2167939901211822,-0.0001240407890735,0.2167939901211822,5.874770120442922e-06
0.2175881073011133,-6.881593168960063e-06,0.2175881073011133,-8.560128535438331e-06,0.2175881073011133,-0.0001184946506034,0.2175881073011133,7.8909968431349e-06
0.2183822244810444,-5.20456382019689e-06,0.2183822244810444,-7.217330180638257e-06,0.2183822244810444,-6.410003506269884e-05,0.2183822244810444,2.334219931407062e-05
0.2191763416609755,-9.571016775245454e-06,0.2191763416609755,-6.546408542363446e-06,0.2191763416609755,8.32465277666176e-07,0.2191763416609755,6.295619577803919e-05
0.2199704588409065,-1.7954187204678972e-05,0.2199704588409065,-7.217062975829755e-06,0.2199704588409065,-1.492785996875722e-05,0.2199704588409065,9.246479107264988e-05
0.2207645760208376,-2.3663652689818937e-05,0.2207645760208376,-5.707676655065015e-06,0.2207645760208376,-7.566755470091193e-05,0.2207645760208376,8.577458508022442e-05
0.2215586932007686,-2.2324418853914136e-05,0.2215586932007686,-1.6800465540144674e-06,0.2215586932007686,-8.140469487086492e-05,0.2215586932007686,3.0569937770619586e-05
0.2223528103806997,-1.695408270053336e-05,0.2223528103806997,-4.195628725318677e-06,0.2223528103806997,-2.5022968558593204e-05,0.2223528103806997,-7.298966757734245e-05
0.2231469275606308,-1.309255221590506e-05,0.2231469275606308,-6.210236238472308e-06,0.2231469275606308,8.978882559565853e-05,0.2231469275606308,-0.0001179938959904
0.2239410447405619,-7.5530308392709405e-06,0.2239410447405619,-9.231918076858314e-06,0.2239410447405619,0.0002004145441827,0.2239410447405619,-0.0001119542244668
0.2247351619204929,-4.195408491892374e-06,0.2247351619204929,-1.2925769186637162e-05,0.2247351619204929,0.000245563137041,0.2247351619204929,-9.818700786716294e-05
0.225529279100424,-1.6266343734662338e-07,0.225529279100424,-1.963663218844616e-05,0.225529279100424,0.0002462201504531,0.225529279100424,-7.469083757074067e-05
0.2263233962803551,1.4591683155545917e-05,0.2263233962803551,-1.4606723937448842e-05,0.2263233962803551,0.0002039691209226,0.2263233962803551,-6.88226612223872e-05
0.2271175134602862,2.131278585939745e-05,0.2271175134602862,-1.1583451363271146e-05,0.2271175134602862,0.0001190570438173,0.2271175134602862,-6.05986397915996e-05
0.2279116306402172,1.796146163827547e-05,0.2279116306402172,-1.5272582197896984e-05,0.2279116306402172,3.4112909215775044e-05,0.2279116306402172,-5.656707396593056e-05
0.2287057478201483,1.661752648249977e-05,0.2287057478201483,-1.9301420552500685e-05,0.2287057478201483,-2.230598783029163e-05,0.2287057478201483,-5.119570592999909e-05
0.2294998650000794,1.59458141548447e-05,0.2294998650000794,-2.06452716903106e-05,0.2294998650000794,-6.3943522416631e-05,0.2294998650000794,-4.918014246453411e-05
0.2302939821800104,1.124600547907662e-05,0.2302939821800104,-2.1652577397340723e-05,0.2302939821800104,-8.879174246998218e-05,0.2302939821800104,-2.7024197256259745e-05
0.2310880993599415,-5.04682237781558e-07,0.2310880993599415,-1.628123196406862e-05,0.2310880993599415,-9.81917159820343e-05,0.2310880993599415,-8.894077595548815e-06
0.2318822165398726,-9.567867758199984e-06,0.2318822165398726,-1.4938462658085832e-05,0.2318822165398726,-9.751948447814564e-05,0.2318822165398726,6.548500351366965e-06
0.2326763337198036,-1.1244631743011749e-05,0.2326763337198036,-1.4434647726214784e-05,0.2326763337198036,-9.415917250469073e-05,0.2326763337198036,1.5268945136227884e-05
0.2334704508997347,-8.226696781308702e-06,0.2334704508997347,-1.359637962885862e-05,0.2334704508997347,-8.409945589164953e-05,0.2334704508997347,2.5265508559493907e-06
0.2342645680796658,-7.553585222913293e-06,0.2342645680796658,-1.560890431494071e-05,0.2342645680796658,-5.842546995730693e-05,0.2342645680796658,-1.375474327227524e-05
0.2350586852595969,-1.1580003156240498e-05,0.2350586852595969,-1.4938866141947911e-05,0.2350586852595969,-3.995541886392773e-05,0.2350586852595969,-1.594483501884936e-05
0.2358528024395279,-1.1245983527771365e-05,0.2358528024395279,-1.3596134111085455e-05,0.2358528024395279,-3.273239583464349e-05,0.2358528024395279,-5.877225828164582e-06
0.236646919619459,-6.882261797369333e-06,0.236646919619459,-1.4267132030862455e-05,0.236646919619459,-2.165372148064597e-05,0.236646919619459,-1.644812949317014e-05
0.2374410367993901,-4.19623777931691e-06,0.2374410367993901,-1.2253e-05,0.2374410367993901,-5.53856324283926e-06,0.2374410367993901,-2.265924215605681e-05
0.2382351539793211,-4.363070926189709e-06,0.2382351539793211,-1.2252609388981453e-05,0.2382351539793211,4.5321578544882e-06,0.2382351539793211,-1.493951142570994e-05
0.2390292711592522,8.415360077603042e-07,0.2390292711592522,-1.0238399250500837e-05,0.2390292711592522,5.70526699859254e-06,0.2390292711592522,-1.963771299501148e-05
0.2398233883391833,7.548054371295497e-06,0.2398233883391833,-9.064763980830142e-06,0.2398233883391833,1.010715931014413e-06,0.2398233883391833,-1.762574969461255e-05
0.2406175055191144,6.211256258102245e-06,0.2406175055191144,-1.0909050151337132e-05,0.2406175055191144,-1.912225619074352e-05,0.2406175055191144,-8.230463800487993e-06
0.2414116226990454,3.1905756824029184e-06,0.2414116226990454,-1.443332504986833e-05,0.2414116226990454,-7.198217551042992e-05,0.2414116226990454,4.994004655607927e-07
0.2422057398789765,-7.549700713252276e-06,0.2422057398789765,-1.4938435016439015e-05,0.2422057398789765,-0.000128386523643,0.2422057398789765,4.866200290332052e-06
0.2429998570589076,-1.1580874784587115e-05,0.2429998570589076,-1.2253483479342276e-05,0.2429998570589076,-0.0001344459122794,0.2429998570589076,3.5250717396711385e-06
0.2437939742388386,-8.896097133397092e-06,0.2437939742388386,-1.0238865350291157e-05,0.2437939742388386,-7.268070405937303e-05,0.2437939742388386,3.860519108284807e-06
0.2445880914187697,-1.69528e-05,0.2445880914187697,-1.0238761348512588e-05,0.2445880914187697,8.897942561705501e-06,0.2445880914187697,5.033933947411764e-07
0.2453822085987008,-1.695297638938001e-05,0.2453822085987008,-9.902570834487166e-06,0.2453822085987008,2.56617177468758e-05,0.2453822085987008,-8.363355894166963e-07
0.2461763257786318,-1.7624337564637385e-05,0.2461763257786318,-7.888841221779152e-06,0.2461763257786318,-4.739671068451847e-05,0.2461763257786318,1.02456781908908e-05
0.2469704429585629,-1.7959664781370552e-05,0.2469704429585629,-7.721187602307913e-06,0.2469704429585629,-0.0002014789174952,0.2469704429585629,2.7011939138595662e-05
0.247764560138494,-1.9301956113312024e-05,0.247764560138494,-1.225048939350772e-05,0.247764560138494,-0.0002747284585078,0.247764560138494,7.097583782176519e-05
0.2485586773184251,-2.030939071459183e-05,0.2485586773184251,-1.091074571387756e-05,0.2485586773184251,-0.0002205760329742,0.2485586773184251,0.0001131128784506
0.2493527944983561,-1.2255085246403144e-05,0.2493527944983561,-4.869193927037812e-06,0.2493527944983561,-5.190905967833402e-05,0.2493527944983561,7.906581871222994e-05
0.2501469116782872,-1.0910349368256822e-05,0.2501469116782872,-4.86763e-06,0.2501469116782872,0.0001428183416695,0.2501469116782872,1.4610069642956531e-05
0.2509410288582183,-1.5777885407968624e-05,0.2509410288582183,-8.89624182126567e-06,0.2509410288582183,0.0002260910844176,0.2509410288582183,-5.320896256933117e-05
0.2517351460381494,-1.8127422159661847e-05,0.2517351460381494,-1.5274855699069023e-05,0.2517351460381494,0.000173359597787,0.2517351460381494,-7.418986307336117e-05
0.2525292632180804,-1.6613765579844303e-05,0.2525292632180804,-1.829459967196674e-05,0.2525292632180804,1.895466265403231e-05,0.2525292632180804,-7.670487704881498e-05
0.2533233803980115,-6.553969055640358e-06,0.2533233803980115,-1.527665472136835e-05,0.2533233803980115,-1.826655851439439e-05,0.2533233803980115,-6.999833271415189e-05
0.2541174975779426,4.86040768292484e-06,0.2541174975779426,-4.203239907709633e-06,0.2541174975779426,8.536966184862192e-05,0.2541174975779426,-6.059954775331053e-05
0.2549116147578736,1.1242805317005872e-05,0.2549116147578736,-1.6980353660233337e-07,0.2549116147578736,0.0002317289850777,0.2549116147578736,-0.0001008574548329
0.2557057319378047,1.12459e-05,0.2557057319378047,-2.8525333181120038e-06,0.2557057319378047,0.0003133474594791,0.2557057319378047,-0.000123697293043
0.2564998491177358,1.4937898283454728e-05,0.2564998491177358,-1.3258122442791714e-05,0.2564998491177358,0.0002858522310918,0.2564998491177358,-0.0001149786585647
0.2572939662976669,1.2588799744474384e-05,0.2572939662976669,-1.6616957507893738e-05,0.2572939662976669,0.0001586234003956,0.2572939662976669,-9.349291195796934e-05
0.2580880834775979,1.1749135301368298e-05,0.2580880834775979,-1.5609823530040113e-05,0.2580880834775979,4.917108242603574e-05,0.2580880834775979,-3.910544120140246e-05
0.258882200657529,9.230182938079053e-06,0.258882200657529,-1.3931245488416256e-05,0.258882200657529,-3.375687323124715e-05,0.258882200657529,-6.205753974515401e-06
0.2596763178374601,3.189811052828124e-06,0.2596763178374601,-1.292533947955651e-05,0.2596763178374601,-0.0001096127101684,0.2596763178374601,1.2259844739646452e-05
0.2604704350173911,4.866437147598552e-06,0.2604704350173911,-1.527262999668859e-05,0.2604704350173911,-0.0001263780721155,0.2604704350173911,2.936143290408388e-05
0.2612645521973222,2.1835546276996814e-06,0.2612645521973222,-1.6951853354162806e-05,0.2612645521973222,-0.0001324295918493,0.2612645521973222,1.1591634389475951e-05
0.2620586693772533,-6.206925367535761e-06,0.2620586693772533,-1.8295040856140757e-05,0.2620586693772533,-0.000142499806421,0.2620586693772533,-2.7846575211594824e-05
0.2628527865571843,-9.902107334991848e-06,0.2628527865571843,-1.6281941456573387e-05,0.2628527865571843,-0.0001522363830405,0.2628527865571843,-5.118772816834787e-05
0.2636469037371154,-1.1581396502201745e-05,0.2636469037371154,-1.62814e-05,0.2636469037371154,-0.0001767420289442,0.2636469037371154,-5.052268139911931e-05
0.2644410209170465,-1.4938533671360482e-05,0.2644410209170465,-1.6281293876284282e-05,0.2644410209170465,-0.0001634835275347,0.2644410209170465,-1.158039726982399e-05
0.2652351380969776,-1.242024533540275e-05,0.2652351380969776,-1.2252416133283687e-05,0.2652351380969776,-0.0001075830011065,0.2652351380969776,3.4077136740723066e-05
0.2660292552769086,-9.231063237488608e-06,0.2660292552769086,-8.89601e-06,0.2660292552769086,-6.159994543999051e-05,0.2660292552769086,5.556262732794665e-05
0.2668233724568397,-7.219109925984883e-06,0.2668233724568397,-8.89601e-06,0.2668233724568397,-5.925265492285826e-05,0.2668233724568397,6.964627054178668e-05
0.2676174896367708,-6.211067338549322e-06,0.2676174896367708,-1.3760471235578105e-05,0.2676174896367708,-3.8115394045258266e-05,0.2676174896367708,1.6651192970765134e-05
0.2684116068167018,-1.040462203122125e-05,0.2684116068167018,-1.4938018148141918e-05,0.2684116068167018,9.879328306159991e-06,0.2684116068167018,-4.277217627148954e-05
0.2692057239966329,-1.1245608284602484e-05,0.2692057239966329,-1.2925100158667397e-05,0.2692057239966329,8.339554431292345e-05,0.2692057239966329,-4.5821749796760034e-05
0.269999841176564,-9.064296472405944e-06,0.269999841176564,-1.5273829950639434e-05,0.269999841176564,0.0001545747643193,0.269999841176564,-4.71653314003654e-05
0.270793958356495,-8.22465401676512e-06,0.270793958356495,-1.7288394359763708e-05,0.270793958356495,0.0001381408627128,0.270793958356495,-4.448014085364839e-05
0.2715880755364261,-7.049590158758612e-06,0.2715880755364261,-1.71204562905222e-05,0.2715880755364261,6.545278477596793e-05,0.2715880755364261,-2.2322191409801706e-05
0.2723821927163572,-6.20781266176344e-06,0.2723821927163572,-1.5609674081203456e-05,0.2723821927163572,-2.301721789343809e-05,0.2723821927163572,-4.361106005544485e-06
0.2731763098962882,4.534154575887794e-06,0.2731763098962882,-1.4266938283813882e-05,0.2731763098962882,-0.000113334509291,0.2731763098962882,7.896892300797834e-06
0.2739704270762193,1.0234687293664986e-05,0.2739704270762193,-1.359628385034762e-05,0.2739704270762193,-0.0002068905030927,0.2739704270762193,2.835174264367004e-05
0.2747645442561504,5.091358856710301e-07,0.2747645442561504,-1.5944351193360134e-05,0.2747645442561504,-0.0002782530542276,0.2747645442561504,4.2457807160160816e-05
0.2755586614360815,-6.3753355727096176e-06,0.2755586614360815,-2.0979052848096146e-05,0.2755586614360815,-0.0002207465488689,0.2755586614360815,4.749915289073643e-05
0.2763527786160125,-3.5256255994020425e-06,0.2763527786160125,-2.064559360025768e-05,0.2763527786160125,-8.211695679489209e-05,0.2763527786160125,4.280291037572536e-05
0.2771468957959436,-7.049207402234374e-06,0.2771468957959436,-2.165246782883485e-05,0.2771468957959436,2.600241369389373e-05,0.2771468957959436,3.2060609825761586e-05
0.2779410129758747,-8.56030451385247e-06,0.2779410129758747,-1.4267123194097992e-05,0.2779410129758747,9.919948153000405e-05,0.2779410129758747,3.5243856248282115e-06
0.2787351301558057,-8.224747573375279e-06,0.2787351301558057,-9.567299941299776e-06,0.2787351301558057,0.0001347809088191,0.2787351301558057,-2.3666149722891308e-05
0.2795292473357368,-9.06297225448438e-06,0.2795292473357368,-8.894547832013501e-06,0.2795292473357368,0.0001220233891301,0.2795292473357368,-2.030666676955261e-05
0.2803233645156679,-6.212700901147913e-06,0.2803233645156679,-4.199986775540028e-06,0.2803233645156679,0.0001136407081566,0.2803233645156679,-1.0246850267557974e-05
0.2811174816955989,2.17656160081449e-06,0.2811174816955989,1.674655121875696e-06,0.2811174816955989,8.545370744371882e-05,0.2811174816955989,-3.2715917885482845e-05
0.2819115988755301,3.188631218572224e-06,0.2819115988755301,-3.346804432067833e-07,0.2819115988755301,2.87308612527258e-05,0.2819115988755301,-5.957293254577877e-05
0.2827057160554611,-7.213798445497489e-06,0.2827057160554611,-2.181379724524172e-06,0.2827057160554611,-4.184465101339708e-06,0.2827057160554611,-7.804329725239398e-05
0.2834998332353922,-8.224398479888087e-06,0.2834998332353922,-4.195806957675865e-06,0.2834998332353922,-1.2251307828603143e-05,0.2834998332353922,-7.200856913327334e-05
0.2842939504153233,-7.553261927778448e-06,0.2842939504153233,-4.364069517899265e-06,0.2842939504153233,-2.165201300235883e-05,0.2842939504153233,-6.260838699139624e-05
0.2850880675952543,-9.567767232405922e-06,0.2850880675952543,-5.539258630306229e-06,0.2850880675952543,-3.84385002565256e-05,0.2850880675952543,-3.457357056509984e-05
0.2858821847751854,-1.376375624440738e-05,0.2858821847751854,-8.22523497530238e-06,0.2858821847751854,-5.018729061101845e-05,0.2858821847751854,4.533140889502916e-06
0.2866763019551165,-1.443519127622224e-05,0.2866763019551165,-1.091147504820901e-05,0.2866763019551165,-5.18654e-05,0.2866763019551165,9.732008638461556e-06
0.2874704191350475,-1.4938232045798697e-05,0.2874704191350475,-1.4264747215540557e-05,0.2874704191350475,-5.18654e-05,0.2874704191350475,1.1811945784521509e-06
0.2882645363149786,-1.37642861837533e-05,0.2882645363149786,-1.51059099188036e-05,0.2882645363149786,-5.287191186752515e-05,0.2882645363149786,-7.54812287524408e-06
0.2890586534949096,-1.0911445236303254e-05,0.2890586534949096,-1.7623101221012008e-05,0.2890586534949096,-4.9181411510512734e-05,0.2890586534949096,-2.2988561008406198e-05
0.2898527706748408,-9.06439326475382e-06,0.2898527706748408,-2.030902433797521e-05,0.2898527706748408,-4.750178478876549e-05,0.2898527706748408,-2.769374259145661e-05
0.2906468878547718,-1.3595159904980724e-05,0.2906468878547718,-2.03098e-05,0.2906468878547718,-4.884391034179802e-05,0.2906468878547718,-2.568118448730297e-05
0.2914410050347029,-1.795988084213123e-05,0.2914410050347029,-1.7959893614043743e-05,0.2914410050347029,-6.680417774149799e-05,0.2914410050347029,-1.560980629329433e-05
0.292235122214634,-1.4937979937743727e-05,0.292235122214634,-1.6952593312581245e-05,0.292235122214634,-9.483658260972156e-05,0.292235122214634,1.4943198764282798e-05
0.293029239394565,-1.0910301087742754e-05,0.293029239394565,-1.561020217548551e-05,0.293029239394565,-0.0001064072560758,0.293029239394565,4.48184293690544e-05
0.2938233565744961,-1.1245628304475913e-05,0.2938233565744961,-1.628085660895182e-05,0.2938233565744961,-7.740200121769663e-05,0.2938233565744961,5.387226422084957e-05
0.2946174737544272,-1.3090976313348826e-05,0.2946174737544272,-1.561044498901457e-05,0.2946174737544272,-1.363807375755072e-05,0.2946174737544272,4.2473464746969897e-05
0.2954115909343582,-1.0911324157720776e-05,0.2954115909343582,-1.3932364756523522e-05,0.2954115909343582,3.8410692650810073e-05,0.2954115909343582,-3.501135758838862e-06
0.2962057081142893,-1.1916929775693629e-05,0.2962057081142893,-1.124688726481699e-05,0.2962057081142893,3.306827452963398e-05,0.2962057081142893,-4.71495570312752e-05
0.2969998252942204,-1.023916932449748e-05,0.2969998252942204,-6.882780239292803e-06,0.2969998252942204,1.796322389847409e-05,0.2969998252942204,-4.045317727598668e-05
0.2977939424741515,-4.868019144977135e-06,0.2977939424741515,-4.5321002511539046e-06,0.2977939424741515,9.232342363395308e-06,0.2977939424741515,-1.812931738922237e-05
0.2985880596540825,-1.1748643361591865e-06,0.2985880596540825,-6.378509603552502e-06,0.2985880596540825,1.3932433188196478e-05,0.2985880596540825,-1.3259721678166343e-05
0.2993821768340136,-1.685966428513744e-07,0.2993821768340136,-9.567933350730914e-06,0.2993821768340136,2.634983278689765e-05,0.2993821768340136,-8.226628644896752e-06
0.3001762940139447,-3.524333397503408e-06,0.3001762940139447,-1.191742415154872e-05,0.3001762940139447,1.5264616216182707e-05,0.3001762940139447,-1.729756302607369e-05
0.3009704111938757,-2.1830345194661346e-06,0.3009704111938757,-1.2252751368281874e-05,0.3009704111938757,-1.0890806800049894e-05,0.3009704111938757,-4.1776349958640525e-05
0.3017645283738068,1.1729459953424642e-06,0.3017645283738068,-1.2588500598346273e-05,0.3017645283738068,-3.674364613206164e-05,0.3017645283738068,-5.823392937836605e-05
0.3025586455537379,-2.1805414244168677e-06,0.3025586455537379,-1.0910949292255623e-05,0.3025586455537379,-7.668926693359731e-05,0.3025586455537379,-6.529025297252638e-05
0.3033527627336689,1.1739368534912711e-06,0.3033527627336689,-8.561012203751408e-06,0.3033527627336689,-9.684298111497116e-05,0.3033527627336689,-5.589660882695858e-05
0.3041468799136,-4.195417651802219e-06,0.3041468799136,-1.5105409954178696e-05,0.3041468799136,-5.5899994159356286e-05,0.3041468799136,-4.850951698501069e-05
0.3049409970935311,-5.539025084626653e-06,0.3049409970935311,-1.7959889554648613e-05,0.3049409970935311,4.867407580344406e-06,0.3049409970935311,-4.515141228843337e-05
0.3057351142734621,-1.0909813486565074e-05,0.3057351142734621,-1.9303231443559818e-05,0.3057351142734621,4.817057418258437e-05,0.3057351142734621,-2.97040337607457e-05
0.3065292314533932,-8.224854336176437e-06,0.3065292314533932,-2.299705922047035e-05,0.3065292314533932,3.339281300052506e-05,0.3065292314533932,6.901660004363061e-06
0.3073233486333243,-9.063172378009385e-06,0.3073233486333243,-2.903294912166755e-05,0.3073233486333243,1.8721944721411543e-06,0.3073233486333243,7.497276535654715e-05
0.3081174658132554,-2.5221440938698577e-06,0.3081174658132554,-2.970884829599454e-05,0.3081174658132554,2.5172882959945395e-06,0.3081174658132554,0.0001095827370418
0.3089115829931864,1.173000613702304e-06,0.3089115829931864,-2.366987355840269e-05,0.3089115829931864,4.747767474682735e-05,0.3089115829931864,0.0001210130059209
0.3097057001731175,8.893094402585458e-06,0.3097057001731175,-1.326402969576162e-05,0.3097057001731175,7.065575321153253e-05,0.3097057001731175,5.424052612733751e-05
0.3104998173530486,1.0574113890325633e-05,0.3104998173530486,-1.0910740556764592e-05,0.3104998173530486,2.401313386689013e-05,0.3104998173530486,-1.7607674476492624e-05
0.3112939345329796,1.023882767919236e-05,0.3112939345329796,-1.057452767919236e-05,0.3112939345329796,-2.4669786541843243e-05,0.3112939345329796,-5.135911825353551e-05
0.3120880517129107,1.3931368815938404e-05,0.3120880517129107,-1.1245757884584568e-05,0.3120880517129107,-2.970731038509576e-05,0.3120880517129107,-0.0001069225033868
0.3128821688928418,1.1916157488848686e-05,0.3128821688928418,-9.062610380156533e-06,0.3128821688928418,8.510281377926479e-07,0.3128821688928418,-0.0001453558217916
0.3136762860727728,6.544851625293134e-06,0.3136762860727728,-3.1875696296017864e-06,0.3136762860727728,5.624641157879554e-05,0.3136762860727728,-0.0001398035044227
0.314470403252704,3.0239358273854568e-06,0.314470403252704,1.1716642101388369e-06,0.314470403252704,0.0001031917224766,0.314470403252704,-9.95648377484586e-05
0.315264520432635,-2.8498917269696425e-06,0.315264520432635,2.181431722552547e-06,0.315264520432635,0.0001139635113448,0.315264520432635,-4.2164871633308057e-05
0.3160586376125661,-7.551074985876488e-06,0.3160586376125661,1.175399647839641e-06,0.3160586376125661,7.73952006294551e-05,0.3160586376125661,-2.2002726337420585e-06
0.3168527547924971,-1.0405818772411515e-05,0.3168527547924971,4.195296948392557e-06,0.3168527547924971,-8.13578630082817e-05,0.3168527547924971,2.6343487866174934e-05
0.3176468719724282,-1.5944806870629706e-05,0.3176468719724282,4.364052935229318e-06,0.3176468719724282,-0.0002916880879955,0.3176468719724282,4.380588526384914e-05
0.3184409891523593,-1.829556789562869e-05,0.3184409891523593,4.531927706830621e-06,0.3184409891523593,-0.0004063614337728,0.3184409891523593,2.3331279766664287e-05
0.3192351063322903,-2.06458596415186e-05,0.3192351063322903,1.1743555634487138e-06,0.3192351063322903,-0.0004123780818813,0.3192351063322903,6.549828918498927e-06
0.3200292235122214,-2.333052812212266e-05,0.3200292235122214,-3.1909332343355084e-06,0.3200292235122214,-0.0002038614009412,0.3200292235122214,3.425323356062611e-05
0.3208233406921525,-2.165399192741033e-05,0.3208233406921525,-9.562120385579409e-06,0.3208233406921525,6.473470077250718e-05,0.3208233406921525,7.700730386067313e-05
0.3216174578720835,-2.0646187628494527e-05,0.3216174578720835,-1.929605293138072e-05,0.3216174578720835,0.000276303598494,0.3216174578720835,6.597226391343979e-05
0.3224115750520147,-1.729029666295548e-05,0.3224115750520147,-2.769060839613119e-05,0.3224115750520147,0.0003428804263946,0.3224115750520147,5.235849422878565e-06
0.3232056922319457,-5.543584296625358e-06,0.3232056922319457,-3.641991679958284e-05,0.3232056922319457,0.0003351979927923,0.3232056922319457,-4.74808707790607e-05
0.3239998094118768,7.21445797616705e-06,0.3239998094118768,-3.1389008698355804e-05,0.3239998094118768,0.0003073386881068,0.3239998094118768,-8.811114985726666e-05
0.3247939265918079,1.4937886158030052e-05,0.3247939265918079,-1.8296810421578196e-05,0.3247939265918079,0.0002140166281437,0.3247939265918079,-0.0001253795549831
0.3255880437717389,1.1245659416409895e-05,0.3255880437717389,-1.2924622078177844e-05,0.3255880437717389,9.28157143037925e-05,0.3255880437717389,-9.852564010352976e-05
0.32638216095167,6.881990124293502e-06,0.32638216095167,-1.695310621359281e-05,0.32638216095167,4.187519670633378e-06,0.32638216095167,-6.478976598527679e-05
0.3271762781316011,7.720600219982471e-06,0.3271762781316011,-1.84631064049816e-05,0.3271762781316011,-3.8783417645411023e-05,0.3271762781316011,-6.461859409487293e-05
0.3279703953115321,6.379291353049853e-06,0.3279703953115321,-1.7624838307625438e-05,0.3279703953115321,-6.795668572328857e-05,0.3279703953115321,-5.489410480961144e-05
0.3287645124914632,2.520110329132777e-06,0.3287645124914632,-1.527574281651201e-05,0.3287645124914632,-9.817324956338748e-05,0.3287645124914632,-3.106673422036562e-05
0.3295586296713942,3.524360284338111e-06,0.3295586296713942,-1.4938756573441993e-05,0.3295586296713942,-0.0001304039689495,0.3295586296713942,-7.564180084970415e-06
0.3303527468513254,-1.6667167406209342e-07,0.3303527468513254,-1.2925042181436332e-05,0.3303527468513254,-0.0001586090093961,0.3303527468513254,1.291787118090346e-05
0.3311468640312564,-6.209385238303566e-06,0.3311468640312564,-1.5609540103705537e-05,0.3311468640312564,-0.0001594568563252,0.3311468640312564,2.735692807454177e-05
0.3319409812111875,-8.728100421480102e-06,0.3319409812111875,-1.4602923831502612e-05,0.3319409812111875,-0.0001223628777972,0.3319409812111875,2.265971121367886e-05
0.3327350983911186,-1.3596132794947197e-05,0.3327350983911186,-1.3596007996841995e-05,0.3327350983911186,-6.797665364649826e-05,0.3327350983911186,8.223070830804312e-06
0.3335292155710496,-1.6282128223409894e-05,0.3335292155710496,-1.527457308377871e-05,0.3335292155710496,-4.985684370431082e-05,0.3335292155710496,-4.1972313017654325e-06
0.3343233327509807,-1.896474595727513e-05,0.3343233327509807,-1.6280554733978174e-05,0.3343233327509807,-7.064703125281294e-05,0.3343233327509807,-7.885810708039442e-06
0.3351174499309118,-1.913468375114231e-05,0.3351174499309118,-1.2591258236929574e-05,0.3351174499309118,-0.0001058885804656,0.3351174499309118,8.548914272736293e-06
0.3359115671108428,-9.572626145331294e-06,0.3359115671108428,-8.898023256248927e-06,0.3359115671108428,-0.000111616888541,0.3359115671108428,4.9493171211990856e-05
0.3367056842907739,-6.211754801907948e-06,0.3367056842907739,-7.553753918377466e-06,0.3367056842907739,-7.53787159433105e-05,0.3367056842907739,7.820628746933346e-05
0.337499801470705,-7.217268187842572e-06,0.337499801470705,-1.1748350800179964e-05,0.337499801470705,-1.4282476529206257e-05,0.337499801470705,7.284794297316926e-05
0.338293918650636,-8.560172424291729e-06,0.338293918650636,-1.3092062423267176e-05,0.338293918650636,5.521528043481298e-05,0.338293918650636,2.85389400116921e-05
0.3390880358305671,-1.0910109106335016e-05,0.3390880358305671,-1.4267154552941877e-05,0.3390880358305671,9.248414255354392e-05,0.3390880358305671,-2.517658953062231e-05
0.3398821530104982,-8.895751233039169e-06,0.3398821530104982,-1.3259647154446147e-05,0.3398821530104982,7.569152535746247e-05,0.3398821530104982,-7.206781145109882e-06
0.3406762701904293,-7.550995221417483e-06,0.3406762701904293,-1.091094157926635e-05,0.3406762701904293,3.170878223451545e-05,0.3406762701904293,4.851307776102121e-05
0.3414703873703603,-1.0121444618074624e-06,0.3414703873703603,-1.3090518543554978e-05,0.3414703873703603,-1.154822894615156e-05,0.3414703873703603,6.226149364707959e-05
0.3422645045502914,1.8445594760499631e-06,0.3422645045502914,-9.569609441030423e-06,0.3422645045502914,-3.07044600364195e-05,0.3422645045502914,1.1948720996200834e-05
0.3430586217302225,1.84634e-06,0.3430586217302225,-8.393019758280951e-06,0.3430586217302225,-2.199245815673175e-05,0.3430586217302225,-8.538892021871391e-05
0.3438527389101535,5.039895483087083e-07,0.3438527389101535,-5.875547904722971e-06,0.3438527389101535,-3.239147801310299e-05,0.3438527389101535,-0.0001270483119537
0.3446468560900846,-3.1884707123204284e-06,0.3446468560900846,-5.539090842719763e-06,0.3446468560900846,-5.723209752273964e-05,0.3446468560900846,-0.0001111188901605
0.3454409732700157,-6.210318288706663e-06,0.3454409732700157,-9.567274384717783e-06,0.3454409732700157,-8.073470891029265e-05,0.3454409732700157,-9.164635546701884e-05
0.3462350904499467,-9.567754175717418e-06,0.3462350904499467,-9.567562966352648e-06,0.3462350904499467,-8.744705252013094e-05,0.3462350904499467,-6.562799098568433e-05
0.3470292076298778,-1.2588436976037762e-05,0.3470292076298778,-1.0910375349308156e-05,0.3470292076298778,-6.595299549897283e-05,0.3470292076298778,-5.589318627742144e-05
0.3478233248098089,-1.1582455325838298e-05,0.3478233248098089,-1.1581029782774467e-05,0.3478233248098089,-2.1187061787480323e-05,0.3478233248098089,-5.3545895760289365e-05
0.34861744198974,-9.56882553990628e-06,0.34861744198974,-1.15816e-05,0.34861744198974,1.1558597467738136e-05,0.34861744198974,-3.643533207866163e-05
0.349411559169671,-1.1915995336546944e-05,0.349411559169671,-1.225262723742712e-05,0.349411559169671,5.877888470765429e-06,0.349411559169671,-7.569248724009546e-06
0.3502056763496021,-1.57762263824169e-05,0.3502056763496021,-1.1917436838083836e-05,0.3502056763496021,-1.0903358128417842e-05,0.3502056763496021,2.096956879548361e-05
0.3509997935295332,-1.3764123769287388e-05,0.3509997935295332,-1.19173e-05,0.3509997935295332,-2.2320932000041968e-05,0.3509997935295332,2.66865160130229e-05
0.3517939107094642,-1.4602805615180543e-05,0.3517939107094642,-1.0910313255035952e-05,0.3517939107094642,-2.23239e-05,0.3517939107094642,1.2758066689041188e-05
0.3525880278893953,-1.1581552833904189e-05,0.3525880278893953,-1.3260135374571858e-05,0.3525880278893953,-1.6952788208476047e-05,0.3525880278893953,-1.02392952404935e-05
0.3533821450693264,-1.0239658686171792e-05,0.3533821450693264,-1.42672e-05,0.3533821450693264,-1.6617437331860715e-05,0.3533821450693264,-2.43376706751848e-05
0.3541762622492574,-1.493732652420316e-05,0.3541762622492574,-1.4268528861520528e-05,0.3541762622492574,-1.846090840114268e-05,0.3541762622492574,-2.198597449233908e-05
0.3549703794291886,-1.1081113476248336e-05,0.3549703794291886,-1.8292455462318665e-05,0.3549703794291886,-1.0916095969122896e-05,0.3549703794291886,-1.494410294094234e-05
0.3557644966091196,-8.226419094260986e-06,0.3557644966091196,-2.030852301018736e-05,0.3557644966091196,-1.4936046020374712e-05,0.3557644966091196,-1.8964446020374717e-05
0.3565586137890507,-2.856052600333408e-06,0.3565586137890507,-1.762550630746288e-05,0.3565586137890507,-4.245251039714666e-05,0.3565586137890507,-2.3664414010581137e-05
0.3573527309689818,4.52942761509978e-06,0.3573527309689818,-1.5946268726151164e-05,0.3573527309689818,-7.233287674227528e-05,0.3573527309689818,-2.3331113745230232e-05
0.3581468481489128,6.2100989917742215e-06,0.3581468481489128,-1.1246798828387131e-05,0.3581468481489128,-8.576843191889392e-05,0.3581468481489128,-2.735862957566817e-05
0.3589409653288439,3.692789940751375e-06,0.3589409653288439,-8.896112611338839e-06,0.3589409653288439,-9.013480943964072e-05,0.3589409653288439,-1.846378845668108e-05
0.3597350825087749,8.387750633976024e-07,0.3597350825087749,-9.566921620793189e-06,0.3597350825087749,-9.215080463979928e-05,0.3597350825087749,5.541088164764012e-06
0.360529199688706,-3.693312407852607e-06,0.360529199688706,-4.867292714472313e-06,0.360529199688706,-0.0001075862781282,0.360529199688706,2.53444411075627e-05
0.3613233168686371,-6.208256544455922e-06,0.3613233168686371,-3.5259838475396944e-06,0.3613233168686371,-8.880845343591335e-05,0.3613233168686371,2.2326496156964312e-05
0.3621174340485681,-1.023592863044212e-05,0.3621174340485681,-6.879427187283199e-06,0.3621174340485681,-1.4320320386715732e-05,0.3621174340485681,3.121365899177242e-05
0.3629115512284993,-6.883717376514545e-06,0.3629115512284993,-1.0236902623485454e-05,0.3629115512284993,7.430710918766996e-05,0.3629115512284993,4.011097195054085e-05
0.3637056684084303,-2.5195625341779136e-06,0.3637056684084303,-1.5104367184981849e-05,0.3637056684084303,0.0001488508768319,0.3637056684084303,2.199587051951774e-05
0.3644997855883614,-2.51774e-06,0.3644997855883614,-1.896595748416622e-05,0.3644997855883614,0.0001680118327875,0.3644997855883614,-4.860377828768632e-06
0.3652939027682925,-1.8464222183481464e-06,0.3652939027682925,-1.7120826106580304e-05,0.3652939027682925,0.0001498912199198,0.3652939027682925,-1.684245261103203e-07
0.3660880199482235,-8.39195396180688e-07,0.3660880199482235,-9.90302409424591e-06,0.3660880199482235,0.0001411608060198,0.3660880199482235,-6.882397729194092e-06
0.3668821371281546,1.1757516777814474e-06,0.3668821371281546,-6.881935954462222e-06,0.3668821371281546,0.0001334321731428,0.3668821371281546,-2.987740291167361e-05
0.3676762543080857,5.874827385187887e-06,0.3676762543080857,-7.553971689917518e-06,0.3676762543080857,8.81007116486542e-05,0.3676762543080857,-3.105360339263041e-05
0.3684703714880167,6.210154601921042e-06,0.3684703714880167,-9.90124222925891e-06,0.3684703714880167,2.505939468072806e-05,0.3684703714880167,-3.574818442689457e-05
0.3692644886679478,6.378161905434557e-06,0.3692644886679478,-8.22569093921448e-06,0.3692644886679478,-4.9802990081410434e-05,0.3692644886679478,-5.453889347306989e-05
0.3700586058478789,9.230293514573736e-06,0.3700586058478789,-7.553553286892431e-06,0.3700586058478789,-7.954575190980902e-05,0.3700586058478789,-6.998543433694034e-05
0.3708527230278099,5.20473522573151e-06,0.3708527230278099,-8.224375798036959e-06,0.3708527230278099,-5.455972410073831e-05,0.3708527230278099,-8.610107906916744e-05
0.371646840207741,-3.523073460449444e-06,0.371646840207741,-1.4265983930596736e-05,0.371646840207741,-2.1994853233490547e-05,0.371646840207741,-7.469519702378534e-05
0.3724409573876721,-8.89572173994508e-06,0.3724409573876721,-1.6281291902076897e-05,0.3724409573876721,-3.675820728726402e-05,0.3724409573876721,-4.918116923499253e-05
0.3732350745676032,-1.158172610752844e-05,0.3732350745676032,-1.6281195070570593e-05,0.3732350745676032,-7.133779160353522e-05,0.3732350745676032,-2.232144091916078e-05
0.3740291917475342,-1.2925088216873206e-05,0.3740291917475342,-1.4099340496114465e-05,0.3740291917475342,-9.148375121636393e-05,0.3740291917475342,3.8649832146808185e-06
0.3748233089274653,-1.5775319614628292e-05,0.3748233089274653,-1.4267054048957766e-05,0.3748233089274653,-0.0001161305513686,0.3748233089274653,2.2307850279364832e-05
0.3756174261073964,-2.030652433088219e-05,0.3756174261073964,-1.6279944163120677e-05,0.3756174261073964,-0.000171669843419,0.3756174261073964,7.062956005945356e-05
0.3764115432873274,-1.8967772385109227e-05,0.3764115432873274,-1.4603865481386536e-05,0.3764115432873274,-0.0002203580013273,0.3764115432873274,0.0001344103119949
0.3772056604672585,-2.0644782234626487e-05,0.3772056604672585,-1.3596230659224109e-05,0.3772056604672585,-0.00021719836369,0.3772056604672585,0.0001619632283913
0.3779997776471896,-2.047764701893812e-05,0.3779997776471896,-1.7623071881534813e-05,0.3779997776471896,-0.0002586443897667,0.3779997776471896,0.0001294211189855
0.3787938948271206,-2.400193310659303e-05,0.3787938948271206,-1.829551106666097e-05,0.3787938948271206,-0.000229789824107,0.3787938948271206,2.871553997436367e-05
0.3795880120070517,-2.9373554311202236e-05,0.3795880120070517,-2.0309820306132345e-05,0.3795880120070517,-9.01318119462958e-05,0.3795880120070517,-3.474467308667287e-05
0.3803821291869828,-2.6351316861027995e-05,0.3803821291869828,-2.1652490760528622e-05,0.3803821291869828,0.000120724527616,0.3803821291869828,-2.635372011312792e-05
0.3811762463669139,-2.03061068700914e-05,0.3811762463669139,-2.097984758509583e-05,0.3811762463669139,0.0003698092432398,0.3811762463669139,-3.508356892601854e-05
0.3819703635468449,-8.402000664959761e-06,0.3819703635468449,-1.6620593767564816e-05,0.3819703635468449,0.0004898557874966,0.3819703635468449,-4.497567187516988e-05
0.382764480726776,1.1233056581220665e-05,0.382764480726776,-1.158489319939462e-05,0.382764480726776,0.0004322497617581,0.382764480726776,-5.8570508394334345e-05
0.3835585979067071,9.903780013694815e-06,0.3835585979067071,-1.15816e-05,0.3835585979067071,0.0003105826261144,0.3835585979067071,-0.000157392934017
0.3843527150866381,1.359447493756764e-05,0.3843527150866381,-1.2252759079557753e-05,0.3843527150866381,0.0001838404734643,0.3843527150866381,-0.0002284175228605
0.3851468322665692,2.3832437041497703e-05,0.3851468322665692,-8.225461002109726e-06,0.3851468322665692,8.042164235720365e-05,0.3851468322665692,-0.0002036062479016
0.3859409494465003,2.8534100766577176e-05,0.3859409494465003,-5.53920098925394e-06,0.3859409494465003,2.9041170181101252e-05,0.3859409494465003,-0.0001391511037471
0.3867350666264313,3.138808169386664e-05,0.3867350666264313,-6.2109270472817135e-06,0.3867350666264313,-1.1249843697350548e-05,0.3867350666264313,-8.476215350641804e-05
0.3875291838063624,3.474371339227416e-05,0.3875291838063624,-1.2253776148375602e-05,0.3875291838063624,-5.8249753934209406e-05,0.3875291838063624,-6.395125971455912e-05
0.3883233009862935,3.0049132358009667e-05,0.3883233009862935,-1.5607048315707383e-05,0.3883233009862935,-8.440517695044383e-05,0.3883233009862935,-6.68014911123144e-05
0.3891174181662246,1.5956031799685163e-05,0.3891174181662246,-1.2590913972777996e-05,0.3891174181662246,-9.482717416704348e-05,0.3891174181662246,-3.5103746604250726e-05
0.3899115353461556,2.5255981275009028e-06,0.3899115353461556,-7.220663248659535e-06,0.3899115353461556,-0.000113287195218,0.3899115353461556,6.857263383746032e-06
0.3907056525260867,-4.193291801726238e-06,0.3907056525260867,-4.19755219075488e-06,0.3907056525260867,-0.000124707004953,0.3907056525260867,4.37925398898012e-05
0.3914997697060178,-1.2250663191880212e-05,0.3914997697060178,-9.230249495287689e-06,0.3914997697060178,-0.0001445122554123,0.3914997697060178,6.629387644438308e-05
0.3922938868859488,-1.376338479838082e-05,0.3922938868859488,-1.0574308704764848e-05,0.3922938868859488,-0.0001851322132333,0.3922938868859488,8.509692184676331e-05
0.3930880040658799,-1.661709484288701e-05,0.3930880040658799,-9.903098281013544e-06,0.3930880040658799,-0.000185472773089,0.3930880040658799,8.644229084136442e-05
0.393882121245811,-1.5610025623484997e-05,0.393882121245811,-9.567615047433947e-06,0.393882121245811,-0.0001411495685967,0.393882121245811,6.512127088808528e-05
0.394676238425742,-1.57778e-05,0.394676238425742,-1.0911106107791723e-05,0.394676238425742,-6.628580168666087e-05,0.394676238425742,3.741831861076206e-05
0.3954703556056732,-1.57778e-05,0.3954703556056732,-1.3929051058390326e-05,0.3954703556056732,-1.766365492721041e-05,0.3954703556056732,-2.8207875748937733e-06
0.3962644727856042,-1.6616542706495776e-05,0.3962644727856042,-1.695079386290443e-05,0.3962644727856042,-1.3933951945339032e-05,0.3962644727856042,-4.378150579010864e-05
0.3970585899655353,-1.66171e-05,0.3970585899655353,-1.69528e-05,0.3970585899655353,-3.5740631591896885e-05,0.3970585899655353,-3.810474713562554e-05
0.3978527071454664,-1.762382854685036e-05,0.3978527071454664,-1.69528e-05,0.3978527071454664,-5.454406624475688e-05,0.3978527071454664,-1.662502429697549e-05
0.3986468243253974,-1.5610445647083653e-05,0.3986468243253974,-1.8295302901944236e-05,0.3986468243253974,-5.958538588229088e-05,0.3986468243253974,-1.5610222823541825e-05
0.3994409415053285,-1.6952701074754555e-05,0.3994409415053285,-1.762424946262272e-05,0.3994409415053285,-5.354434516360451e-05,0.3994409415053285,-5.875437206556068e-06
0.4002350586852595,-1.4602527822370826e-05,0.4002350586852595,-1.6281251128652686e-05,0.4002350586852595,-4.145832857406684e-05,0.4002350586852595,3.1885445168280727e-06
0.4010291758651906,-9.567855567180275e-06,0.4010291758651906,-1.4267385642852805e-05,0.4010291758651906,-3.508109409252322e-05,0.4010291758651906,-4.867184432819723e-06
0.4018232930451217,-1.157980887868386e-05,0.4018232930451217,-1.5105653740208963e-05,0.4018232930451217,-3.776371182638846e-05,0.4018232930451217,-2.855231121316141e-06
0.4026174102250527,-1.2587951936587736e-05,0.4026174102250527,-1.560962593115439e-05,0.4026174102250527,-4.581681556698084e-05,0.4026174102250527,-8.407421223677914e-07
0.4034115274049838,-1.25887e-05,0.4034115274049838,-1.191949792394966e-05,0.4034115274049838,-4.884230169858664e-05,0.4034115274049838,-1.845740569766794e-06
0.4042056445849149,-1.225315026806557e-05,0.4042056445849149,-8.897362408113874e-06,0.4042056445849149,-4.045545665687665e-05,0.4042056445849149,1.8446870602312448e-06
0.404999761764846,-1.158180144972598e-05,0.404999761764846,-8.22481144972598e-06,0.404999761764846,-3.239731739671176e-05,0.404999761764846,7.887096961467507e-06
0.4057938789447771,-1.1917248818339638e-05,0.4057938789447771,-7.5533223617961e-06,0.4057938789447771,-2.8367114179924357e-05,0.4057938789447771,1.930095982507229e-05
0.4065879961247081,-1.158160163845778e-05,0.4065879961247081,-7.721069180771108e-06,0.4065879961247081,-3.239488033850661e-05,0.4065879961247081,3.1052042654465694e-05
0.4073821133046392,-1.3259525144489434e-05,0.4073821133046392,-7.553555330359566e-06,0.4073821133046392,-3.7932391007673913e-05,0.4073821133046392,5.186523234052826e-05
0.4081762304845703,-9.230882737242352e-06,0.4081762304845703,-9.903781277599735e-06,0.4081762304845703,-2.735239261384833e-05,0.4081762304845703,5.06838332265556e-05
0.4089703476645013,-6.3806113839058855e-06,0.4089703476645013,-1.2251071794731818e-05,0.4089703476645013,-3.2089728535960323e-06,0.4089703476645013,2.7713968824811243e-05
0.4097644648444324,-8.223365567845529e-06,0.4097644648444324,-1.527226364544542e-05,0.4097644648444324,1.9958487988854848e-05,0.4097644648444324,-1.490693875483378e-07
0.4105585820243635,-6.88252686839411e-06,0.4105585820243635,-1.359668359207286e-05,0.4105585820243635,3.7085687413498616e-05,0.4105585820243635,-3.841735417917505e-05
0.4113526992042945,-4.197247397907572e-06,0.4113526992042945,-1.1750099482607749e-05,0.4113526992042945,4.0786001072668097e-05,0.4113526992042945,-7.484700154632433e-05
0.4121468163842256,-7.552443682218666e-06,0.4121468163842256,-1.0910394068460762e-05,0.4121468163842256,3.206121843224407e-05,0.4121468163842256,-9.483018093012956e-05
0.4129409335641567,-1.5111455968486572e-06,0.4129409335641567,-9.567522354390413e-06,0.4129409335641567,2.635277750971532e-05,0.4129409335641567,-8.946404942090854e-05
0.4137350507440878,3.5247870918475005e-06,0.4137350507440878,-7.553112728021015e-06,0.4137350507440878,2.5344985462432973e-05,0.4137350507440878,-5.7571634913730296e-05
0.4145291679240188,2.8529436436370826e-06,0.4145291679240188,-5.874790908293246e-06,0.4145291679240188,2.198305279897334e-05,0.4145291679240188,-4.7167018165864914e-05
0.4153232851039499,5.056611176214409e-07,0.4153232851039499,-6.210118125026377e-06,0.4153232851039499,-2.8311013059062912e-06,0.4153232851039499,-5.387356250052753e-05
0.416117402283881,-1.8445710252702549e-06,0.416117402283881,-6.378143644016911e-06,0.416117402283881,-2.868274128399513e-05,0.416117402283881,-4.180359755550326e-05
0.416911519463812,-4.194807824706918e-06,0.416911519463812,-1.0236463571322828e-05,0.416911519463812,-3.239266514360043e-05,0.416911519463812,-2.7368136256834645e-05
0.4177056366437431,-5.873951876771196e-06,0.4177056366437431,-1.4265356493267808e-05,0.4177056366437431,-2.367069426458642e-05,0.4177056366437431,-1.99774797165796e-05
0.4184997538236742,-1.0908638770825084e-05,0.4184997538236742,-1.5273987752924833e-05,0.4184997538236742,-4.044649588208056e-05,0.4184997538236742,-1.739898439526902e-07
0.4192938710036052,-1.1581490921688383e-05,0.4192938710036052,-1.4938654539155808e-05,0.4192938710036052,-3.138927255720682e-05,0.4192938710036052,4.2458973551744415e-05
0.4200879881835363,-1.2924380016187087e-05,0.4200879881835363,-1.2924429975719368e-05,0.4200879881835363,1.3930825549290682e-05,0.4200879881835363,7.771367542788751e-05
0.4208821053634674,-1.0909932717830598e-05,0.4208821053634674,-1.2252331793912998e-05,0.4208821053634674,3.340003993429638e-05,0.4208821053634674,7.502512532781679e-05
0.4216762225433985,-8.897325606589654e-06,0.4216762225433985,-7.217426027900789e-06,0.4216762225433985,1.8624909916848723e-05,0.4216762225433985,4.882991028580075e-05
0.4224703397233295,-1.3591896651958471e-05,0.4224703397233295,-6.882098811167635e-06,0.4224703397233295,-4.177270898738369e-06,0.4224703397233295,-1.8042397296266104e-06
0.4232644569032606,-1.527315190443701e-05,0.4232644569032606,-1.0068818597910297e-05,0.4232644569032606,-0.0001004760994036,0.4232644569032606,-5.2502127678157977e-05
0.4240585740831917,-1.0912540986830225e-05,0.4240585740831917,-1.292286938158581e-05,0.4240585740831917,-0.0002149535944901,0.4240585740831917,-2.1669166876437763e-05
0.4248526912631227,-5.037764310714613e-06,0.4248526912631227,-1.4266677869170344e-05,0.4248526912631227,-0.0002324642124547,0.4248526912631227,2.180349607271557e-05
0.4256468084430538,-2.518347418873515e-06,0.4256468084430538,-1.6952152083961526e-05,0.4256468084430538,-0.0001332959323142,0.4256468084430538,-5.868038397216449e-06
0.4264409256229849,-2.51774e-06,0.4264409256229849,-1.91345956037192e-05,0.4264409256229849,5.352640024053443e-05,0.4264409256229849,-2.4672039018316037e-05
0.4272350428029159,3.525210033290633e-06,0.4272350428029159,-2.0309673321697376e-05,0.4272350428029159,0.0002091431035887,0.4272350428029159,-2.8368436362949314e-05
0.428029159982847,1.0574905330126388e-05,0.428029159982847,-1.7960778195150214e-05,0.428029159982847,0.0002667036909537,0.428029159982847,-6.429447415754883e-05
0.4288232771627781,1.2586868630525457e-05,0.4288232771627781,-2.231993212372808e-05,0.4288232771627781,0.000225459542074,0.4288232771627781,-0.0001048690673822
0.4296173943427092,1.242092807287044e-05,0.4296173943427092,-2.718788695466685e-05,0.4296173943427092,0.0001512885915798,0.4296173943427092,-9.551337009748394e-05
0.4304115115226402,1.4601557548555687e-05,0.4304115115226402,-2.501084245144431e-05,0.4304115115226402,8.983709405932038e-05,0.4304115115226402,-8.946731747266274e-05
0.4312056287025713,2.0642674304984537e-05,0.4312056287025713,-2.1654169783801245e-05,0.4312056287025713,6.93312759196784e-05,0.4312056287025713,-8.526936226482373e-05
0.4319997458825024,1.494042647751518e-05,0.4319997458825024,-1.6283119037661347e-05,0.4319997458825024,5.556250500200248e-05,0.4319997458825024,-6.630647033573927e-05
0.4327938630624334,2.855524272546517e-06,0.4327938630624334,-1.359626317321003e-05,0.4327938630624334,2.367220016462256e-05,0.4327938630624334,-4.2805652731094673e-05
0.4335879802423645,-4.867437871428104e-06,0.4335879802423645,-8.896126948031932e-06,0.4335879802423645,-1.309128530359632e-05,0.4335879802423645,5.20213546107665e-06
0.4343820974222956,-8.22502189631256e-06,0.4343820974222956,-6.21035821536907e-06,0.4343820974222956,-5.9929367017188e-05,0.4343820974222956,6.831830706558604e-05
0.4351762146022266,-1.1583412376540588e-05,0.4351762146022266,-5.706734074458855e-06,0.4351762146022266,-0.00011836018876,0.4351762146022266,9.852586886111346e-05
0.4359703317821577,-1.828995671120415e-05,0.4359703317821577,-5.2037532382544335e-06,0.4359703317821577,-0.000215269454729,0.4359703317821577,9.248997895991628e-05
0.4367644489620888,-2.131480321052761e-05,0.4367644489620888,-4.867862976608043e-06,0.4367644489620888,-0.0002727151614858,0.4367644489620888,6.665413906001885e-05
0.4375585661420199,-2.467196572058767e-05,0.4375585661420199,-3.861080300216318e-06,0.4375585661420199,-0.0002546369055131,0.4375585661420199,-3.4864925657967578e-06
0.438352683321951,-2.6016064439188655e-05,0.438352683321951,-6.2094827725685406e-06,0.438352683321951,-0.000285499681862,0.438352683321951,-7.483234844357235e-05
0.439146800501882,-2.5848842160937277e-05,0.439146800501882,-1.158025045302106e-05,0.439146800501882,-0.0002089912312165,0.439146800501882,-7.133678565606554e-05
0.4399409176818131,-2.098170464988252e-05,0.4399409176818131,-1.896623431645116e-05,0.4399409176818131,-3.6944636837449166e-05,0.4399409176818131,3.3391141266963194e-05
0.4407350348617442,-8.223931990445624e-06,0.4407350348617442,-1.8966778908925708e-05,0.4407350348617442,0.0001777609246943,0.4407350348617442,9.919585632824452e-05
0.4415291520416752,7.219060838148829e-06,0.4415291520416752,-1.3931114789506557e-05,0.4415291520416752,0.0003810258646664,0.4415291520416752,2.9859480393800514e-05
0.4423232692216063,1.5266894061953848e-05,0.4423232692216063,-1.1919151489107627e-05,0.4423232692216063,0.0004221031989938,0.4423232692216063,-6.269043186873633e-05
0.4431173864015373,1.7957824584343458e-05,0.4431173864015373,-1.4265384011300524e-05,0.4431173864015373,0.0002960155443812,0.4431173864015373,-0.0001407656831165
0.4439115035814684,5.882275802655617e-06,0.4439115035814684,-1.493818023249112e-05,0.4439115035814684,0.000169103335684,0.4439115035814684,-0.0001767225430009
0.4447056207613995,4.868111016879276e-06,0.4447056207613995,-1.292536204331116e-05,0.4447056207613995,5.49412154532911e-05,0.4447056207613995,-0.0001559419409231
0.4454997379413306,8.894680438409617e-06,0.4454997379413306,-1.0910864784095678e-05,0.4454997379413306,-2.464754116024019e-05,0.4454997379413306,-0.0001233797473758
0.4462938551212617,7.217826268908709e-06,0.4462938551212617,-1.2924032475119945e-05,0.4462938551212617,-3.373604613803976e-05,0.4462938551212617,-7.637997550754785e-05
0.4470879723011927,5.037822179046536e-07,0.4470879723011927,-1.1581646843776289e-05,0.4470879723011927,-4.045146578111856e-05,0.4470879723011927,-3.575331701725567e-05
0.4478820894811238,-6.8820469924240845e-06,0.4478820894811238,-8.392611329034034e-06,0.4478820894811238,-6.596676185245388e-05,0.4478820894811238,-1.694986801010829e-05
0.4486762066610549,-8.897668042943058e-06,0.4486762066610549,-9.735216367222564e-06,0.4486762066610549,-8.426688864037569e-05,0.4486762066610549,9.07018672413361e-06
0.4494703238409859,-1.526887517197765e-05,0.4494703238409859,-9.567552758855987e-06,0.4494703238409859,-0.000109584443115,0.4494703238409859,3.338130005943852e-05
0.450264441020917,-1.762254566127558e-05,0.450264441020917,-9.90286367293655e-06,0.450264441020917,-0.0001364420939757,0.450264441020917,4.011127331793023e-05
0.4510585582008481,-1.4436774541379288e-05,0.4510585582008481,-8.561057158039225e-06,0.4510585582008481,-0.0001482044620402,0.4510585582008481,3.709638111810776e-05
0.4518526753807791,-1.3931705851105403e-05,0.4518526753807791,-9.566998256905155e-06,0.4518526753807791,-0.0001555929807141,0.4518526753807791,4.4476980591521854e-05
0.4526467925607102,-1.35958877044957e-05,0.4526467925607102,-1.0909849184629783e-05,0.4526467925607102,-0.0001693564040372,0.4526467925607102,3.944591554130965e-05
0.4534409097406413,-1.4267123677413851e-05,0.4534409097406413,-9.2319008053286e-06,0.4534409097406413,-0.0001921844051002,0.4534409097406413,1.7962342311389007e-05
0.4542350269205724,-1.8967011381909507e-05,0.4542350269205724,-1.0910222763819014e-05,0.4542350269205724,-0.0001834564732296,0.4542350269205724,1.644913740119296e-05
0.4550291441005034,-1.930215236370946e-05,0.4550291441005034,-1.1581356606093092e-05,0.4550291441005034,-0.000108915806416,0.4550291441005034,1.4598397230848083e-05
0.4558232612804345,-1.628420741311107e-05,0.4558232612804345,-1.0240047739160474e-05,0.4558232612804345,-8.65357793542929e-06,0.4558232612804345,-1.02157169184519e-05
0.4566173784603656,-1.762314886219004e-05,0.4566173784603656,-1.124511164664253e-05,0.4566173784603656,6.154577827644029e-05,0.4566173784603656,-2.03019164664253e-05
0.4574114956402966,-1.4604819171248976e-05,0.4574114956402966,-1.3594307311250797e-05,0.4574114956402966,7.065874254977444e-05,0.4574114956402966,-1.4942011859998178e-05
0.4582056128202277,-1.0912000678520362e-05,0.4582056128202277,-1.96354534351485e-05,0.4582056128202277,5.254563964579131e-05,0.4582056128202277,6.5356433639829966e-06
0.4589997300001588,2.5131738266149413e-06,0.4589997300001588,-1.762488492906821e-05,0.4589997300001588,3.0388234185745297e-05,0.4589997300001588,2.5003221524347424e-05
0.4597938471800898,8.894782384574192e-06,0.4597938471800898,-1.2254033786273565e-05,0.4597938471800898,2.5010533786273564e-05,0.4597938471800898,1.7793389140681684e-05
0.4605879643600209,8.392482602659277e-06,0.4605879643600209,-9.567530547067272e-06,0.4605879643600209,3.12197212316246e-05,0.4605879643600209,1.8470557468372792e-06
0.461382081539952,1.0574879222393952e-05,0.461382081539952,-1.15816e-05,0.461382081539952,2.030707650193178e-05,0.461382081539952,5.044443399378321e-07
0.4621761987198831,1.426703217543457e-05,0.4621761987198831,-1.1582606947392577e-05,0.4621761987198831,-6.214615584140278e-06,0.4621761987198831,9.229863937279144e-06
0.4629703158998141,1.3596377741968308e-05,0.4629703158998141,-1.560653354819015e-05,0.4629703158998141,-2.2980856554052696e-05,0.4629703158998141,1.8526951358362925e-06
0.4637644330797452,1.35958e-05,0.4637644330797452,-1.661638092520334e-05,0.4637644330797452,-3.305910925203338e-05,0.4637644330797452,-1.2578393304088168e-05
0.4645585502596763,1.057621133556676e-05,0.4645585502596763,-1.8965668961225853e-05,0.4645585502596763,-3.273079014839631e-05,0.4645585502596763,-2.131195614169602e-05
0.4653526674396073,2.5211145078957616e-06,0.4653526674396073,-2.1987034553256464e-05,0.4653526674396073,-3.0381684236356084e-05,0.4653526674396073,-1.4270152709068254e-05
0.4661467846195384,-7.214879213108525e-06,0.4661467846195384,-2.0478009792522946e-05,0.4661467846195384,-3.23943536280534e-05,0.4661467846195384,2.513186916720646e-06
0.4669409017994695,-1.1916718739434304e-05,0.4669409017994695,-1.6449698225462228e-05,0.4669409017994695,-2.786356049746109e-05,0.4669409017994695,6.881280258222821e-06
0.4677350189794005,-1.8966967902343754e-05,0.4677350189794005,-1.6281367902343754e-05,0.4677350189794005,-2.702374814648437e-05,0.4677350189794005,-6.882221217834664e-06
0.4685291361593316,-1.762374003836326e-05,0.4685291361593316,-1.4938370019181627e-05,0.4685291361593316,-2.9038503708211703e-05,0.4685291361593316,-2.3665722598648887e-05
0.4693232533392627,-1.4941122304498207e-05,0.4693232533392627,-1.3597061152249104e-05,0.4693232533392627,-3.2559489428386305e-05,0.4693232533392627,-1.7965259803139107e-05
0.4701173705191938,-1.3932298425843736e-05,0.4701173705191938,-1.1583196851687471e-05,0.4701173705191938,-2.9711562246197104e-05,0.4701173705191938,-7.226036526477245e-06
0.4709114876991248,-1.5273433605018675e-05,0.4709114876991248,-8.226775981001164e-06,0.4709114876991248,-2.165779830536644e-05,0.4709114876991248,-2.1140011197233805e-05
0.4717056048790559,-1.5945365888914545e-05,0.4717056048790559,-8.895675888914544e-06,0.4717056048790559,-1.4438591719050316e-05,0.4717056048790559,-2.86984412751703e-05
0.472499722058987,-1.4938952537020372e-05,0.472499722058987,-4.1978751657607005e-06,0.472499722058987,-7.220046490809045e-06,0.472499722058987,-2.803103502468025e-05
0.473293839238918,-1.2589175783962804e-05,0.473293839238918,2.5163806233232285e-06,0.473293839238918,-6.881887969137543e-06,0.473293839238918,2.511554840878733e-06
0.4740879564188491,-1.359574472219518e-05,0.4740879564188491,2.51774e-06,0.4740879564188491,-1.0238615741748366e-05,0.4740879564188491,3.742848371045063e-05
0.4748820735987802,-7.720681035081425e-06,0.4748820735987802,-8.395882884609516e-07,0.4748820735987802,-1.225331117267641e-05,0.4748820735987802,5.15278952077462e-05
0.4756761907787112,-3.5246688843786645e-06,0.4756761907787112,-4.532252233642403e-06,0.4756761907787112,-1.561e-05,0.4756761907787112,3.204244379780093e-05
0.4764703079586423,-2.854024439807653e-06,0.4764703079586423,-5.87355111167977e-06,0.4764703079586423,-1.561e-05,0.4764703079586423,-3.7705317615839735e-05
0.4772644251385734,-3.524343909051403e-06,0.4772644251385734,-1.0235640376253807e-05,0.4772644251385734,-1.1919973540037662e-05,0.4772644251385734,-8.13753037625381e-05
0.4780585423185045,-5.202362470541238e-06,0.4780585423185045,-1.6948929882164952e-05,0.4780585423185045,-9.73651778253214e-06,0.4780585423185045,-7.805183505891752e-05
0.4788526594984356,-5.874432078910183e-06,0.4788526594984356,-1.9301692261176124e-05,0.4788526594984356,-6.547487641258255e-06,0.4788526594984356,-7.80499e-05
0.4796467766783666,-9.901966971786695e-06,0.4796467766783666,-2.0309516741540367e-05,0.4796467766783666,-1.0908972552300147e-05,0.4796467766783666,-6.395456559030872e-05
0.4804408938582977,-7.2178790075981185e-06,0.4804408938582977,-1.628193851540757e-05,0.4804408938582977,-1.661633710317261e-05,0.4804408938582977,-5.824446289682739e-05
0.4812350110382288,-1.8462653297188264e-06,0.4812350110382288,-1.762418133232544e-05,0.4812350110382288,-1.997394599182391e-05,0.4812350110382288,-4.531910165665292e-05
0.4820291282181598,3.5251007096620594e-06,0.4820291282181598,-1.6281183432270352e-05,0.4820291282181598,-8.895685150018337e-06,0.4820291282181598,-3.105058404202054e-05
0.4828232453980909,5.201736793327832e-06,0.4828232453980909,-1.4939874565337734e-05,0.4828232453980909,-6.883731838514753e-06,0.4828232453980909,-2.1661521862445664e-05
0.483617362578022,6.209611509697983e-06,0.483617362578022,-1.4267738998886667e-05,0.483617362578022,-1.6273854031642614e-05,0.483617362578022,-2.5006805085846504e-05
0.484411479757953,1.8491994180254629e-06,0.484411479757953,-1.42672e-05,0.484411479757953,-3.540366255979871e-05,0.484411479757953,-2.50095e-05
0.4852055969378841,9.227960928389238e-06,0.4852055969378841,-1.4938259173923654e-05,0.4852055969378841,-9.363033346478566e-05,0.4852055969378841,-7.5620814170688195e-06
0.4859997141178152,8.896130869835569e-06,0.4859997141178152,-1.460302086983557e-05,0.4859997141178152,-0.0001287273693002,0.4859997141178152,1.056797305768351e-05
0.4867938312977463,6.546619284306044e-06,0.4867938312977463,-1.644880771414226e-05,0.4867938312977463,-0.0001069246361249,0.4867938312977463,3.64178078705088e-05
0.4875879484776773,2.518001399866829e-06,0.4875879484776773,-1.4938698022192254e-05,0.4875879484776773,-2.80359190866736e-05,0.4875879484776773,3.474490891715192e-05
0.4883820656576084,-1.0239077597722188e-05,0.4883820656576084,-1.3763253007808796e-05,0.4883820656576084,4.5154509086219295e-05,0.4883820656576084,1.2417482727892893e-05
0.4891761828375395,-1.3596494851645389e-05,0.4891761828375395,-9.565865892132e-06,0.4891761828375395,8.274885073687785e-05,0.4891761828375395,-2.769232061641688e-05
0.4899703000174705,-1.6614439802243778e-05,0.4899703000174705,-2.859351524154946e-06,0.4899703000174705,7.906025135281316e-05,0.4899703000174705,-1.562064070297677e-05
0.4907644171974016,-1.7623460780230666e-05,0.4907644171974016,8.365355377885542e-07,0.4907644171974016,2.4042810533921987e-05,0.4907644171974016,3.2024210411053134e-05
0.4915585343773327,-1.7959703136612826e-05,0.4915585343773327,1.0070015659607068e-06,0.4915585343773327,-4.175591495204176e-05,0.4915585343773327,5.4537810211701966e-05
0.4923526515572637,-1.79599e-05,0.4923526515572637,3.359926412468306e-07,0.4923526515572637,-6.62896457142953e-05,0.4923526515572637,4.851105176332227e-05
0.4931467687371948,-1.896670666905403e-05,0.4931467687371948,-4.194910017150919e-06,0.4931467687371948,2.162093600528692e-06,0.4931467687371948,1.712974210412663e-05
0.4939408859171259,-1.997395529866184e-05,0.4939408859171259,-9.734464145513751e-06,0.4939408859171259,0.0001105974205093,0.4939408859171259,-1.1409600157488407e-05
0.494735003097057,-1.896699214346069e-05,0.494735003097057,-1.762422356922786e-05,0.494735003097057,0.0001616389528615,0.494735003097057,-2.853463045731613e-05
0.495529120276988,-1.6951809628690087e-05,0.495529120276988,-2.3667004731961387e-05,0.495529120276988,0.0001495480068775,0.495529120276988,-8.762154081530635e-05
0.4963232374569191,-1.041297884686984e-05,0.4963232374569191,-2.567896803236045e-05,0.4963232374569191,0.0001099789957472,0.4963232374569191,-0.0001156211136901
0.4971173546368502,1.1655264437401056e-06,0.4971173546368502,-2.132044705892414e-05,0.4971173546368502,8.377808251610484e-05,0.4971173546368502,-0.0001097777751996
0.4979114718167812,1.174236567717936e-05,0.4979114718167812,-1.662022639230679e-05,0.4979114718167812,2.404214971199981e-05,0.4979114718167812,-9.55156905344403e-05
0.4987055889967123,7.890908330078163e-06,0.4987055889967123,-1.561052131160079e-05,0.4987055889967123,-8.839838713006377e-05,0.4987055889967123,-2.0684250621937192e-05
0.4994997061766434,5.06280987219735e-07,0.4994997061766434,-1.2254242273309914e-05,0.4994997061766434,-0.0001488596393024,0.4994997061766434,6.693947677762764e-05
0.5002938233565745,7.21602632366102e-06,0.5002938233565745,-1.3595501263486356e-05,0.5002938233565745,-0.0001211931613849,0.5002938233565745,0.0001099314405427
0.5010879405365055,1.158127316946233e-05,0.5010879405365055,-1.6281198872593542e-05,0.5010879405365055,-7.738178086460595e-05,0.5010879405365055,8.006633751244042e-05
0.5018820577164366,3.692252962337599e-06,0.5018820577164366,-1.9135056220271337e-05,0.5018820577164366,-7.9391919127144e-05,0.5018820577164366,1.7957191354549835e-05
0.5026761748963677,-2.1832216350595967e-06,0.5026761748963677,-2.265956308476666e-05,0.5026761748963677,-6.864771518568187e-05,0.5026761748963677,-1.931710116491409e-05
0.5034702920762988,-7.548437124999379e-06,0.5034702920762988,-2.249194942087681e-05,0.5034702920762988,-5.691136248897493e-05,0.5034702920762988,-8.470560876101886e-05
0.5042644092562298,-1.124315260994325e-05,0.5042644092562298,-2.031142342935316e-05,0.5042644092562298,-7.757660274796271e-06,0.5042644092562298,-0.0001067356406384
0.5050585264361609,-9.90390088353048e-06,0.5050585264361609,-1.427080397588716e-05,0.5050585264361609,7.229524754613777e-05,0.5050585264361609,-8.947391128599072e-05
0.505852643616092,-8.560912706231603e-06,0.505852643616092,-1.0240608132160193e-05,0.505852643616092,0.0001407952616635,0.505852643616092,-7.570617773999603e-05
0.506646760796023,-3.5263470111358937e-06,0.506646760796023,-1.4265986386271051e-05,0.506646760796023,0.0001737140890019,0.506646760796023,-6.76456272274579e-05
0.507440877975954,2.5168113616630864e-06,0.507440877975954,-1.628109045235087e-05,0.507440877975954,0.0001334461909529,0.507440877975954,-0.0001119481900439
0.5082349951558852,6.21039747132777e-06,0.5082349951558852,-1.1245930721083069e-05,0.5082349951558852,6.227253418825688e-05,0.5082349951558852,-0.0001129629938502
0.5090291123358163,6.546262306164291e-06,0.5090291123358163,-1.191715769383571e-05,0.5090291123358163,7.045519428976028e-06,0.5090291123358163,-7.368100905406277e-05
0.5098232295157473,7.552243956363614e-06,0.5098232295157473,-1.0911176043636384e-05,0.5098232295157473,-2.2295432235054683e-05,0.5098232295157473,-3.9813159941925806e-05
0.5106173466956784,5.205263492811562e-06,0.5106173466956784,-1.158104757113155e-05,0.5106173466956784,-4.982855049867368e-05,0.5106173466956784,-2.1667515497168014e-05
0.5114114638756094,5.20333e-06,0.5114114638756094,-1.191707332876838e-05,0.5114114638756094,-6.897307980731956e-05,0.5114114638756094,-1.4607660095864046e-05
0.5122055810555405,1.512588403043328e-06,0.5122055810555405,-1.493700584773842e-05,0.5122055810555405,-8.20713920068665e-05,0.5122055810555405,1.1064549732158476e-05
0.5129996982354716,-2.180636574510573e-06,0.5129996982354716,-1.5609744830347175e-05,0.5129996982354716,-0.0001070784949114,0.5129996982354716,4.91653192172161e-05
0.5137938154154027,-1.5107960832476192e-06,0.5137938154154027,-1.4267512166495235e-05,0.5137938154154027,-0.0001265534737253,0.5137938154154027,7.16663712344522e-05
0.5145879325953338,-2.1819830031574947e-06,0.5145879325953338,-1.023914198105503e-05,0.5145879325953338,-0.000122362356209,0.5145879325953338,6.294424095046332e-05
0.5153820497752648,-8.22494671587473e-06,0.5153820497752648,-1.1581705223906756e-05,0.5153820497752648,-0.0001586259127625,0.5153820497752648,4.3472116119183245e-05
0.5161761669551959,-1.3596363993552306e-05,0.5161761669551959,-1.3259042514189492e-05,0.5161761669551959,-0.0002848429608821,0.5161761669551959,2.9372472012895383e-05
0.5169702841351269,-1.6278981727417542e-05,0.5169702841351269,-8.229144252087518e-06,0.5169702841351269,-0.0002989263044291,0.5169702841351269,2.4007236545164918e-05
0.5177644013150581,-2.064220941945191e-05,0.5177644013150581,-7.386002796411443e-06,0.5177644013150581,-0.0001707996913881,0.5177644013150581,2.333150624316125e-05
0.5185585184949891,-2.1651989264865944e-05,0.5185585184949891,-1.0908062439159394e-05,0.5185585184949891,5.0052945851764425e-05,0.5185585184949891,2.9705432010817647e-05
0.5193526356749202,-2.467241372930604e-05,0.5193526356749202,-7.722533324989484e-06,0.5193526356749202,0.000214603523177,0.5193526356749202,6.225715863386953e-05
0.5201467528548512,-2.500939550802714e-05,0.5201467528548512,-6.378687967891431e-06,0.5201467528548512,0.0002267602383512,0.5201467528548512,8.307892152880942e-05
0.5209408700347823,-2.198879452256387e-05,0.5209408700347823,-3.1896620100437283e-06,0.5209408700347823,0.0001515803083935,0.5209408700347823,3.911609825616642e-05
0.5217349872147133,-2.030982702783825e-05,0.5217349872147133,5.034885389490793e-07,0.5217349872147133,5.958798112070536e-05,0.5217349872147133,-3.675777834654183e-05
0.5225291043946444,-1.3595226933806835e-05,0.5225291043946444,8.389815091431798e-07,0.5225291043946444,-3.8623373628112255e-06,0.5225291043946444,-7.87240330780525e-05
0.5233232215745756,-9.235983105170566e-06,0.5233232215745756,-1.1729678068025454e-06,0.5233232215745756,-1.7610723282186445e-05,0.5233232215745756,-9.951422062655752e-05
0.5241173387545066,-7.55461785132009e-06,0.5241173387545066,-6.206226437711703e-06,0.5241173387545066,2.463857410342799e-05,0.5241173387545066,-8.024797534431321e-05
0.5249114559344377,-4.869470222964323e-06,0.5249114559344377,-1.1745604573968875e-05,0.5249114559344377,4.815659805762744e-05,0.5249114559344377,-4.953654752574344e-05
0.5257055731143687,-3.69331169933562e-06,0.5257055731143687,-1.2252729244831338e-05,0.5257055731143687,3.2067863251410286e-05,0.5257055731143687,-3.273962422245921e-05
0.5264996902942998,-5.538309817229776e-06,0.5264996902942998,-1.560869057678141e-05,0.5264996902942998,1.2596294615662064e-05,0.5264996902942998,-2.299909732733391e-05
0.5272938074742308,-2.1828539887682617e-06,0.5272938074742308,-1.9637423210568375e-05,0.5272938074742308,-2.0301822910555983e-05,0.5272938074742308,-1.3598079151092875e-05
0.528087924654162,1.8459577308980664e-06,0.528087924654162,-1.89670637118333e-05,0.528087924654162,-3.4072093916906704e-05,0.528087924654162,-1.0910454847333208e-05
0.528882041834093,5.032296300119817e-07,0.528882041834093,-1.8966770065282612e-05,0.528882041834093,-3.1724419733600764e-05,0.528882041834093,-6.545925440908275e-06
0.5296761590140241,-5.539634309296365e-06,0.5296761590140241,-1.4602161394859567e-05,0.5296761590140241,-4.919500858130336e-05,0.5296761590140241,-2.855320077811304e-06
0.5304702761939551,-8.557559282104066e-06,0.5304702761939551,-1.0913562010794868e-05,0.5304702761939551,-0.0001251467730047,0.5304702761939551,-1.224444219075825e-05
0.5312643933738862,-1.1579291695955515e-05,0.5312643933738862,-9.568435908664144e-06,0.5312643933738862,-0.000227190030972,0.5312643933738862,8.879851886968859e-06
0.5320585105538173,-1.7620475154277646e-05,0.5320585105538173,-6.883475480823403e-06,0.5320585105538173,-0.0003009085776682,0.5320585105538173,3.7748303582689496e-05
0.5328526277337483,-1.7959742607329093e-05,0.5328526277337483,-7.049591303664546e-06,0.5328526277337483,-0.0002486095531628,0.5328526277337483,2.83709069947854e-05
0.5336467449136795,-1.4603978494682563e-05,0.5336467449136795,-8.224232530073777e-06,0.5336467449136795,-9.08570891215735e-05,0.5336467449136795,7.895488782224217e-06
0.5344408620936105,-1.930188371228021e-05,0.5344408620936105,-1.3594867101485668e-05,0.5344408620936105,0.0001015155906313,0.5344408620936105,-9.56437808807848e-06
0.5352349792735416,-1.997408247387381e-05,0.5352349792735416,-2.5009202058465134e-05,0.5352349792735416,0.0002361604860299,0.5352349792735416,-7.888953815315478e-06
0.5360290964534726,-1.0909303969077571e-05,0.5360290964534726,-3.004440943783209e-05,0.5360290964534726,0.0002428708317477,0.5360290964534726,-2.519898623864976e-06
0.5368232136334037,-3.532135167634209e-06,0.5368232136334037,-2.518221473967808e-05,0.5368232136334037,0.0001838534413806,0.5368232136334037,-2.0292201155140784e-05
0.5376173308133347,4.860556798084271e-06,0.5376173308133347,-1.377321960045395e-05,0.5376173308133347,0.0001234199272965,0.5376173308133347,-5.31804730848995e-05
0.5384114479932659,9.899599227519695e-06,0.5384114479932659,-7.557537596450026e-06,0.5384114479932659,6.097270948976727e-05,0.5384114479932659,-6.39431316408811e-05
0.539205565173197,1.3258261569801386e-05,0.539205565173197,-7.55322e-06,0.539205565173197,7.246934762696851e-06,0.539205565173197,-5.120098603475473e-05
0.539999682353128,1.2924534299817304e-05,0.539999682353128,-1.2922251210924308e-05,0.539999682353128,-5.955977444837296e-05,0.539999682353128,-2.4348843945378454e-05
0.5407937995330591,9.568257563622234e-06,0.5407937995330591,-1.107856614875699e-05,0.5407937995330591,-0.0001186540830125,0.5407937995330591,2.3654579879840994e-05
0.5415879167129901,7.553431279423625e-06,0.5415879167129901,-8.224909318198641e-06,0.5415879167129901,-0.0001344453449591,0.5415879167129901,7.099523492987347e-05
0.5423820338929212,-1.6816425415222348e-07,0.5423820338929212,-1.2420907475562766e-05,0.5423820338929212,-9.617546486975867e-05,0.5423820338929212,9.58410832062124e-05
0.5431761510728523,-7.553411376048883e-06,0.5431761510728523,-1.49386e-05,0.5431761510728523,-4.615384317457593e-05,0.5431761510728523,7.669335274669406e-05
0.5439702682527834,-8.559383037353003e-06,0.5439702682527834,-1.49386e-05,0.5439702682527834,-2.167515613096255e-05,0.5439702682527834,4.430667174245656e-06
0.5447643854327144,-9.56663049028546e-06,0.5447643854327144,-9.571567377404073e-06,0.5447643854327144,-5.855081813193636e-05,0.5447643854327144,-5.920156117868204e-05
0.5455585026126455,-4.199594681373905e-06,0.5455585026126455,-5.877033220793681e-06,0.5455585026126455,-8.843788395281029e-05,0.5455585026126455,-0.0001135999325995
0.5463526197925765,4.192211264996383e-06,0.5463526197925765,-4.197033746043023e-06,0.5463526197925765,-5.993586371625092e-05,0.5463526197925765,-0.0001361152296909
0.5471467369725076,7.552107933675201e-06,0.5471467369725076,-3.692846810445623e-06,0.5471467369725076,1.894086646289971e-05,0.5471467369725076,-0.0001015604542841
0.5479408541524387,1.4265966728450844e-05,0.5479408541524387,-7.216872532344849e-06,0.5479408541524387,9.381394905473956e-05,0.5479408541524387,-6.530005968620364e-05
0.5487349713323698,1.4602887879441508e-05,0.5487349713323698,-9.567325156451594e-06,0.5487349713323698,0.0001126263212451,0.5487349713323698,-4.884469390736621e-05
0.5495290885123009,5.87367348956328e-06,0.5495290885123009,-6.882436689137116e-06,0.5495290885123009,7.099713522539976e-05,0.5495290885123009,-4.582212725084564e-05
0.5503232056922319,-3.5154386344883217e-06,0.5503232056922319,-1.241526584296675e-05,0.5503232056922319,4.3500503231188e-05,0.5503232056922319,-3.978633723860231e-05
0.551117322872163,-7.717491422021624e-06,0.551117322872163,-1.5607280231614818e-05,0.551117322872163,3.475224345993338e-05,0.551117322872163,-3.005330232069493e-05
0.551911440052094,-9.566107916603731e-06,0.551911440052094,-1.2255367437179108e-05,0.551911440052094,-4.786900168134197e-07,0.551911440052094,-3.1051389768846265e-05
0.5527055572320251,-1.0909451203515007e-05,0.5527055572320251,-1.5272615195361815e-05,0.5527055572320251,-3.942288482275001e-05,0.5527055572320251,-3.306517679690787e-05
0.5534996744119562,-1.1581324685374593e-05,0.5534996744119562,-1.52743e-05,0.5534996744119562,-2.635766863519542e-05,0.5534996744119562,-1.1254847684319647e-05
0.5542937915918873,-1.2924047543559605e-05,0.5542937915918873,-1.49386881141101e-05,0.5542937915918873,3.013580057362921e-06,0.5542937915918873,5.870226201383243e-06
0.5550879087718184,-1.460270714546229e-05,0.5550879087718184,-1.7959552861832123e-05,0.5550879087718184,1.7286860741025333e-05,0.5550879087718184,5.051747009457422e-05
0.5558820259517494,-2.4338121944590124e-05,0.5558820259517494,-1.6952821944590125e-05,0.5558820259517494,-5.707303405001241e-06,0.5558820259517494,0.0001193418009742
0.5566761431316805,-2.5010104393775423e-05,0.5566761431316805,-1.7624260439377542e-05,0.5566761431316805,-1.8966516484979657e-05,0.5566761431316805,0.0001438463956062
0.5574702603116115,-2.8363376561106504e-05,0.5574702603116115,-1.795958765611065e-05,0.5574702603116115,-1.6283898751114797e-05,0.5574702603116115,0.0001404931234388
0.5582643774915427,-2.83665e-05,0.5582643774915427,-1.3599221522869858e-05,0.5582643774915427,-1.292703194066912e-05,0.5582643774915427,4.220731562640053e-05
0.5590584946714737,-2.668906825432154e-05,0.5590584946714737,-1.4602259047407076e-05,0.5590584946714737,-2.835667212388521e-05,0.5590584946714737,-3.033455160423961e-05
0.5598526118514048,-2.7023535892338248e-05,0.5598526118514048,-1.6951651246367744e-05,0.5598526118514048,-9.949980932236438e-05,0.5598526118514048,-4.3466599801191706e-05
0.5606467290313358,-2.2325503902428065e-05,0.5606467290313358,-1.5107030121588828e-05,0.5606467290313358,-0.0001696720559939,0.5606467290313358,-9.146141738472304e-05
0.5614408462112669,-1.4268760490788185e-05,0.5614408462112669,-1.3596092585970015e-05,0.5614408462112669,-0.0001700309351143,0.5614408462112669,-0.0001129588385621
0.5622349633911979,-8.224888604510688e-06,0.5622349633911979,-1.6281276175568107e-05,0.5622349633911979,-0.0001393164162165,0.5622349633911979,-0.0001498872974601
0.563029080571129,3.1908411109148e-06,0.563029080571129,-1.6281127821605008e-05,0.563029080571129,-3.574196552912176e-05,0.563029080571129,-0.0001626423936565
0.5638231977510602,1.995716199199349e-05,0.5638231977510602,-1.3598510087739396e-05,0.5638231977510602,6.217318220115923e-05,0.5638231977510602,-0.0001270979084607
0.5646173149309912,2.8527014110534576e-05,0.5646173149309912,-1.258956893324774e-05,0.5646173149309912,8.474449391041453e-05,0.5646173149309912,-8.111088119869939e-05
0.5654114321109223,3.2056678973021035e-05,0.5654114321109223,-1.527237919029315e-05,0.5654114321109223,7.235188374489417e-05,0.5654114321109223,-4.266119148164547e-05
0.5662055492908533,2.736206781215053e-05,0.5662055492908533,-1.259022446408602e-05,0.5662055492908533,4.7515401236031306e-05,0.5662055492908533,1.0376591947829856e-05
0.5669996664707844,1.897052532819752e-05,0.5669996664707844,-8.897561158689015e-06,0.5669996664707844,3.878861828445061e-06,0.5669996664707844,4.983463086505804e-05
0.5677937836507154,1.5275306187661507e-05,0.5677937836507154,-8.224792943211183e-06,0.5677937836507154,-3.1042586999340105e-05,0.5677937836507154,5.8073558959287016e-05
0.5685879008306466,9.23246471000395e-06,0.5685879008306466,-9.567242286388237e-06,0.5685879008306466,-2.0982457839598383e-05,0.5685879008306466,2.736323643013432e-05
0.5693820180105776,-2.853577065712591e-06,0.5693820180105776,-8.896032844172016e-06,0.5693820180105776,2.8535542213137422e-06,0.5693820180105776,-2.568099899239501e-05
0.5701761351905087,-8.897066082746139e-06,0.5701761351905087,-9.903499602737534e-06,0.5701761351905087,7.88691199651539e-06,0.5701761351905087,-3.0043458692160325e-05
0.5709702523704397,-1.5100559658937426e-05,0.5709702523704397,-1.2250790119869616e-05,0.5709702523704397,-3.849480655772948e-06,0.5709702523704397,-2.0989723729318603e-05
