X [s],R BICEPS BRACHII: EMG 1 [V],X [s].1,R DELTOID ANTERIOR: EMG 2 [V],X [s].5,R DELTOID MEDIUS: EMG 6 [V],X [s].6,R DELTOID POSTERIOR: EMG 7 [V]
0.0,-7.36858e-05,0.0,-4.21302e-05,0.0,4.53193e-06,0.0,-8.56031e-06
0.000794117179931,-0.0001350200560686,0.000794117179931,-4.072815789734941e-05,0.000794117179931,3.6235653340418063e-06,0.000794117179931,-7.92840693905224e-06
0.0015882343598621,-0.0001285034876803,0.0015882343598621,-3.5258200598688404e-05,0.0015882343598621,5.341559162239476e-06,0.0015882343598621,-1.1186658324478951e-05
0.0023823515397932,-6.592582991696993e-05,0.0023823515397932,-1.8868164368555336e-05,0.0023823515397932,4.117248027932456e-06,0.0023823515397932,-1.0949690986033772e-05
0.0031764687197242,4.8646576055639165e-05,0.0031764687197242,3.2584725576080776e-07,0.0031764687197242,4.630663297915808e-06,0.0031764687197242,-1.12459e-05
0.0039705858996553,0.0001286611579972,0.0039705858996553,1.0021522655684072e-05,0.0039705858996553,5.87472e-06,0.0039705858996553,-1.211475789986017e-05
0.0047647030795864,0.000119024995073,0.0047647030795864,1.469174737124543e-05,0.0047647030795864,7.3754926205179774e-06,0.0047647030795864,-1.3042869465483252e-05
0.0055588202595174,8.600818250650251e-05,0.0055588202595174,1.5580322901681423e-05,0.0055588202595174,7.09904825614912e-06,0.0055588202595174,-1.421781821363858e-05
0.0063529374394485,8.21967833510421e-05,0.0063529374394485,9.192288000890966e-06,0.0063529374394485,6.091936648957904e-06,0.0063529374394485,-1.3813016648957904e-05
0.0071470546193796,7.534464751135317e-05,0.0071470546193796,-2.616425596895962e-06,0.0071470546193796,4.729419502270635e-06,0.0071470546193796,-1.6755310497729366e-05
0.0079411717993107,6.231163404168387e-05,0.0079411717993107,-6.684353170161184e-06,0.0079411717993107,9.774830644224644e-07,0.0079411717993107,-1.592595418880262e-05
0.0087352889792417,4.0906077855545366e-05,0.0087352889792417,-5.795733895581541e-06,0.0087352889792417,-3.2088594997767364e-06,0.0087352889792417,-1.561e-05
0.0095294061591728,1.2430820204634562e-05,0.0095294061591728,-9.211952414839988e-06,0.0095294061591728,-3.248384865216625e-06,0.0095294061591728,-1.397100010625258e-05
0.0103235233391039,-1.2055101768914362e-05,0.0103235233391039,-1.5807533005751358e-05,0.0103235233391039,-1.3921929170046483e-06,0.0103235233391039,-1.2489896283026298e-05
0.0111176405190349,-2.548352407138366e-05,0.0111176405190349,-2.21858442938356e-05,0.0111176405190349,-8.39246e-07,0.0111176405190349,-1.6261686853190998e-05
0.011911757698966,-4.609067492712075e-05,0.011911757698966,-3.134829206724811e-05,0.011911757698966,-4.235900726580778e-06,0.011911757698966,-1.6903300880648488e-05
0.0127058748788971,-8.812837527307945e-05,0.0127058748788971,-3.768710353315257e-05,0.0127058748788971,-5.005912612907556e-06,0.0127058748788971,-1.49386e-05
0.0134999920588282,-0.0001408254588061,0.0134999920588282,-4.045167946185382e-05,0.0134999920588282,-4.53193e-06,0.0134999920588282,-1.5106397137425072e-05
0.0142941092387592,-0.0001876265896919,0.0142941092387592,-3.648264279613642e-05,0.0142941092387592,-6.526481909920564e-06,0.0142941092387592,-1.6607264780971307e-05
0.0150882264186903,-0.0002052208944263,0.0150882264186903,-3.446831255058367e-05,0.0150882264186903,-6.1119775858848695e-06,0.0150882264186903,-1.837447994900761e-05
0.0158823435986214,-0.0001806560807098,0.0158823435986214,-3.571235030214882e-05,0.0158823435986214,-1.885818895933852e-06,0.0158823435986214,-1.9223742208132297e-05
0.0166764607785524,-0.0001355725082741,0.0166764607785524,-3.625552445007385e-05,0.0166764607785524,-1.6291110489363306e-06,0.0166764607785524,-1.7387168682794334e-05
0.0174705779584835,-6.55714720559527e-05,0.0174705779584835,-3.199982941967752e-05,0.0174705779584835,5.03548e-07,0.0174705779584835,-1.3694616849998914e-05
0.0182646951384146,1.52709144456832e-05,0.0182646951384146,-2.5523198166395975e-05,0.0182646951384146,-1.6092393529792525e-06,0.0182646951384146,-1.3240254074894e-05
0.0190588123183456,9.552545443437903e-05,0.0190588123183456,-2.0823147045346315e-05,0.0190588123183456,-3.4952042358319886e-06,0.0190588123183456,-1.5057025687552535e-05
0.0198529294982767,0.0001651158966027,0.0198529294982767,-1.991497264472737e-05,0.0198529294982767,-3.070674677919463e-06,0.0198529294982767,-1.49386e-05
0.0206470466782078,0.0002003815168235,0.0206470466782078,-1.798946395026996e-05,0.0206470466782078,-3.742081858486851e-06,0.0206470466782078,-1.3161569438201245e-05
0.0214411638581389,0.0001990792072268,0.0214411638581389,-1.5057326897929348e-05,0.0214411638581389,-2.49800627888887e-06,0.0214411638581389,-8.481375703393466e-06
0.0222352810380699,0.0001678386489503,0.0222352810380699,-9.60686691457875e-06,0.0222352810380699,-1.6686013985817797e-06,0.0222352810380699,-7.47423930070911e-06
0.023029398218001,0.0001177812418931,0.023029398218001,-8.37254572770426e-06,0.023029398218001,9.576994876091026e-07,0.023029398218001,-9.024343778204057e-06
0.0238235153979321,5.8147608091667885e-05,0.0238235153979321,-1.1937036601564942e-05,0.0238235153979321,1.84634e-06,0.0238235153979321,-1.1028636687801554e-05
0.0246176325778631,-8.00717865643479e-06,0.0246176325778631,-1.7288534794160272e-05,0.0246176325778631,1.84634e-06,0.0246176325778631,-1.2174007846997516e-05
0.0254117497577942,-4.989151079780251e-05,0.0254117497577942,-2.31729825203322e-05,0.0254117497577942,3.110202626373836e-06,0.0254117497577942,-1.171981049690326e-05
0.0262058669377253,-4.669328403430396e-05,0.0262058669377253,-2.263984061619254e-05,0.0262058669377253,5.8942478266195e-06,0.0262058669377253,-1.0831327882206508e-05
0.0269999841176564,-1.829617268216776e-05,0.0269999841176564,-2.652009217320309e-05,0.0269999841176564,9.231652731783226e-06,0.0269999841176564,-1.02388e-05
0.0277941012975874,-1.4622741258863875e-05,0.0277941012975874,-2.8149354211437383e-05,0.0277941012975874,1.05745e-05,0.0277941012975874,-1.186792235846388e-05
0.0285882184775185,-3.701295215219235e-05,0.0285882184775185,-2.3923470470701278e-05,0.0285882184775185,1.1028523570654148e-05,0.0285882184775185,-1.1719787589480073e-05
0.0293823356574496,-7.581770725588805e-05,0.0293823356574496,-2.2067314794816564e-05,0.0293823356574496,1.4010446338156111e-05,0.0293823356574496,-1.0831253661843888e-05
0.0301764528373806,-9.189254567404724e-05,0.0301764528373806,-2.0763925101167343e-05,0.0301764528373806,1.5155817497352073e-05,0.0301764528373806,-9.685890737939816e-06
0.0309705700173117,-0.0001327077423468,0.0309705700173117,-2.295590741885131e-05,0.0309705700173117,1.5688973391527252e-05,0.0309705700173117,-9.152713076472893e-06
0.0317646871972428,-0.0001888688555478,0.0317646871972428,-2.737900611072129e-05,0.0317646871972428,1.0101016721986916e-05,0.0317646871972428,-1.197638895933852e-05
0.0325588043771738,-0.0001830643779993,0.0325588043771738,-2.90379e-05,0.0325588043771738,5.272477611349751e-06,0.0325588043771738,-1.2628213257068636e-05
0.0333529215571049,-0.0001688269547772,0.0333529215571049,-3.168378269214388e-05,0.0333529215571049,5.20333e-06,0.0333529215571049,-1.2075275781220326e-05
0.034147038737036,-0.0001430223263176,0.034147038737036,-3.32242720184014e-05,0.034147038737036,3.821279040277964e-06,0.034147038737036,-1.4188012073286747e-05
0.0349411559169671,-3.342726116115966e-05,0.0349411559169671,-3.3461111951663004e-05,0.0349411559169671,7.603343755791015e-07,0.0349411559169671,-1.4543716017234e-05
0.0357352730968981,0.0001340722567681,0.0357352730968981,-3.468555664219707e-05,0.0357352730968981,-2.300536899283006e-06,0.0357352730968981,-1.333908642614669e-05
0.0365293902768292,0.0002663356600948,0.0365293902768292,-3.213837180343241e-05,0.0365293902768292,-5.00582565677564e-06,0.0365293902768292,-1.3911730437850426e-05
0.0373235074567603,0.0002837967263797,0.0373235074567603,-3.134829929359484e-05,0.0373235074567603,-4.7492047659100425e-06,0.0373235074567603,-1.3358949531820084e-05
0.0381176246366913,0.0001927417801057,0.0381176246366913,-3.164452102520335e-05,0.0381176246366913,-4.788626393285924e-06,0.0381176246366913,-1.1808658588533226e-05
0.0389117418166224,5.1338973933915655e-05,0.0389117418166224,-2.8524564440059182e-05,0.0389117418166224,-5.933991669736089e-06,0.0389117418166224,-1.2351712474391509e-05
0.0397058589965535,-5.701452005856909e-05,0.0397058589965535,-2.556247412725764e-05,0.0397058589965535,-4.907238280496111e-06,0.0397058589965535,-1.558011735871064e-05
0.0404999761764846,-0.0001102758145459,0.0404999761764846,-2.1652738627898183e-05,0.0404999761764846,-4.19623e-06,0.0404999761764846,-1.7624174226589996e-05
0.0412940933564156,-0.0001195184890484,0.0412940933564156,-1.3457843661693856e-05,0.0412940933564156,-6.289433335250004e-06,0.0412940933564156,-1.3990726403877634e-05
0.0420882105363467,-0.0001124904289966,0.0420882105363467,-9.88337333985702e-06,0.0420882105363467,-6.032819459669952e-06,0.0420882105363467,-1.5767691175745655e-05
0.0428823277162778,-8.227746289675735e-05,0.0428823277162778,-9.56741e-06,0.0428823277162778,-5.993122326666778e-06,0.0428823277162778,-1.724903255777774e-05
0.0436764448962088,-5.17274200617298e-05,0.0436764448962088,-9.271179899185904e-06,0.0436764448962088,-5.499563126020108e-06,0.0436764448962088,-1.6676346978179764e-05
0.0444705620761399,-4.076787198028757e-05,0.0444705620761399,-1.1522415510440824e-05,0.0444705620761399,-2.9324397863400102e-06,0.0444705620761399,-1.4662175398847405e-05
0.045264679256071,-2.923684091816098e-05,0.045264679256071,-1.5195227645141306e-05,0.045264679256071,-1.4316879349880951e-06,0.045264679256071,-1.4563412208175458e-05
0.046058796436002,-2.222342480912106e-06,0.046058796436002,-1.3240337951350102e-05,0.046058796436002,-2.7546282230494407e-06,0.046058796436002,-1.4277078234240276e-05
0.0468529136159331,2.3884148139731612e-05,0.0468529136159331,-7.395309596037128e-06,0.0468529136159331,-1.9845471031685347e-06,0.0468529136159331,-1.4820123224207866e-05
0.0476470307958642,2.753821949276266e-05,0.0476470307958642,-1.1502564118785289e-05,0.0476470307958642,-1.3918203360704943e-06,0.0476470307958642,-1.584687337560311e-05
0.0484411479757953,6.152522260399519e-06,0.0484411479757953,-1.9282578533792053e-05,0.0484411479757953,-4.235885849399824e-06,0.0484411479757953,-1.6261677732600464e-05
0.0492352651557263,-1.912485110392055e-05,0.0492352651557263,-2.386412971052231e-05,0.0492352651557263,-6.417998002628058e-07,0.0492352651557263,-1.5432284306004965e-05
0.0500293823356574,-2.183490123316685e-06,0.0500293823356574,-2.8603381009553945e-05,0.0500293823356574,1.1353822088963265e-06,0.0500293823356574,-1.4030237233167765e-05
0.0508234995155885,6.076710532938966e-05,0.0508234995155885,-2.7853123363766836e-05,0.0508234995155885,4.215769577450564e-06,0.0508234995155885,-1.302327243924326e-05
0.0516176166955195,0.0001255987799398,0.0516176166955195,-2.2284529260177705e-05,0.0516176166955195,5.282343883555535e-06,0.0516176166955195,-1.0732530120851328e-05
0.0524117338754506,0.0001353748183265,0.0524117338754506,-1.920397410698281e-05,0.0524117338754506,3.65319707407772e-06,0.0524117338754506,-8.283808561571747e-06
0.0532058510553817,5.989149408742285e-05,0.0532058510553817,-1.638029958999332e-05,0.0532058510553817,3.86053e-06,0.0532058510553817,-6.407803025957672e-06
0.0539999682353128,-6.528810840571541e-05,0.0539999682353128,-1.1246105381461733e-05,0.0539999682353128,4.196207092576815e-06,0.0539999682353128,-8.895872556143262e-06
0.0547940854152438,-0.0001898174635625,0.0547940854152438,-7.958066957458306e-06,0.0547940854152438,7.4939636299362414e-06,0.0547940854152438,-9.863619042238557e-06
0.0555882025951749,-0.0001924616661165,0.0555882025951749,-1.077172113251593e-05,0.0555882025951749,7.997418155476917e-06,0.0555882025951749,-8.56031e-06
0.056382319775106,-7.410928152025861e-05,0.056382319775106,-1.560969138510977e-05,0.056382319775106,7.731064314039513e-06,0.056382319775106,-8.363002598673048e-06
0.057176436955037,7.609198705303921e-05,0.057176436955037,-1.981573018447965e-05,0.057176436955037,6.54612e-06,0.057176436955037,-5.499591760128484e-06
0.0579705541349681,0.0001476970093619,0.0579705541349681,-2.649053944609886e-05,0.0579705541349681,9.18224145592963e-06,0.0579705541349681,-4.68993529830582e-06
0.0587646713148992,0.000117409437044,0.0587646713148992,-3.1170514832094255e-05,0.0587646713148992,8.659170985531667e-06,0.0587646713148992,-5.736393493697154e-06
0.0595587884948302,7.94135343881716e-05,0.0595587884948302,-2.982781143737242e-05,0.0595587884948302,8.362807876631141e-06,0.0595587884948302,-8.115886136509068e-06
0.0603529056747613,5.530139512180468e-05,0.0603529056747613,-2.7932286388074144e-05,0.0603529056747613,5.36130398911927e-06,0.0603529056747613,-1.0673234994704144e-05
0.0611470228546924,2.2258457428962787e-05,0.0611470228546924,-2.4338180131231003e-05,0.0611470228546924,4.9860609609457625e-06,0.0611470228546924,-1.150235480472881e-05
0.0619411400346235,-2.086029495643146e-05,0.0619411400346235,-2.773399806379725e-05,0.0619411400346235,3.74223134406376e-06,0.0619411400346235,-1.2253e-05
0.0627352572145545,-6.84125101047556e-05,0.0627352572145545,-3.0499207253752047e-05,0.0627352572145545,8.195376368503636e-07,0.0627352572145545,-1.3279808480566856e-05
0.0635293743944856,-0.0001251638390906,0.0635293743944856,-2.550364629759569e-05,0.0635293743944856,-4.837551237854048e-07,0.0635293743944856,-1.3526692874519915e-05
0.0643234915744167,-0.0001384596412312,0.0643234915744167,-2.0665387009576675e-05,0.0643234915744167,-2.8729452164863703e-06,0.0643234915744167,-1.3970812889236607e-05
0.0651176087543477,-7.272076913677412e-05,0.0651176087543477,-2.1652415905364875e-05,0.0651176087543477,-5.420490228794095e-06,0.0651176087543477,-1.553097348586273e-05
0.0659117259342788,1.3331136217698862e-06,0.0659117259342788,-2.74381117869537e-05,0.0659117259342788,-4.86763e-06,0.0659117259342788,-1.561e-05
0.0667058431142099,4.406340204790452e-05,0.0667058431142099,-2.9195854907452868e-05,0.0667058431142099,-2.083778265503007e-06,0.0667058431142099,-1.57778e-05
0.067499960294141,5.9921655948699286e-05,0.067499960294141,-2.9205812832517605e-05,0.067499960294141,-1.678203658916096e-07,0.067499960294141,-1.561001431287463e-05
0.068294077474072,3.972152608550788e-05,0.068294077474072,-2.293679651971804e-05,0.068294077474072,-5.499486140662117e-06,0.068294077474072,-1.1798887492129049e-05
0.0690881946540031,-1.931511308271998e-05,0.0690881946540031,-7.988263698359288e-06,0.0690881946540031,-3.9889743866309806e-06,0.0690881946540031,-1.065331122673804e-05
0.0698823118339342,-7.518577575872399e-05,0.0698823118339342,4.6367430441073196e-07,0.0698823118339342,-4.887357994255334e-06,0.0698823118339342,-1.2331911977021332e-05
0.0706764290138652,-7.200788668430606e-05,0.0706764290138652,1.9058238821978337e-06,0.0706764290138652,-4.897259215945677e-06,0.0706764290138652,-1.472122901880567e-05
0.0714705461937963,-2.6257445835197363e-05,0.0714705461937963,-4.9465224923418894e-06,0.0714705461937963,-2.8635679725755367e-06,0.0714705461937963,-1.6439411023931626e-05
0.0722646633737274,4.232307516960429e-05,0.0722646633737274,-1.8571418868696668e-05,0.0722646633737274,-1.0884776532549405e-07,0.0722646633737274,-1.3911955491535967e-05
0.0730587805536585,7.202662494469417e-05,0.0730587805536585,-2.4890947486335254e-05,0.0730587805536585,3.7023401162185086e-06,0.0730587805536585,-1.323043634118672e-05
0.0738528977335895,3.199062005578856e-05,0.0738528977335895,-3.148592906071696e-05,0.0738528977335895,5.440302929420632e-06,0.0738528977335895,-1.4049988229503724e-05
0.0746470149135206,-1.6296098267393098e-05,0.0746470149135206,-3.841758163346574e-05,0.0746470149135206,2.5970138295502016e-06,0.0746470149135206,-1.4760476638629718e-05
0.0754411320934517,-7.501442261468638e-05,0.0754411320934517,-4.049133724708165e-05,0.0754411320934517,2.971704294972012e-06,0.0754411320934517,-1.6883809216314194e-05
0.0762352492733827,-0.0001350478238131,0.0762352492733827,-3.75687700913005e-05,0.0762352492733827,4.6109336067140745e-06,0.0762352492733827,-1.436600806993207e-05
0.0770293664533138,-0.0001350419537119,0.0770293664533138,-3.3333400164405546e-05,0.0770293664533138,6.259688147167329e-06,0.0770293664533138,-1.1779155873856574e-05
0.0778234836332449,-5.5231694438932906e-05,0.0778234836332449,-2.749789332017755e-05,0.0778234836332449,5.5787445809554176e-06,0.0778234836332449,-1.1009118254089649e-05
0.078617600813176,5.715294029135544e-05,0.078617600813176,-2.5384695800951503e-05,0.078617600813176,3.0115147584863797e-06,0.078617600813176,-9.310746790637532e-06
0.079411717993107,0.000121710336705,0.079411717993107,-2.56809e-05,0.079411717993107,1.84634e-06,0.079411717993107,-8.698543404326445e-06
0.0802058351730381,0.0001179233341085,0.0802058351730381,-2.295594954286272e-05,0.0802058351730381,2.3005499703663803e-06,0.0802058351730381,-9.72510735680509e-06
0.0809999523529692,6.294721098208534e-05,0.0809999523529692,-1.8967292663994503e-05,0.0809999523529692,5.03719804855066e-07,0.0809999523529692,-1.2588528194326082e-05
0.0817940695329002,3.940803020702159e-06,0.0817940695329002,-1.7801888623521322e-05,0.0817940695329002,-3.801237815431064e-06,0.0817940695329002,-1.1680348781536794e-05
0.0825881867128313,-4.0527151673883536e-05,0.0825881867128313,-1.9539236258279105e-05,0.0825881867128313,-1.6099623887787246e-06,0.0825881867128313,-1.2193629364113784e-05
0.0833823038927624,-5.086054840724359e-05,0.0833823038927624,-2.352842747313757e-05,0.0833823038927624,3.208490004565441e-06,0.0833823038927624,-1.2322180221683753e-05
0.0841764210726934,-1.087278133716748e-05,0.0841764210726934,-1.940234660174584e-05,0.0841764210726934,5.87472e-06,0.0841764210726934,-1.15816e-05
0.0849705382526245,4.487132286109696e-05,0.0849705382526245,-7.592931964191296e-06,0.0849705382526245,3.130135790262308e-06,0.0849705382526245,-9.932947415483596e-06
0.0857646554325556,7.538426046222192e-05,0.0857646554325556,-6.024584701404155e-07,0.0857646554325556,4.728811377537777e-06,0.0857646554325556,-7.711087417537103e-06
0.0865587726124866,5.72975890496778e-05,0.0865587726124866,2.964851501207744e-08,0.0865587726124866,9.132812909415224e-06,0.0865587726124866,-8.856450928084994e-06
0.0873528897924177,1.3517642927398872e-05,0.0873528897924177,-6.347538308056656e-06,0.0873528897924177,9.468694382961635e-06,0.0873528897924177,-7.55322e-06
0.0881470069723488,-1.1698957602675389e-05,0.0881470069723488,-1.738686905306258e-05,0.0881470069723488,7.88891e-06,0.0881470069723488,-9.35012950723417e-06
0.0889411241522799,-1.9026115260496443e-05,0.0889411241522799,-2.157326530259428e-05,0.0889411241522799,8.56031e-06,0.0889411241522799,-8.905862543416074e-06
0.0897352413322109,-1.6380430669978228e-05,0.0897352413322109,-2.4377480520254464e-05,0.0897352413322109,8.046928667139748e-06,0.0897352413322109,-1.0732341685365484e-05
0.090529358512142,-8.520974280965954e-06,0.090529358512142,-2.773425060700404e-05,0.090529358512142,5.6381015406449575e-06,0.090529358512142,-1.2430757683578e-05
0.0913234756920731,-1.4344953030923174e-05,0.0913234756920731,-3.140733004358934e-05,0.0913234756920731,1.6290194192435978e-06,0.0913234756920731,-1.1699979419243598e-05
0.0921175928720041,-2.7793143425873987e-05,0.0921175928720041,-3.293792927082864e-05,0.0921175928720041,1.5896894215604464e-06,0.0921175928720041,-1.403005173531866e-05
0.0929117100519352,-3.804241303226635e-05,0.0929117100519352,-3.370803505614291e-05,0.0929117100519352,-2.162244344088782e-06,0.0929117100519352,-1.827580434408878e-05
0.0937058272318663,-4.973113264269745e-05,0.0937058272318663,-3.521863392107177e-05,0.0937058272318663,-3.52483e-06,0.0937058272318663,-1.983574866482288e-05
0.0944999444117974,-6.143213855412636e-05,0.0944999444117974,-3.4073579708779004e-05,0.0944999444117974,-4.531809736028282e-06,0.0944999444117974,-1.9806260137956664e-05
0.0952940615917284,-6.906457572445871e-05,0.0952940615917284,-2.187093172001728e-05,0.0952940615917284,-8.777376874608089e-06,0.0952940615917284,-1.9065754508392597e-05
0.0960881787716595,-9.189961699721902e-05,0.0960881787716595,-7.830477568260751e-06,0.0960881787716595,-9.962486205146088e-06,0.0960881787716595,-1.774296417919565e-05
0.0968822959515906,-0.0001103743764747,0.0968822959515906,-5.235347710583976e-07,0.0968822959515906,-9.72560076839778e-06,0.0968822959515906,-1.6320844534799068e-05
0.0976764131315216,-0.0001206040931451,0.0976764131315216,-4.353263056422288e-06,0.0976764131315216,-7.701392948446273e-06,0.0976764131315216,-1.6893530114397057e-05
0.0984705303114527,-0.0001090346127621,0.0984705303114527,-1.643898141366834e-05,0.0984705303114527,-4.907326431071764e-06,0.0984705303114527,-1.505731237591614e-05
0.0992646474913838,-8.717568226273239e-05,0.0992646474913838,-3.170237634824992e-05,0.0992646474913838,-2.8734233696451285e-06,0.0992646474913838,-1.3516870842411282e-05
0.1000587646713148,-5.7349514114171085e-05,0.1000587646713148,-4.252193013678144e-05,0.1000587646713148,-1.5302894731132405e-06,0.1000587646713148,-1.231194841933972e-05
0.1008528818512459,2.064540285862716e-05,0.1008528818512459,-4.866607143531125e-05,0.1008528818512459,6.417720172096976e-07,0.1008528818512459,-1.12063891407191e-05
0.101646999031177,0.0001360919348103,0.101646999031177,-4.4686061640740416e-05,0.101646999031177,9.186602799111658e-07,0.101646999031177,-8.441913280072838e-06
0.1024411162111081,0.0001951736994736,0.1024411162111081,-3.263819351084114e-05,0.1024411162111081,-4.056679248378322e-07,0.1024411162111081,-8.935162309974143e-06
0.1032352333910391,0.0001591504073037,0.1032352333910391,-1.591993566033231e-05,0.1032352333910391,1.944816927286602e-06,0.1032352333910391,-9.56741e-06
0.1040293505709702,7.450866690204109e-05,0.1040293505709702,3.4703273204311004e-06,0.1040293505709702,-6.615641973681803e-07,0.1040293505709702,-9.21204427757388e-06
0.1048234677509013,-6.54530004900272e-06,0.1048234677509013,1.83601918157213e-05,0.1048234677509013,1.67849e-07,0.1048234677509013,-1.0357617270290008e-05
0.1056175849308323,-6.933425352392743e-05,0.1056175849308323,1.6597744110978503e-05,0.1056175849308323,7.606780124861704e-07,0.1056175849308323,-1.1503031661421208e-05
0.1064117021107634,-0.0001171759890095,0.1064117021107634,1.4345589220937984e-05,0.1064117021107634,2.2415305315410537e-06,0.1064117021107634,-1.2450595265770526e-05
0.1072058192906945,-0.0001003187272265,0.1072058192906945,1.5806425505033486e-06,0.1072058192906945,4.058079401660879e-06,0.1072058192906945,-1.35958e-05
0.1079999364706256,8.885804304563442e-06,0.1079999364706256,-1.8294038503060523e-05,0.1079999364706256,5.538892702933566e-06,0.1079999364706256,-1.2253183062755245e-05
0.1087940536505566,0.0001246118467341,0.1087940536505566,-2.886316679743731e-05,0.1087940536505566,7.0094546402264434e-06,0.1087940536505566,-1.1009066429049736e-05
0.1095881708304877,0.0001434882322032,0.1095881708304877,-3.732888145190141e-05,0.1095881708304877,1.2547691042071316e-05,0.1095881708304877,-1.09102e-05
0.1103822880104188,7.300179704177176e-05,0.1103822880104188,-4.132056663795298e-05,0.1103822880104188,1.2096230235719596e-05,0.1103822880104188,-1.09885848821402e-05
0.1111764051903498,-8.023755354677137e-06,0.1111764051903498,-3.796179871383569e-05,0.1111764051903498,9.253009226714955e-06,0.1111764051903498,-1.15816e-05
0.1119705223702809,-5.769104496217112e-05,0.1119705223702809,-3.2238871489338856e-05,0.1119705223702809,5.608338295426464e-06,0.1119705223702809,-1.229196531934175e-05
0.112764639550212,-9.986008499139982e-05,0.112764639550212,-2.84748023322135e-05,0.112764639550212,6.052456700393023e-06,0.112764639550212,-1.4030251521419463e-05
0.1135587567301431,-0.0001202307951878,0.1135587567301431,-2.241567488529894e-05,0.1135587567301431,4.432917591222316e-06,0.1135587567301431,-1.1047875182444632e-05
0.1143528739100741,-0.000108262985955,0.1143528739100741,-2.088199174342137e-05,0.1143528739100741,2.3202937925858266e-06,0.1143528739100741,-1.15816e-05
0.1151469910900052,-0.0001006741958357,0.1151469910900052,-2.4220344489476992e-05,0.1151469910900052,-9.965827343730756e-07,0.1151469910900052,-1.1679723781486908e-05
0.1159411082699363,-3.059511421409033e-05,0.1159411082699363,-2.63523e-05,0.1159411082699363,-3.5639708439467464e-06,0.1159411082699363,-1.640860482795919e-05
0.1167352254498673,0.0001228897517088,0.1167352254498673,-2.690497662242959e-05,0.1167352254498673,-3.6829901565644738e-06,0.1167352254498673,-1.7821888417320384e-05
0.1175293426297984,0.0002159253670179,0.1175293426297984,-2.7457920343648028e-05,0.1175293426297984,-4.512252836151663e-06,0.1175293426297984,-1.663677716384834e-05
0.1183234598097295,0.0002052979811232,0.1183234598097295,-2.465593141344314e-05,0.1183234598097295,-6.0142497764235776e-06,0.1183234598097295,-1.62219970855661e-05
0.1191175769896605,0.0001073318161457,0.1191175769896605,-2.3547884165156546e-05,0.1191175769896605,-8.965635244242264e-06,0.1191175769896605,-1.5649289902303097e-05
0.1199116941695916,-3.834987774403017e-05,0.1199116941695916,-2.560249023300133e-05,0.1199116941695916,-6.960451401729544e-06,0.1199116941695916,-1.331853860760008e-05
0.1207058113495227,-0.0001675491447772,0.1207058113495227,-2.3391886473586377e-05,0.1207058113495227,-6.052278103095903e-06,0.1207058113495227,-1.2302369773010566e-05
0.1214999285294538,-0.0002311244990168,0.1214999285294538,-2.031007735804838e-05,0.1214999285294538,-3.525035945599661e-06,0.1214999285294538,-1.2588674249131528e-05
0.1222940457093848,-0.0001655235483919,0.1222940457093848,-1.9994210576649337e-05,0.1222940457093848,-3.761657837936564e-06,0.1222940457093848,-1.4217749192700472e-05
0.1230881628893159,-4.49245203634201e-05,0.1230881628893159,-2.17306341261744e-05,0.1230881628893159,-1.590853287343296e-06,0.1230881628893159,-1.284607818101058e-05
0.123882280069247,7.812565241983857e-05,0.123882280069247,-2.29953e-05,0.123882280069247,-1.1103451819078542e-08,0.123882280069247,-1.1503226583887212e-05
0.124676397249178,0.0001198930591291,0.124676397249178,-2.1692236647209768e-05,0.124676397249178,2.8321046765976126e-06,0.124676397249178,-1.035781177446746e-05
0.1254705144291091,5.17089219950368e-05,0.1254705144291091,-2.3073323926429287e-05,0.1254705144291091,3.86053e-06,0.1254705144291091,-9.01517724438754e-06
0.1262646316090402,-1.2410477078309591e-05,0.1262646316090402,-2.436774344346407e-05,0.1262646316090402,5.598213174802432e-06,0.1262646316090402,-7.632194752872777e-06
0.1270587487889713,-2.873296187882658e-05,0.1270587487889713,-2.344052423942508e-05,0.1270587487889713,5.617723878832751e-06,0.1270587487889713,-7.572893030172526e-06
0.1278528659689023,-4.418329714543367e-05,0.1278528659689023,-2.3202600981853207e-05,0.1278528659689023,5.084835818839835e-06,0.1278528659689023,-8.65902163767967e-06
0.1286469831488334,-5.741830459011046e-05,0.1286469831488334,-2.358777696158649e-05,0.1286469831488334,7.1088626269498725e-06,0.1286469831488334,-7.751072510920351e-06
0.1294411003287645,-4.638091835458313e-06,0.1294411003287645,-2.1928577285707445e-05,0.1294411003287645,6.526555311040325e-06,0.1294411003287645,-5.143085206475441e-06
0.1302352175086955,8.275410023347034e-05,0.1302352175086955,-1.9875867301201515e-05,0.1302352175086955,6.21042e-06,0.1302352175086955,-8.93472596390079e-06
0.1310293346886266,0.0001705485338065,0.1310293346886266,-2.0754877533286604e-05,0.1310293346886266,7.444679536658856e-06,0.1310293346886266,-1.09102e-05
0.1318234518685577,0.0002075596467137,0.1318234518685577,-2.5303432411571866e-05,0.1318234518685577,7.77011738190781e-06,0.1318234518685577,-1.0850802806277205e-05
0.1326175690484888,0.0001481841829919,0.1326175690484888,-2.654022740834398e-05,0.1326175690484888,5.439102641342774e-06,0.1326175690484888,-1.1167308729366375e-05
0.1334116862284198,7.830503261195387e-05,0.1334116862284198,-2.0633322120967985e-05,0.1334116862284198,1.8060569332333943e-06,0.1334116862284198,-1.3319567599486232e-05
0.1342058034083509,2.5954910348644872e-05,0.1342058034083509,-1.0676033518689828e-05,0.1342058034083509,-1.0564786753927313e-06,0.1342058034083509,-1.446472646960605e-05
0.134999920588282,-2.2990551838755347e-05,0.134999920588282,-1.292378361970963e-05,0.134999920588282,-1.680206197993548e-07,0.134999920588282,-1.5609885585777964e-05
0.135794037768213,-4.942216103219197e-05,0.135794037768213,-2.0568101366285547e-05,0.135794037768213,7.794316596582355e-07,0.135794037768213,-1.6518222104922866e-05
0.1365881549481441,-6.282023233963811e-05,0.1365881549481441,-2.4572158175537163e-05,0.1365881549481441,3.522898978994421e-06,0.1365881549481441,-1.882703210416625e-05
0.1373822721280752,-7.393781462564028e-05,0.1373822721280752,-2.876141272984528e-05,0.1373822721280752,4.593364341843742e-06,0.1373822721280752,-2.0035533174701204e-05
0.1381763893080062,-8.280461427288264e-05,0.1381763893080062,-3.045996304114503e-05,0.1381763893080062,3.484391144954708e-06,0.1381763893080062,-1.6578958039724175e-05
0.1389705064879373,-9.108127877254562e-05,0.1389705064879373,-2.9750024531785343e-05,0.1389705064879373,6.901279776826478e-06,0.1389705064879373,-1.458344022317352e-05
0.1397646236678684,-9.582208553908526e-05,0.1397646236678684,-2.59967154300181e-05,0.1397646236678684,6.230236813353966e-06,0.1397646236678684,-1.30430003066008e-05
0.1405587408477994,-9.748104130153244e-05,0.1405587408477994,-2.1733816818107008e-05,0.1405587408477994,3.939247396935134e-06,0.1405587408477994,-1.0613858698467566e-05
0.1413528580277305,-9.870510060078288e-05,0.1413528580277305,-1.4989596918898784e-05,0.1413528580277305,4.966330171652253e-06,0.1413528580277305,-1.1680300171652254e-05
0.1421469752076616,-0.0001009763820121,0.1421469752076616,-1.1265365031418729e-05,0.1421469752076616,6.072605442804327e-06,0.1421469752076616,-1.2489759041772112e-05
0.1429410923875927,-9.483799774891893e-05,0.1429410923875927,-1.1740064562642988e-05,0.1429410923875927,2.341710095644873e-06,0.1429410923875927,-1.2490905220270269e-05
0.1437352095675237,-8.689759163686572e-05,0.1437352095675237,-1.361517893847004e-05,0.1437352095675237,-7.601549514991362e-07,0.1437352095675237,-1.0396983039408873e-05
0.1445293267474548,-8.036000030350284e-05,0.1445293267474548,-1.611434388027432e-05,0.1445293267474548,9.775441646948337e-07,0.1445293267474548,-1.02388e-05
0.1453234439273859,-7.989103566336248e-05,0.1453234439273859,-2.1511429840541288e-05,0.1453234439273859,1.3324669963113143e-06,0.1453234439273859,-1.0614561309625968e-05
0.146117561107317,-0.0001017944501324,0.146117561107317,-2.3942971536517592e-05,0.146117561107317,-1.86763045823063e-06,0.146117561107317,-1.1877998631669498e-05
0.146911678287248,-0.0001287456579698,0.146911678287248,-2.180949587590624e-05,0.146911678287248,-3.989047100094094e-06,0.146911678287248,-1.1779178066729397e-05
0.1477057954671791,-0.000160316452211,0.1477057954671791,-1.6253317589493612e-05,0.1477057954671791,-5.53903e-06,0.1477057954671791,-1.3556372505367952e-05
0.1484999126471102,-0.0001750664335183,0.1484999126471102,-1.3596082508334297e-05,0.1484999126471102,-5.53903e-06,0.1484999126471102,-1.527411121653369e-05
0.1492940298270412,-0.0001193035722176,0.1492940298270412,-1.1354911042106012e-05,0.1492940298270412,-5.588468868450312e-06,0.1492940298270412,-1.7426432743818287e-05
0.1500881470069723,1.4080265907520528e-05,0.1500881470069723,-1.5726998268677656e-05,0.1500881470069723,-3.03255926887392e-06,0.1500881470069723,-1.5927120965154667e-05
0.1508822641869034,0.0001882901050966,0.1508822641869034,-1.8808907370444748e-05,0.1508822641869034,-2.3779150431731117e-06,0.1508822641869034,-1.5016950484057949e-05
0.1516763813668344,0.0003103108664449,0.1516763813668344,-2.4448803203942014e-05,0.1516763813668344,-6.622348486372651e-06,0.1516763813668344,-1.561e-05
0.1524704985467655,0.0003177571492245,0.1524704985467655,-3.033994464912366e-05,0.1524704985467655,-6.13263194805122e-06,0.1524704985467655,-1.5422651664595708e-05
0.1532646157266966,0.0002640493491356,0.1532646157266966,-2.929448729062743e-05,0.1532646157266966,-5.854890303971949e-06,0.1532646157266966,-1.4997728320300952e-05
0.1540587329066277,0.0001968893585327,0.1540587329066277,-2.3808085478223464e-05,0.1540587329066277,-7.197834917752508e-06,0.1540587329066277,-1.7545459671010032e-05
0.1548528500865587,0.0001250312157748,0.1548528500865587,-1.7151308970430304e-05,0.1548528500865587,-2.8930703530197064e-06,0.1548528500865587,-1.4425339530312933e-05
0.1556469672664898,5.1482544807949344e-05,0.1556469672664898,-1.4582933245775432e-05,0.1556469672664898,7.791374241830719e-07,0.1556469672664898,-1.19173e-05
0.1564410844464209,-2.061316841638465e-06,0.1564410844464209,-1.2253e-05,0.1564410844464209,2.833886777067742e-06,0.1564410844464209,-1.1038993554135484e-05
0.157235201626352,-3.221277354411217e-05,0.157235201626352,-1.3634614508346476e-05,0.157235201626352,2.774342759584464e-06,0.157235201626352,-1.1048168679902538e-05
0.158029318806283,-4.333497251907382e-05,0.158029318806283,-1.750639047895729e-05,0.158029318806283,5.657596573300469e-06,0.158029318806283,-1.2292422976229905e-05
0.1588234359862141,-5.613625858742314e-05,0.1588234359862141,-2.224229070039912e-05,0.1588234359862141,7.316904116340161e-06,0.1588234359862141,-9.784330264411364e-06
0.1596175531661451,-7.73062560606043e-05,0.1596175531661451,-2.2759265461352963e-05,0.1596175531661451,9.74587276552274e-06,0.1596175531661451,-8.046138405376915e-06
0.1604116703460762,-8.31640829988529e-05,0.1604116703460762,-1.9084707107771112e-05,0.1604116703460762,1.0969644667431398e-05,0.1604116703460762,-5.20333e-06
0.1612057875260073,-8.004423761857063e-05,0.1612057875260073,-2.2359682010589616e-05,0.1612057875260073,1.1680351768775624e-05,0.1612057875260073,-5.775971172891603e-06
0.1619999047059384,-7.771433729706645e-05,0.1619999047059384,-2.7694545256361552e-05,0.1619999047059384,1.1246037297066454e-05,0.1619999047059384,-5.203398648533227e-06
0.1627940218858694,-9.936816632048618e-05,0.1627940218858694,-2.805087975755832e-05,0.1627940218858694,7.810853220861413e-06,0.1627940218858694,-5.81486550134769e-06
0.1635881390658005,-0.0001369004469434,0.1635881390658005,-2.990424574931104e-05,0.1635881390658005,5.4607538886514335e-06,0.1635881390658005,-1.0257356259259308e-05
0.1643822562457316,-0.000176051573285,0.1643822562457316,-3.346119218378459e-05,0.1643822562457316,2.8841967184465604e-06,0.1643822562457316,-1.0308771560257894e-05
0.1651763734256627,-0.0002067102305102,0.1651763734256627,-3.555595520757601e-05,0.1651763734256627,1.84634e-06,0.1651763734256627,-1.0948286526267338e-05
0.1659704906055937,-0.0002118371044101,0.1659704906055937,-4.084491844004345e-05,0.1659704906055937,4.646720304836842e-07,0.1659704906055937,-1.2075431553008978e-05
0.1667646077855248,-0.0001979555470899,0.1667646077855248,-4.218945382196664e-05,0.1667646077855248,-2.221277138043558e-06,0.1667646077855248,-1.1068119886698211e-05
0.1675587249654559,-0.0001340633307012,0.1675587249654559,-4.057190660148392e-05,0.1675587249654559,-6.111966510253888e-06,0.1675587249654559,-1.3477655108432804e-05
0.1683528421453869,2.4467146229610507e-05,0.1683528421453869,-3.883155017539887e-05,0.1683528421453869,-3.7816933707300086e-06,0.1683528421453869,-1.528418472168415e-05
0.169146959325318,0.0001982980222111,0.169146959325318,-4.062952310408194e-05,0.169146959325318,-5.488572995150079e-06,0.169146959325318,-1.483963610971728e-05
0.1699410765052491,0.0003246896773036,0.1699410765052491,-3.723126947417213e-05,0.1699410765052491,-9.489220040325802e-06,0.1699410765052491,-1.56490949798371e-05
0.1707351936851801,0.0003554161736518,0.1707351936851801,-2.361219606083644e-05,0.1707351936851801,-6.428438371527825e-06,0.1707351936851801,-1.730778815549342e-05
0.1715293108651112,0.0003083174421541,0.1715293108651112,-2.5533170288196112e-06,0.1715293108651112,-6.170979434683983e-06,0.1715293108651112,-1.865102292953714e-05
0.1723234280450423,0.0002183044267789,0.1723234280450423,1.8463623905433945e-05,0.1723234280450423,-6.703679905231545e-06,0.1723234280450423,-1.604387987364206e-05
0.1731175452249733,9.307385976789676e-05,0.1731175452249733,3.197875693319831e-05,0.1731175452249733,-4.985567332003328e-06,0.1731175452249733,-1.404943850307376e-05
0.1739116624049044,-3.525749803824452e-05,0.1739116624049044,3.379656896343107e-05,0.1739116624049044,7.220140386999666e-07,0.1739116624049044,-1.3664846125714044e-05
0.1747057795848355,-0.0001103962158421,0.1747057795848355,1.9215996929013257e-05,0.1747057795848355,4.729422071523801e-06,0.1747057795848355,-1.42672e-05
0.1754998967647666,-9.953921089314728e-05,0.1754998967647666,-1.507969024046547e-06,0.1754998967647666,5.538955630755689e-06,0.1754998967647666,-1.2589071846221556e-05
0.1762940139446976,-1.1767531930405293e-05,0.1762940139446976,-1.7035818556599708e-05,0.1762940139446976,6.111524905881741e-06,0.1762940139446976,-1.100909509411826e-05
0.1770881311246287,7.407477359193794e-05,0.1770881311246287,-2.942768876831861e-05,0.1770881311246287,9.268749299069736e-06,0.1770881311246287,-1.2597940300620292e-05
0.1778822483045598,0.0001086434029165,0.1778822483045598,-3.634422286613137e-05,0.1778822483045598,1.296356377600156e-05,0.1778822483045598,-1.1229127182616166e-05
0.1786763654844909,8.677621921030117e-05,0.1786763654844909,-3.50200385933924e-05,0.1786763654844909,1.4364784919687493e-05,0.1786763654844909,-8.284138770078127e-06
0.1794704826644219,3.0893678632958704e-05,0.1794704826644219,-3.0757216989058405e-05,0.1794704826644219,1.59457e-05,0.1794704826644219,-1.0613350905119752e-05
0.180264599844353,-4.945127791186459e-05,0.180264599844353,-3.192103816906322e-05,0.180264599844353,1.3457774664171984e-05,0.180264599844353,-1.2253e-05
0.181058717024284,-0.0001266336456158,0.181058717024284,-3.227840356640484e-05,0.181058717024284,1.1127338437033967e-05,0.181058717024284,-1.1147034985308877e-05
0.1818528342042151,-0.0001538779679296,0.1818528342042151,-2.325533530063561e-05,0.1818528342042151,5.28272829768546e-06,0.1818528342042151,-1.2213297320710047e-05
0.1826469513841462,-0.0001369018322005,0.1826469513841462,-1.606373584474185e-05,0.1826469513841462,2.044290712620276e-06,0.1826469513841462,-1.2233613034465206e-05
0.1834410685640773,-0.0001068582103114,0.1834410685640773,-1.3556552597850466e-05,0.1834410685640773,-5.621728050187967e-07,0.1834410685640773,-1.1956383513809682e-05
0.1842351857440083,-9.076890503296828e-05,0.1842351857440083,-1.7030326286389503e-05,0.1842351857440083,-4.842816064747865e-07,0.1842351857440083,-1.3358473954486768e-05
0.1850293029239394,-9.151726874191864e-05,0.1850293029239394,-2.510946218400214e-05,0.1850293029239394,2.1623056290406724e-06,0.1850293029239394,-1.2430717185479664e-05
0.1858234201038705,-6.532084739437935e-05,0.1858234201038705,-3.0734063521066656e-05,0.1858234201038705,2.1021214156557983e-06,0.1858234201038705,-1.2983774310878396e-05
0.1866175372838016,-1.7630417975203255e-05,0.1866175372838016,-3.198053892386013e-05,0.1866175372838016,-2.499574182020679e-06,0.1866175372838016,-1.3556481432628372e-05
0.1874116544637326,-8.335342735547936e-06,0.1874116544637326,-3.107172812432553e-05,0.1874116544637326,-6.862524338441411e-06,0.1874116544637326,-1.3872078264623435e-05
0.1882057716436637,-4.887433993928813e-05,0.1882057716436637,-3.713029543374349e-05,0.1882057716436637,-8.698529394503587e-06,0.1882057716436637,-1.4188241816489235e-05
0.1889998888235948,-0.0001210081479422,0.1889998888235948,-4.112274044393812e-05,0.1889998888235948,-6.882140357435899e-06,0.1889998888235948,-1.6952479640178343e-05
0.1897940060035258,-0.0002079188676588,0.1897940060035258,-4.08061090564674e-05,0.1897940060035258,-6.980720827131968e-06,0.1897940060035258,-1.6804434028764793e-05
0.1905881231834569,-0.0002997146993702,0.1905881231834569,-3.3703198263885573e-05,0.1905881231834569,-5.658509678464222e-06,0.1905881231834569,-1.5807721392072058e-05
0.191382240363388,-0.0003406791957012,0.191382240363388,-2.5720741811380305e-05,0.191382240363388,-4.512350978506064e-06,0.191382240363388,-1.5688316085975746e-05
0.192176357543319,-0.0002234804513146,0.192176357543319,-2.408262154701036e-05,0.192176357543319,-5.054493773026882e-06,0.192176357543319,-1.5729068981578497e-05
0.1929704747232501,7.319301182218563e-05,0.1929704747232501,-3.012096011232641e-05,0.1929704747232501,-5.164497266881816e-06,0.1929704747232501,-1.33988289832935e-05
0.1937645919031812,0.000359846997488,0.1937645919031812,-3.3777182255318603e-05,0.1937645919031812,-2.3598429961462025e-06,0.1937645919031812,-1.2292462492175554e-05
0.1945587090831123,0.0004661016155472,0.1945587090831123,-2.529273235380019e-05,0.1945587090831123,-1.0563551163201018e-06,0.1945587090831123,-1.2262848206137116e-05
0.1953528262630433,0.0004085317122494,0.1953528262630433,-6.25622970797776e-06,0.1953528262630433,-9.57766727857888e-07,0.1953528262630433,-1.2253e-05
0.1961469434429744,0.0003024596822337,0.1961469434429744,7.870019554020743e-06,0.1961469434429744,2.66835880037201e-07,0.1961469434429744,-1.114691317766243e-05
0.1969410606229055,0.000183681386213,0.1969410606229055,8.223297928767762e-06,0.1969410606229055,-4.0586857888299325e-07,0.1969410606229055,-1.0082512972768698e-05
0.1977351778028366,6.790411864930266e-05,0.1977351778028366,1.156862402053569e-06,0.1977351778028366,1.17494e-06,0.1977351778028366,-6.270292012744163e-06
0.1985292949827676,-2.7102816255472097e-05,0.1985292949827676,1.0950389543708289e-06,0.1985292949827676,5.726626995336509e-07,0.1985292949827676,-7.513723669335974e-06
0.1993234121626987,-0.0001122218207731,0.1993234121626987,-9.796933515416057e-06,0.1993234121626987,3.545349772502438e-06,0.1993234121626987,-7.3454299344144595e-06
0.2001175293426297,-0.0001225133702711,0.2001175293426297,-1.9655593745903095e-05,0.2001175293426297,6.092448270255978e-06,0.2001175293426297,-6.230082150192668e-06
0.2009116465225608,-6.56991697078843e-05,0.2009116465225608,-3.143001544601641e-05,0.2009116465225608,8.264700057850564e-06,0.2009116465225608,-7.000640538698295e-06
0.2017057637024919,7.799043818566252e-07,0.2017057637024919,-3.707434287062252e-05,0.2017057637024919,1.1482865430265496e-05,0.2017057637024919,-8.323344569734504e-06
0.202499880882423,5.806914971168581e-05,0.202499880882423,-3.575228523863783e-05,0.202499880882423,9.567839050776522e-06,0.202499880882423,-8.224695810666539e-06
0.203293998062354,1.0519851453956197e-05,0.203293998062354,-3.128755530766356e-05,0.203293998062354,7.652123613867447e-06,0.203293998062354,-1.0118950465112816e-05
0.2040881152422851,-6.838953626697344e-05,0.2040881152422851,-2.7578225007686375e-05,0.2040881152422851,5.856259735433944e-06,0.2040881152422851,-1.274728836274042e-05
0.2048822324222162,-0.0001033809440166,0.2048822324222162,-2.4693746588266103e-05,0.2048822324222162,3.110835380051714e-06,0.2048822324222162,-1.0160496546340364e-05
0.2056763496021472,-0.0001311723770481,0.2056763496021472,-2.1927852924138003e-05,0.2056763496021472,1.965420423000669e-06,0.2056763496021472,-1.0810161953793744e-05
0.2064704667820783,-0.0001499283109191,0.2064704667820783,-1.809905241816027e-05,0.2064704667820783,6.616957729396085e-07,0.2064704667820783,-1.464170513943096e-05
0.2072645839620094,-0.0001315666416281,0.2072645839620094,-1.8019138412421127e-05,0.2072645839620094,7.802289158256269e-07,0.2072645839620094,-1.643928556243159e-05
0.2080587011419405,-9.49507602599956e-05,0.2080587011419405,-1.876906758980548e-05,0.2080587011419405,-3.3474589280092392e-06,0.2080587011419405,-1.7900775957093083e-05
0.2088528183218715,-5.82269223428688e-05,0.2088528183218715,-1.833498557689797e-05,0.2088528183218715,-4.4925514481060215e-06,0.2088528183218715,-1.907555336432268e-05
0.2096469355018026,-1.8956535068387105e-05,0.2096469355018026,-1.9105303596653077e-05,0.2096469355018026,-2.971790855817514e-06,0.2096469355018026,-1.987510171163503e-05
0.2104410526817337,2.0845581343755955e-05,0.2104410526817337,-2.0408607279342324e-05,0.2104410526817337,-3.565733691074723e-06,0.2104410526817337,-1.9205048545612784e-05
0.2112351698616647,6.968465210552329e-05,0.2112351698616647,-2.0369197644391397e-05,0.2112351698616647,-7.409064842839318e-07,0.2112351698616647,-1.6341300616299782e-05
0.2120292870415958,0.0001225594643648,0.2120292870415958,-2.05469077451396e-05,0.2120292870415958,-2.320254119294385e-06,0.2120292870415958,-1.543227137309813e-05
0.2128234042215269,0.0001587198860836,0.2128234042215269,-2.275672296649501e-05,0.2128234042215269,-2.85344e-06,0.2128234042215269,-1.572872573891239e-05
0.2136175214014579,0.0001655277087461,0.2136175214014579,-2.4614320171365865e-05,0.2136175214014579,-1.964330100197134e-06,0.2136175214014579,-1.568866006679809e-05
0.214411638581389,0.0001313099649364,0.214411638581389,-2.50095e-05,0.214411638581389,-1.9057388033217703e-06,0.214411638581389,-1.3477002393356458e-05
0.2152057557613201,7.028997457448442e-05,0.2152057557613201,-2.552323370120392e-05,0.2152057557613201,-2.37949767344155e-06,0.2152057557613201,-1.3457557673441551e-05
0.2159998729412512,2.5351057980902023e-05,0.2159998729412512,-2.500958218424272e-05,0.2159998729412512,-1.5110061255104908e-06,0.2159998729412512,-1.443486271656648e-05
0.2167939901211822,-2.0950874329709837e-06,0.2167939901211822,-2.382453066728152e-05,0.2167939901211822,2.562684456811547e-07,0.2167939901211822,-1.4316641414334657e-05
0.2175881073011133,-2.3105973158671417e-05,0.2175881073011133,-2.335047402887041e-05,0.2175881073011133,1.984307141900525e-06,0.2175881073011133,-1.37153314323979e-05
0.2183822244810444,-3.668306408131823e-05,0.2183822244810444,-2.36667e-05,0.2183822244810444,4.607267891966902e-06,0.2183822244810444,-1.083190684607909e-05
0.2191763416609755,-5.019813163592081e-05,0.2191763416609755,-2.4496503042995934e-05,0.2191763416609755,8.963755078832642e-06,0.2191763416609755,-1.1067262203365696e-05
0.2199704588409065,-7.949991765307415e-05,0.2199704588409065,-2.622338671516931e-05,0.2199704588409065,1.1304073384879755e-05,0.2199704588409065,-1.2075454435853374e-05
0.2207645760208376,-0.0001143614283599,0.2207645760208376,-2.8050499655435717e-05,0.2207645760208376,1.5432174121009414e-05,0.2207645760208376,-7.5736014465246846e-06
0.2215586932007686,-0.0001480154437964,0.2215586932007686,-3.0419486004796437e-05,0.2215586932007686,1.4049782483896204e-05,0.2215586932007686,-4.206086873658017e-06
0.2223528103806997,-0.0001837720765189,0.2223528103806997,-2.9365056586271816e-05,0.2223528103806997,1.049577156128052e-05,0.2223528103806997,-8.619139032910722e-06
0.2231469275606308,-0.0002020604509976,0.2231469275606308,-2.512768994019702e-05,0.2231469275606308,9.005883318793978e-06,0.2231469275606308,-1.075203531082515e-05
0.2239410447405619,-0.000194338127549,0.2239410447405619,-2.153351221004041e-05,0.2239410447405619,9.406464688500606e-07,0.2239410447405619,-1.12459e-05
0.2247351619204929,-0.0001741039241134,0.2247351619204929,-1.63228333708788e-05,0.2247351619204929,-3.3665806690982526e-06,0.2247351619204929,-1.12459e-05
0.225529279100424,-0.0001445977045297,0.225529279100424,-1.2094558847617538e-05,0.225529279100424,-3.1693665992139543e-06,0.225529279100424,-1.256893130477405e-05
0.2263233962803551,-8.253339494811121e-05,0.2263233962803551,-1.0870430060221556e-05,0.2263233962803551,-5.124515723117634e-06,0.2263233962803551,-1.1739228553764733e-05
0.2271175134602862,2.0617389169294368e-05,0.2271175134602862,-1.3269641803221924e-05,0.2271175134602862,-7.020842339689788e-06,0.2271175134602862,-1.2095656934348996e-05
0.2279116306402172,0.0001252561718998,0.2279116306402172,-1.3605618841178318e-05,0.2279116306402172,-7.21752e-06,0.2279116306402172,-1.24208e-05
0.2287057478201483,0.0001811485325291,0.2287057478201483,-1.4816333947370974e-05,0.2287057478201483,-7.602581551853543e-06,0.2287057478201483,-1.3694523103707086e-05
0.2294998650000794,0.0002037657420405,0.2294998650000794,-2.232250289388525e-05,0.2294998650000794,-8.224464124763905e-06,0.2294998650000794,-1.3260294504177454e-05
0.2302939821800104,0.0002034273733729,0.2302939821800104,-2.2599567805859207e-05,0.2302939821800104,-7.849971131899496e-06,0.2302939821800104,-1.2253e-05
0.2310880993599415,0.0001690883038025,0.2310880993599415,-2.086438664586855e-05,0.2310880993599415,-7.079558591113171e-06,0.2310880993599415,-1.2864622817773657e-05
0.2318822165398726,0.0001094687796271,0.2318822165398726,-1.6005693860253213e-05,0.2318822165398726,-4.031383992399751e-06,0.2318822165398726,-1.2846118312106508e-05
0.2326763337198036,5.2444069453025926e-05,0.2326763337198036,-1.2589556992476595e-05,0.2326763337198036,6.98530324528681e-07,0.2326763337198036,-1.1700703305845084e-05
0.2334704508997347,3.075828203533809e-05,0.2334704508997347,-1.7167710230123448e-05,0.2334704508997347,4.057449530306595e-06,0.2334704508997347,-9.775575993186024e-06
0.2342645680796658,2.9175788038761644e-05,0.2342645680796658,-2.050713561134188e-05,0.2342645680796658,6.219921357412101e-06,0.2342645680796658,-8.738147320412786e-06
0.2350586852595969,3.134836103934055e-05,0.2350586852595969,-2.4415641249769307e-05,0.2350586852595969,9.784783705435435e-06,0.2350586852595969,-7.276677853575395e-06
0.2358528024395279,8.968653348268817e-06,0.2358528024395279,-3.0140880935055063e-05,0.2358528024395279,1.2055287451937506e-05,0.2358528024395279,-7.987533440590708e-06
0.236646919619459,-2.685949789923321e-05,0.236646919619459,-3.540644491263889e-05,0.236646919619459,1.2964233899759224e-05,0.236646919619459,-8.22461e-06
0.2374410367993901,-3.938992350299948e-05,0.2374410367993901,-3.806249107820341e-05,0.2374410367993901,1.1640156474550075e-05,0.2374410367993901,-7.533701175149973e-06
0.2382351539793211,-2.588238381110004e-05,0.2382351539793211,-3.849690791742174e-05,0.2382351539793211,1.3486651309666216e-05,0.2382351539793211,-7.98721766316431e-06
0.2390292711592522,-2.03098e-05,0.2390292711592522,-3.638343840276328e-05,0.2390292711592522,1.2983740409944477e-05,0.2390292711592522,-1.0376979795027762e-05
0.2398233883391833,-2.4717469711323897e-05,0.2398233883391833,-3.034570106265095e-05,0.2398233883391833,8.204203199786199e-06,0.2398233883391833,-1.1453621158168392e-05
0.2406175055191144,-5.404735575595094e-05,0.2406175055191144,-2.2592773847511857e-05,0.2406175055191144,5.360694825781446e-06,0.2406175055191144,-1.4050815893532973e-05
0.2414116226990454,-9.50964522735666e-05,0.2414116226990454,-1.5184205453305262e-05,0.2414116226990454,4.042068174016577e-07,0.2414116226990454,-1.553121380690037e-05
0.2422057398789765,-0.0001260351737069,0.2422057398789765,-1.2225115339972329e-05,0.2422057398789765,-2.6262652274776435e-06,0.2422057398789765,-1.7762277612719753e-05
0.2429998570589076,-0.0001042414142256,0.2429998570589076,-7.72204079585886e-06,0.2429998570589076,-5.538463649600933e-06,0.2429998570589076,-1.9638297027200173e-05
0.2437939742388386,-3.0858858480911855e-05,0.2437939742388386,-7.375360940311873e-06,0.2437939742388386,-7.394294150856583e-06,0.2437939742388386,-2.044765248162641e-05
0.2445880914187697,9.56275827085742e-06,0.2445880914187697,-6.623974443564228e-06,0.2445880914187697,-9.171921351746256e-06,0.2445880914187697,-2.2402125932690616e-05
0.2453822085987008,6.004336224181165e-06,0.2453822085987008,-9.46822630170498e-06,0.2453822085987008,-8.146340943910245e-06,0.2453822085987008,-2.3608003162482027e-05
0.2461763257786318,-1.423481215115383e-05,0.2461763257786318,-1.4375620135497782e-05,0.2461763257786318,-8.93392490595669e-06,0.2461763257786318,-2.1092171431627737e-05
0.2469704429585629,-4.344233272952262e-05,0.2469704429585629,-1.2195728112684626e-05,0.2469704429585629,-1.0989306496260252e-05,0.2469704429585629,-1.7604831754551125e-05
0.247764560138494,-8.646643289282027e-05,0.247764560138494,-9.172486997124393e-06,0.247764560138494,-1.0554502476329992e-05,0.247764560138494,-1.692329770767342e-05
0.2485586773184251,-0.0001222045645429,0.2485586773184251,-8.89601e-06,0.2485586773184251,-1.1265625213343431e-05,0.2485586773184251,-1.4385551280060584e-05
0.2493527944983561,-9.298461754111726e-05,0.2493527944983561,-1.339707529593246e-05,0.2493527944983561,-6.605934941949469e-06,0.2493527944983561,-1.0337936371036225e-05
0.2501469116782872,-1.0979141707744874e-05,0.2501469116782872,-1.5452061465899882e-05,0.2501469116782872,-3.080095118716026e-07,0.2501469116782872,-7.533912554653163e-06
0.2509410288582183,0.0001058807688644,0.2509410288582183,-1.740743519544428e-05,0.2509410288582183,6.585146183672557e-06,0.2509410288582183,-4.838360362245582e-06
0.2517351460381494,0.0001504212234352,0.2517351460381494,-2.1789200212826404e-05,0.2517351460381494,6.447831856179699e-06,0.2517351460381494,-4.492361357303383e-06
0.2525292632180804,0.0001086400888986,0.2525292632180804,-2.6155053852097125e-05,0.2525292632180804,5.361284210964827e-06,0.2525292632180804,-5.223121578070345e-06
0.2533233803980115,3.711762774193687e-05,0.2533233803980115,-2.6431860386105956e-05,0.2533233803980115,6.783501061471812e-06,0.2533233803980115,-3.406140353173944e-06
0.2541174975779426,-5.781495457394623e-05,0.2541174975779426,-2.931297353127563e-05,0.2541174975779426,7.592566060345052e-06,0.2541174975779426,-4.335195009894348e-06
0.2549116147578736,-0.0001339399737677,0.2549116147578736,-3.2651984772394506e-05,0.2549116147578736,6.684287797380244e-06,0.2549116147578736,-8.54087512891044e-06
0.2557057319378047,-0.0001532470395566,0.2557057319378047,-3.221685088925055e-05,0.2557057319378047,6.299340905800825e-06,0.2557057319378047,-9.9622536102469e-06
0.2564998491177358,-0.0001183426954808,0.2564998491177358,-3.205929759378822e-05,0.2564998491177358,5.203493037028555e-06,0.2564998491177358,-1.2588156532445428e-05
0.2572939662976669,-2.573999786784046e-05,0.2572939662976669,-3.170349215365406e-05,0.2572939662976669,3.821618476601531e-06,0.2572939662976669,-1.416827050779949e-05
0.2580880834775979,0.000109274663578,0.2580880834775979,-2.5646892029258085e-05,0.2580880834775979,7.311992924167413e-07,0.2580880834775979,-1.4818999771437678e-05
0.258882200657529,0.0002109388094097,0.258882200657529,-1.687465809199424e-05,0.258882200657529,-9.957628123140748e-07,0.258882200657529,-1.6913670622080653e-05
0.2596763178374601,0.0002287835903468,0.2596763178374601,-1.0139063169168891e-05,0.2596763178374601,-2.7343138113105062e-06,0.2596763178374601,-1.6340963094344746e-05
0.2604704350173911,0.0001539752277688,0.2604704350173911,-6.4478873012015135e-06,0.2604704350173911,-2.1433263919467e-06,0.2604704350173911,-1.5432471597986676e-05
0.2612645521973222,3.248773115777879e-05,0.2612645521973222,-9.330140498674153e-06,0.2612645521973222,-1.8657795426711376e-06,0.2612645521973222,-1.685385969511409e-05
0.2620586693772533,-7.335285675194955e-05,0.2620586693772533,-1.5054819595183518e-05,0.2620586693772533,-3.8112032218625296e-06,0.2620586693772533,-1.76242e-05
0.2628527865571843,-0.0001404536927109,0.2628527865571843,-1.871007407947359e-05,0.2628527865571843,-4.19623e-06,0.2628527865571843,-1.673565151129723e-05
0.2636469037371154,-0.0001655485663318,0.2636469037371154,-1.9223725596434782e-05,0.2636469037371154,-2.637377621403149e-06,0.2636469037371154,-1.458361622871202e-05
0.2644410209170465,-0.0001536569926217,0.2644410209170465,-2.11888125368134e-05,0.2644410209170465,1.1554329898343638e-06,0.2644410209170465,-1.3683580209226885e-05
0.2652351380969776,-0.0001084746814349,0.2652351380969776,-2.401130880240796e-05,0.2652351380969776,-7.000852639461104e-07,0.2652351380969776,-1.5234716709189992e-05
0.2660292552769086,-5.101867386917752e-05,0.2660292552769086,-2.5483633306036363e-05,0.2660292552769086,-3.208937724541454e-06,0.2660292552769086,-1.3299706038985188e-05
0.2668233724568397,-2.83665e-05,0.2668233724568397,-2.901553212278833e-05,0.2668233724568397,3.0686894848019186e-07,0.2668233724568397,-1.18579600133882e-05
0.2676174896367708,-8.807701652765158e-06,0.2676174896367708,-3.23949e-05,0.2676174896367708,4.295813379542634e-06,0.2676174896367708,-1.0396211861815494e-05
0.2684116068167018,6.684130865567778e-05,0.2684116068167018,-3.23949e-05,0.2684116068167018,5.973483234803026e-06,0.2684116068167018,-9.291062939212103e-06
0.2692057239966329,0.0001115110145485,0.2692057239966329,-3.7684466021883335e-05,0.2692057239966329,5.598150678362922e-06,0.2692057239966329,-1.0633623618663926e-05
0.269999841176564,8.141679684724746e-05,0.269999841176564,-3.776651092121364e-05,0.269999841176564,6.2105344142220384e-06,0.269999841176564,-1.124601441422204e-05
0.270793958356495,-1.1703177424979358e-05,0.270793958356495,-3.963348577066235e-05,0.270793958356495,4.157335675642596e-06,0.270793958356495,-7.475428404153075e-06
0.2715880755364261,-9.69860126200973e-05,0.2715880755364261,-4.369197910314154e-05,0.2715880755364261,2.7753073704628067e-06,0.2715880755364261,-5.53903e-06
0.2723821927163572,-6.472271520306152e-05,0.2723821927163572,-4.001785500206158e-05,0.2723821927163572,1.0184467023557526e-06,0.2723821927163572,-6.585243644905621e-06
0.2731763098962882,0.0001076211711461,0.2731763098962882,-3.1088763401766373e-05,0.2731763098962882,-1.67849e-07,0.2731763098962882,-7.296016777416243e-06
0.2739704270762193,0.0002443301685568,0.2739704270762193,-1.3289341586239487e-05,0.2739704270762193,5.03548e-07,0.2739704270762193,-1.027749543707412e-05
0.2747645442561504,0.0002503719998272,0.2747645442561504,3.05850898517899e-07,0.2747645442561504,-1.204383093415666e-06,0.2747645442561504,-1.09102e-05
0.2755586614360815,0.0001590696438107,0.2755586614360815,8.607892140481817e-07,0.2755586614360815,-2.162303320629152e-06,0.2755586614360815,-1.09102e-05
0.2763527786160125,6.731909369600324e-05,0.2763527786160125,-6.996236673460082e-06,0.2763527786160125,-7.606320430763901e-07,0.2763527786160125,-1.1818714488621915e-05
0.2771468957959436,-2.922399093538197e-05,0.2771468957959436,-1.7782369044700435e-05,0.2771468957959436,9.479374947691848e-07,0.2771468957959436,-1.02388e-05
0.2779410129758747,-0.0001335561263374,0.2779410129758747,-2.957195127696481e-05,0.2779410129758747,2.634749173929199e-06,0.2779410129758747,-1.2292003251617803e-05
0.2787351301558057,-0.0001595676904129,0.2787351301558057,-3.65598900572947e-05,0.2787351301558057,5.558127450460094e-06,0.2787351301558057,-1.1898194907261883e-05
0.2795292473357368,-0.0001271038383002,0.2795292473357368,-3.669934629005424e-05,0.2795292473357368,9.507961912377268e-06,0.2795292473357368,-1.0673309370078317e-05
0.2803233645156679,-9.161362676137116e-05,0.2803233645156679,-2.586751338982373e-05,0.2803233645156679,1.1364568531801354e-05,0.2803233645156679,-1.0752502797702033e-05
0.2811174816955989,-9.480005727800168e-05,0.2811174816955989,-5.889162691429504e-06,0.2811174816955989,1.19173e-05,0.2811174816955989,-1.3359647809194598e-05
0.2819115988755301,-0.0001258394349597,0.2819115988755301,5.866300241332712e-06,0.2819115988755301,1.1285348314345384e-05,0.2819115988755301,-1.57977519973072e-05
0.2827057160554611,-0.0001185527780764,0.2827057160554611,5.579862230996783e-06,0.2827057160554611,9.27130948504324e-06,0.2827057160554611,-1.4445099141738737e-05
0.2834998332353922,-8.074402950867889e-05,0.2834998332353922,5.2032221331814354e-06,0.2834998332353922,8.392520067466562e-06,0.2834998332353922,-1.3595679865066875e-05
0.2842939504153233,-5.49325697050645e-05,0.2842939504153233,-6.865915613780634e-06,0.2842939504153233,5.994851771217306e-06,0.2842939504153233,-1.6359154250632677e-05
0.2850880675952543,-4.330336373850936e-05,0.2850880675952543,-1.6320296692589174e-05,0.2850880675952543,1.4142367052225763e-06,0.2850880675952543,-1.7723051306486714e-05
0.2858821847751854,-1.6248313280361353e-05,0.2858821847751854,-1.853199890604596e-05,0.2858821847751854,-3.404287350141426e-06,0.2858821847751854,-1.66171e-05
0.2866763019551165,2.465919469140128e-05,0.2866763019551165,-2.5307002041003397e-05,0.2866763019551165,-5.449668196349617e-06,0.2866763019551165,-1.7169350928466155e-05
0.2874704191350475,7.773179206337498e-05,0.2874704191350475,-3.112978038184456e-05,0.2874704191350475,-6.704303039408864e-06,0.2874704191350475,-1.76242e-05
0.2882645363149786,0.0001352309536646,0.2882645363149786,-2.820899369337873e-05,0.2882645363149786,-8.441266848079608e-06,0.2882645363149786,-1.6123583086101627e-05
0.2890586534949096,0.0001675830635599,0.2890586534949096,-2.1497734089337424e-05,0.2890586534949096,-9.606894236672267e-06,0.2890586534949096,-1.561e-05
0.2898527706748408,0.0001583648263206,0.2898527706748408,-1.9223936193556755e-05,0.2898527706748408,-5.884714465986948e-06,0.2898527706748408,-1.4070051909298528e-05
0.2906468878547718,0.0001153677257915,0.2906468878547718,-1.9993861293617746e-05,0.2906468878547718,-8.381428155206994e-06,0.2906468878547718,-1.4069065830941134e-05
0.2914410050347029,6.201624259833012e-05,0.2914410050347029,-2.5681600831819028e-05,0.2914410050347029,-1.0871208214409652e-05,0.2914410050347029,-1.49386e-05
0.292235122214634,1.966876106277563e-05,0.292235122214634,-3.191947229214072e-05,0.292235122214634,-8.827807103503663e-06,0.292235122214634,-1.49386e-05
0.293029239394565,-7.087652856473115e-06,0.293029239394565,-3.537678998057609e-05,0.293029239394565,-6.25007650938198e-06,0.293029239394565,-1.395132590233697e-05
0.2938233565744961,-2.4300527994170898e-05,0.2938233565744961,-3.192503430777146e-05,0.2938233565744961,-2.1415009923418963e-06,0.2938233565744961,-1.3358485819241654e-05
0.2946174737544272,-3.541840466481866e-05,0.2946174737544272,-2.3471672866273624e-05,0.2946174737544272,2.656617842593724e-06,0.2946174737544272,-1.0474986588887533e-05
0.2954115909343582,-4.2545451213340807e-05,0.2954115909343582,-1.7781553731574978e-05,0.2954115909343582,6.24046665032102e-06,0.2954115909343582,-9.17237999284273e-06
0.2962057081142893,-5.569502203643279e-05,0.2962057081142893,-1.890571287823032e-05,0.2962057081142893,9.310593156636864e-06,0.2962057081142893,-6.101997966086087e-06
0.2969998252942204,-7.284301313288538e-05,0.2969998252942204,-2.165203498333141e-05,0.2969998252942204,1.1580970721778968e-05,0.2969998252942204,-6.20997950899433e-06
0.2977939424741515,-8.77002221199715e-05,0.2977939424741515,-2.56809e-05,0.2977939424741515,1.0456158608252437e-05,0.2977939424741515,-7.72107e-06
0.2985880596540825,-9.541899045304833e-05,0.2985880596540825,-2.2168360113605675e-05,0.2985880596540825,1.2469030975273096e-05,0.2985880596540825,-7.325535487636548e-06
0.2993821768340136,-8.304296412935725e-05,0.2993821768340136,-1.7664452732593733e-05,0.2993821768340136,1.239313910560878e-05,0.2993821768340136,-8.618978268317367e-06
0.3001762940139447,-5.591107533231429e-05,0.3001762940139447,-1.3003540001850872e-05,0.3001762940139447,8.977370020539703e-06,0.3001762940139447,-1.0030270877133433e-05
0.3009704111938757,-3.453225272263973e-05,0.3009704111938757,-1.4246652819561232e-05,0.3009704111938757,6.032908760119988e-06,0.3009704111938757,-1.2963044959520047e-05
0.3017645283738068,-3.591753152604228e-05,0.3017645283738068,-1.5688717197704304e-05,0.3017645283738068,4.572110460489711e-06,0.3017645283738068,-1.3437994527523855e-05
0.3025586455537379,-5.004865039311832e-05,0.3025586455537379,-1.9044387450651734e-05,0.3025586455537379,3.060854883469411e-07,0.3025586455537379,-1.3872255563805214e-05
0.3033527627336689,-5.8696500634586645e-05,0.3033527627336689,-2.346785201956849e-05,0.3033527627336689,-2.9520025793233303e-06,0.3033527627336689,-1.6340666695248056e-05
0.3041468799136,-6.801736434832934e-05,0.3041468799136,-2.5522920373778493e-05,0.3041468799136,-2.85344e-06,0.3041468799136,-1.561e-05
0.3049409970935311,-5.8052158076351954e-05,0.3049409970935311,-2.8485271143052203e-05,0.3049409970935311,-2.595700058543283e-06,0.3049409970935311,-1.49386e-05
0.3057351142734621,-1.8082189878383864e-05,0.3057351142734621,-3.1623939947821344e-05,0.3057351142734621,-6.1693808439239645e-06,0.3057351142734621,-1.4168980504712943e-05
0.3065292314533932,2.1117351906789632e-05,0.3065292314533932,-3.388603089094394e-05,0.3065292314533932,-8.40237867187961e-06,0.3065292314533932,-1.2341857858627936e-05
0.3073233486333243,2.3503439381692056e-05,0.3073233486333243,-3.62640972015921e-05,0.3073233486333243,-6.822497175521497e-06,0.3073233486333243,-1.3981389523419994e-05
0.3081174658132554,-2.409380348773119e-05,0.3081174658132554,-3.8032742369854376e-05,0.3081174658132554,-7.583274424267556e-06,0.3081174658132554,-1.7111328395881526e-05
0.3089115829931864,-7.64930080278965e-05,0.3089115829931864,-3.524772906983005e-05,0.3089115829931864,-7.237069530680699e-06,0.3089115829931864,-1.801921854112981e-05
0.3097057001731175,-0.0001265833902018,0.3097057001731175,-3.003044485215152e-05,0.3097057001731175,-3.2485837644767268e-06,0.3097057001731175,-1.5254879060625866e-05
0.3104998173530486,-0.0001834463687482,0.3104998173530486,-2.165460834223937e-05,0.3104998173530486,-8.39772303069643e-07,0.3104998173530486,-1.426693684728934e-05
0.3112939345329796,-0.0002046254757574,0.3112939345329796,-1.58857997373263e-05,0.3112939345329796,2.694377878723279e-06,0.3112939345329796,-1.6754895151489312e-05
0.3120880517129107,-0.0001936237499997,0.3120880517129107,-1.3004731565466288e-05,0.3120880517129107,2.361577935172245e-06,0.3120880517129107,-1.586761896758612e-05
0.3128821688928418,-0.0001287447319969,0.3128821688928418,-9.805099567911204e-06,0.3128821688928418,-2.460615422523033e-07,0.3128821688928418,-1.434541289172903e-05
0.3136762860727728,5.120603884738528e-05,0.3136762860727728,-9.252092690015394e-06,0.3136762860727728,-4.250766107883481e-07,0.3136762860727728,-1.49386e-05
0.314470403252704,0.0002582497010529,0.314470403252704,-1.3110469605910153e-05,0.314470403252704,-8.39246e-07,0.314470403252704,-1.2391883442493216e-05
0.315264520432635,0.0003879524586312,0.315264520432635,-1.5432408039100654e-05,0.315264520432635,-2.962497272588936e-07,0.315264520432635,-1.1946654289936851e-05
0.3160586376125661,0.0003858467442064,0.3160586376125661,-1.2235972181953098e-05,0.3160586376125661,-7.997384197076257e-07,0.3160586376125661,-1.3220592243176096e-05
0.3168527547924971,0.0002643477312885,0.3168527547924971,-7.98835174571106e-06,0.3168527547924971,7.00646111962247e-07,0.3168527547924971,-1.1068821103464443e-05
0.3176468719724282,0.0001028794469478,0.3176468719724282,-9.01444770575989e-06,0.3176468719724282,1.17494e-06,0.3176468719724282,-7.316610016584267e-06
0.3184409891523593,-2.514832045166309e-05,0.3184409891523593,-1.371453012995408e-05,0.3184409891523593,2.2307510669194856e-06,0.3184409891523593,-6.979241553427092e-06
0.3192351063322903,-6.509245337433287e-05,0.3192351063322903,-1.6162522526974433e-05,0.3192351063322903,4.047418802438123e-06,0.3192351063322903,-9.073378222102456e-06
0.3200292235122214,-3.9833786517975866e-05,0.3200292235122214,-1.89080022435875e-05,0.3200292235122214,4.443042803704664e-06,0.3200292235122214,-8.718235607409329e-06
0.3208233406921525,2.6225127037240584e-05,0.3208233406921525,-2.2716671073884664e-05,0.3208233406921525,5.87472e-06,0.3208233406921525,-1.02388e-05
0.3216174578720835,0.000100377760057,0.3216174578720835,-2.7199658929177103e-05,0.3216174578720835,5.133918570822793e-06,0.3216174578720835,-9.942475897508711e-06
0.3224115750520147,0.0001148770256903,0.3224115750520147,-2.9057579489477217e-05,0.3224115750520147,6.388345341973095e-06,0.3224115750520147,-1.02388e-05
0.3232056922319457,7.44031067376189e-05,0.3232056922319457,-2.5228473966626458e-05,0.3232056922319457,7.84926597821555e-06,0.3232056922319457,-9.607054021784448e-06
0.3239998094118768,-1.4242761244867398e-05,0.3239998094118768,-2.36669465527282e-05,0.3239998094118768,1.1580364330491788e-05,0.3239998094118768,-8.224884594132908e-06
0.3247939265918079,-0.0001106425527186,0.3247939265918079,-2.593855416537416e-05,0.3247939265918079,1.297386433955836e-05,0.3247939265918079,-9.023143082835615e-06
0.3255880437717389,-0.0001286129607007,0.3255880437717389,-2.750077063250946e-05,0.3255880437717389,1.19173e-05,0.3255880437717389,-1.09102e-05
0.32638216095167,-0.0001078551213983,0.32638216095167,-2.2759083168189255e-05,0.32638216095167,1.1682695722895275e-05,0.32638216095167,-1.0317001425701574e-05
0.3271762781316011,-0.00010222,0.3271762781316011,-2.2403019495301903e-05,0.3271762781316011,7.1420334287076834e-06,0.3271762781316011,-1.2290741510498768e-05
0.3279703953115321,-0.0001234734344283,0.3279703953115321,-2.212760195608049e-05,0.3279703953115321,4.315831007710873e-06,0.3279703953115321,-1.25887e-05
0.3287645124914632,-0.0001568989893553,0.3287645124914632,-2.204747455131996e-05,0.3287645124914632,6.621489337501482e-07,0.3287645124914632,-1.2410782589631788e-05
0.3295586296713942,-0.0001283066881943,0.3295586296713942,-2.114053222986897e-05,0.3295586296713942,-2.7447627257679685e-06,0.3295586296713942,-1.3872221165722957e-05
0.3303527468513254,-2.757477924050766e-05,0.3303527468513254,-1.96384e-05,0.3303527468513254,-6.170342474131268e-06,0.3303527468513254,-1.5589959470902745e-05
0.3311468640312564,6.167640410674942e-05,0.3311468640312564,-2.0665199655435752e-05,0.3311468640312564,-7.335819258694138e-06,0.3311468640312564,-1.619186502521779e-05
0.3319409812111875,0.0001182230083078,0.3319409812111875,-2.4101416116534495e-05,0.3319409812111875,-7.178562612491863e-06,0.3319409812111875,-1.5473649143721526e-05
0.3327350983911186,0.0001363605502966,0.3327350983911186,-2.8009836761832545e-05,0.3327350983911186,-5.006957299555457e-06,0.3327350983911186,-1.249051482897954e-05
0.3335292155710496,0.000130716403399,0.3335292155710496,-3.008464586359962e-05,0.3335292155710496,-2.5773153840075807e-06,0.3335292155710496,-1.1522523804238508e-05
0.3343233327509807,9.893545394559978e-05,0.3343233327509807,-3.375491237698803e-05,0.3343233327509807,3.457815590512765e-07,0.3343233327509807,-1.160176829833757e-05
0.3351174499309118,4.097281100350106e-05,0.3351174499309118,-3.859448314227853e-05,0.3351174499309118,2.063895108432812e-06,0.3351174499309118,-1.4889806897725647e-05
0.3359115671108428,4.629353129433436e-07,0.3359115671108428,-3.472405401587852e-05,0.3359115671108428,3.919825609075059e-06,0.3359115671108428,-1.3180932659225218e-05
0.3367056842907739,-1.0593354274312884e-05,0.3367056842907739,-2.225422512850878e-05,0.3367056842907739,4.53193e-06,0.3367056842907739,-1.0752516741460016e-05
0.337499801470705,-2.668270838483395e-05,0.337499801470705,-8.228205556793878e-06,0.337499801470705,4.867486982222462e-06,0.337499801470705,-8.896296035555076e-06
0.338293918650636,-5.72424321726141e-05,0.338293918650636,1.387789536171312e-07,0.338293918650636,5.20333e-06,0.338293918650636,-1.0632750701783725e-05
0.3390880358305671,-8.854211179766677e-05,0.3390880358305671,-2.415172445356246e-06,0.3390880358305671,4.2560989104456624e-06,0.3390880358305671,-9.579190298147262e-06
0.3398821530104982,-0.0001117235258997,0.3398821530104982,-6.802557951585276e-06,0.3398821530104982,5.516087509535049e-06,0.3398821530104982,-6.744987570570154e-06
0.3406762701904293,-0.0001301528519443,0.3406762701904293,-9.962955031863844e-06,0.3406762701904293,8.99332032555465e-06,0.3406762701904293,-5.154673061904873e-06
0.3414703873703603,-0.0001437231869473,0.3414703873703603,-1.29244e-05,0.3414703873703603,8.876721844506597e-06,0.3414703873703603,-6.9203963109868055e-06
0.3422645045502914,-0.000157982977929,0.3422645045502914,-1.0150021192189296e-05,0.3422645045502914,5.5004545328228086e-06,0.3422645045502914,-1.0040721094745812e-05
0.3430586217302225,-0.0001697147662645,0.3430586217302225,-1.1037006856498064e-05,0.3430586217302225,1.2935320666362196e-06,0.3430586217302225,-1.221346931112126e-05
0.3438527389101535,-0.0001614454058562,0.3438527389101535,-1.9969911970066025e-05,0.3438527389101535,6.321599474514557e-07,0.3438527389101535,-1.2015828181241038e-05
0.3446468560900846,-0.0001015424804317,0.3446468560900846,-2.485148955468749e-05,0.3446468560900846,-7.497225208520674e-07,0.3446468560900846,-1.462208057704135e-05
0.3454409732700157,1.0187545096200673e-05,0.3454409732700157,-2.416048006484884e-05,0.3454409732700157,-2.9702771843719555e-06,0.3454409732700157,-1.62814e-05
0.3462350904499467,0.0001018996205573,0.3462350904499467,-2.61739529713707e-05,0.3462350904499467,-6.40675837634821e-06,0.3462350904499467,-1.679444533925806e-05
0.3470292076298778,0.000128148498511,0.3470292076298778,-2.4407116051721715e-05,0.3470292076298778,-7.316348751019351e-06,0.3470292076298778,-1.76242e-05
0.3478233248098089,0.0001184909053848,0.3478233248098089,-2.29953e-05,0.3478233248098089,-6.941125662345177e-06,0.3478233248098089,-1.8473516987035536e-05
0.34861744198974,0.000111460023993,0.34861744198974,-2.317408880243675e-05,0.34861744198974,-8.550918037378142e-06,0.34861744198974,-1.915449954822076e-05
0.349411559169671,8.11089772510725e-05,0.349411559169671,-1.8512187387583178e-05,0.349411559169671,-9.073679821190496e-06,0.349411559169671,-1.81770317139048e-05
0.3502056763496021,2.1068117523284035e-05,0.3502056763496021,-2.1331177053538903e-05,0.3502056763496021,-6.1315941728170085e-06,0.3502056763496021,-1.729813557666138e-05
0.3509997935295332,-5.05040077819669e-05,0.3509997935295332,-2.702249805545033e-05,0.3509997935295332,-8.391195731708109e-06,0.3509997935295332,-1.930217939313634e-05
0.3517939107094642,-0.0001025610298683,0.3517939107094642,-2.583878203243325e-05,0.3517939107094642,-1.1127570070864296e-05,0.3517939107094642,-1.5928296232964496e-05
0.3525880278893953,-5.1821739615525154e-05,0.3525880278893953,-2.596533598231247e-05,0.3525880278893953,-7.121339722145464e-06,0.3525880278893953,-1.3664734365248472e-05
0.3533821450693264,0.0001062855767735,0.3533821450693264,-2.934327695769385e-05,0.3533821450693264,-4.227268800528173e-06,0.3533821450693264,-1.42672e-05
0.3541762622492574,0.0002185388733027,0.3541762622492574,-3.018295252811799e-05,0.3541762622492574,-1.2564669099643016e-06,0.3541762622492574,-1.3715006278644922e-05
0.3549703794291886,0.0002206219314371,0.3549703794291886,-2.6749826455862392e-05,0.3549703794291886,2.594841569172877e-06,0.3549703794291886,-1.0329524866388196e-05
0.3557644966091196,0.0001505958205248,0.3557644966091196,-2.2225490216308117e-05,0.3557644966091196,6.417709926696843e-06,0.3557644966091196,-7.948532862834738e-06
0.3565586137890507,6.97793753298168e-05,0.3565586137890507,-2.050784519621416e-05,0.3565586137890507,6.230191077453099e-06,0.3565586137890507,-7.839482895318027e-06
0.3573527309689818,-2.3796863143013715e-05,0.3573527309689818,-2.2303229040562286e-05,0.3573527309689818,5.164105573315488e-06,0.3573527309689818,-1.1442933430427489e-05
0.3581468481489128,-8.550697460692303e-05,0.3581468481489128,-2.3074310359171407e-05,0.3581468481489128,5.222489854384179e-06,0.3581468481489128,-9.88394014561582e-06
0.3589409653288439,-8.388765829522896e-05,0.3589409653288439,-2.5760059749657408e-05,0.3589409653288439,7.314855558733711e-06,0.3589409653288439,-9.56741e-06
0.3597350825087749,-3.2710844303665905e-05,0.3597350825087749,-2.891899170788342e-05,0.3597350825087749,9.40904389783581e-06,0.3597350825087749,-1.0593470154416069e-05
0.360529199688706,-1.7107197411936977e-05,0.360529199688706,-2.994629474180588e-05,0.360529199688706,1.1492128968924324e-05,0.360529199688706,-1.193718310944797e-05
0.3613233168686371,-6.679895988486694e-05,0.3613233168686371,-2.9493063618453025e-05,0.3613233168686371,1.4306400291829568e-05,0.3613233168686371,-1.1700199883268172e-05
0.3621174340485681,-9.390820355175272e-05,0.3621174340485681,-2.566203207991972e-05,0.3621174340485681,1.0257637868948355e-05,0.3621174340485681,-1.1364079289649451e-05
0.3629115512284993,-7.899719181363595e-05,0.3629115512284993,-2.4357794899022718e-05,0.3629115512284993,9.162603169255056e-06,0.3629115512284993,-1.0219135809728445e-05
0.3637056684084303,-6.600443207034549e-05,0.3637056684084303,-2.849029898931662e-05,0.3637056684084303,8.639718297685374e-06,0.3637056684084303,-1.2825734226429968e-05
0.3644997855883614,-6.596439112761159e-05,0.3644997855883614,-3.373645182681362e-05,0.3644997855883614,4.197620128196604e-06,0.3644997855883614,-1.3259791081600508e-05
0.3652939027682925,-5.396530997668386e-05,0.3652939027682925,-3.666088981736141e-05,0.3652939027682925,-3.443715771113614e-07,0.3652939027682925,-1.35958e-05
0.3660880199482235,-5.131455681043586e-05,0.3660880199482235,-4.362273239589846e-05,0.3660880199482235,-1.076047931419012e-06,0.3660880199482235,-1.3122195921250224e-05
0.3668821371281546,-6.900205162428714e-05,0.3668821371281546,-5.656258122956058e-05,0.3668821371281546,-8.39246e-07,0.3668821371281546,-1.3615335935708265e-05
0.3676762543080857,-5.496820939714969e-05,0.3676762543080857,-6.388156680918522e-05,0.3676762543080857,-8.39246e-07,0.3676762543080857,-1.3901686691690108e-05
0.3684703714880167,2.3409766959174076e-05,0.3684703714880167,-5.963271908260829e-05,0.3684703714880167,-1.0167254641594306e-06,0.3684703714880167,-1.3319919843897732e-05
0.3692644886679478,0.0001052298380382,0.3692644886679478,-3.168917745153487e-05,0.3692644886679478,-3.247808313870632e-06,0.3692644886679478,-1.4947693610147876e-05
0.3700586058478789,0.0001481698349364,0.3700586058478789,9.366308569442384e-06,0.3700586058478789,-5.637651752487805e-06,0.3700586058478789,-1.7564869568599645e-05
0.3708527230278099,0.0001283147349917,0.3708527230278099,4.125109604071229e-05,0.3708527230278099,-7.187381810669143e-06,0.3708527230278099,-1.5847194750813714e-05
0.371646840207741,6.196533046626994e-05,0.371646840207741,5.615002107764125e-05,0.371646840207741,-7.770631463792295e-06,0.371646840207741,-1.561e-05
0.3724409573876721,-2.8356865496047367e-05,0.3724409573876721,5.731534752700981e-05,0.3724409573876721,-6.152036095589999e-06,0.3724409573876721,-1.5551615515861232e-05
0.3732350745676032,-0.0001186607370729,0.3732350745676032,4.053961287348158e-05,0.3732350745676032,-4.6903075435862965e-06,0.3732350745676032,-1.3576855087172591e-05
0.3740291917475342,-0.0001287061700611,0.3740291917475342,2.0092191562265487e-05,0.3740291917475342,-3.742421080861009e-06,0.3740291917475342,-1.2746602724564912e-05
0.3748233089274653,-6.618422345470477e-05,0.3748233089274653,4.9358374261833626e-06,0.3748233089274653,1.215075471760758e-06,0.3748233089274653,-1.3477211558154074e-05
0.3756174261073964,1.896180900280431e-05,0.3756174261073964,-9.896964878261444e-06,0.3756174261073964,7.346782292778793e-06,0.3756174261073964,-1.144289414781753e-05
0.3764115432873274,8.168396113624902e-05,0.3764115432873274,-2.578100483774613e-05,0.3764115432873274,1.09892139169735e-05,0.3764115432873274,-9.31066406616214e-06
0.3772056604672585,7.384982614484268e-05,0.3772056604672585,-2.7736081357543925e-05,0.3772056604672585,1.3556080121668942e-05,0.3772056604672585,-7.88891e-06
0.3779997776471896,3.3412251466577905e-05,0.3779997776471896,-2.70237e-05,0.3779997776471896,1.393166017991083e-05,0.3779997776471896,-8.392219730133755e-06
0.3787938948271206,1.299298844580858e-05,0.3787938948271206,-2.755712308360932e-05,0.3787938948271206,1.1248024516761156e-05,0.3787938948271206,-7.949141408797123e-06
0.3795880120070517,-1.9873551394993152e-05,0.3795880120070517,-3.029736107894874e-05,0.3795880120070517,8.284513308527874e-06,0.3795880120070517,-6.950769172868032e-06
0.3803821291869828,-5.086722230069583e-05,0.3803821291869828,-3.71721947070943e-05,0.3803821291869828,6.35073226008857e-06,0.3803821291869828,-5.53903e-06
0.3811762463669139,-6.0788083354042704e-05,0.3811762463669139,-3.8950743035592335e-05,0.3811762463669139,4.0393737422339866e-06,0.3811762463669139,-6.643363452850387e-06
0.3819703635468449,-6.661270086648723e-05,0.3819703635468449,-3.77661e-05,0.3819703635468449,1.807832337546361e-06,0.3819703635468449,-8.42134074684023e-06
0.382764480726776,-7.49881472957719e-05,0.382764480726776,-3.7252885086828185e-05,0.382764480726776,9.181130023483972e-07,0.382764480726776,-1.0179151188759309e-05
0.3835585979067071,-7.878029895731904e-05,0.3835585979067071,-3.547663140552634e-05,0.3835585979067071,5.431126155270874e-07,0.3835585979067071,-1.1236011674721406e-05
0.3843527150866381,-8.055862175894409e-05,0.3843527150866381,-3.651017060720149e-05,0.3843527150866381,-2.438329120527951e-06,0.3843527150866381,-1.1897190674738244e-05
0.3851468322665692,-5.515992910159794e-05,0.3851468322665692,-3.792414126440343e-05,0.3851468322665692,-5.745134436561517e-06,0.3851468322665692,-1.436457850678299e-05
0.3859409494465003,-4.162623402507658e-06,0.3859409494465003,-3.4448578100826046e-05,0.3859409494465003,-5.748258128512706e-06,0.3859409494465003,-1.569025197014321e-05
0.3867350666264313,3.905703044974425e-05,0.3867350666264313,-3.31852288381772e-05,0.3867350666264313,-3.179676625923256e-06,0.3867350666264313,-1.4010694492504264e-05
0.3875291838063624,3.893509684246217e-05,0.3875291838063624,-3.395491290212744e-05,0.3875291838063624,-2.537645992292424e-06,0.3875291838063624,-1.5590094007707575e-05
0.3883233009862935,-2.3036415181053814e-07,0.3883233009862935,-3.285009437827649e-05,0.3883233009862935,-1.935272750317818e-06,0.3883233009862935,-1.622211149978812e-05
0.3891174181662246,-3.293220185947598e-05,0.3891174181662246,-3.348042993295713e-05,0.3891174181662246,-2.7943331561341485e-06,0.3891174181662246,-1.5056813687731703e-05
0.3899115353461556,-4.4519565282573245e-05,0.3899115353461556,-3.40734e-05,0.3899115353461556,-4.640229515978065e-07,0.3899115353461556,-1.4800374872482696e-05
0.3907056525260867,-4.58228e-05,0.3907056525260867,-3.263450333130781e-05,0.3907056525260867,-2.665030136662253e-07,0.3907056525260867,-1.5925796155133947e-05
0.3914997697060178,-4.146095665866608e-05,0.3914997697060178,-3.004559583575977e-05,0.3914997697060178,1.6751720023867198e-07,0.3914997697060178,-1.7791253471910863e-05
0.3922938868859488,-2.0339830229148552e-05,0.3922938868859488,-2.7259874419787504e-05,0.3922938868859488,-3.503325192306236e-06,0.3922938868859488,-1.679566862152704e-05
0.3930880040658799,-2.505404842950707e-06,0.3930880040658799,-2.0076912949921477e-05,0.3930880040658799,-3.24904888216957e-06,0.3930880040658799,-1.62814e-05
0.393882121245811,9.427868102332264e-06,0.393882121245811,-1.549196491546239e-05,0.393882121245811,-3.563902047782265e-06,0.393882121245811,-1.5157083856653205e-05
0.394676238425742,2.722728690758618e-05,0.394676238425742,-1.472150234339392e-05,0.394676238425742,-2.4801397312794823e-06,0.394676238425742,-1.3991120301455784e-05
0.3954703556056732,4.807545859622301e-05,0.3954703556056732,-1.6043829968495114e-05,0.3954703556056732,-2.1809998980244785e-07,0.3954703556056732,-1.332956677464161e-05
0.3962644727856042,6.209304651222711e-05,0.3962644727856042,-1.6518066004834993e-05,0.3962644727856042,1.8756467281509885e-06,0.3962644727856042,-1.3280349234958418e-05
0.3970585899655353,6.273642084989678e-05,0.3970585899655353,-1.5257579780188607e-05,0.3970585899655353,3.465465759980496e-06,0.3970585899655353,-1.0041617935459428e-05
0.3978527071454664,4.906549176733104e-05,0.3978527071454664,-1.406813628593141e-05,0.3978527071454664,2.0835576828685474e-06,0.3978527071454664,-9.211583475697178e-06
0.3986468243253974,2.342188198800177e-05,0.3986468243253974,-1.5738298885937753e-05,0.3986468243253974,3.425677664147512e-06,0.3986468243253974,-1.0475341187251283e-05
0.3994409415053285,-1.2587946185430557e-05,0.3994409415053285,-1.4326442025682936e-05,0.3994409415053285,3.150239942628908e-06,0.3994409415053285,-1.1304250086056638e-05
0.4002350586852595,-5.403121907785816e-05,0.4002350586852595,-1.5550530444396214e-05,0.4002350586852595,2.13299031982308e-06,0.4002350586852595,-1.302249936035384e-05
0.4010291758651906,-9.785021911991402e-05,0.4010291758651906,-2.0625712165002974e-05,0.4010291758651906,1.1948602557214397e-06,0.4010291758651906,-1.328001743371459e-05
0.4018232930451217,-0.0001121503513283,0.4018232930451217,-2.544188048362337e-05,0.4018232930451217,2.5377349110593973e-06,0.4018232930451217,-1.1779050219476252e-05
0.4026174102250527,-5.999102228702857e-05,0.4026174102250527,-2.6706790872352784e-05,0.4026174102250527,4.788809408818155e-06,0.4026174102250527,-1.3250559539709122e-05
0.4034115274049838,1.683408343129734e-05,0.4034115274049838,-2.927504845715876e-05,0.4034115274049838,1.530397832040835e-06,0.4034115274049838,-1.3615554302654963e-05
0.4042056445849149,5.82437e-05,0.4042056445849149,-3.085348316275113e-05,0.4042056445849149,1.964125657637952e-06,0.4042056445849149,-1.102876101976943e-05
0.404999761764846,3.660216955042179e-05,0.404999761764846,-3.105225409545513e-05,0.404999761764846,6.544747034447722e-06,0.404999761764846,-1.225231351466769e-05
0.4057938789447771,-1.2627126607268482e-05,0.4057938789447771,-3.002510515698781e-05,0.4057938789447771,3.5851072725650755e-06,0.4057938789447771,-1.115766664417862e-05
0.4065879961247081,-5.064307667041421e-05,0.4065879961247081,-2.7736883345422583e-05,0.4065879961247081,1.9062662405827064e-06,0.4065879961247081,-1.09102e-05
0.4073821133046392,-7.427179472152804e-05,0.4073821133046392,-2.2523300634783284e-05,0.4073821133046392,2.654470937962896e-06,0.4073821133046392,-1.0949266314768537e-05
0.4081762304845703,-7.319982044333674e-05,0.4081762304845703,-1.0870081751634771e-05,0.4081762304845703,2.174281345747745e-06,0.4081762304845703,-1.2764265758931692e-05
0.4089703476645013,-2.9658703567577096e-05,0.4089703476645013,-5.322120152267634e-06,0.4089703476645013,-1.055171613168592e-06,0.4089703476645013,-1.476113452580878e-05
0.4097644648444324,3.8838644476265e-05,0.4097644648444324,-6.683709155220056e-06,0.4097644648444324,-4.652319631185502e-07,0.4097644648444324,-1.3881897200978887e-05
0.4105585820243635,8.014088744946792e-05,0.4105585820243635,-1.007928742706518e-05,0.4105585820243635,3.1099639619684317e-06,0.4105585820243635,-1.42672e-05
0.4113526992042945,7.199165180788763e-05,0.4113526992042945,-1.2428952531350149e-05,0.4113526992042945,3.623304384454469e-06,0.4113526992042945,-1.2608843723343965e-05
0.4121468163842256,6.874214031025174e-05,0.4121468163842256,-1.39710036815548e-05,0.4121468163842256,5.529476232015103e-06,0.4121468163842256,-1.1690285184359006e-05
0.4129409335641567,0.0001006377952562,0.4129409335641567,-1.277628972517436e-05,0.4129409335641567,4.809297112984427e-06,0.4129409335641567,-1.1146152138769334e-05
0.4137350507440878,0.0001386604741145,0.4137350507440878,-1.2282728487749652e-05,0.4137350507440878,2.834561376279789e-06,0.4137350507440878,-1.2765988132147058e-05
0.4145291679240188,0.0001418955775027,0.4145291679240188,-1.0554769525473251e-05,0.4145291679240188,1.7972905314894031e-06,0.4145291679240188,-1.40893855624316e-05
0.4153232851039499,0.0001027889541851,0.4153232851039499,-1.1086533149199827e-05,0.4153232851039499,1.9648941175792763e-06,0.4153232851039499,-1.35958e-05
0.416117402283881,4.814567891878452e-05,0.416117402283881,-1.966318887092048e-05,0.416117402283881,1.777030071511528e-06,0.416117402283881,-1.4336465799210636e-05
0.416911519463812,1.1769535250486318e-05,0.416911519463812,-2.750780620817549e-05,0.416911519463812,1.3724034064552786e-06,0.416911519463812,-1.0080908411130942e-05
0.4177056366437431,-2.122946919365587e-05,0.4177056366437431,-2.6115939595135532e-05,0.4177056366437431,3.73167268991098e-06,0.4177056366437431,-9.448092635214071e-06
0.4184997538236742,-8.239307374444875e-05,0.4184997538236742,-2.7694224247880023e-05,0.4184997538236742,6.209799308128329e-06,0.4184997538236742,-1.393025860569115e-05
0.4192938710036052,-0.0001502153096635,0.4192938710036052,-3.0262561424954607e-05,0.4192938710036052,4.256523153459887e-06,0.4192938710036052,-1.0359393357909098e-05
0.4200879881835363,-0.0001745363630468,0.4200879881835363,-3.282758490571433e-05,0.4200879881835363,4.136292293389836e-06,0.4200879881835363,-7.079638853305081e-06
0.4208821053634674,-0.000130010604009,0.4208821053634674,-3.490244185167989e-05,0.4208821053634674,3.7824100000464274e-06,0.4208821053634674,-9.72365116346335e-06
0.4216762225433985,-8.09188455236643e-05,0.4216762225433985,-3.448814772238025e-05,0.4216762225433985,4.293404804828455e-06,0.4216762225433985,-1.1600329524506468e-05
0.4224703397233295,-9.11841931468487e-05,0.4224703397233295,-3.2911452887827884e-05,0.4224703397233295,4.690170246519903e-06,0.4224703397233295,-1.1473677047600543e-05
0.4232644569032606,-0.0001083218029033,0.4232644569032606,-1.788363315725428e-05,0.4232644569032606,1.443105324582014e-06,0.4232644569032606,-1.0396502499676374e-05
0.4240585740831917,-3.3608935959751835e-05,0.4240585740831917,-4.754625196138469e-06,0.4240585740831917,-1.51064e-06,0.4240585740831917,-1.154200051495676e-05
0.4248526912631227,8.124434918336367e-05,0.4248526912631227,1.2906681924089763e-06,0.4248526912631227,-8.39246e-07,0.4248526912631227,-1.2509211256277964e-05
0.4256468084430538,0.0001451783211903,0.4256468084430538,2.833881812623744e-06,0.4256468084430538,-1.4305395243338664e-06,0.4256468084430538,-1.4522795637991197e-05
0.4264409256229849,0.0001535532233252,0.4264409256229849,-4.946423613719138e-06,0.4264409256229849,-4.925945108928732e-06,0.4264409256229849,-1.568775425063252e-05
0.4272350428029159,0.000134986784754,0.4272350428029159,-1.4263144685034707e-05,0.4272350428029159,-5.61823929504106e-06,0.4272350428029159,-1.8491730072174617e-05
0.428029159982847,0.0001152970288458,0.428029159982847,-2.260033821567565e-05,0.428029159982847,-3.920355652681072e-06,0.428029159982847,-1.908579703895872e-05
0.4288232771627781,7.816611179721054e-05,0.4288232771627781,-2.5817365803313584e-05,0.4288232771627781,-4.442768384818481e-07,0.4288232771627781,-1.82956e-05
0.4296173943427092,3.446268566307839e-05,0.4296173943427092,-2.844488370432064e-05,0.4296173943427092,4.247048290578838e-07,0.4296173943427092,-1.711048704647336e-05
0.4304115115226402,-3.740860300046389e-05,0.4304115115226402,-2.9353879418401404e-05,0.4304115115226402,-1.3032806281940964e-06,0.4304115115226402,-1.48201693062338e-05
0.4312056287025713,-0.0001252331782762,0.4312056287025713,-3.08534523436601e-05,0.4312056287025713,2.872496821258973e-06,0.4312056287025713,-1.35958e-05
0.4319997458825024,-0.0001700222133149,0.4319997458825024,-3.172333563151456e-05,0.4319997458825024,4.196413062755245e-06,0.4319997458825024,-1.225373225102098e-05
0.4327938630624334,-0.0001269175576345,0.4327938630624334,-3.177267146039869e-05,0.4327938630624334,3.307480938492103e-06,0.4327938630624334,-8.620626085514801e-06
0.4335879802423645,-3.638155286066388e-05,0.4335879802423645,-2.8405283689255423e-05,0.4335879802423645,4.60985624104376e-06,0.4335879802423645,-5.778820797651959e-06
0.4343820974222956,3.661942110572141e-05,0.4343820974222956,-2.9136601073609705e-05,0.4343820974222956,5.22285742437058e-06,0.4343820974222956,-1.986766687002542e-06
0.4351762146022266,4.7269487026658014e-05,0.4351762146022266,-2.5246205691957186e-05,0.4351762146022266,6.337390653948909e-06,0.4351762146022266,8.767548138674292e-07
0.4359703317821577,2.1095518960294718e-05,0.4359703317821577,-2.19883e-05,0.4359703317821577,8.56031e-06,0.4359703317821577,3.52483e-06
0.4367644489620888,-2.5585125463191136e-05,0.4367644489620888,-2.0507991266694056e-05,0.4367644489620888,7.059828941745854e-06,0.4367644489620888,-3.840671203303198e-07
0.4375585661420199,-9.727579450438332e-05,0.4375585661420199,-1.805895335793063e-05,0.4375585661420199,7.177909048929382e-06,0.4375585661420199,-3.129723573394073e-06
0.438352683321951,-0.0001330034327082,0.438352683321951,-1.95596926952236e-05,0.438352683321951,5.677830628209515e-06,0.438352683321951,-6.051441250364347e-06
0.439146800501882,-0.0001029572607342,0.439146800501882,-1.9559358821737568e-05,0.439146800501882,2.9145063659153524e-06,0.439146800501882,-8.697623578338043e-06
0.4399409176818131,-2.257700651918743e-05,0.4399409176818131,-2.133651147831616e-05,0.4399409176818131,8.975441416082751e-07,0.4399409176818131,-1.09879313185776e-05
0.4407350348617442,6.930941464652764e-05,0.4407350348617442,-2.340966369243617e-05,0.4407350348617442,1.076896710185794e-06,0.4407350348617442,-1.3407133609765662e-05
0.4415291520416752,8.79482409778645e-05,0.4415291520416752,-2.208700218578692e-05,0.4415291520416752,-1.7864879043563674e-06,0.4415291520416752,-1.557009648403765e-05
0.4423232692216063,4.449783388230981e-05,0.4423232692216063,-2.254005597337995e-05,0.4423232692216063,-3.959169295964087e-06,0.4423232692216063,-1.76242e-05
0.4431173864015373,6.364726936445899e-06,0.4431173864015373,-2.271925447014996e-05,0.4431173864015373,-2.2608949892641364e-06,0.4431173864015373,-1.76242e-05
0.4439115035814684,-2.133573044170789e-05,0.4439115035814684,-2.1692045560231635e-05,0.4439115035814684,-3.741967850128001e-06,0.4439115035814684,-1.882875194042788e-05
0.4447056207613995,-4.191035500638589e-05,0.4447056207613995,-2.29953e-05,0.4447056207613995,-5.637658437406902e-06,0.4447056207613995,-1.837521174707325e-05
0.4454997379413306,-5.119211216533631e-05,0.4454997379413306,-2.29953e-05,0.4454997379413306,-5.539218777842793e-06,0.4454997379413306,-1.5778460770250175e-05
0.4462938551212617,-4.800719765909636e-05,0.4462938551212617,-2.129703597607881e-05,0.4462938551212617,-2.578076068217276e-06,0.4462938551212617,-1.639970986956497e-05
0.4470879723011927,-3.848562766397901e-05,0.4470879723011927,-1.912510953344867e-05,0.4470879723011927,-2.0441703193324586e-06,0.4470879723011927,-1.7366409042002624e-05
0.4478820894811238,-2.0317016023781784e-05,0.4478820894811238,-1.857232354985257e-05,0.4478820894811238,-1.4715908842725688e-06,0.4478820894811238,-1.8967e-05
0.4486762066610549,-1.7185648627479392e-06,0.4486762066610549,-1.950026803957821e-05,0.4486762066610549,-2.0031104470995148e-06,0.4486762066610549,-1.7862772737200646e-05
0.4494703238409859,4.798102468086865e-06,0.4494703238409859,-2.16318833145606e-05,0.4494703238409859,-5.06427493617373e-06,0.4494703238409859,-1.6123148312057908e-05
0.450264441020917,9.002669960481359e-07,0.450264441020917,-2.23239e-05,0.450264441020917,-5.381350383168102e-06,0.450264441020917,-1.77818796168319e-05
0.4510585582008481,-7.868010016556701e-06,0.4510585582008481,-2.161404594566528e-05,0.4510585582008481,-5.499407582902005e-06,0.4510585582008481,-1.7663822417097995e-05
0.4518526753807791,-1.9714036321867424e-05,0.4518526753807791,-2.1038987397109385e-05,0.4518526753807791,-4.433493546978216e-06,0.4518526753807791,-1.69528e-05
0.4526467925607102,-3.2093296216127994e-05,0.4526467925607102,-2.4120475796556836e-05,0.4526467925607102,-4.669220646283129e-06,0.4526467925607102,-1.6577001541823653e-05
0.4534409097406413,-4.0851120647169466e-05,0.4534409097406413,-2.3864337797974204e-05,0.4534409097406413,-4.118522192181091e-06,0.4534409097406413,-1.7585345806738495e-05
0.4542350269205724,-2.847251597785263e-05,0.4542350269205724,-2.1357206495220597e-05,0.4542350269205724,-2.85344e-06,0.4542350269205724,-1.7465753807880475e-05
0.4550291441005034,-1.6321326398806846e-05,0.4550291441005034,-2.4160229907077164e-05,0.4550291441005034,-2.064097998508557e-06,0.4550291441005034,-1.780203159970171e-05
0.4558232612804345,-1.5649718759876157e-05,0.4558232612804345,-2.4793371277835412e-05,0.4558232612804345,-5.628075436036405e-07,0.4558232612804345,-1.76242e-05
0.4566173784603656,-3.200264973015458e-05,0.4566173784603656,-2.3271335256819777e-05,0.4566173784603656,-1.4317742495025562e-06,0.4566173784603656,-1.6439132910583008e-05
0.4574114956402966,-6.374193766484402e-05,0.4574114956402966,-2.745832974445272e-05,0.4574114956402966,2.162171037070867e-06,0.4574114956402966,-1.3220776548100788e-05
0.4582056128202277,-9.4867237381713e-05,0.4582056128202277,-3.351846920761502e-05,0.4582056128202277,7.406209451079593e-07,0.4582056128202277,-1.05745e-05
0.4589997300001588,-0.0001444981608056,0.4589997300001588,-3.709330286787371e-05,0.4589997300001588,2.181067483747924e-06,0.4589997300001588,-1.158101648746764e-05
0.4597938471800898,-0.0001902818624511,0.4597938471800898,-4.023464554259265e-05,0.4597938471800898,1.0372752050983483e-06,0.4597938471800898,-1.2489684512593922e-05
0.4605879643600209,-9.500442821047598e-05,0.4605879643600209,-4.256280785798666e-05,0.4605879643600209,3.81848352681626e-06,0.4605879643600209,-1.15816e-05
0.461382081539952,0.0001493541286377,0.461382081539952,-4.325637171020132e-05,0.461382081539952,7.139433234572514e-06,0.461382081539952,-1.2549656617286256e-05
0.4621761987198831,0.0003635668039712,0.4621761987198831,-3.7361032905956e-05,0.4621761987198831,5.855992262528131e-06,0.4621761987198831,-1.0596693430067517e-05
0.4629703158998141,0.000393146091366,0.4629703158998141,-2.742717815653641e-05,0.4629703158998141,4.651817043266069e-06,0.4629703158998141,-9.960660262331794e-06
0.4637644330797452,0.0002567499010108,0.4637644330797452,-7.281773162085743e-06,0.4637644330797452,1.352973233599819e-06,0.4637644330797452,-1.173926817540979e-05
0.4645585502596763,7.84069723118542e-05,0.4645585502596763,1.825957190204161e-05,0.4645585502596763,2.0748270603035297e-07,0.4645585502596763,-1.3516532233749095e-05
0.4653526674396073,-8.740756289089302e-05,0.4653526674396073,3.724714360317442e-05,0.4653526674396073,-1.826127480491492e-06,0.4653526674396073,-1.4504475013005672e-05
0.4661467846195384,-0.0001876318205213,0.4661467846195384,4.21302e-05,0.4661467846195384,1.2129967535428971e-06,0.4661467846195384,-1.2016516142885732e-05
0.4669409017994695,-0.0001860615274413,0.4669409017994695,3.735212354943513e-05,0.4669409017994695,3.938215454468095e-06,0.4669409017994695,-1.2253e-05
0.4677350189794005,-0.000110355515519,0.4677350189794005,1.6077629900780504e-05,0.4677350189794005,6.742149459482422e-06,0.4677350189794005,-1.0714172900625316e-05
0.4685291361593316,-2.3738291736986865e-05,0.4685291361593316,-7.078507777542718e-06,0.4685291361593316,8.718172679587204e-06,0.4685291361593316,-8.343495323937473e-06
0.4693232533392627,2.6754517763741044e-06,0.4693232533392627,-2.1583331954633723e-05,0.4693232533392627,1.014011670378105e-05,0.4693232533392627,-7.493965824054737e-06
0.4701173705191938,-6.408554821741749e-06,0.4701173705191938,-3.122743741084185e-05,0.4701173705191938,1.1838422078681113e-05,0.4701173705191938,-6.921258960659444e-06
0.4709114876991248,7.05834121615596e-06,0.4709114876991248,-3.624567607970285e-05,0.4709114876991248,1.112753810239822e-05,0.4709114876991248,-6.21042e-06
0.4717056048790559,2.5817398641905626e-05,0.4717056048790559,-3.699881906494493e-05,0.4717056048790559,8.797390090539625e-06,0.4717056048790559,-7.07905981892075e-06
0.472499722058987,3.0044599550222927e-05,0.472499722058987,-3.1390137114402226e-05,0.472499722058987,8.895809775111463e-06,0.472499722058987,-7.55322e-06
0.473293839238918,4.468523823930604e-05,0.473293839238918,-2.90379e-05,0.473293839238918,5.560775593244851e-06,0.473293839238918,-7.000159389790097e-06
0.4740879564188491,6.904551358064324e-05,0.4740879564188491,-3.116835861049326e-05,0.4740879564188491,3.446959462669279e-06,0.4740879564188491,-7.700019644650784e-06
0.4748820735987802,6.795539388922919e-05,0.4748820735987802,-3.267164409591326e-05,0.4748820735987802,1.1317289844721295e-07,0.4748820735987802,-1.009828824850025e-05
0.4756761907787112,4.791071190028318e-05,0.4756761907787112,-2.929459329071781e-05,0.4756761907787112,-4.095635961271221e-06,0.4756761907787112,-1.2685781497110494e-05
0.4764703079586423,3.84375e-05,0.4764703079586423,-3.108792581672188e-05,0.4764703079586423,-5.893898455692931e-06,0.4764703079586423,-1.4622073741271442e-05
0.4772644251385734,4.662748181940911e-05,0.4772644251385734,-3.6364164317882285e-05,0.4772644251385734,-5.144888165031141e-06,0.4772644251385734,-1.62814e-05
0.4780585423185045,6.372135672700992e-05,0.4780585423185045,-3.348465611626653e-05,0.4780585423185045,-3.7025913372882273e-06,0.4780585423185045,-1.4702013372882272e-05
0.4788526594984356,6.570998353215477e-05,0.4788526594984356,-3.270966758092347e-05,0.4788526594984356,-1.5713307940807902e-06,0.4788526594984356,-1.1957759437099062e-05
0.4796467766783666,4.437646300081054e-05,0.4796467766783666,-3.476427364876824e-05,0.4796467766783666,4.116010977717027e-06,0.4796467766783666,-9.014246195543406e-06
0.4804408938582977,6.782224260875066e-06,0.4804408938582977,-3.540641868557733e-05,0.4804408938582977,7.995695968318125e-06,0.4804408938582977,-8.482648055949364e-06
0.4812350110382288,-2.278676941609285e-05,0.4812350110382288,-3.1124445821549784e-05,0.4812350110382288,1.0376416016573224e-05,0.4812350110382288,-7.98690874783224e-06
0.4820291282181598,-4.73973591673256e-05,0.4820291282181598,-2.8840304569065624e-05,0.4820291282181598,1.3535841753256595e-05,0.4820291282181598,-9.14278847943805e-06
0.4828232453980909,-7.218529284366434e-05,0.4828232453980909,-3.030096530822736e-05,0.4828232453980909,1.5155803089531658e-05,0.4828232453980909,-9.922898966482322e-06
0.483617362578022,-8.6857829594903e-05,0.483617362578022,-2.6738387455953643e-05,0.483617362578022,1.4454728221828177e-05,0.483617362578022,-1.2174110612653732e-05
0.484411479757953,-8.64424e-05,0.484411479757953,-2.75865267381672e-05,0.484411479757953,1.2332095775839731e-05,0.484411479757953,-1.2253e-05
0.4852055969378841,-8.958118403588783e-05,0.4852055969378841,-2.6866136431507323e-05,0.4852055969378841,1.0475885823553326e-05,0.4852055969378841,-1.0950057470659976e-05
0.4859997141178152,-8.946483567359796e-05,0.4859997141178152,-2.702351508545387e-05,0.4859997141178152,9.232327830664171e-06,0.4859997141178152,-1.057429405440034e-05
0.4867938312977463,-7.750427383583736e-05,0.4867938312977463,-3.200043262656586e-05,0.4867938312977463,4.698902190761827e-07,0.4867938312977463,-1.175786523283253e-05
0.4875879484776773,-6.306983895003443e-05,0.4875879484776773,-3.6558899089969153e-05,0.4875879484776773,-5.952583338460313e-06,0.4875879484776773,-1.6437114889758377e-05
0.4883820656576084,-5.9621597395008526e-05,0.4883820656576084,-3.6997294660246064e-05,0.4883820656576084,-7.678107049742816e-06,0.4883820656576084,-1.8670331916686324e-05
0.4891761828375395,-6.754659247694274e-05,0.4891761828375395,-2.741855429383784e-05,0.4891761828375395,-1.1835377574965825e-05,0.4891761828375395,-1.8414920692866907e-05
0.4899703000174705,-8.52670373932799e-05,0.4899703000174705,-1.6405977484455377e-05,0.4899703000174705,-1.0023049535785112e-05,0.4899703000174705,-1.86504622998492e-05
0.4907644171974016,-0.0001096353587769,0.4907644171974016,-9.993680065981582e-06,0.4907644171974016,-9.56741e-06,0.4907644171974016,-2.075349100203194e-05
0.4915585343773327,-0.0001509490942039,0.4915585343773327,1.0369396186404964e-06,0.4915585343773327,-9.093602611385213e-06,0.4915585343773327,-2.133672840759014e-05
0.4923526515572637,-0.0001981981703566,0.4923526515572637,9.54645469090218e-06,0.4923526515572637,-9.06386e-06,0.4923526515572637,-1.7664693835181277e-05
0.4931467687371948,-0.0002169720314944,0.4931467687371948,7.879813395132256e-06,0.4931467687371948,-8.718664306205485e-06,0.4931467687371948,-1.697179138758903e-05
0.4939408859171259,-0.0001868150934989,0.4939408859171259,4.645512007883873e-07,0.4939408859171259,-9.251119897589609e-06,0.4939408859171259,-1.8256780204820783e-05
0.494735003097057,-6.310994061804916e-05,0.494735003097057,-5.062987682900204e-06,0.494735003097057,-9.054490516386129e-06,0.494735003097057,-1.5059602581930631e-05
0.495529120276988,0.0001286178427953,0.495529120276988,-1.2805336092019448e-05,0.495529120276988,-7.0596687618350025e-06,0.495529120276988,-1.2410851238164996e-05
0.4963232374569191,0.0002898362785103,0.4963232374569191,-2.0718812912146628e-05,0.4963232374569191,-7.375491796430737e-06,0.4963232374569191,-1.201602906190765e-05
0.4971173546368502,0.0003369632014037,0.4971173546368502,-2.867972662637243e-05,0.4971173546368502,-5.3611305315783474e-06,0.4971173546368502,-1.0317700853373724e-05
0.4979114718167812,0.0002912237724835,0.4979114718167812,-3.10521e-05,0.4979114718167812,-3.228692368554797e-06,0.4979114718167812,-1.09102e-05
0.4987055889967123,0.0001849284361845,0.4987055889967123,-2.203651986276888e-05,0.4987055889967123,-4.827755330298874e-06,0.4987055889967123,-1.1482991556567042e-05
0.4994997061766434,5.9632643192690177e-05,0.4994997061766434,-1.4940500510612854e-05,0.4994997061766434,-4.532564998932235e-06,0.4994997061766434,-1.1581388333689254e-05
0.5002938233565745,-3.930508685751195e-05,0.5002938233565745,-2.1890422229120125e-05,0.5002938233565745,1.0817719465863709e-06,0.5002938233565745,-8.956437795753434e-06
0.5010879405365055,-5.30217983304004e-05,0.5010879405365055,-3.087780454153353e-05,0.5010879405365055,8.518139027792593e-06,0.5010879405365055,-7.37645312846829e-06
0.5018820577164366,1.0917038620948511e-05,0.5018820577164366,-2.3492552160680827e-05,0.5018820577164366,1.1698678551017684e-05,0.5018820577164366,-6.920846183672561e-06
0.5026761748963677,6.484678051141694e-05,0.5026761748963677,-1.3102147224181784e-05,0.5026761748963677,1.25887e-05,0.5026761748963677,-8.873715374495713e-06
0.5034702920762988,9.744769146223216e-05,0.5034702920762988,-4.279346215182298e-06,0.5034702920762988,9.934365424563247e-06,0.5034702920762988,-8.18631356838355e-06
0.5042644092562298,9.149238480479744e-05,0.5042644092562298,-5.813631261626356e-06,0.5042644092562298,9.546975354448176e-06,0.5042644092562298,-6.724186148856853e-06
0.5050585264361609,3.491234364983899e-05,0.5050585264361609,-1.319652736811215e-05,0.5050585264361609,1.05745e-05,0.5050585264361609,-6.52628585939613e-06
0.505852643616092,-2.5622841284894003e-05,0.505852643616092,-1.801760811100248e-05,0.505852643616092,1.2785481177824131e-05,0.505852643616092,-7.671871170998077e-06
0.506646760796023,-8.748018019364734e-05,0.506646760796023,-2.2125588083611704e-05,0.506646760796023,1.2510595838006386e-05,0.506646760796023,-5.775475937294376e-06
0.507440877975954,-0.0001421822402811,0.507440877975954,-2.9550833919871864e-05,0.507440877975954,9.470389177120796e-06,0.507440877975954,-7.630836080282374e-06
0.5082349951558852,-0.0001324877587342,0.5082349951558852,-3.21187106477251e-05,0.5082349951558852,7.88891e-06,0.5082349951558852,-1.0947634529385626e-05
0.5090291123358163,-8.062879746877525e-05,0.5090291123358163,-3.27898027937379e-05,0.5090291123358163,4.158437677061799e-06,0.5090291123358163,-1.4562882069815728e-05
0.5098232295157473,-3.743061229558949e-05,0.5098232295157473,-3.2750532860110775e-05,0.5098232295157473,-1.67849e-07,0.5098232295157473,-1.642948371162051e-05
0.5106173466956784,-1.5332504558517032e-05,0.5106173466956784,-3.0343529176508003e-05,0.5106173466956784,-1.9453040996023763e-06,0.5106173466956784,-1.756500988374973e-05
0.5114114638756094,-2.2341943421256544e-05,0.5114114638756094,-2.5207014006895952e-05,0.5114114638756094,-5.262476550718632e-06,0.5114114638756094,-1.8137339652155897e-05
0.5122055810555405,-5.71477711987521e-05,0.5122055810555405,-2.5324606590924626e-05,0.5122055810555405,-7.27622790444987e-06,0.5122055810555405,-2.0112594579161564e-05
0.5129996982354716,-9.48217568434466e-05,0.5129996982354716,-2.433888075030576e-05,0.5129996982354716,-8.22461e-06,0.5129996982354716,-1.829646954808732e-05
0.5137938154154027,-0.0001105520823386,0.5137938154154027,-2.258065168921884e-05,0.5137938154154027,-8.422686838921797e-06,0.5137938154154027,-1.69528e-05
0.5145879325953338,-6.824181689088898e-05,0.5145879325953338,-2.233358339644806e-05,0.5145879325953338,-5.086589535881807e-06,0.5145879325953338,-1.72795769306159e-05
0.5153820497752648,3.080741922336604e-05,0.5153820497752648,-2.4563552308002435e-05,0.5153820497752648,-4.274270901317827e-06,0.5153820497752648,-1.5789618197364343e-05
0.5161761669551959,0.0001237430563521,0.5161761669551959,-2.8662712025270664e-05,0.5161761669551959,-3.4874971617453206e-06,0.5161761669551959,-1.1842617878556944e-05
0.5169702841351269,0.000158734995405,0.5169702841351269,-2.8800237511222e-05,0.5169702841351269,-5.348379453177075e-07,0.5169702841351269,-9.92224413193746e-06
0.5177644013150581,0.00011463293519,0.5177644013150581,-2.9057990513047763e-05,0.5177644013150581,7.604352646730304e-07,0.5177644013150581,-1.0752577590278978e-05
0.5185585184949891,-2.417870894061647e-06,0.5185585184949891,-2.7420036471016435e-05,0.5185585184949891,3.45617936808761e-07,0.5185585184949891,-1.0870520252764955e-05
0.5193526356749202,-0.000127697235187,0.5193526356749202,-2.868120594274144e-05,0.5193526356749202,-4.832664516854875e-07,0.5193526356749202,-1.2253e-05
0.5201467528548512,-0.0002104578426598,0.5201467528548512,-2.881114021355545e-05,0.5201467528548512,9.953788061059084e-07,0.5201467528548512,-1.0969327106084996e-05
0.5209408700347823,-0.0002034873934131,0.5209408700347823,-2.335123573122961e-05,0.5209408700347823,2.0268532409227507e-06,0.5209408700347823,-1.165919372624875e-05
0.5217349872147133,-0.0001222860358595,0.5217349872147133,-1.8771726273922808e-05,0.5217349872147133,-2.4269041415166733e-06,0.5217349872147133,-1.3180848300384687e-05
0.5225291043946444,-3.896731842709354e-05,0.5225291043946444,-1.5412721562641045e-05,0.5225291043946444,-2.879718427093541e-07,0.5225291043946444,-1.2608720406514543e-05
0.5233232215745756,2.021991849046964e-05,0.5233232215745756,-1.5470404519473636e-05,0.5233232215745756,6.11164517240365e-06,0.5233232215745756,-1.2134537413798177e-05
0.5241173387545066,8.666375238855763e-05,0.5241173387545066,-1.853042751250635e-05,0.5241173387545066,6.625043785428486e-06,0.5241173387545066,-1.15816e-05
0.5249114559344377,0.0001618697141331,0.5249114559344377,-2.283725358753816e-05,0.5249114559344377,9.468244457992294e-06,0.5249114559344377,-1.1541996909654531e-05
0.5257055731143687,0.0002033828933014,0.5257055731143687,-2.483134815894716e-05,0.5257055731143687,1.262860906778329e-05,0.5257055731143687,-1.2687296977405569e-05
0.5264996902942998,0.000190854593566,0.5264996902942998,-2.0648104153517648e-05,0.5264996902942998,9.904438646397715e-06,0.5264996902942998,-1.3595353784534094e-05
0.5272938074742308,0.0001525792668704,0.5272938074742308,-1.1146893366246246e-05,0.5272938074742308,5.304996498132286e-06,0.5272938074742308,-1.30922e-05
0.528087924654162,9.289182433571104e-05,0.528087924654162,-9.56741e-06,0.528087924654162,1.2950021543838153e-06,0.528087924654162,-1.5016405847756064e-05
0.528882041834093,1.2591324667561578e-05,0.528882041834093,-7.988956629630143e-06,0.528882041834093,-4.2551891336648203e-07,0.528882041834093,-1.493083958154625e-05
0.5296761590140241,-5.135090948032765e-05,0.5296761590140241,-6.309030152878458e-06,0.5296761590140241,4.4387066920360396e-07,0.5296761590140241,-1.249171003426701e-05
0.5304702761939551,-9.122726261384796e-05,0.5304702761939551,-1.347094868368314e-05,0.5304702761939551,1.0166568168531672e-06,0.5304702761939551,-1.1265027975582572e-05
0.5312643933738862,-6.773420718752437e-05,0.5312643933738862,-2.1354864023170955e-05,0.5312643933738862,2.003950968298651e-06,0.5312643933738862,-1.3003205484149325e-05
0.5320585105538173,4.837749078900277e-05,0.5320585105538173,-2.4437189244391452e-05,0.5320585105538173,3.149448786737499e-06,0.5320585105538173,-1.357595439336875e-05
0.5328526277337483,0.0001415157579613,0.5328526277337483,-2.392372865082983e-05,0.5328526277337483,3.4061673633160737e-06,0.5328526277337483,-1.374488161807978e-05
0.5336467449136795,0.0001453161023088,0.5336467449136795,-2.3410077133868623e-05,0.5336467449136795,4.394776946045657e-06,0.5336467449136795,-9.647737203953064e-06
0.5344408620936105,6.0853805643535474e-05,0.5344408620936105,-2.339003696019278e-05,0.5344408620936105,1.0585846174599693e-06,0.5344408620936105,-9.25110269854854e-06
0.5352349792735416,-3.282922295794027e-05,0.5352349792735416,-2.43381e-05,0.5352349792735416,-8.39246e-07,0.5352349792735416,-9.05452484065271e-06
0.5360290964534726,-9.96779157984508e-05,0.5360290964534726,-2.481182238482277e-05,0.5360290964534726,2.3586908685969963e-06,0.5360290964534726,-8.855946304126736e-06
0.5368232136334037,-0.0001517054034707,0.5368232136334037,-2.686414859025872e-05,0.5368232136334037,7.335969380538385e-06,0.5368232136334037,-1.215420228955889e-05
0.5376173308133347,-0.0001526528110125,0.5376173308133347,-2.654076671948561e-05,0.5376173308133347,4.926603905917559e-06,0.5376173308133347,-1.311193969127119e-05
0.5384114479932659,-0.0001133609381961,0.5384114479932659,-2.3953170042319424e-05,0.5384114479932659,1.4515163813361215e-06,0.5384114479932659,-1.35958e-05
0.539205565173197,-8.271712026919051e-05,0.539205565173197,-2.3625472089728016e-05,0.539205565173197,2.043522488783729e-06,0.539205565173197,-1.35958e-05
0.539999682353128,-5.858809541271034e-05,0.539999682353128,-2.500908907878636e-05,0.539999682353128,5.201499379263844e-06,0.539999682353128,-1.2924857656888152e-05
0.5407937995330591,-6.366470343534932e-05,0.5407937995330591,-2.6115392610588127e-05,0.5407937995330591,6.072819770976712e-06,0.5407937995330591,-1.2825350114511644e-05
0.5415879167129901,-9.295567903879182e-05,0.5415879167129901,-2.564219849498734e-05,0.5415879167129901,5.005459549571579e-06,0.5415879167129901,-1.1305940900856842e-05
0.5423820338929212,-0.0001154139693325,0.5423820338929212,-2.4022988652662448e-05,0.5423820338929212,4.180850300336092e-06,0.5423820338929212,-1.169862695389437e-05
0.5431761510728523,-0.0001003851950053,0.5431761510728523,-2.439717721454854e-05,0.5431761510728523,1.234623229277862e-06,0.5431761510728523,-1.231268322927786e-05
0.5439702682527834,-3.964577310453585e-05,0.5439702682527834,-2.8226833930322767e-05,0.5439702682527834,2.1629234658395142e-06,0.5439702682527834,-1.0811961175747364e-05
0.5447643854327144,3.762705074150387e-05,0.5447643854327144,-2.94728600018324e-05,0.5447643854327144,1.6887404731234368e-06,0.5447643854327144,-1.0367288381646448e-05
0.5455585026126455,8.331653089329807e-05,0.5455585026126455,-2.505402119440126e-05,0.5455585026126455,-7.201387900084839e-07,0.5455585026126455,-9.607112087948284e-06
0.5463526197925765,7.35564795154984e-05,0.5463526197925765,-1.6994870298760027e-05,0.5463526197925765,-3.958886190829855e-06,0.5463526197925765,-8.451795952292536e-06
0.5471467369725076,2.629519713343633e-05,0.5471467369725076,-1.4681982270383811e-05,0.5471467369725076,-5.6950791920985885e-06,0.5471467369725076,-8.93385166162376e-06
0.5479408541524387,-4.596777964281173e-05,0.5479408541524387,-1.35958e-05,0.5479408541524387,-7.475672137861058e-06,0.5479408541524387,-1.261777756075883e-05
0.5487349713323698,-0.0001180493991439,0.5487349713323698,-1.5252843656376398e-05,0.5487349713323698,-5.697553920944714e-06,0.5487349713323698,-1.2964019764867695e-05
0.5495290885123009,-0.0001019422063249,0.5495290885123009,-1.7446544171879177e-05,0.5495290885123009,-6.960734177660301e-06,0.5495290885123009,-1.5658822750973214e-05
0.5503232056922319,-2.05002946442692e-05,0.5503232056922319,-1.6676933526848533e-05,0.5503232056922319,-4.117392802319897e-06,0.5503232056922319,-1.6162960296642642e-05
0.551117322872163,5.289472462689279e-05,0.551117322872163,-1.83738450184111e-05,0.551117322872163,-2.7744932825166184e-06,0.551117322872163,-1.620245328251662e-05
0.551911440052094,7.720226024468115e-05,0.551911440052094,-1.786118677994136e-05,0.551911440052094,-3.1300237277948065e-06,0.551911440052094,-1.521518784736358e-05
0.5527055572320251,7.622449409311369e-06,0.5527055572320251,-2.093620010987231e-05,0.5527055572320251,-1.924953778445281e-06,0.5527055572320251,-1.39315e-05
0.5534996744119562,-9.664120954372364e-05,0.5534996744119562,-2.584711522302449e-05,0.5534996744119562,-3.859591810366385e-06,0.5534996744119562,-1.426696545084488e-05
0.5542937915918873,-0.000112109636785,0.5542937915918873,-2.5404421227223498e-05,0.5542937915918873,-4.917157809251002e-06,0.5542937915918873,-1.5648533144493986e-05
0.5550879087718184,-1.0935819550661869e-05,0.5550879087718184,-2.684276492792916e-05,0.5550879087718184,-2.224375747433709e-06,0.5550879087718184,-1.66171e-05
0.5558820259517494,0.0001391795629276,0.5558820259517494,-3.13465713295235e-05,0.5558820259517494,1.7056562580889956e-06,0.5558820259517494,-1.55709967483822e-05
0.5566761431316805,0.0002300381540706,0.5566761431316805,-3.808188075854055e-05,0.5566761431316805,3.18914e-06,0.5566761431316805,-1.4722277899978e-05
0.5574702603116115,0.0001950585207522,0.5574702603116115,-4.001799330786905e-05,0.5574702603116115,1.4915349072619224e-06,0.5574702603116115,-1.4463707639107115e-05
0.5582643774915427,9.022400025629184e-05,0.5582643774915427,-3.5676183287358654e-05,0.5582643774915427,1.6887519145455622e-06,0.5582643774915427,-1.5334209114672382e-05
0.5590584946714737,-2.163194515820993e-05,0.5590584946714737,-1.779941137900329e-05,0.5590584946714737,5.432616721073013e-07,0.5590584946714737,-1.2539942435951764e-05
0.5598526118514048,-8.301437709636507e-05,0.5598526118514048,4.481464961925002e-06,0.5598526118514048,2.5465794496050032e-06,0.5598526118514048,-1.1384910550394996e-05
0.5606467290313358,-8.689635559286145e-05,0.5606467290313358,1.9122634158398016e-05,0.5606467290313358,7.056734453557371e-06,0.5606467290313358,-9.01421179746118e-06
0.5614408462112669,-5.115695753640421e-05,0.5614408462112669,2.2619921960320928e-05,0.5614408462112669,1.2627462465042166e-05,0.5614408462112669,-9.56741e-06
0.5622349633911979,1.839729519869398e-05,0.5622349633911979,2.5540350449713204e-05,0.5622349633911979,1.069578861748603e-05,0.5622349633911979,-8.541685446994411e-06
0.563029080571129,5.581619628851508e-05,0.563029080571129,1.7725168365687064e-05,0.563029080571129,6.901874730781127e-06,0.563029080571129,-9.369473202528498e-06
0.5638231977510602,2.892113976499656e-05,0.5638231977510602,-2.816319774012062e-06,0.5638231977510602,5.32197991261113e-06,0.5638231977510602,-9.9031e-06
0.5646173149309912,3.030708048568503e-06,0.5646173149309912,-2.211763766895613e-05,0.5646173149309912,2.3399551909984053e-06,0.5646173149309912,-1.0199320908244653e-05
0.5654114321109223,-7.580975576528229e-06,0.5654114321109223,-3.693610133124299e-05,0.5654114321109223,3.563836522871256e-06,0.5654114321109223,-1.09102e-05
0.5662055492908533,-3.398551800133233e-05,0.5662055492908533,-4.0766765498803325e-05,0.5662055492908533,7.513256398549332e-06,0.5662055492908533,-1.0614460664906778e-05
0.5669996664707844,-6.259698785601899e-05,0.5669996664707844,-4.06198236325876e-05,0.5669996664707844,8.560069730133755e-06,0.5669996664707844,-1.0574019460267511e-05
0.5677937836507154,-8.664585274523056e-05,0.5677937836507154,-3.938528530005595e-05,0.5677937836507154,7.338607861236818e-06,0.5677937836507154,-1.3199554593936974e-05
0.5685879008306466,-0.0001082488969483,0.5685879008306466,-3.699799760261989e-05,0.5685879008306466,3.171443687673198e-06,0.5685879008306466,-1.2648763832911596e-05
0.5693820180105776,-0.000126100944619,0.5693820180105776,-3.4824324010688394e-05,0.5693820180105776,1.0189512034288083e-06,0.5693820180105776,-1.1503604962791696e-05
0.5701761351905087,-0.0001426675896833,0.5701761351905087,-2.9828155445475783e-05,0.5701761351905087,-7.198571920643507e-07,0.5701761351905087,-1.09102e-05
0.5709702523704397,-0.0001313910576521,0.5709702523704397,-2.4379810742698137e-05,0.5709702523704397,-2.51774e-06,0.5709702523704397,-1.0644131183441168e-05
0.5717643695503708,-5.589006076871174e-05,0.5717643695503708,-2.256029890604608e-05,0.5717643695503708,-1.1252801360379911e-06,0.5717643695503708,-1.0396376644032067e-05
0.5725584867303019,3.905147695443756e-05,0.5725584867303019,-2.5559463005574287e-05,0.5725584867303019,-2.7739887773102752e-06,0.5725584867303019,-1.1068165638747687e-05
0.573352603910233,8.678982453780714e-05,0.573352603910233,-2.619498812075062e-05,0.573352603910233,-5.064296517550203e-06,0.573352603910233,-1.0042139947050017e-05
0.5741467210901641,7.715674379312013e-05,0.5741467210901641,-2.6963937282929403e-05,0.5741467210901641,-2.9244091019750363e-06,0.5741467210901641,-9.940882865801225e-06
0.5749408382700951,5.189109200788226e-05,0.5749408382700951,-2.9235237720272832e-05,0.5749408382700951,-2.220790999014717e-06,0.5749408382700951,-1.260807549950736e-05
0.5757349554500262,4.68299e-05,0.5757349554500262,-2.8604645321203923e-05,0.5757349554500262,-2.3405891649194155e-06,0.5757349554500262,-1.29244e-05
0.5765290726299572,5.484385519186623e-05,0.5765290726299572,-2.611546962667961e-05,0.5765290726299572,-2.4976738277967843e-06,0.5765290726299572,-1.4227067655593568e-05
