time_ms,emg_value
1763318380517,5.0
1763318380518,16.0
1763318380519,0.0
1763318380520,5.0
1763318380521,2.0
1763318380522,0.0
1763318380523,2.0
1763318380524,0.0
1763318380525,0.0
1763318380526,5.0
1763318380527,0.0
1763318380528,3.0
1763318380529,1.0
1763318380530,6.0
1763318380531,1.0
1763318380532,0.0
1763318380533,0.0
1763318380534,0.0
1763318380535,0.0
1763318380536,1.0
1763318380537,8.0
1763318380538,0.0
1763318380539,0.0
1763318380540,0.0
1763318380541,0.0
1763318380542,0.0
1763318380543,6.0
1763318380544,0.0
1763318380545,0.0
1763318380546,0.0
1763318380547,0.0
1763318380548,0.0
1763318380549,0.0
1763318380550,5.0
1763318380551,7.0
1763318380552,2.0
1763318380553,1.0
1763318380554,0.0
1763318380555,4.0
1763318380556,2.0
1763318380557,5.0
1763318380558,11.0
1763318380559,0.0
1763318380560,1.0
1763318380561,0.0
1763318380562,6.0
1763318380563,0.0
1763318380564,0.0
1763318380565,0.0
1763318380566,2.0
1763318380567,0.0
1763318380568,6.0
1763318380569,6.0
1763318380570,0.0
1763318380571,5.0
1763318380572,6.0
1763318380573,6.0
1763318380574,7.0
1763318380575,0.0
1763318380576,0.0
1763318380577,6.0
1763318380578,8.0
1763318380579,1.0
1763318380580,11.0
1763318380581,6.0
1763318380582,0.0
1763318380583,0.0
1763318380584,0.0
1763318380585,0.0
1763318380586,0.0
1763318380587,7.0
1763318380588,14.0
1763318380589,5.0
1763318380590,5.0
1763318380591,0.0
1763318380592,10.0
1763318380593,3.0
1763318380594,5.0
1763318380595,2.0
1763318380596,0.0
1763318380597,0.0
1763318380598,9.0
1763318380599,0.0
1763318380600,0.0
1763318380601,0.0
1763318380602,5.0
1763318380603,0.0
1763318380604,20.0
1763318380605,0.0
1763318380606,0.0
1763318380607,9.0
1763318380608,4.0
1763318380609,1.0
1763318380610,8.0
1763318380611,0.0
1763318380612,0.0
1763318380613,9.0
1763318380614,5.0
1763318380615,5.0
1763318380616,0.0
1763318380617,0.0
1763318380618,7.0
1763318380619,0.0
1763318380620,0.0
1763318380621,0.0
1763318380622,6.0
1763318380623,10.0
1763318380624,0.0
1763318380625,0.0
1763318380626,0.0
1763318380627,7.0
1763318380628,0.0
1763318380629,12.0
1763318380630,16.0
1763318380631,16.0
1763318380632,0.0
1763318380633,0.0
1763318380634,14.0
1763318380635,0.0
1763318380636,0.0
1763318380637,0.0
1763318380638,0.0
1763318380639,1.0
1763318380640,16.0
1763318380641,0.0
1763318380642,0.0
1763318380643,1.0
1763318380644,0.0
1763318380645,0.0
1763318380646,5.0
1763318380647,0.0
1763318380648,15.0
1763318380649,0.0
1763318380650,5.0
1763318380651,3.0
1763318380652,0.0
1763318380653,10.0
1763318380654,0.0
1763318380655,3.0
1763318380656,3.0
1763318380657,1.0
1763318380658,3.0
1763318380659,4.0
1763318380660,5.0
1763318380661,4.0
1763318380662,1.0
1763318380663,2.0
1763318380664,4.0
1763318380665,10.0
1763318380666,1.0
1763318380667,0.0
1763318380668,0.0
1763318380669,8.0
1763318380670,10.0
1763318380671,2.0
1763318380672,10.0
1763318380673,0.0
1763318380674,2.0
1763318380675,3.0
1763318380676,0.0
1763318380677,0.0
1763318380678,4.0
1763318380679,17.0
1763318380680,10.0
1763318380681,0.0
1763318380682,1.0
1763318380683,1.0
1763318380684,1.0
1763318380685,3.0
1763318380686,0.0
1763318380687,3.0
1763318380688,0.0
1763318380689,0.0
1763318380690,0.0
1763318380691,15.0
1763318380692,0.0
1763318380693,0.0
1763318380694,0.0
1763318380695,3.0
1763318380696,0.0
1763318380697,0.0
1763318380698,7.0
1763318380699,5.0
1763318380700,6.0
1763318380701,0.0
1763318380702,0.0
1763318380703,5.0
1763318380704,1.0
1763318380705,9.0
1763318380706,0.0
1763318380707,0.0
1763318380708,8.0
1763318380709,0.0
1763318380710,0.0
1763318380711,5.0
1763318380712,5.0
1763318380713,6.0
1763318380714,3.0
1763318380715,6.0
1763318380716,0.0
1763318380717,0.0
1763318380718,3.0
1763318380719,0.0
1763318380720,1.0
1763318380721,1.0
1763318380722,5.0
1763318380723,0.0
1763318380724,11.0
1763318380725,1.0
1763318380726,0.0
1763318380727,6.0
1763318380728,5.0
1763318380729,6.0
1763318380730,0.0
1763318380731,0.0
1763318380732,1.0
1763318380733,0.0
1763318380734,0.0
1763318380735,0.0
1763318380736,0.0
1763318380737,5.0
1763318380738,5.0
1763318380739,4.0
1763318380740,1.0
1763318380741,4.0
1763318380742,0.0
1763318380743,2.0
1763318380744,4.0
1763318380745,6.0
1763318380746,1.0
1763318380747,9.0
1763318380748,11.0
1763318380749,6.0
1763318380750,16.0
1763318380751,10.0
1763318380752,5.0
1763318380753,1.0
1763318380754,0.0
1763318380755,4.0
1763318380756,11.0
1763318380757,2.0
1763318380758,4.0
1763318380759,0.0
1763318380760,2.0
1763318380761,0.0
1763318380762,0.0
1763318380763,0.0
1763318380764,8.0
1763318380765,4.0
1763318380766,3.0
1763318380767,14.0
1763318380768,0.0
1763318380769,9.0
1763318380770,0.0
1763318380771,3.0
1763318380772,0.0
1763318380773,13.0
1763318380774,0.0
1763318380775,2.0
1763318380776,0.0
1763318380777,3.0
1763318380778,0.0
1763318380779,0.0
1763318380780,0.0
1763318380781,0.0
1763318380782,15.0
1763318380783,0.0
1763318380784,2.0
1763318380785,0.0
1763318380786,7.0
1763318380787,0.0
1763318380788,8.0
1763318380789,0.0
1763318380790,0.0
1763318380791,0.0
1763318380792,0.0
1763318380793,0.0
1763318380794,5.0
1763318380795,0.0
1763318380796,0.0
1763318380797,0.0
1763318380798,0.0
1763318380799,3.0
1763318380800,0.0
1763318380801,4.0
1763318380802,0.0
1763318380803,4.0
1763318380804,0.0
1763318380805,0.0
1763318380806,2.0
1763318380807,3.0
1763318380808,5.0
1763318380809,0.0
1763318380810,7.0
1763318380811,0.0
1763318380812,0.0
1763318380813,0.0
1763318380814,0.0
1763318380815,0.0
1763318380816,3.0
1763318380817,0.0
1763318380818,1.0
1763318380819,1.0
1763318380820,0.0
1763318380821,18.0
1763318380822,15.0
1763318380823,2.0
1763318380824,0.0
1763318380825,9.0
1763318380826,0.0
1763318380827,1.0
1763318380828,8.0
1763318380829,1.0
1763318380830,9.0
1763318380831,1.0
1763318380832,0.0
1763318380833,0.0
1763318380834,6.0
1763318380835,3.0
1763318380836,8.0
1763318380837,6.0
1763318380838,0.0
1763318380839,11.0
1763318380840,0.0
1763318380841,0.0
1763318380842,0.0
1763318380843,2.0
1763318380844,0.0
1763318380845,3.0
1763318380846,4.0
1763318380847,0.0
1763318380848,0.0
1763318380849,0.0
1763318380850,0.0
1763318380851,0.0
1763318380852,7.0
1763318380853,10.0
1763318380854,0.0
1763318380855,7.0
1763318380856,1.0
1763318380857,3.0
1763318380858,2.0
1763318380859,8.0
1763318380860,0.0
1763318380861,7.0
1763318380862,8.0
1763318380863,2.0
1763318380864,2.0
1763318380865,0.0
1763318380866,6.0
1763318380867,6.0
1763318380868,3.0
1763318380869,7.0
1763318380870,0.0
1763318380871,0.0
1763318380872,9.0
1763318380873,0.0
1763318380874,1.0
1763318380875,0.0
1763318380876,8.0
1763318380877,1.0
1763318380878,0.0
1763318380879,0.0
1763318380880,0.0
1763318380881,0.0
1763318380882,0.0
1763318380883,4.0
1763318380884,0.0
1763318380885,0.0
1763318380886,0.0
1763318380887,0.0
1763318380888,0.0
1763318380889,5.0
1763318380890,0.0
1763318380891,0.0
1763318380892,0.0
1763318380893,10.0
1763318380894,1.0
1763318380895,0.0
1763318380896,9.0
1763318380897,2.0
1763318380898,6.0
1763318380899,0.0
1763318380900,2.0
1763318380901,0.0
1763318380902,0.0
1763318380903,5.0
1763318380904,10.0
1763318380905,0.0
1763318380906,0.0
1763318380907,9.0
1763318380908,0.0
1763318380909,5.0
1763318380910,1.0
1763318380911,13.0
1763318380912,0.0
1763318380913,0.0
1763318380914,0.0
1763318380915,14.0
1763318380916,0.0
1763318380917,0.0
1763318380918,0.0
1763318380919,6.0
1763318380920,4.0
1763318380921,0.0
1763318380922,0.0
1763318380923,0.0
1763318380924,5.0
1763318380925,1.0
1763318380926,0.0
1763318380927,1.0
1763318380928,0.0
1763318380929,7.0
1763318380930,3.0
1763318380931,5.0
1763318380932,0.0
1763318380933,0.0
1763318380934,1.0
1763318380935,0.0
1763318380936,1.0
1763318380937,1.0
1763318380938,9.0
1763318380939,11.0
1763318380940,0.0
1763318380941,0.0
1763318380942,2.0
1763318380943,0.0
1763318380944,3.0
1763318380945,1.0
1763318380946,5.0
1763318380947,0.0
1763318380948,2.0
1763318380949,2.0
1763318380950,2.0
1763318380951,3.0
1763318380952,0.0
1763318380953,0.0
1763318380954,0.0
1763318380955,2.0
1763318380956,0.0
1763318380957,4.0
1763318380958,0.0
1763318380959,0.0
1763318380960,2.0
1763318380961,7.0
1763318380962,0.0
1763318380963,0.0
1763318380964,14.0
1763318380965,0.0
1763318380966,6.0
1763318380967,0.0
1763318380968,0.0
1763318380969,1.0
1763318380970,11.0
1763318380971,5.0
1763318380972,0.0
1763318380973,0.0
1763318380974,0.0
1763318380975,0.0
1763318380976,0.0
1763318380977,0.0
1763318380978,1.0
1763318380979,3.0
1763318380980,6.0
1763318380981,1.0
1763318380982,3.0
1763318380983,0.0
1763318380984,0.0
1763318380985,16.0
1763318380986,3.0
1763318380987,5.0
1763318380988,0.0
1763318380989,15.0
1763318380990,10.0
1763318380991,0.0
1763318380992,2.0
1763318380993,0.0
1763318380994,6.0
1763318380995,1.0
1763318380996,1.0
1763318380997,0.0
1763318380998,3.0
1763318380999,0.0
1763318381000,1.0
1763318381001,6.0
1763318381002,0.0
1763318381003,0.0
1763318381004,3.0
1763318381005,2.0
1763318381006,0.0
1763318381007,5.0
1763318381008,5.0
1763318381009,7.0
1763318381010,0.0
1763318381011,3.0
1763318381012,6.0
1763318381013,0.0
1763318381014,8.0
1763318381015,3.0
1763318381016,0.0
1763318381017,6.0
1763318381018,13.0
1763318381019,0.0
1763318381020,0.0
1763318381021,0.0
1763318381022,2.0
1763318381023,0.0
1763318381024,6.0
1763318381025,0.0
1763318381026,5.0
1763318381027,0.0
1763318381028,15.0
1763318381029,13.0
1763318381030,16.0
1763318381031,0.0
1763318381032,0.0
1763318381033,2.0
1763318381034,0.0
1763318381035,3.0
1763318381036,9.0
1763318381037,6.0
1763318381038,0.0
1763318381039,0.0
1763318381040,16.0
1763318381041,1.0
1763318381042,0.0
1763318381043,5.0
1763318381044,0.0
1763318381045,0.0
1763318381046,11.0
1763318381047,9.0
1763318381048,6.0
1763318381049,1.0
1763318381050,0.0
1763318381051,0.0
1763318381052,2.0
1763318381053,7.0
1763318381054,0.0
1763318381055,12.0
1763318381056,5.0
1763318381057,0.0
1763318381058,0.0
1763318381059,11.0
1763318381060,6.0
1763318381061,11.0
1763318381062,0.0
1763318381063,6.0
1763318381064,6.0
1763318381065,0.0
1763318381066,0.0
1763318381067,0.0
1763318381068,0.0
1763318381069,0.0
1763318381070,7.0
1763318381071,8.0
1763318381072,4.0
1763318381073,3.0
1763318381074,10.0
1763318381075,6.0
1763318381076,0.0
1763318381077,4.0
1763318381078,0.0
1763318381079,11.0
1763318381080,0.0
1763318381081,0.0
1763318381082,0.0
1763318381083,2.0
1763318381084,9.0
1763318381085,5.0
1763318381086,0.0
1763318381087,5.0
1763318381088,0.0
1763318381089,2.0
1763318381090,7.0
1763318381091,0.0
1763318381092,0.0
1763318381093,0.0
1763318381094,0.0
1763318381095,3.0
1763318381096,2.0
1763318381097,10.0
1763318381098,8.0
1763318381099,0.0
1763318381100,0.0
1763318381101,9.0
1763318381102,0.0
1763318381103,2.0
1763318381104,6.0
1763318381105,0.0
1763318381106,3.0
1763318381107,0.0
1763318381108,4.0
1763318381109,6.0
1763318381110,3.0
1763318381111,16.0
1763318381112,0.0
1763318381113,0.0
1763318381114,3.0
1763318381115,11.0
1763318381116,0.0
1763318381117,4.0
1763318381118,0.0
1763318381119,0.0
1763318381120,3.0
1763318381121,0.0
1763318381122,0.0
1763318381123,11.0
1763318381124,2.0
1763318381125,6.0
1763318381126,9.0
1763318381127,2.0
1763318381128,1.0
1763318381129,0.0
1763318381130,5.0
1763318381131,5.0
1763318381132,11.0
1763318381133,10.0
1763318381134,0.0
1763318381135,0.0
1763318381136,5.0
1763318381137,2.0
1763318381138,0.0
1763318381139,0.0
1763318381140,0.0
1763318381141,8.0
1763318381142,0.0
1763318381143,2.0
1763318381144,10.0
1763318381145,0.0
1763318381146,9.0
1763318381147,0.0
1763318381148,10.0
1763318381149,0.0
1763318381150,11.0
1763318381151,0.0
1763318381152,5.0
1763318381153,9.0
1763318381154,0.0
1763318381155,3.0
1763318381156,2.0
1763318381157,0.0
1763318381158,0.0
1763318381159,3.0
1763318381160,0.0
1763318381161,0.0
1763318381162,7.0
1763318381163,2.0
1763318381164,0.0
1763318381165,0.0
1763318381166,0.0
1763318381167,0.0
1763318381168,1.0
1763318381169,1.0
1763318381170,12.0
1763318381171,3.0
1763318381172,3.0
1763318381173,8.0
1763318381174,5.0
1763318381175,7.0
1763318381176,0.0
1763318381177,0.0
1763318381178,6.0
1763318381179,0.0
1763318381180,7.0
1763318381181,2.0
1763318381182,0.0
1763318381183,0.0
1763318381184,3.0
1763318381185,0.0
1763318381186,2.0
1763318381187,0.0
1763318381188,6.0
1763318381189,2.0
1763318381190,0.0
1763318381191,0.0
1763318381192,1.0
1763318381193,0.0
1763318381194,9.0
1763318381195,3.0
1763318381196,2.0
1763318381197,1.0
1763318381198,0.0
1763318381199,9.0
1763318381200,2.0
1763318381201,1.0
1763318381202,0.0
1763318381203,0.0
1763318381204,9.0
1763318381205,10.0
1763318381206,0.0
1763318381207,1.0
1763318381208,1.0
1763318381209,0.0
1763318381210,4.0
1763318381211,5.0
1763318381212,2.0
1763318381213,6.0
1763318381214,3.0
1763318381215,5.0
1763318381216,0.0
1763318381217,2.0
1763318381218,8.0
1763318381219,0.0
1763318381220,7.0
1763318381221,2.0
1763318381222,1.0
1763318381223,4.0
1763318381224,0.0
1763318381225,1.0
1763318381226,10.0
1763318381227,0.0
1763318381228,0.0
1763318381229,3.0
1763318381230,6.0
1763318381231,0.0
1763318381232,9.0
1763318381233,8.0
1763318381234,0.0
1763318381235,8.0
1763318381236,0.0
1763318381237,2.0
1763318381238,11.0
1763318381239,1.0
1763318381240,2.0
1763318381241,1.0
1763318381242,6.0
1763318381243,6.0
1763318381244,1.0
1763318381245,1.0
1763318381246,0.0
1763318381247,0.0
1763318381248,0.0
1763318381249,4.0
1763318381250,0.0
1763318381251,11.0
1763318381252,2.0
1763318381253,6.0
1763318381254,6.0
1763318381255,7.0
1763318381256,5.0
1763318381257,1.0
1763318381258,0.0
1763318381259,0.0
1763318381260,5.0
1763318381261,0.0
1763318381262,0.0
1763318381263,5.0
1763318381264,0.0
1763318381265,9.0
1763318381266,15.0
1763318381267,3.0
1763318381268,3.0
1763318381269,4.0
1763318381270,6.0
1763318381271,3.0
1763318381272,6.0
1763318381273,0.0
1763318381274,6.0
1763318381275,6.0
1763318381276,6.0
1763318381277,7.0
1763318381278,3.0
1763318381279,0.0
1763318381280,3.0
1763318381281,10.0
1763318381282,0.0
1763318381283,11.0
1763318381284,11.0
1763318381285,0.0
1763318381286,10.0
1763318381287,12.0
1763318381288,8.0
1763318381289,6.0
1763318381290,0.0
1763318381291,0.0
1763318381292,0.0
1763318381293,0.0
1763318381294,6.0
1763318381295,5.0
1763318381296,3.0
1763318381297,8.0
1763318381298,3.0
1763318381299,0.0
1763318381300,0.0
1763318381301,0.0
1763318381302,1.0
1763318381303,3.0
1763318381304,0.0
1763318381305,11.0
1763318381306,4.0
1763318381307,0.0
1763318381308,0.0
1763318381309,5.0
1763318381310,3.0
1763318381311,0.0
1763318381312,0.0
1763318381313,0.0
1763318381314,7.0
1763318381315,2.0
1763318381316,1.0
1763318381317,0.0
1763318381318,2.0
1763318381319,15.0
1763318381320,4.0
1763318381321,0.0
1763318381322,0.0
1763318381323,1.0
1763318381324,2.0
1763318381325,10.0
1763318381326,0.0
1763318381327,0.0
1763318381328,1.0
1763318381329,6.0
1763318381330,1.0
1763318381331,1.0
1763318381332,11.0
1763318381333,7.0
1763318381334,0.0
1763318381335,0.0
1763318381336,2.0
1763318381337,9.0
1763318381338,6.0
1763318381339,0.0
1763318381340,0.0
1763318381341,4.0
1763318381342,2.0
1763318381343,7.0
1763318381344,3.0
1763318381345,1.0
1763318381346,0.0
1763318381347,0.0
1763318381348,0.0
1763318381349,1.0
1763318381350,13.0
1763318381351,11.0
1763318381352,0.0
1763318381353,0.0
1763318381354,0.0
1763318381355,10.0
1763318381356,1.0
1763318381357,13.0
1763318381358,1.0
1763318381359,10.0
1763318381360,0.0
1763318381361,12.0
1763318381362,5.0
1763318381363,0.0
1763318381364,0.0
1763318381365,16.0
1763318381366,2.0
1763318381367,1.0
1763318381368,6.0
1763318381369,0.0
1763318381370,1.0
1763318381371,0.0
1763318381372,0.0
1763318381373,2.0
1763318381374,0.0
1763318381375,11.0
1763318381376,6.0
1763318381377,9.0
1763318381378,6.0
1763318381379,0.0
1763318381380,0.0
1763318381381,7.0
1763318381382,0.0
1763318381383,7.0
1763318381384,0.0
1763318381385,3.0
1763318381386,2.0
1763318381387,0.0
1763318381388,10.0
1763318381389,0.0
1763318381390,7.0
1763318381391,0.0
1763318381392,0.0
1763318381393,2.0
1763318381394,6.0
1763318381395,16.0
1763318381396,4.0
1763318381397,0.0
1763318381398,1.0
1763318381399,3.0
1763318381400,0.0
1763318381401,11.0
1763318381402,10.0
1763318381403,0.0
1763318381404,11.0
1763318381405,11.0
1763318381406,3.0
1763318381407,0.0
1763318381408,6.0
1763318381409,5.0
1763318381410,5.0
1763318381411,10.0
1763318381412,13.0
1763318381413,5.0
1763318381414,0.0
1763318381415,0.0
1763318381416,0.0
1763318381417,5.0
1763318381418,4.0
1763318381419,4.0
1763318381420,1.0
1763318381421,0.0
1763318381422,2.0
1763318381423,4.0
1763318381424,0.0
1763318381425,7.0
1763318381426,10.0
1763318381427,9.0
1763318381428,1.0
1763318381429,0.0
1763318381430,1.0
1763318381431,0.0
1763318381432,0.0
1763318381433,0.0
1763318381434,6.0
1763318381435,0.0
1763318381436,4.0
1763318381437,3.0
1763318381438,10.0
1763318381439,9.0
1763318381440,0.0
1763318381441,0.0
1763318381442,0.0
1763318381443,0.0
1763318381444,0.0
1763318381445,0.0
1763318381446,0.0
1763318381447,0.0
1763318381448,0.0
1763318381449,6.0
1763318381450,0.0
1763318381451,4.0
1763318381452,14.0
1763318381453,0.0
1763318381454,4.0
1763318381455,0.0
1763318381456,0.0
1763318381457,3.0
1763318381458,0.0
1763318381459,9.0
1763318381460,0.0
1763318381461,0.0
1763318381462,10.0
1763318381463,11.0
1763318381464,0.0
1763318381465,0.0
1763318381466,0.0
1763318381467,10.0
1763318381468,0.0
1763318381469,1.0
1763318381470,0.0
1763318381471,11.0
1763318381472,1.0
1763318381473,0.0
1763318381474,9.0
1763318381475,10.0
1763318381476,1.0
1763318381477,1.0
1763318381478,1.0
1763318381479,10.0
1763318381480,8.0
1763318381481,5.0
1763318381482,2.0
1763318381483,0.0
1763318381484,0.0
1763318381485,11.0
1763318381486,10.0
1763318381487,0.0
1763318381488,0.0
1763318381489,7.0
1763318381490,0.0
1763318381491,6.0
1763318381492,5.0
1763318381493,1.0
1763318381494,1.0
1763318381495,0.0
1763318381496,0.0
1763318381497,0.0
1763318381498,2.0
1763318381499,0.0
1763318381500,7.0
1763318381501,0.0
1763318381502,15.0
1763318381503,0.0
1763318381504,5.0
1763318381505,0.0
1763318381506,2.0
1763318381507,0.0
1763318381508,8.0
1763318381509,0.0
1763318381510,0.0
1763318381511,0.0
1763318381512,1.0
1763318381513,2.0
1763318381514,0.0
1763318381515,3.0
1763318381516,0.0
1763318381517,4.0
1763318381518,0.0
1763318381519,0.0
1763318381520,9.0
1763318381521,0.0
1763318381522,3.0
1763318381523,9.0
1763318381524,0.0
1763318381525,7.0
1763318381526,3.0
1763318381527,15.0
1763318381528,0.0
1763318381529,3.0
1763318381530,1.0
1763318381531,9.0
1763318381532,0.0
1763318381533,2.0
1763318381534,1.0
1763318381535,0.0
1763318381536,5.0
1763318381537,13.0
1763318381538,13.0
1763318381539,0.0
1763318381540,0.0
1763318381541,0.0
1763318381542,0.0
1763318381543,16.0
1763318381544,0.0
1763318381545,1.0
1763318381546,0.0
1763318381547,0.0
1763318381548,0.0
1763318381549,0.0
1763318381550,0.0
1763318381551,2.0
1763318381552,9.0
1763318381553,1.0
1763318381554,0.0
1763318381555,0.0
1763318381556,7.0
1763318381557,2.0
1763318381558,0.0
1763318381559,7.0
1763318381560,0.0
1763318381561,8.0
1763318381562,0.0
1763318381563,0.0
1763318381564,10.0
1763318381565,2.0
1763318381566,0.0
1763318381567,5.0
1763318381568,0.0
1763318381569,0.0
1763318381570,0.0
1763318381571,0.0
1763318381572,0.0
1763318381573,0.0
1763318381574,6.0
1763318381575,6.0
1763318381576,6.0
1763318381577,0.0
1763318381578,0.0
1763318381579,1.0
1763318381580,0.0
1763318381581,6.0
1763318381582,3.0
1763318381583,3.0
1763318381584,3.0
1763318381585,3.0
1763318381586,0.0
1763318381587,1.0
1763318381588,1.0
1763318381589,6.0
1763318381590,10.0
1763318381591,5.0
1763318381592,1.0
1763318381593,1.0
1763318381594,2.0
1763318381595,0.0
1763318381596,2.0
1763318381597,0.0
1763318381598,0.0
1763318381599,2.0
1763318381600,0.0
1763318381601,4.0
1763318381602,3.0
1763318381603,0.0
1763318381604,4.0
1763318381605,3.0
1763318381606,2.0
1763318381607,0.0
1763318381608,0.0
1763318381609,0.0
1763318381610,1.0
1763318381611,16.0
1763318381612,1.0
1763318381613,9.0
1763318381614,0.0
1763318381615,11.0
1763318381616,0.0
1763318381617,0.0
1763318381618,10.0
1763318381619,2.0
1763318381620,7.0
1763318381621,6.0
1763318381622,0.0
1763318381623,0.0
1763318381624,0.0
1763318381625,0.0
1763318381626,7.0
1763318381627,3.0
1763318381628,7.0
1763318381629,0.0
1763318381630,0.0
1763318381631,2.0
1763318381632,10.0
1763318381633,6.0
1763318381634,6.0
1763318381635,0.0
1763318381636,2.0
1763318381637,0.0
1763318381638,3.0
1763318381639,0.0
1763318381640,9.0
1763318381641,0.0
1763318381642,3.0
1763318381643,1.0
1763318381644,2.0
1763318381645,6.0
1763318381646,0.0
1763318381647,1.0
1763318381648,1.0
1763318381649,12.0
1763318381650,0.0
1763318381651,0.0
1763318381652,9.0
1763318381653,1.0
1763318381654,7.0
1763318381655,10.0
1763318381656,0.0
1763318381657,0.0
1763318381658,16.0
1763318381659,0.0
1763318381660,0.0
1763318381661,0.0
1763318381662,0.0
1763318381663,6.0
1763318381664,11.0
1763318381665,5.0
1763318381666,7.0
1763318381667,3.0
1763318381668,10.0
1763318381669,1.0
1763318381670,0.0
1763318381671,0.0
1763318381672,6.0
1763318381673,0.0
1763318381674,0.0
1763318381675,0.0
1763318381676,0.0
1763318381677,4.0
1763318381678,0.0
1763318381679,10.0
1763318381680,1.0
1763318381681,7.0
1763318381682,3.0
1763318381683,16.0
1763318381684,8.0
1763318381685,0.0
1763318381686,5.0
1763318381687,0.0
1763318381688,11.0
1763318381689,6.0
1763318381690,3.0
1763318381691,0.0
1763318381692,0.0
1763318381693,0.0
1763318381694,0.0
1763318381695,0.0
1763318381696,1.0
1763318381697,12.0
1763318381698,12.0
1763318381699,0.0
1763318381700,0.0
1763318381701,6.0
1763318381702,0.0
1763318381703,0.0
1763318381704,0.0
1763318381705,6.0
1763318381706,0.0
1763318381707,0.0
1763318381708,4.0
1763318381709,0.0
1763318381710,0.0
1763318381711,0.0
1763318381712,16.0
1763318381713,8.0
1763318381714,8.0
1763318381715,0.0
1763318381716,4.0
1763318381717,4.0
1763318381718,0.0
1763318381719,0.0
1763318381720,6.0
1763318381721,1.0
1763318381722,2.0
1763318381723,2.0
1763318381724,11.0
1763318381725,0.0
1763318381726,0.0
1763318381727,0.0
1763318381728,5.0
1763318381729,4.0
1763318381730,10.0
1763318381731,5.0
1763318381732,6.0
1763318381733,13.0
1763318381734,0.0
1763318381735,7.0
1763318381736,9.0
1763318381737,10.0
1763318381738,0.0
1763318381739,2.0
1763318381740,0.0
1763318381741,0.0
1763318381742,8.0
1763318381743,0.0
1763318381744,8.0
1763318381745,0.0
1763318381746,5.0
1763318381747,0.0
1763318381748,0.0
1763318381749,5.0
1763318381750,9.0
1763318381751,0.0
1763318381752,10.0
1763318381753,0.0
1763318381754,0.0
1763318381755,6.0
1763318381756,11.0
1763318381757,4.0
1763318381758,11.0
1763318381759,11.0
1763318381760,0.0
1763318381761,0.0
1763318381762,9.0
1763318381763,3.0
1763318381764,0.0
1763318381765,0.0
1763318381766,2.0
1763318381767,0.0
1763318381768,0.0
1763318381769,0.0
1763318381770,0.0
1763318381771,0.0
1763318381772,5.0
1763318381773,4.0
1763318381774,6.0
1763318381775,0.0
1763318381776,7.0
1763318381777,0.0
1763318381778,0.0
1763318381779,1.0
1763318381780,2.0
1763318381781,0.0
1763318381782,0.0
1763318381783,0.0
1763318381784,2.0
1763318381785,14.0
1763318381786,2.0
1763318381787,2.0
1763318381788,7.0
1763318381789,0.0
1763318381790,2.0
1763318381791,0.0
1763318381792,0.0
1763318381793,1.0
1763318381794,5.0
1763318381795,12.0
1763318381796,4.0
1763318381797,0.0
1763318381798,0.0
1763318381799,7.0
1763318381800,0.0
1763318381801,5.0
1763318381802,10.0
1763318381803,0.0
1763318381804,0.0
1763318381805,0.0
1763318381806,0.0
1763318381807,4.0
1763318381808,20.0
1763318381809,0.0
1763318381810,1.0
1763318381811,0.0
1763318381812,1.0
1763318381813,0.0
1763318381814,4.0
1763318381815,0.0
1763318381816,0.0
1763318381817,13.0
1763318381818,6.0
1763318381819,5.0
1763318381820,3.0
1763318381821,8.0
1763318381822,0.0
1763318381823,0.0
1763318381824,12.0
1763318381825,0.0
1763318381826,2.0
1763318381827,2.0
1763318381828,5.0
1763318381829,0.0
1763318381830,0.0
1763318381831,0.0
1763318381832,6.0
1763318381833,3.0
1763318381834,6.0
1763318381835,2.0
1763318381836,0.0
1763318381837,0.0
1763318381838,15.0
1763318381839,5.0
1763318381840,11.0
1763318381841,14.0
1763318381842,0.0
1763318381843,0.0
1763318381844,0.0
1763318381845,0.0
1763318381846,0.0
1763318381847,16.0
1763318381848,1.0
1763318381849,5.0
1763318381850,1.0
1763318381851,5.0
1763318381852,14.0
1763318381853,13.0
1763318381854,16.0
1763318381855,0.0
1763318381856,11.0
1763318381857,0.0
1763318381858,3.0
1763318381859,1.0
1763318381860,0.0
1763318381861,0.0
1763318381862,11.0
1763318381863,11.0
1763318381864,12.0
1763318381865,12.0
1763318381866,8.0
1763318381867,0.0
1763318381868,15.0
1763318381869,1.0
1763318381870,4.0
1763318381871,0.0
1763318381872,0.0
1763318381873,5.0
1763318381874,2.0
1763318381875,7.0
1763318381876,6.0
1763318381877,7.0
1763318381878,0.0
1763318381879,10.0
1763318381880,0.0
1763318381881,0.0
1763318381882,4.0
1763318381883,3.0
1763318381884,0.0
1763318381885,9.0
1763318381886,14.0
1763318381887,5.0
1763318381888,0.0
1763318381889,0.0
1763318381890,4.0
1763318381891,0.0
1763318381892,4.0
1763318381893,14.0
1763318381894,7.0
1763318381895,2.0
1763318381896,0.0
1763318381897,6.0
1763318381898,16.0
1763318381899,7.0
1763318381900,0.0
1763318381901,0.0
1763318381902,0.0
1763318381903,0.0
1763318381904,11.0
1763318381905,7.0
1763318381906,4.0
1763318381907,1.0
1763318381908,5.0
1763318381909,0.0
1763318381910,0.0
1763318381911,0.0
1763318381912,0.0
1763318381913,5.0
1763318381914,0.0
1763318381915,0.0
1763318381916,0.0
1763318381917,5.0
1763318381918,0.0
1763318381919,0.0
1763318381920,6.0
1763318381921,4.0
1763318381922,0.0
1763318381923,0.0
1763318381924,0.0
1763318381925,0.0
1763318381926,0.0
1763318381927,6.0
1763318381928,3.0
1763318381929,11.0
1763318381930,0.0
1763318381931,18.0
1763318381932,1.0
1763318381933,2.0
1763318381934,15.0
1763318381935,0.0
1763318381936,0.0
1763318381937,3.0
1763318381938,10.0
1763318381939,0.0
1763318381940,0.0
1763318381941,26.0
1763318381942,1.0
1763318381943,0.0
1763318381944,5.0
1763318381945,0.0
1763318381946,0.0
1763318381947,7.0
1763318381948,0.0
1763318381949,0.0
1763318381950,0.0
1763318381951,0.0
1763318381952,0.0
1763318381953,0.0
1763318381954,5.0
1763318381955,0.0
1763318381956,0.0
1763318381957,1.0
1763318381958,8.0
1763318381959,4.0
1763318381960,3.0
1763318381961,2.0
1763318381962,3.0
1763318381963,6.0
1763318381964,4.0
1763318381965,0.0
1763318381966,10.0
1763318381967,0.0
1763318381968,0.0
1763318381969,0.0
1763318381970,0.0
1763318381971,0.0
1763318381972,4.0
1763318381973,14.0
1763318381974,0.0
1763318381975,7.0
1763318381976,6.0
1763318381977,0.0
1763318381978,3.0
1763318381979,0.0
1763318381980,2.0
1763318381981,1.0
1763318381982,0.0
1763318381983,0.0
1763318381984,4.0
1763318381985,0.0
1763318381986,0.0
1763318381987,0.0
1763318381988,5.0
1763318381989,4.0
1763318381990,5.0
1763318381991,1.0
1763318381992,0.0
1763318381993,2.0
1763318381994,0.0
1763318381995,9.0
1763318381996,3.0
1763318381997,11.0
1763318381998,6.0
1763318381999,10.0
1763318382000,7.0
1763318382001,6.0
1763318382002,0.0
1763318382003,0.0
1763318382004,0.0
1763318382005,0.0
1763318382006,12.0
1763318382007,5.0
1763318382008,1.0
1763318382009,3.0
1763318382010,0.0
1763318382011,0.0
1763318382012,11.0
1763318382013,0.0
1763318382014,10.0
1763318382015,0.0
1763318382016,9.0
1763318382017,5.0
1763318382018,6.0
1763318382019,0.0
1763318382020,9.0
1763318382021,4.0
1763318382022,0.0
1763318382023,6.0
1763318382024,6.0
1763318382025,0.0
1763318382026,0.0
1763318382027,0.0
1763318382028,6.0
1763318382029,5.0
1763318382030,3.0
1763318382031,4.0
1763318382032,0.0
1763318382033,3.0
1763318382034,3.0
1763318382035,5.0
1763318382036,0.0
1763318382037,0.0
1763318382038,0.0
1763318382039,0.0
1763318382040,2.0
1763318382041,0.0
1763318382042,3.0
1763318382043,0.0
1763318382044,0.0
1763318382045,0.0
1763318382046,2.0
1763318382047,0.0
1763318382048,0.0
1763318382049,0.0
1763318382050,9.0
1763318382051,7.0
1763318382052,0.0
1763318382053,0.0
1763318382054,3.0
1763318382055,0.0
1763318382056,1.0
1763318382057,0.0
1763318382058,0.0
1763318382059,10.0
1763318382060,6.0
1763318382061,0.0
1763318382062,9.0
1763318382063,0.0
1763318382064,4.0
1763318382065,1.0
1763318382066,0.0
1763318382067,5.0
1763318382068,0.0
1763318382069,0.0
1763318382070,0.0
1763318382071,4.0
1763318382072,1.0
1763318382073,5.0
1763318382074,0.0
1763318382075,0.0
1763318382076,16.0
1763318382077,0.0
1763318382078,18.0
1763318382079,5.0
1763318382080,0.0
1763318382081,0.0
1763318382082,0.0
1763318382083,0.0
1763318382084,5.0
1763318382085,1.0
1763318382086,2.0
1763318382087,5.0
1763318382088,0.0
1763318382089,0.0
1763318382090,0.0
1763318382091,0.0
1763318382092,0.0
1763318382093,0.0
1763318382094,0.0
1763318382095,7.0
1763318382096,10.0
1763318382097,0.0
1763318382098,0.0
1763318382099,3.0
1763318382100,3.0
1763318382101,10.0
1763318382102,0.0
1763318382103,0.0
1763318382104,0.0
1763318382105,2.0
1763318382106,5.0
1763318382107,1.0
1763318382108,2.0
1763318382109,5.0
1763318382110,5.0
1763318382111,0.0
1763318382112,2.0
1763318382113,5.0
1763318382114,5.0
1763318382115,1.0
1763318382116,0.0
1763318413699,5.0
1763318413700,16.0
1763318413701,0.0
1763318413702,5.0
1763318413703,2.0
1763318413704,0.0
1763318413705,2.0
1763318413706,0.0
1763318413707,0.0
1763318413708,5.0
1763318413709,0.0
1763318413710,3.0
1763318413711,1.0
1763318413712,6.0
1763318413713,1.0
1763318413714,0.0
1763318413715,0.0
1763318413716,0.0
1763318413717,0.0
1763318413718,1.0
1763318413719,8.0
1763318413720,0.0
1763318413721,0.0
1763318413722,0.0
1763318413723,0.0
1763318413724,0.0
1763318413725,6.0
1763318413726,0.0
1763318413727,0.0
1763318413728,0.0
1763318413729,0.0
1763318413730,0.0
1763318413731,0.0
1763318413732,5.0
1763318413733,7.0
1763318413734,2.0
1763318413735,1.0
1763318413736,0.0
1763318413737,4.0
1763318413738,2.0
1763318413739,5.0
1763318413740,11.0
1763318413741,0.0
1763318413742,1.0
1763318413743,0.0
1763318413744,6.0
1763318413745,0.0
1763318413746,0.0
1763318413747,0.0
1763318413748,2.0
1763318413749,0.0
1763318413750,6.0
1763318413751,6.0
1763318413752,0.0
1763318413753,5.0
1763318413754,6.0
1763318413755,6.0
1763318413756,7.0
1763318413757,0.0
1763318413758,0.0
1763318413759,6.0
1763318413760,8.0
1763318413761,1.0
1763318413762,11.0
1763318413763,6.0
1763318413764,0.0
1763318413765,0.0
1763318413766,0.0
1763318413767,0.0
1763318413768,0.0
1763318413769,7.0
1763318413770,14.0
1763318413771,5.0
1763318413772,5.0
1763318413773,0.0
1763318413774,10.0
1763318413775,3.0
1763318413776,5.0
1763318413777,2.0
1763318413778,0.0
1763318413779,0.0
1763318413780,9.0
1763318413781,0.0
1763318413782,0.0
1763318413783,0.0
1763318413784,5.0
1763318413785,0.0
1763318413786,20.0
1763318413787,0.0
1763318413788,0.0
1763318413789,9.0
1763318413790,4.0
1763318413791,1.0
1763318413792,8.0
1763318413793,0.0
1763318413794,0.0
1763318413795,9.0
1763318413796,5.0
1763318413797,5.0
1763318413798,0.0
1763318413799,0.0
1763318413800,7.0
1763318413801,0.0
1763318413802,0.0
1763318413803,0.0
1763318413804,6.0
1763318413805,10.0
1763318413806,0.0
1763318413807,0.0
1763318413808,0.0
1763318413809,7.0
1763318413810,0.0
1763318413811,12.0
1763318413812,16.0
1763318413813,16.0
1763318413814,0.0
1763318413815,0.0
1763318413816,14.0
1763318413817,0.0
1763318413818,0.0
1763318413819,0.0
1763318413820,0.0
1763318413821,1.0
1763318413822,16.0
1763318413823,0.0
1763318413824,0.0
1763318413825,1.0
1763318413826,0.0
1763318413827,0.0
1763318413828,5.0
1763318413829,0.0
1763318413830,15.0
1763318413831,0.0
1763318413832,5.0
1763318413833,3.0
1763318413834,0.0
1763318413835,10.0
1763318413836,0.0
1763318413837,3.0
1763318413838,3.0
1763318413839,1.0
1763318413840,3.0
1763318413841,4.0
1763318413842,5.0
1763318413843,4.0
1763318413844,1.0
1763318413845,2.0
1763318413846,4.0
1763318413847,10.0
1763318413848,1.0
1763318413849,0.0
1763318413850,0.0
1763318413851,8.0
1763318413852,10.0
1763318413853,2.0
1763318413854,10.0
1763318413855,0.0
1763318413856,2.0
1763318413857,3.0
1763318413858,0.0
1763318413859,0.0
1763318413860,4.0
1763318413861,17.0
1763318413862,10.0
1763318413863,0.0
1763318413864,1.0
1763318413865,1.0
1763318413866,1.0
1763318413867,3.0
1763318413868,0.0
1763318413869,3.0
1763318413870,0.0
1763318413871,0.0
1763318413872,0.0
1763318413873,15.0
1763318413874,0.0
1763318413875,0.0
1763318413876,0.0
1763318413877,3.0
1763318413878,0.0
1763318413879,0.0
1763318413880,7.0
1763318413881,5.0
1763318413882,6.0
1763318413883,0.0
1763318413884,0.0
1763318413885,5.0
1763318413886,1.0
1763318413887,9.0
1763318413888,0.0
1763318413889,0.0
1763318413890,8.0
1763318413891,0.0
1763318413892,0.0
1763318413893,5.0
1763318413894,5.0
1763318413895,6.0
1763318413896,3.0
1763318413897,6.0
1763318413898,0.0
1763318413899,0.0
1763318413900,3.0
1763318413901,0.0
1763318413902,1.0
1763318413903,1.0
1763318413904,5.0
1763318413905,0.0
1763318413906,11.0
1763318413907,1.0
1763318413908,0.0
1763318413909,6.0
1763318413910,5.0
1763318413911,6.0
1763318413912,0.0
1763318413913,0.0
1763318413914,1.0
1763318413915,0.0
1763318413916,0.0
1763318413917,0.0
1763318413918,0.0
1763318413919,5.0
1763318413920,5.0
1763318413921,4.0
1763318413922,1.0
1763318413923,4.0
1763318413924,0.0
1763318413925,2.0
1763318413926,4.0
1763318413927,6.0
1763318413928,1.0
1763318413929,9.0
1763318413930,11.0
1763318413931,6.0
1763318413932,16.0
1763318413933,10.0
1763318413934,5.0
1763318413935,1.0
1763318413936,0.0
1763318413937,4.0
1763318413938,11.0
1763318413939,2.0
1763318413940,4.0
1763318413941,0.0
1763318413942,2.0
1763318413943,0.0
1763318413944,0.0
1763318413945,0.0
1763318413946,8.0
1763318413947,4.0
1763318413948,3.0
1763318413949,14.0
1763318413950,0.0
1763318413951,9.0
1763318413952,0.0
1763318413953,3.0
1763318413954,0.0
1763318413955,13.0
1763318413956,0.0
1763318413957,2.0
1763318413958,0.0
1763318413959,3.0
1763318413960,0.0
1763318413961,0.0
1763318413962,0.0
1763318413963,0.0
1763318413964,15.0
1763318413965,0.0
1763318413966,2.0
1763318413967,0.0
1763318413968,7.0
1763318413969,0.0
1763318413970,8.0
1763318413971,0.0
1763318413972,0.0
1763318413973,0.0
1763318413974,0.0
1763318413975,0.0
1763318413976,5.0
1763318413977,0.0
1763318413978,0.0
1763318413979,0.0
1763318413980,0.0
1763318413981,3.0
1763318413982,0.0
1763318413983,4.0
1763318413984,0.0
1763318413985,4.0
1763318413986,0.0
1763318413987,0.0
1763318413988,2.0
1763318413989,3.0
1763318413990,5.0
1763318413991,0.0
1763318413992,7.0
1763318413993,0.0
1763318413994,0.0
1763318413995,0.0
1763318413996,0.0
1763318413997,0.0
1763318413998,3.0
1763318413999,0.0
1763318414000,1.0
1763318414001,1.0
1763318414002,0.0
1763318414003,18.0
1763318414004,15.0
1763318414005,2.0
1763318414006,0.0
1763318414007,9.0
1763318414008,0.0
1763318414009,1.0
1763318414010,8.0
1763318414011,1.0
1763318414012,9.0
1763318414013,1.0
1763318414014,0.0
1763318414015,0.0
1763318414016,6.0
1763318414017,3.0
1763318414018,8.0
1763318414019,6.0
1763318414020,0.0
1763318414021,11.0
1763318414022,0.0
1763318414023,0.0
1763318414024,0.0
1763318414025,2.0
1763318414026,0.0
1763318414027,3.0
1763318414028,4.0
1763318414029,0.0
1763318414030,0.0
1763318414031,0.0
1763318414032,0.0
1763318414033,0.0
1763318414034,7.0
1763318414035,10.0
1763318414036,0.0
1763318414037,7.0
1763318414038,1.0
1763318414039,3.0
1763318414040,2.0
1763318414041,8.0
1763318414042,0.0
1763318414043,7.0
1763318414044,8.0
1763318414045,2.0
1763318414046,2.0
1763318414047,0.0
1763318414048,6.0
1763318414049,6.0
1763318414050,3.0
1763318414051,7.0
1763318414052,0.0
1763318414053,0.0
1763318414054,9.0
1763318414055,0.0
1763318414056,1.0
1763318414057,0.0
1763318414058,8.0
1763318414059,1.0
1763318414060,0.0
1763318414061,0.0
1763318414062,0.0
1763318414063,0.0
1763318414064,0.0
1763318414065,4.0
1763318414066,0.0
1763318414067,0.0
1763318414068,0.0
1763318414069,0.0
1763318414070,0.0
1763318414071,5.0
1763318414072,0.0
1763318414073,0.0
1763318414074,0.0
1763318414075,10.0
1763318414076,1.0
1763318414077,0.0
1763318414078,9.0
1763318414079,2.0
1763318414080,6.0
1763318414081,0.0
1763318414082,2.0
1763318414083,0.0
1763318414084,0.0
1763318414085,5.0
1763318414086,10.0
1763318414087,0.0
1763318414088,0.0
1763318414089,9.0
1763318414090,0.0
1763318414091,5.0
1763318414092,1.0
1763318414093,13.0
1763318414094,0.0
1763318414095,0.0
1763318414096,0.0
1763318414097,14.0
1763318414098,0.0
1763318414099,0.0
1763318414100,0.0
1763318414101,6.0
1763318414102,4.0
1763318414103,0.0
1763318414104,0.0
1763318414105,0.0
1763318414106,5.0
1763318414107,1.0
1763318414108,0.0
1763318414109,1.0
1763318414110,0.0
1763318414111,7.0
1763318414112,3.0
1763318414113,5.0
1763318414114,0.0
1763318414115,0.0
1763318414116,1.0
1763318414117,0.0
1763318414118,1.0
1763318414119,1.0
1763318414120,9.0
1763318414121,11.0
1763318414122,0.0
1763318414123,0.0
1763318414124,2.0
1763318414125,0.0
1763318414126,3.0
1763318414127,1.0
1763318414128,5.0
1763318414129,0.0
1763318414130,2.0
1763318414131,2.0
1763318414132,2.0
1763318414133,3.0
1763318414134,0.0
1763318414135,0.0
1763318414136,0.0
1763318414137,2.0
1763318414138,0.0
1763318414139,4.0
1763318414140,0.0
1763318414141,0.0
1763318414142,2.0
1763318414143,7.0
1763318414144,0.0
1763318414145,0.0
1763318414146,14.0
1763318414147,0.0
1763318414148,6.0
1763318414149,0.0
1763318414150,0.0
1763318414151,1.0
1763318414152,11.0
1763318414153,5.0
1763318414154,0.0
1763318414155,0.0
1763318414156,0.0
1763318414157,0.0
1763318414158,0.0
1763318414159,0.0
1763318414160,1.0
1763318414161,3.0
1763318414162,6.0
1763318414163,1.0
1763318414164,3.0
1763318414165,0.0
1763318414166,0.0
1763318414167,16.0
1763318414168,3.0
1763318414169,5.0
1763318414170,0.0
1763318414171,15.0
1763318414172,10.0
1763318414173,0.0
1763318414174,2.0
1763318414175,0.0
1763318414176,6.0
1763318414177,1.0
1763318414178,1.0
1763318414179,0.0
1763318414180,3.0
1763318414181,0.0
1763318414182,1.0
1763318414183,6.0
1763318414184,0.0
1763318414185,0.0
1763318414186,3.0
1763318414187,2.0
1763318414188,0.0
1763318414189,5.0
1763318414190,5.0
1763318414191,7.0
1763318414192,0.0
1763318414193,3.0
1763318414194,6.0
1763318414195,0.0
1763318414196,8.0
1763318414197,3.0
1763318414198,0.0
1763318414199,6.0
1763318414200,13.0
1763318414201,0.0
1763318414202,0.0
1763318414203,0.0
1763318414204,2.0
1763318414205,0.0
1763318414206,6.0
1763318414207,0.0
1763318414208,5.0
1763318414209,0.0
1763318414210,15.0
1763318414211,13.0
1763318414212,16.0
1763318414213,0.0
1763318414214,0.0
1763318414215,2.0
1763318414216,0.0
1763318414217,3.0
1763318414218,9.0
1763318414219,6.0
1763318414220,0.0
1763318414221,0.0
1763318414222,16.0
1763318414223,1.0
1763318414224,0.0
1763318414225,5.0
1763318414226,0.0
1763318414227,0.0
1763318414228,11.0
1763318414229,9.0
1763318414230,6.0
1763318414231,1.0
1763318414232,0.0
1763318414233,0.0
1763318414234,2.0
1763318414235,7.0
1763318414236,0.0
1763318414237,12.0
1763318414238,5.0
1763318414239,0.0
1763318414240,0.0
1763318414241,11.0
1763318414242,6.0
1763318414243,11.0
1763318414244,0.0
1763318414245,6.0
1763318414246,6.0
1763318414247,0.0
1763318414248,0.0
1763318414249,0.0
1763318414250,0.0
1763318414251,0.0
1763318414252,7.0
1763318414253,8.0
1763318414254,4.0
1763318414255,3.0
1763318414256,10.0
1763318414257,6.0
1763318414258,0.0
1763318414259,4.0
1763318414260,0.0
1763318414261,11.0
1763318414262,0.0
1763318414263,0.0
1763318414264,0.0
1763318414265,2.0
1763318414266,9.0
1763318414267,5.0
1763318414268,0.0
1763318414269,5.0
1763318414270,0.0
1763318414271,2.0
1763318414272,7.0
1763318414273,0.0
1763318414274,0.0
1763318414275,0.0
1763318414276,0.0
1763318414277,3.0
1763318414278,2.0
1763318414279,10.0
1763318414280,8.0
1763318414281,0.0
1763318414282,0.0
1763318414283,9.0
1763318414284,0.0
1763318414285,2.0
1763318414286,6.0
1763318414287,0.0
1763318414288,3.0
1763318414289,0.0
1763318414290,4.0
1763318414291,6.0
1763318414292,3.0
1763318414293,16.0
1763318414294,0.0
1763318414295,0.0
1763318414296,3.0
1763318414297,11.0
1763318414298,0.0
1763318414299,4.0
1763318414300,0.0
1763318414301,0.0
1763318414302,3.0
1763318414303,0.0
1763318414304,0.0
1763318414305,11.0
1763318414306,2.0
1763318414307,6.0
1763318414308,9.0
1763318414309,2.0
1763318414310,1.0
1763318414311,0.0
1763318414312,5.0
1763318414313,5.0
1763318414314,11.0
1763318414315,10.0
1763318414316,0.0
1763318414317,0.0
1763318414318,5.0
1763318414319,2.0
1763318414320,0.0
1763318414321,0.0
1763318414322,0.0
1763318414323,8.0
1763318414324,0.0
1763318414325,2.0
1763318414326,10.0
1763318414327,0.0
1763318414328,9.0
1763318414329,0.0
1763318414330,10.0
1763318414331,0.0
1763318414332,11.0
1763318414333,0.0
1763318414334,5.0
1763318414335,9.0
1763318414336,0.0
1763318414337,3.0
1763318414338,2.0
1763318414339,0.0
1763318414340,0.0
1763318414341,3.0
1763318414342,0.0
1763318414343,0.0
1763318414344,7.0
1763318414345,2.0
1763318414346,0.0
1763318414347,0.0
1763318414348,0.0
1763318414349,0.0
1763318414350,1.0
1763318414351,1.0
1763318414352,12.0
1763318414353,3.0
1763318414354,3.0
1763318414355,8.0
1763318414356,5.0
1763318414357,7.0
1763318414358,0.0
1763318414359,0.0
1763318414360,6.0
1763318414361,0.0
1763318414362,7.0
1763318414363,2.0
1763318414364,0.0
1763318414365,0.0
1763318414366,3.0
1763318414367,0.0
1763318414368,2.0
1763318414369,0.0
1763318414370,6.0
1763318414371,2.0
1763318414372,0.0
1763318414373,0.0
1763318414374,1.0
1763318414375,0.0
1763318414376,9.0
1763318414377,3.0
1763318414378,2.0
1763318414379,1.0
1763318414380,0.0
1763318414381,9.0
1763318414382,2.0
1763318414383,1.0
1763318414384,0.0
1763318414385,0.0
1763318414386,9.0
1763318414387,10.0
1763318414388,0.0
1763318414389,1.0
1763318414390,1.0
1763318414391,0.0
1763318414392,4.0
1763318414393,5.0
1763318414394,2.0
1763318414395,6.0
1763318414396,3.0
1763318414397,5.0
1763318414398,0.0
1763318414399,2.0
1763318414400,8.0
1763318414401,0.0
1763318414402,7.0
1763318414403,2.0
1763318414404,1.0
1763318414405,4.0
1763318414406,0.0
1763318414407,1.0
1763318414408,10.0
1763318414409,0.0
1763318414410,0.0
1763318414411,3.0
1763318414412,6.0
1763318414413,0.0
1763318414414,9.0
1763318414415,8.0
1763318414416,0.0
1763318414417,8.0
1763318414418,0.0
1763318414419,2.0
1763318414420,11.0
1763318414421,1.0
1763318414422,2.0
1763318414423,1.0
1763318414424,6.0
1763318414425,6.0
1763318414426,1.0
1763318414427,1.0
1763318414428,0.0
1763318414429,0.0
1763318414430,0.0
1763318414431,4.0
1763318414432,0.0
1763318414433,11.0
1763318414434,2.0
1763318414435,6.0
1763318414436,6.0
1763318414437,7.0
1763318414438,5.0
1763318414439,1.0
1763318414440,0.0
1763318414441,0.0
1763318414442,5.0
1763318414443,0.0
1763318414444,0.0
1763318414445,5.0
1763318414446,0.0
1763318414447,9.0
1763318414448,15.0
1763318414449,3.0
1763318414450,3.0
1763318414451,4.0
1763318414452,6.0
1763318414453,3.0
1763318414454,6.0
1763318414455,0.0
1763318414456,6.0
1763318414457,6.0
1763318414458,6.0
1763318414459,7.0
1763318414460,3.0
1763318414461,0.0
1763318414462,3.0
1763318414463,10.0
1763318414464,0.0
1763318414465,11.0
1763318414466,11.0
1763318414467,0.0
1763318414468,10.0
1763318414469,12.0
1763318414470,8.0
1763318414471,6.0
1763318414472,0.0
1763318414473,0.0
1763318414474,0.0
1763318414475,0.0
1763318414476,6.0
1763318414477,5.0
1763318414478,3.0
1763318414479,8.0
1763318414480,3.0
1763318414481,0.0
1763318414482,0.0
1763318414483,0.0
1763318414484,1.0
1763318414485,3.0
1763318414486,0.0
1763318414487,11.0
1763318414488,4.0
1763318414489,0.0
1763318414490,0.0
1763318414491,5.0
1763318414492,3.0
1763318414493,0.0
1763318414494,0.0
1763318414495,0.0
1763318414496,7.0
1763318414497,2.0
1763318414498,1.0
1763318414499,0.0
1763318414500,2.0
1763318414501,15.0
1763318414502,4.0
1763318414503,0.0
1763318414504,0.0
1763318414505,1.0
1763318414506,2.0
1763318414507,10.0
1763318414508,0.0
1763318414509,0.0
1763318414510,1.0
1763318414511,6.0
1763318414512,1.0
1763318414513,1.0
1763318414514,11.0
1763318414515,7.0
1763318414516,0.0
1763318414517,0.0
1763318414518,2.0
1763318414519,9.0
1763318414520,6.0
1763318414521,0.0
1763318414522,0.0
1763318414523,4.0
1763318414524,2.0
1763318414525,7.0
1763318414526,3.0
1763318414527,1.0
1763318414528,0.0
1763318414529,0.0
1763318414530,0.0
1763318414531,1.0
1763318414532,13.0
1763318414533,11.0
1763318414534,0.0
1763318414535,0.0
1763318414536,0.0
1763318414537,10.0
1763318414538,1.0
1763318414539,13.0
1763318414540,1.0
1763318414541,10.0
1763318414542,0.0
1763318414543,12.0
1763318414544,5.0
1763318414545,0.0
1763318414546,0.0
1763318414547,16.0
1763318414548,2.0
1763318414549,1.0
1763318414550,6.0
1763318414551,0.0
1763318414552,1.0
1763318414553,0.0
1763318414554,0.0
1763318414555,2.0
1763318414556,0.0
1763318414557,11.0
1763318414558,6.0
1763318414559,9.0
1763318414560,6.0
1763318414561,0.0
1763318414562,0.0
1763318414563,7.0
1763318414564,0.0
1763318414565,7.0
1763318414566,0.0
1763318414567,3.0
1763318414568,2.0
1763318414569,0.0
1763318414570,10.0
1763318414571,0.0
1763318414572,7.0
1763318414573,0.0
1763318414574,0.0
1763318414575,2.0
1763318414576,6.0
1763318414577,16.0
1763318414578,4.0
1763318414579,0.0
1763318414580,1.0
1763318414581,3.0
1763318414582,0.0
1763318414583,11.0
1763318414584,10.0
1763318414585,0.0
1763318414586,11.0
1763318414587,11.0
1763318414588,3.0
1763318414589,0.0
1763318414590,6.0
1763318414591,5.0
1763318414592,5.0
1763318414593,10.0
1763318414594,13.0
1763318414595,5.0
1763318414596,0.0
1763318414597,0.0
1763318414598,0.0
1763318414599,5.0
1763318414600,4.0
1763318414601,4.0
1763318414602,1.0
1763318414603,0.0
1763318414604,2.0
1763318414605,4.0
1763318414606,0.0
1763318414607,7.0
1763318414608,10.0
1763318414609,9.0
1763318414610,1.0
1763318414611,0.0
1763318414612,1.0
1763318414613,0.0
1763318414614,0.0
1763318414615,0.0
1763318414616,6.0
1763318414617,0.0
1763318414618,4.0
1763318414619,3.0
1763318414620,10.0
1763318414621,9.0
1763318414622,0.0
1763318414623,0.0
1763318414624,0.0
1763318414625,0.0
1763318414626,0.0
1763318414627,0.0
1763318414628,0.0
1763318414629,0.0
1763318414630,0.0
1763318414631,6.0
1763318414632,0.0
1763318414633,4.0
1763318414634,14.0
1763318414635,0.0
1763318414636,4.0
1763318414637,0.0
1763318414638,0.0
1763318414639,3.0
1763318414640,0.0
1763318414641,9.0
1763318414642,0.0
1763318414643,0.0
1763318414644,10.0
1763318414645,11.0
1763318414646,0.0
1763318414647,0.0
1763318414648,0.0
1763318414649,10.0
1763318414650,0.0
1763318414651,1.0
1763318414652,0.0
1763318414653,11.0
1763318414654,1.0
1763318414655,0.0
1763318414656,9.0
1763318414657,10.0
1763318414658,1.0
1763318414659,1.0
1763318414660,1.0
1763318414661,10.0
1763318414662,8.0
1763318414663,5.0
1763318414664,2.0
1763318414665,0.0
1763318414666,0.0
1763318414667,11.0
1763318414668,10.0
1763318414669,0.0
1763318414670,0.0
1763318414671,7.0
1763318414672,0.0
1763318414673,6.0
1763318414674,5.0
1763318414675,1.0
1763318414676,1.0
1763318414677,0.0
1763318414678,0.0
1763318414679,0.0
1763318414680,2.0
1763318414681,0.0
1763318414682,7.0
1763318414683,0.0
1763318414684,15.0
1763318414685,0.0
1763318414686,5.0
1763318414687,0.0
1763318414688,2.0
1763318414689,0.0
1763318414690,8.0
1763318414691,0.0
1763318414692,0.0
1763318414693,0.0
1763318414694,1.0
1763318414695,2.0
1763318414696,0.0
1763318414697,3.0
1763318414698,0.0
1763318414699,4.0
1763318414700,0.0
1763318414701,0.0
1763318414702,9.0
1763318414703,0.0
1763318414704,3.0
1763318414705,9.0
1763318414706,0.0
1763318414707,7.0
1763318414708,3.0
1763318414709,15.0
1763318414710,0.0
1763318414711,3.0
1763318414712,1.0
1763318414713,9.0
1763318414714,0.0
1763318414715,2.0
1763318414716,1.0
1763318414717,0.0
1763318414718,5.0
1763318414719,13.0
1763318414720,13.0
1763318414721,0.0
1763318414722,0.0
1763318414723,0.0
1763318414724,0.0
1763318414725,16.0
1763318414726,0.0
1763318414727,1.0
1763318414728,0.0
1763318414729,0.0
1763318414730,0.0
1763318414731,0.0
1763318414732,0.0
1763318414733,2.0
1763318414734,9.0
1763318414735,1.0
1763318414736,0.0
1763318414737,0.0
1763318414738,7.0
1763318414739,2.0
1763318414740,0.0
1763318414741,7.0
1763318414742,0.0
1763318414743,8.0
1763318414744,0.0
1763318414745,0.0
1763318414746,10.0
1763318414747,2.0
1763318414748,0.0
1763318414749,5.0
1763318414750,0.0
1763318414751,0.0
1763318414752,0.0
1763318414753,0.0
1763318414754,0.0
1763318414755,0.0
1763318414756,6.0
1763318414757,6.0
1763318414758,6.0
1763318414759,0.0
1763318414760,0.0
1763318414761,1.0
1763318414762,0.0
1763318414763,6.0
1763318414764,3.0
1763318414765,3.0
1763318414766,3.0
1763318414767,3.0
1763318414768,0.0
1763318414769,1.0
1763318414770,1.0
1763318414771,6.0
1763318414772,10.0
1763318414773,5.0
1763318414774,1.0
1763318414775,1.0
1763318414776,2.0
1763318414777,0.0
1763318414778,2.0
1763318414779,0.0
1763318414780,0.0
1763318414781,2.0
1763318414782,0.0
1763318414783,4.0
1763318414784,3.0
1763318414785,0.0
1763318414786,4.0
1763318414787,3.0
1763318414788,2.0
1763318414789,0.0
1763318414790,0.0
1763318414791,0.0
1763318414792,1.0
1763318414793,16.0
1763318414794,1.0
1763318414795,9.0
1763318414796,0.0
1763318414797,11.0
1763318414798,0.0
1763318414799,0.0
1763318414800,10.0
1763318414801,2.0
1763318414802,7.0
1763318414803,6.0
1763318414804,0.0
1763318414805,0.0
1763318414806,0.0
1763318414807,0.0
1763318414808,7.0
1763318414809,3.0
1763318414810,7.0
1763318414811,0.0
1763318414812,0.0
1763318414813,2.0
1763318414814,10.0
1763318414815,6.0
1763318414816,6.0
1763318414817,0.0
1763318414818,2.0
1763318414819,0.0
1763318414820,3.0
1763318414821,0.0
1763318414822,9.0
1763318414823,0.0
1763318414824,3.0
1763318414825,1.0
1763318414826,2.0
1763318414827,6.0
1763318414828,0.0
1763318414829,1.0
1763318414830,1.0
1763318414831,12.0
1763318414832,0.0
1763318414833,0.0
1763318414834,9.0
1763318414835,1.0
1763318414836,7.0
1763318414837,10.0
1763318414838,0.0
1763318414839,0.0
1763318414840,16.0
1763318414841,0.0
1763318414842,0.0
1763318414843,0.0
1763318414844,0.0
1763318414845,6.0
1763318414846,11.0
1763318414847,5.0
1763318414848,7.0
1763318414849,3.0
1763318414850,10.0
1763318414851,1.0
1763318414852,0.0
1763318414853,0.0
1763318414854,6.0
1763318414855,0.0
1763318414856,0.0
1763318414857,0.0
1763318414858,0.0
1763318414859,4.0
1763318414860,0.0
1763318414861,10.0
1763318414862,1.0
1763318414863,7.0
1763318414864,3.0
1763318414865,16.0
1763318414866,8.0
1763318414867,0.0
1763318414868,5.0
1763318414869,0.0
1763318414870,11.0
1763318414871,6.0
1763318414872,3.0
1763318414873,0.0
1763318414874,0.0
1763318414875,0.0
1763318414876,0.0
1763318414877,0.0
1763318414878,1.0
1763318414879,12.0
1763318414880,12.0
1763318414881,0.0
1763318414882,0.0
1763318414883,6.0
1763318414884,0.0
1763318414885,0.0
1763318414886,0.0
1763318414887,6.0
1763318414888,0.0
1763318414889,0.0
1763318414890,4.0
1763318414891,0.0
1763318414892,0.0
1763318414893,0.0
1763318414894,16.0
1763318414895,8.0
1763318414896,8.0
1763318414897,0.0
1763318414898,4.0
1763318414899,4.0
1763318414900,0.0
1763318414901,0.0
1763318414902,6.0
1763318414903,1.0
1763318414904,2.0
1763318414905,2.0
1763318414906,11.0
1763318414907,0.0
1763318414908,0.0
1763318414909,0.0
1763318414910,5.0
1763318414911,4.0
1763318414912,10.0
1763318414913,5.0
1763318414914,6.0
1763318414915,13.0
1763318414916,0.0
1763318414917,7.0
1763318414918,9.0
1763318414919,10.0
1763318414920,0.0
1763318414921,2.0
1763318414922,0.0
1763318414923,0.0
1763318414924,8.0
1763318414925,0.0
1763318414926,8.0
1763318414927,0.0
1763318414928,5.0
1763318414929,0.0
1763318414930,0.0
1763318414931,5.0
1763318414932,9.0
1763318414933,0.0
1763318414934,10.0
1763318414935,0.0
1763318414936,0.0
1763318414937,6.0
1763318414938,11.0
1763318414939,4.0
1763318414940,11.0
1763318414941,11.0
1763318414942,0.0
1763318414943,0.0
1763318414944,9.0
1763318414945,3.0
1763318414946,0.0
1763318414947,0.0
1763318414948,2.0
1763318414949,0.0
1763318414950,0.0
1763318414951,0.0
1763318414952,0.0
1763318414953,0.0
1763318414954,5.0
1763318414955,4.0
1763318414956,6.0
1763318414957,0.0
1763318414958,7.0
1763318414959,0.0
1763318414960,0.0
1763318414961,1.0
1763318414962,2.0
1763318414963,0.0
1763318414964,0.0
1763318414965,0.0
1763318414966,2.0
1763318414967,14.0
1763318414968,2.0
1763318414969,2.0
1763318414970,7.0
1763318414971,0.0
1763318414972,2.0
1763318414973,0.0
1763318414974,0.0
1763318414975,1.0
1763318414976,5.0
1763318414977,12.0
1763318414978,4.0
1763318414979,0.0
1763318414980,0.0
1763318414981,7.0
1763318414982,0.0
1763318414983,5.0
1763318414984,10.0
1763318414985,0.0
1763318414986,0.0
1763318414987,0.0
1763318414988,0.0
1763318414989,4.0
1763318414990,20.0
1763318414991,0.0
1763318414992,1.0
1763318414993,0.0
1763318414994,1.0
1763318414995,0.0
1763318414996,4.0
1763318414997,0.0
1763318414998,0.0
1763318414999,13.0
1763318415000,6.0
1763318415001,5.0
1763318415002,3.0
1763318415003,8.0
1763318415004,0.0
1763318415005,0.0
1763318415006,12.0
1763318415007,0.0
1763318415008,2.0
1763318415009,2.0
1763318415010,5.0
1763318415011,0.0
1763318415012,0.0
1763318415013,0.0
1763318415014,6.0
1763318415015,3.0
1763318415016,6.0
1763318415017,2.0
1763318415018,0.0
1763318415019,0.0
1763318415020,15.0
1763318415021,5.0
1763318415022,11.0
1763318415023,14.0
1763318415024,0.0
1763318415025,0.0
1763318415026,0.0
1763318415027,0.0
1763318415028,0.0
1763318415029,16.0
1763318415030,1.0
1763318415031,5.0
1763318415032,1.0
1763318415033,5.0
1763318415034,14.0
1763318415035,13.0
1763318415036,16.0
1763318415037,0.0
1763318415038,11.0
1763318415039,0.0
1763318415040,3.0
1763318415041,1.0
1763318415042,0.0
1763318415043,0.0
1763318415044,11.0
1763318415045,11.0
1763318415046,12.0
1763318415047,12.0
1763318415048,8.0
1763318415049,0.0
1763318415050,15.0
1763318415051,1.0
1763318415052,4.0
1763318415053,0.0
1763318415054,0.0
1763318415055,5.0
1763318415056,2.0
1763318415057,7.0
1763318415058,6.0
1763318415059,7.0
1763318415060,0.0
1763318415061,10.0
1763318415062,0.0
1763318415063,0.0
1763318415064,4.0
1763318415065,3.0
1763318415066,0.0
1763318415067,9.0
1763318415068,14.0
1763318415069,5.0
1763318415070,0.0
1763318415071,0.0
1763318415072,4.0
1763318415073,0.0
1763318415074,4.0
1763318415075,14.0
1763318415076,7.0
1763318415077,2.0
1763318415078,0.0
1763318415079,6.0
1763318415080,16.0
1763318415081,7.0
1763318415082,0.0
1763318415083,0.0
1763318415084,0.0
1763318415085,0.0
1763318415086,11.0
1763318415087,7.0
1763318415088,4.0
1763318415089,1.0
1763318415090,5.0
1763318415091,0.0
1763318415092,0.0
1763318415093,0.0
1763318415094,0.0
1763318415095,5.0
1763318415096,0.0
1763318415097,0.0
1763318415098,0.0
1763318415099,5.0
1763318415100,0.0
1763318415101,0.0
1763318415102,6.0
1763318415103,4.0
1763318415104,0.0
1763318415105,0.0
1763318415106,0.0
1763318415107,0.0
1763318415108,0.0
1763318415109,6.0
1763318415110,3.0
1763318415111,11.0
1763318415112,0.0
1763318415113,18.0
1763318415114,1.0
1763318415115,2.0
1763318415116,15.0
1763318415117,0.0
1763318415118,0.0
1763318415119,3.0
1763318415120,10.0
1763318415121,0.0
1763318415122,0.0
1763318415123,26.0
1763318415124,1.0
1763318415125,0.0
1763318415126,5.0
1763318415127,0.0
1763318415128,0.0
1763318415129,7.0
1763318415130,0.0
1763318415131,0.0
1763318415132,0.0
1763318415133,0.0
1763318415134,0.0
1763318415135,0.0
1763318415136,5.0
1763318415137,0.0
1763318415138,0.0
1763318415139,1.0
1763318415140,8.0
1763318415141,4.0
1763318415142,3.0
1763318415143,2.0
1763318415144,3.0
1763318415145,6.0
1763318415146,4.0
1763318415147,0.0
1763318415148,10.0
1763318415149,0.0
1763318415150,0.0
1763318415151,0.0
1763318415152,0.0
1763318415153,0.0
1763318415154,4.0
1763318415155,14.0
1763318415156,0.0
1763318415157,7.0
1763318415158,6.0
1763318415159,0.0
1763318415160,3.0
1763318415161,0.0
1763318415162,2.0
1763318415163,1.0
1763318415164,0.0
1763318415165,0.0
1763318415166,4.0
1763318415167,0.0
1763318415168,0.0
1763318415169,0.0
1763318415170,5.0
1763318415171,4.0
1763318415172,5.0
1763318415173,1.0
1763318415174,0.0
1763318415175,2.0
1763318415176,0.0
1763318415177,9.0
1763318415178,3.0
1763318415179,11.0
1763318415180,6.0
1763318415181,10.0
1763318415182,7.0
1763318415183,6.0
1763318415184,0.0
1763318415185,0.0
1763318415186,0.0
1763318415187,0.0
1763318415188,12.0
1763318415189,5.0
1763318415190,1.0
1763318415191,3.0
1763318415192,0.0
1763318415193,0.0
1763318415194,11.0
1763318415195,0.0
1763318415196,10.0
1763318415197,0.0
1763318415198,9.0
1763318415199,5.0
1763318415200,6.0
1763318415201,0.0
1763318415202,9.0
1763318415203,4.0
1763318415204,0.0
1763318415205,6.0
1763318415206,6.0
1763318415207,0.0
1763318415208,0.0
1763318415209,0.0
1763318415210,6.0
1763318415211,5.0
1763318415212,3.0
1763318415213,4.0
1763318415214,0.0
1763318415215,3.0
1763318415216,3.0
1763318415217,5.0
1763318415218,0.0
1763318415219,0.0
1763318415220,0.0
1763318415221,0.0
1763318415222,2.0
1763318415223,0.0
1763318415224,3.0
1763318415225,0.0
1763318415226,0.0
1763318415227,0.0
1763318415228,2.0
1763318415229,0.0
1763318415230,0.0
1763318415231,0.0
1763318415232,9.0
1763318415233,7.0
1763318415234,0.0
1763318415235,0.0
1763318415236,3.0
1763318415237,0.0
1763318415238,1.0
1763318415239,0.0
1763318415240,0.0
1763318415241,10.0
1763318415242,6.0
1763318415243,0.0
1763318415244,9.0
1763318415245,0.0
1763318415246,4.0
1763318415247,1.0
1763318415248,0.0
1763318415249,5.0
1763318415250,0.0
1763318415251,0.0
1763318415252,0.0
1763318415253,4.0
1763318415254,1.0
1763318415255,5.0
1763318415256,0.0
1763318415257,0.0
1763318415258,16.0
1763318415259,0.0
1763318415260,18.0
1763318415261,5.0
1763318415262,0.0
1763318415263,0.0
1763318415264,0.0
1763318415265,0.0
1763318415266,5.0
1763318415267,1.0
1763318415268,2.0
1763318415269,5.0
1763318415270,0.0
1763318415271,0.0
1763318415272,0.0
1763318415273,0.0
1763318415274,0.0
1763318415275,0.0
1763318415276,0.0
1763318415277,7.0
1763318415278,10.0
1763318415279,0.0
1763318415280,0.0
1763318415281,3.0
1763318415282,3.0
1763318415283,10.0
1763318415284,0.0
1763318415285,0.0
1763318415286,0.0
1763318415287,2.0
1763318415288,5.0
1763318415289,1.0
1763318415290,2.0
1763318415291,5.0
1763318415292,5.0
1763318415293,0.0
1763318415294,2.0
1763318415295,5.0
1763318415296,5.0
1763318415297,1.0
1763318415298,0.0
1763318421782,5.0
1763318421783,3.0
1763318421784,0.0
1763318421785,0.0
1763318421786,0.0
1763318421787,0.0
1763318421788,1.0
1763318421789,6.0
1763318421790,5.0
1763318421791,5.0
1763318421792,0.0
1763318421793,0.0
1763318421794,4.0
1763318421795,3.0
1763318421796,5.0
1763318421797,7.0
1763318421798,1.0
1763318421799,1.0
1763318421800,0.0
1763318421801,0.0
1763318421802,10.0
1763318421803,3.0
1763318421804,8.0
1763318421805,0.0
1763318421806,0.0
1763318421807,0.0
1763318421808,0.0
1763318421809,6.0
1763318421810,0.0
1763318421811,3.0
1763318421812,1.0
1763318421813,5.0
1763318421814,0.0
1763318421815,0.0
1763318421816,8.0
1763318421817,3.0
1763318421818,0.0
1763318421819,0.0
1763318421820,2.0
1763318421821,0.0
1763318421822,5.0
1763318421823,2.0
1763318421824,6.0
1763318421825,9.0
1763318421826,1.0
1763318421827,0.0
1763318421828,6.0
1763318421829,0.0
1763318421830,2.0
1763318421831,0.0
1763318421832,0.0
1763318421833,0.0
1763318421834,0.0
1763318421835,0.0
1763318421836,1.0
1763318421837,0.0
1763318421838,0.0
1763318421839,7.0
1763318421840,6.0
1763318421841,5.0
1763318421842,0.0
1763318421843,0.0
1763318421844,0.0
1763318421845,7.0
1763318421846,0.0
1763318421847,2.0
1763318421848,0.0
1763318421849,0.0
1763318421850,0.0
1763318421851,0.0
1763318421852,5.0
1763318421853,5.0
1763318421854,7.0
1763318421855,3.0
1763318421856,0.0
1763318421857,6.0
1763318421858,0.0
1763318421859,0.0
1763318421860,0.0
1763318421861,2.0
1763318421862,0.0
1763318421863,0.0
1763318421864,4.0
1763318421865,0.0
1763318421866,11.0
1763318421867,6.0
1763318421868,6.0
1763318421869,5.0
1763318421870,3.0
1763318421871,2.0
1763318421872,0.0
1763318421873,3.0
1763318421874,6.0
1763318421875,0.0
1763318421876,3.0
1763318421877,0.0
1763318421878,3.0
1763318421879,2.0
1763318421880,5.0
1763318421881,0.0
1763318421882,0.0
1763318421883,0.0
1763318421884,1.0
1763318421885,0.0
1763318421886,3.0
1763318421887,5.0
1763318421888,0.0
1763318421889,0.0
1763318421890,1.0
1763318421891,10.0
1763318421892,9.0
1763318421893,0.0
1763318421894,7.0
1763318421895,0.0
1763318421896,49.0
1763318421897,14.0
1763318421898,69.0
1763318421899,43.0
1763318421900,28.0
1763318421901,16.0
1763318421902,50.0
1763318421903,26.0
1763318421904,16.0
1763318421905,0.0
1763318421906,6.0
1763318421907,16.0
1763318421908,48.0
1763318421909,25.0
1763318421910,9.0
1763318421911,13.0
1763318421912,9.0
1763318421913,14.0
1763318421914,16.0
1763318421915,9.0
1763318421916,11.0
1763318421917,7.0
1763318421918,9.0
1763318421919,20.0
1763318421920,42.0
1763318421921,17.0
1763318421922,18.0
1763318421923,14.0
1763318421924,0.0
1763318421925,16.0
1763318421926,112.0
1763318421927,110.0
1763318421928,370.0
1763318421929,405.0
1763318421930,358.0
1763318421931,322.0
1763318421932,272.0
1763318421933,608.0
1763318421934,431.0
1763318421935,248.0
1763318421936,110.0
1763318421937,54.0
1763318421938,47.0
1763318421939,45.0
1763318421940,32.0
1763318421941,26.0
1763318421942,13.0
1763318421943,16.0
1763318421944,13.0
1763318421945,26.0
1763318421946,11.0
1763318421947,2.0
1763318421948,9.0
1763318421949,0.0
1763318421950,15.0
1763318421951,5.0
1763318421952,0.0
1763318421953,13.0
1763318421954,0.0
1763318421955,0.0
1763318421956,5.0
1763318421957,4.0
1763318421958,0.0
1763318421959,0.0
1763318421960,0.0
1763318421961,10.0
1763318421962,3.0
1763318421963,4.0
1763318421964,0.0
1763318421965,0.0
1763318421966,0.0
1763318421967,13.0
1763318421968,0.0
1763318421969,0.0
1763318421970,7.0
1763318421971,0.0
1763318421972,6.0
1763318421973,0.0
1763318421974,5.0
1763318421975,0.0
1763318421976,0.0
1763318421977,0.0
1763318421978,14.0
1763318421979,9.0
1763318421980,1.0
1763318421981,0.0
1763318421982,3.0
1763318421983,6.0
1763318421984,4.0
1763318421985,0.0
1763318421986,4.0
1763318421987,1.0
1763318421988,0.0
1763318421989,6.0
1763318421990,13.0
1763318421991,5.0
1763318421992,0.0
1763318421993,1.0
1763318421994,0.0
1763318421995,1.0
1763318421996,8.0
1763318421997,10.0
1763318421998,0.0
1763318421999,0.0
1763318422000,6.0
1763318422001,0.0
1763318422002,0.0
1763318422003,3.0
1763318422004,1.0
1763318422005,0.0
1763318422006,13.0
1763318422007,2.0
1763318422008,0.0
1763318422009,13.0
1763318422010,0.0
1763318422011,5.0
1763318422012,7.0
1763318422013,14.0
1763318422014,9.0
1763318422015,2.0
1763318422016,0.0
1763318422017,0.0
1763318422018,3.0
1763318422019,16.0
1763318422020,0.0
1763318422021,3.0
1763318422022,5.0
1763318422023,5.0
1763318422024,0.0
1763318422025,0.0
1763318422026,0.0
1763318422027,9.0
1763318422028,0.0
1763318422029,3.0
1763318422030,0.0
1763318422031,3.0
1763318422032,0.0
1763318422033,8.0
1763318422034,7.0
1763318422035,0.0
1763318422036,0.0
1763318422037,0.0
1763318422038,2.0
1763318422039,4.0
1763318422040,4.0
1763318422041,0.0
1763318422042,0.0
1763318422043,2.0
1763318422044,7.0
1763318422045,1.0
1763318422046,8.0
1763318422047,9.0
1763318422048,0.0
1763318422049,5.0
1763318422050,14.0
1763318422051,9.0
1763318422052,3.0
1763318422053,7.0
1763318422054,0.0
1763318422055,0.0
1763318422056,0.0
1763318422057,0.0
1763318422058,2.0
1763318422059,0.0
1763318422060,6.0
1763318422061,0.0
1763318422062,0.0
1763318422063,0.0
1763318422064,3.0
1763318422065,0.0
1763318422066,0.0
1763318422067,3.0
1763318422068,9.0
1763318422069,0.0
1763318422070,1.0
1763318422071,2.0
1763318422072,0.0
1763318422073,0.0
1763318422074,0.0
1763318422075,3.0
1763318422076,22.0
1763318422077,11.0
1763318422078,5.0
1763318422079,13.0
1763318422080,4.0
1763318422081,0.0
1763318422082,6.0
1763318422083,7.0
1763318422084,0.0
1763318422085,0.0
1763318422086,11.0
1763318422087,1.0
1763318422088,6.0
1763318422089,8.0
1763318422090,16.0
1763318422091,0.0
1763318422092,0.0
1763318422093,7.0
1763318422094,0.0
1763318422095,14.0
1763318422096,8.0
1763318422097,0.0
1763318422098,0.0
1763318422099,6.0
1763318422100,5.0
1763318422101,0.0
1763318422102,7.0
1763318422103,11.0
1763318422104,6.0
1763318422105,2.0
1763318422106,0.0
1763318422107,3.0
1763318422108,5.0
1763318422109,6.0
1763318422110,49.0
1763318422111,235.0
1763318422112,548.0
1763318422113,627.0
1763318422114,903.0
1763318422115,3490.0
1763318422116,3478.0
1763318422117,3695.0
1763318422118,4095.0
1763318422119,3641.0
1763318422120,3105.0
1763318422121,2992.0
1763318422122,2352.0
1763318422123,2499.0
1763318422124,2235.0
1763318422125,2546.0
1763318422126,2723.0
1763318422127,2604.0
1763318422128,2438.0
1763318422129,2974.0
1763318422130,4095.0
1763318422131,3696.0
1763318422132,3122.0
1763318422133,2906.0
1763318422134,2707.0
1763318422135,2331.0
1763318422136,2038.0
1763318422137,2105.0
1763318422138,2096.0
1763318422139,1946.0
1763318422140,1872.0
1763318422141,1681.0
1763318422142,1728.0
1763318422143,1520.0
1763318422144,1488.0
1763318422145,1377.0
1763318422146,1216.0
1763318422147,1431.0
1763318422148,1623.0
1763318422149,1582.0
1763318422150,1645.0
1763318422151,1765.0
1763318422152,1738.0
1763318422153,1889.0
1763318422154,2178.0
1763318422155,1837.0
1763318422156,1695.0
1763318422157,1697.0
1763318422158,2103.0
1763318422159,2064.0
1763318422160,2231.0
1763318422161,2399.0
1763318422162,2204.0
1763318422163,2134.0
1763318422164,2078.0
1763318422165,2176.0
1763318422166,1941.0
1763318422167,1899.0
1763318422168,1830.0
1763318422169,1658.0
1763318422170,1836.0
1763318422171,1886.0
1763318422172,1575.0
1763318422173,1703.0
1763318422174,1360.0
1763318422175,1531.0
1763318422176,1311.0
1763318422177,1145.0
1763318422178,1200.0
1763318422179,1093.0
1763318422180,1193.0
1763318422181,1158.0
1763318422182,1088.0
1763318422183,1046.0
1763318422184,967.0
1763318422185,606.0
1763318422186,646.0
1763318422187,564.0
1763318422188,499.0
1763318422189,565.0
1763318422190,511.0
1763318422191,535.0
1763318422192,504.0
1763318422193,569.0
1763318422194,655.0
1763318422195,734.0
1763318422196,807.0
1763318422197,813.0
1763318422198,742.0
1763318422199,704.0
1763318422200,651.0
1763318422201,692.0
1763318422202,631.0
1763318422203,639.0
1763318422204,604.0
1763318422205,500.0
1763318422206,1073.0
1763318422207,915.0
1763318422208,753.0
1763318422209,576.0
1763318422210,1045.0
1763318422211,866.0
1763318422212,573.0
1763318422213,419.0
1763318422214,314.0
1763318422215,277.0
1763318422216,235.0
1763318422217,193.0
1763318422218,173.0
1763318422219,150.0
1763318422220,177.0
1763318422221,145.0
1763318422222,145.0
1763318422223,187.0
1763318422224,187.0
1763318422225,162.0
1763318422226,193.0
1763318422227,208.0
1763318422228,209.0
1763318422229,211.0
1763318422230,177.0
1763318422231,192.0
1763318422232,183.0
1763318422233,298.0
1763318422234,281.0
1763318422235,273.0
1763318422236,261.0
1763318422237,241.0
1763318422238,210.0
1763318422239,144.0
1763318422240,109.0
1763318422241,128.0
1763318422242,112.0
1763318422243,112.0
1763318422244,110.0
1763318422245,98.0
1763318422246,1502.0
1763318422247,1761.0
1763318422248,2459.0
1763318422249,2499.0
1763318422250,2230.0
1763318422251,2241.0
1763318422252,2229.0
1763318422253,2811.0
1763318422254,2272.0
1763318422255,1622.0
1763318422256,1616.0
1763318422257,1600.0
1763318422258,1597.0
1763318422259,1950.0
1763318422260,2292.0
1763318422261,2383.0
1763318422262,2132.0
1763318422263,1991.0
1763318422264,1635.0
1763318422265,1674.0
1763318422266,1568.0
1763318422267,2320.0
1763318422268,1983.0
1763318422269,1881.0
1763318422270,1694.0
1763318422271,1726.0
1763318422272,1885.0
1763318422273,1798.0
1763318422274,2154.0
1763318422275,2157.0
1763318422276,1842.0
1763318422277,1787.0
1763318422278,1641.0
1763318422279,1659.0
1763318422280,1594.0
1763318422281,1516.0
1763318422282,1457.0
1763318422283,1687.0
1763318422284,1595.0
1763318422285,1260.0
1763318422286,1355.0
1763318422287,1360.0
1763318422288,1469.0
1763318422289,1324.0
1763318422290,1392.0
1763318422291,1163.0
1763318422292,1465.0
1763318422293,1808.0
1763318422294,1990.0
1763318422295,1915.0
1763318422296,2443.0
1763318422297,2279.0
1763318422298,2125.0
1763318422299,1767.0
1763318422300,1776.0
1763318422301,1723.0
1763318422302,1665.0
1763318422303,1615.0
1763318422304,1326.0
1763318422305,1182.0
1763318422306,1234.0
1763318422307,1054.0
1763318422308,1110.0
1763318422309,976.0
1763318422310,974.0
1763318422311,925.0
1763318422312,822.0
1763318422313,813.0
1763318422314,611.0
1763318422315,674.0
1763318422316,731.0
1763318422317,613.0
1763318422318,886.0
1763318422319,937.0
1763318422320,946.0
1763318422321,1072.0
1763318422322,1130.0
1763318422323,1374.0
1763318422324,1344.0
1763318422325,1212.0
1763318422326,1088.0
1763318422327,771.0
1763318422328,818.0
1763318422329,848.0
1763318422330,860.0
1763318422331,720.0
1763318422332,805.0
1763318422333,1097.0
1763318422334,1230.0
1763318422335,1153.0
1763318422336,560.0
1763318422337,343.0
1763318422338,288.0
1763318422339,223.0
1763318422340,192.0
1763318422341,167.0
1763318422342,173.0
1763318422343,172.0
1763318422344,176.0
1763318422345,176.0
1763318422346,178.0
1763318422347,243.0
1763318422348,236.0
1763318422349,278.0
1763318422350,240.0
1763318422351,233.0
1763318422352,224.0
1763318422353,250.0
1763318422354,284.0
1763318422355,240.0
1763318422356,204.0
1763318422357,170.0
1763318422358,174.0
1763318422359,136.0
1763318422360,133.0
1763318422361,118.0
1763318422362,99.0
1763318422363,85.0
1763318422364,83.0
1763318422365,212.0
1763318422366,307.0
1763318422367,375.0
1763318422368,578.0
1763318422369,638.0
1763318422370,1008.0
1763318422371,911.0
1763318422372,1023.0
1763318422373,944.0
1763318422374,975.0
1763318422375,1090.0
1763318422376,1040.0
1763318422377,1046.0
1763318422378,1059.0
1763318422379,1808.0
1763318422380,2589.0
1763318422381,2137.0
1763318422382,2043.0
1763318422383,2757.0
1763318422384,2558.0
1763318422385,2678.0
1763318422386,2209.0
1763318422387,2251.0
1763318422388,1839.0
1763318422389,1902.0
1763318422390,1851.0
1763318422391,1703.0
1763318422392,1421.0
1763318422393,1535.0
1763318422394,1723.0
1763318422395,1803.0
1763318422396,1440.0
1763318422397,1441.0
1763318422398,1504.0
1763318422399,1442.0
1763318422400,1957.0
1763318422401,1683.0
1763318422402,1824.0
1763318422403,1583.0
1763318422404,1323.0
1763318422405,1535.0
1763318422406,1721.0
1763318422407,1591.0
1763318422408,1725.0
1763318422409,1728.0
1763318422410,1289.0
1763318422411,1280.0
1763318422412,1184.0
1763318422413,1050.0
1763318422414,883.0
1763318422415,880.0
1763318422416,880.0
1763318422417,945.0
1763318422418,946.0
1763318422419,1110.0
1763318422420,1081.0
1763318422421,1203.0
1763318422422,1141.0
1763318422423,1008.0
1763318422424,1116.0
1763318422425,1039.0
1763318422426,984.0
1763318422427,832.0
1763318422428,685.0
1763318422429,722.0
1763318422430,580.0
1763318422431,666.0
1763318422432,795.0
1763318422433,852.0
1763318422434,795.0
1763318422435,784.0
1763318422436,719.0
1763318422437,557.0
1763318422438,656.0
1763318422439,682.0
1763318422440,682.0
1763318422441,579.0
1763318422442,720.0
1763318422443,656.0
1763318422444,502.0
1763318422445,713.0
1763318422446,640.0
1763318422447,644.0
1763318422448,688.0
1763318422449,682.0
1763318422450,650.0
1763318422451,570.0
1763318422452,625.0
1763318422453,622.0
1763318422454,537.0
1763318422455,601.0
1763318422456,623.0
1763318422457,291.0
1763318422458,278.0
1763318422459,174.0
1763318422460,150.0
1763318422461,161.0
1763318422462,154.0
1763318422463,145.0
1763318422464,153.0
1763318422465,163.0
1763318422466,195.0
1763318422467,281.0
1763318422468,257.0
1763318422469,271.0
1763318422470,285.0
1763318422471,333.0
1763318422472,331.0
1763318422473,320.0
1763318422474,292.0
1763318422475,304.0
1763318422476,234.0
1763318422477,217.0
1763318422478,192.0
1763318422479,166.0
1763318422480,147.0
1763318422481,145.0
1763318422482,157.0
1763318422483,296.0
1763318422484,331.0
1763318422485,420.0
1763318422486,546.0
1763318422487,495.0
1763318422488,695.0
1763318422489,1258.0
1763318422490,1511.0
1763318422491,1671.0
1763318422492,1462.0
1763318422493,1403.0
1763318422494,1451.0
1763318422495,2770.0
1763318422496,2613.0
1763318422497,2470.0
1763318422498,2554.0
1763318422499,2925.0
1763318422500,2881.0
1763318422501,3700.0
1763318422502,3520.0
1763318422503,3567.0
1763318422504,3779.0
1763318422505,3129.0
1763318422506,2602.0
1763318422507,2171.0
1763318422508,2176.0
1763318422509,2303.0
1763318422510,2477.0
1763318422511,2807.0
1763318422512,2487.0
1763318422513,2145.0
1763318422514,2128.0
1763318422515,1827.0
1763318422516,1776.0
1763318422517,1778.0
1763318422518,1764.0
1763318422519,2064.0
1763318422520,1919.0
1763318422521,1739.0
1763318422522,1631.0
1763318422523,1745.0
1763318422524,1488.0
1763318422525,1316.0
1763318422526,1348.0
1763318422527,1228.0
1763318422528,1445.0
1763318422529,1454.0
1763318422530,1680.0
1763318422531,2082.0
1763318422532,1911.0
1763318422533,1882.0
1763318422534,2462.0
1763318422535,2615.0
1763318422536,2831.0
1763318422537,2880.0
1763318422538,2672.0
1763318422539,2256.0
1763318422540,2017.0
1763318422541,2133.0
1763318422542,2131.0
1763318422543,1991.0
1763318422544,1606.0
1763318422545,1577.0
1763318422546,1555.0
1763318422547,1446.0
1763318422548,1023.0
1763318422549,961.0
1763318422550,940.0
1763318422551,751.0
1763318422552,757.0
1763318422553,578.0
1763318422554,622.0
1763318422555,576.0
1763318422556,704.0
1763318422557,1023.0
1763318422558,1001.0
1763318422559,1188.0
1763318422560,1053.0
1763318422561,738.0
1763318422562,609.0
1763318422563,1397.0
1763318422564,1230.0
1763318422565,1158.0
1763318422566,1136.0
1763318422567,1904.0
1763318422568,1521.0
1763318422569,1276.0
1763318422570,1177.0
1763318422571,988.0
1763318422572,707.0
1763318422573,657.0
1763318422574,678.0
1763318422575,1200.0
1763318422576,1509.0
1763318422577,1333.0
1763318422578,546.0
1763318422579,432.0
1763318422580,370.0
1763318422581,253.0
1763318422582,250.0
1763318422583,228.0
1763318422584,202.0
1763318422585,193.0
1763318422586,193.0
1763318422587,253.0
1763318422588,240.0
1763318422589,289.0
1763318422590,321.0
1763318422591,277.0
1763318422592,191.0
1763318422593,185.0
1763318422594,199.0
1763318422595,191.0
1763318422596,160.0
1763318422597,149.0
1763318422598,120.0
1763318422599,96.0
1763318422600,143.0
1763318422601,173.0
1763318422602,240.0
1763318422603,322.0
1763318422604,448.0
1763318422605,615.0
1763318422606,748.0
1763318422607,846.0
1763318422608,892.0
1763318422609,1405.0
1763318422610,1328.0
1763318422611,1642.0
1763318422612,2624.0
1763318422613,3203.0
1763318422614,3082.0
1763318422615,2677.0
1763318422616,2994.0
1763318422617,2424.0
1763318422618,2512.0
1763318422619,2869.0
1763318422620,2331.0
1763318422621,2128.0
1763318422622,2800.0
1763318422623,3431.0
1763318422624,4095.0
1763318422625,4095.0
1763318422626,4095.0
1763318422627,4095.0
1763318422628,4095.0
1763318422629,4095.0
1763318422630,4095.0
1763318422631,4095.0
1763318422632,4095.0
1763318422633,3728.0
1763318422634,3221.0
1763318422635,2585.0
1763318422636,2234.0
1763318422637,1992.0
1763318422638,1830.0
1763318422639,1741.0
1763318422640,1889.0
1763318422641,1886.0
1763318422642,1638.0
1763318422643,1627.0
1763318422644,1584.0
1763318422645,1401.0
1763318422646,1741.0
1763318422647,1838.0
1763318422648,1627.0
1763318422649,1625.0
1763318422650,1493.0
1763318422651,1535.0
1763318422652,1724.0
1763318422653,1729.0
1763318422654,1767.0
1763318422655,1613.0
1763318422656,1634.0
1763318422657,1647.0
1763318422658,1631.0
1763318422659,1535.0
1763318422660,1445.0
1763318422661,1243.0
1763318422662,1055.0
1763318422663,932.0
1763318422664,933.0
1763318422665,775.0
1763318422666,986.0
1763318422667,607.0
1763318422668,752.0
1763318422669,762.0
1763318422670,688.0
1763318422671,727.0
1763318422672,714.0
1763318422673,891.0
1763318422674,1152.0
1763318422675,1088.0
1763318422676,897.0
1763318422677,1671.0
1763318422678,1566.0
1763318422679,1333.0
1763318422680,1535.0
1763318422681,1783.0
1763318422682,1502.0
1763318422683,1348.0
1763318422684,2067.0
1763318422685,2028.0
1763318422686,1841.0
1763318422687,1616.0
1763318422688,1441.0
1763318422689,1254.0
1763318422690,1355.0
1763318422691,1535.0
1763318422692,672.0
1763318422693,339.0
1763318422694,208.0
1763318422695,240.0
1763318422696,159.0
1763318422697,138.0
1763318422698,186.0
1763318422699,193.0
1763318422700,178.0
1763318422701,192.0
1763318422702,188.0
1763318422703,195.0
1763318422704,183.0
1763318422705,159.0
1763318422706,140.0
1763318422707,139.0
1763318422708,84.0
1763318422709,76.0
1763318422710,48.0
1763318422711,48.0
1763318422712,704.0
1763318422713,731.0
1763318422714,659.0
1763318422715,685.0
1763318422716,1600.0
1763318422717,1561.0
1763318422718,1793.0
1763318422719,2256.0
1763318422720,1680.0
1763318422721,2145.0
1763318422722,2459.0
1763318422723,2213.0
1763318422724,3101.0
1763318422725,3120.0
1763318422726,2822.0
1763318422727,2823.0
1763318422728,2817.0
1763318422729,3260.0
1763318422730,2550.0
1763318422731,2559.0
1763318422732,2858.0
1763318422733,2781.0
1763318422734,2763.0
1763318422735,2719.0
1763318422736,2431.0
1763318422737,2282.0
1763318422738,2078.0
1763318422739,1718.0
1763318422740,1914.0
1763318422741,2087.0
1763318422742,2121.0
1763318422743,1824.0
1763318422744,2181.0
1763318422745,2004.0
1763318422746,1902.0
1763318422747,1943.0
1763318422748,2047.0
1763318422749,2263.0
1763318422750,2268.0
1763318422751,1959.0
1763318422752,2026.0
1763318422753,1726.0
1763318422754,1709.0
1763318422755,1744.0
1763318422756,1935.0
1763318422757,2114.0
1763318422758,1909.0
1763318422759,1844.0
1763318422760,1751.0
1763318422761,1769.0
1763318422762,1597.0
1763318422763,1113.0
1763318422764,889.0
1763318422765,899.0
1763318422766,879.0
1763318422767,1046.0
1763318422768,1057.0
1763318422769,919.0
1763318422770,800.0
1763318422771,735.0
1763318422772,676.0
1763318422773,815.0
1763318422774,663.0
1763318422775,893.0
1763318422776,802.0
1763318422777,594.0
1763318422778,720.0
1763318422779,737.0
1763318422780,1040.0
1763318422781,1241.0
1763318422782,1184.0
1763318422783,1046.0
1763318422784,1577.0
1763318422785,1035.0
1763318422786,688.0
1763318422787,592.0
1763318422788,539.0
1763318422789,474.0
1763318422790,303.0
1763318422791,222.0
1763318422792,135.0
1763318422793,145.0
1763318422794,129.0
1763318422795,129.0
1763318422796,114.0
1763318422797,120.0
1763318422798,101.0
1763318422799,71.0
1763318422800,117.0
1763318422801,114.0
1763318422802,120.0
1763318422803,115.0
1763318422804,205.0
1763318422805,370.0
1763318422806,522.0
1763318422807,465.0
1763318422808,367.0
1763318422809,373.0
1763318422810,349.0
1763318422811,363.0
1763318422812,357.0
1763318422813,870.0
1763318422814,848.0
1763318422815,1042.0
1763318422816,1708.0
1763318422817,1861.0
1763318422818,2225.0
1763318422819,3188.0
1763318422820,2785.0
1763318422821,2893.0
1763318422822,3162.0
1763318422823,2719.0
1763318422824,2518.0
1763318422825,2213.0
1763318422826,2064.0
1763318422827,2283.0
1763318422828,3019.0
1763318422829,3419.0
1763318422830,4095.0
1763318422831,4095.0
1763318422832,3795.0
1763318422833,4095.0
1763318422834,4049.0
1763318422835,3895.0
1763318422836,3136.0
1763318422837,2989.0
1763318422838,2790.0
1763318422839,2794.0
1763318422840,2369.0
1763318422841,1985.0
1763318422842,1801.0
1763318422843,1697.0
1763318422844,2332.0
1763318422845,2064.0
1763318422846,2019.0
1763318422847,1917.0
1763318422848,1769.0
1763318422849,1802.0
1763318422850,1804.0
1763318422851,1408.0
1763318422852,1990.0
1763318422853,1889.0
1763318422854,1712.0
1763318422855,1686.0
1763318422856,1925.0
1763318422857,1911.0
1763318422858,1623.0
1763318422859,1741.0
1763318422860,1467.0
1763318422861,1351.0
1763318422862,1182.0
1763318422863,1263.0
1763318422864,1227.0
1763318422865,1201.0
1763318422866,1023.0
1763318422867,944.0
1763318422868,1068.0
1763318422869,931.0
1763318422870,813.0
1763318422871,834.0
1763318422872,737.0
1763318422873,723.0
1763318422874,682.0
1763318422875,643.0
1763318422876,1154.0
1763318422877,1117.0
1763318422878,931.0
1763318422879,703.0
1763318422880,783.0
1763318422881,736.0
1763318422882,1012.0
1763318422883,990.0
1763318422884,855.0
1763318422885,891.0
1763318422886,855.0
1763318422887,784.0
1763318422888,803.0
1763318422889,736.0
1763318422890,683.0
1763318422891,586.0
1763318422892,191.0
1763318422893,160.0
1763318422894,117.0
1763318422895,96.0
1763318422896,112.0
1763318422897,169.0
1763318422898,288.0
1763318422899,272.0
1763318422900,239.0
1763318422901,241.0
1763318422902,217.0
1763318422903,208.0
1763318422904,291.0
1763318422905,264.0
1763318422906,227.0
1763318422907,213.0
1763318422908,208.0
1763318422909,197.0
1763318422910,192.0
1763318422911,213.0
1763318422912,173.0
1763318422913,128.0
1763318422914,176.0
1763318422915,177.0
1763318422916,231.0
1763318422917,336.0
1763318422918,689.0
1763318422919,943.0
1763318422920,1806.0
1763318422921,1663.0
1763318422922,2019.0
1763318422923,1777.0
1763318422924,1458.0
1763318422925,1971.0
1763318422926,1989.0
1763318422927,1955.0
1763318422928,1933.0
1763318422929,1614.0
1763318422930,1962.0
1763318422931,2089.0
1763318422932,4095.0
1763318422933,4095.0
1763318422934,4095.0
1763318422935,4095.0
1763318422936,4095.0
1763318422937,4095.0
1763318422938,2945.0
1763318422939,2654.0
1763318422940,2457.0
1763318422941,2495.0
1763318422942,2144.0
1763318422943,2285.0
1763318422944,1860.0
1763318422945,2042.0
1763318422946,2057.0
1763318422947,1859.0
1763318422948,1836.0
1763318422949,2341.0
1763318422950,2431.0
1763318422951,2779.0
1763318422952,2522.0
1763318422953,2170.0
1763318422954,2480.0
1763318422955,2559.0
1763318422956,3391.0
1763318422957,3247.0
1763318422958,2624.0
1763318422959,2344.0
1763318422960,1879.0
1763318422961,1735.0
1763318422962,1562.0
1763318422963,1429.0
1763318422964,1267.0
1763318422965,1187.0
1763318422966,1098.0
1763318422967,1023.0
1763318422968,1168.0
1763318422969,1035.0
1763318422970,930.0
1763318422971,825.0
1763318422972,767.0
1763318422973,745.0
1763318422974,701.0
1763318422975,697.0
1763318422976,1118.0
1763318422977,1023.0
1763318422978,1049.0
1763318422979,950.0
1763318422980,1210.0
1763318422981,1038.0
1763318422982,962.0
1763318422983,848.0
1763318422984,999.0
1763318422985,1174.0
1763318422986,1198.0
1763318422987,947.0
1763318422988,1045.0
1763318422989,576.0
1763318422990,634.0
1763318422991,598.0
1763318422992,937.0
1763318422993,1105.0
1763318422994,1023.0
1763318422995,906.0
1763318422996,945.0
1763318422997,1013.0
1763318422998,831.0
1763318422999,528.0
1763318423000,337.0
1763318423001,355.0
1763318423002,270.0
1763318423003,272.0
1763318423004,270.0
1763318423005,229.0
1763318423006,253.0
1763318423007,272.0
1763318423008,190.0
1763318423009,168.0
1763318423010,107.0
1763318423011,120.0
1763318423012,80.0
1763318423013,128.0
1763318423014,256.0
1763318423015,432.0
1763318423016,539.0
1763318423017,418.0
1763318423018,323.0
1763318423019,685.0
1763318423020,1984.0
1763318423021,2803.0
1763318423022,2326.0
1763318423023,1882.0
1763318423024,1818.0
1763318423025,1933.0
1763318423026,2285.0
1763318423027,2675.0
1763318423028,3120.0
1763318423029,3039.0
1763318423030,2355.0
1763318423031,2169.0
1763318423032,2807.0
1763318423033,3921.0
1763318423034,3897.0
1763318423035,4059.0
1763318423036,4095.0
1763318423037,3500.0
1763318423038,3461.0
1763318423039,4095.0
1763318423040,3977.0
1763318423041,4095.0
1763318423042,4095.0
1763318423043,4095.0
1763318423044,2991.0
1763318423045,2850.0
1763318423046,2448.0
1763318423047,2299.0
1763318423048,2203.0
1763318423049,2316.0
1763318423050,2083.0
1763318423051,1984.0
1763318423052,1748.0
1763318423053,1669.0
1763318423054,1879.0
1763318423055,1916.0
1763318423056,2256.0
1763318423057,2126.0
1763318423058,2188.0
1763318423059,3243.0
1763318423060,2871.0
1763318423061,2478.0
1763318423062,2454.0
1763318423063,2179.0
1763318423064,2040.0
1763318423065,1869.0
1763318423066,1573.0
1763318423067,1471.0
1763318423068,1375.0
1763318423069,1503.0
1763318423070,1425.0
1763318423071,1312.0
1763318423072,1310.0
1763318423073,1146.0
1763318423074,1084.0
1763318423075,1201.0
1763318423076,1111.0
1763318423077,974.0
1763318423078,922.0
1763318423079,976.0
1763318423080,674.0
1763318423081,634.0
1763318423082,647.0
1763318423083,1054.0
1763318423084,976.0
1763318423085,738.0
1763318423086,734.0
1763318423087,1841.0
1763318423088,1866.0
1763318423089,1522.0
1763318423090,1851.0
1763318423091,2128.0
1763318423092,2085.0
1763318423093,1690.0
1763318423094,1122.0
1763318423095,1502.0
1763318423096,1403.0
1763318423097,809.0
1763318423098,615.0
1763318423099,311.0
1763318423100,237.0
1763318423101,192.0
1763318423102,234.0
1763318423103,266.0
1763318423104,304.0
1763318423105,321.0
1763318423106,271.0
1763318423107,185.0
1763318423108,170.0
1763318423109,156.0
1763318423110,167.0
1763318423111,164.0
1763318423112,158.0
1763318423113,144.0
1763318423114,142.0
1763318423115,124.0
1763318423116,132.0
1763318423117,226.0
1763318423118,375.0
1763318423119,478.0
1763318423120,455.0
1763318423121,717.0
1763318423122,1616.0
1763318423123,3487.0
1763318423124,4095.0
1763318423125,4095.0
1763318423126,4095.0
1763318423127,4095.0
1763318423128,3685.0
1763318423129,4095.0
1763318423130,3888.0
1763318423131,3674.0
1763318423132,3281.0
1763318423133,3775.0
1763318423134,4095.0
1763318423135,3446.0
1763318423136,4095.0
1763318423137,4095.0
1763318423138,4095.0
1763318423139,4095.0
1763318423140,3962.0
1763318423141,2815.0
1763318423142,2322.0
1763318423143,2254.0
1763318423144,2358.0
1763318423145,2068.0
1763318423146,1810.0
1763318423147,2423.0
1763318423148,2029.0
1763318423149,1754.0
1763318423150,1777.0
1763318423151,2146.0
1763318423152,2174.0
1763318423153,2120.0
1763318423154,2821.0
1763318423155,2689.0
1763318423156,3250.0
1763318423157,2858.0
1763318423158,1841.0
1763318423159,1574.0
1763318423160,1360.0
1763318423161,1053.0
1763318423162,917.0
1763318423163,840.0
1763318423164,1103.0
1763318423165,889.0
1763318423166,851.0
1763318423167,720.0
1763318423168,930.0
1763318423169,1009.0
1763318423170,944.0
1763318423171,734.0
1763318423172,694.0
1763318423173,656.0
1763318423174,673.0
1763318423175,823.0
1763318423176,750.0
1763318423177,578.0
1763318423178,587.0
1763318423179,724.0
1763318423180,929.0
1763318423181,1074.0
1763318423182,626.0
1763318423183,409.0
1763318423184,145.0
1763318423185,111.0
1763318423186,95.0
1763318423187,80.0
1763318423188,114.0
1763318423189,146.0
1763318423190,134.0
1763318423191,227.0
1763318423192,195.0
1763318423193,190.0
1763318423194,205.0
1763318423195,251.0
1763318423196,258.0
1763318423197,302.0
1763318423198,231.0
1763318423199,243.0
1763318423200,240.0
1763318423201,226.0
1763318423202,163.0
1763318423203,112.0
1763318423204,96.0
1763318423205,85.0
1763318423206,68.0
1763318423207,80.0
1763318423208,81.0
1763318423209,198.0
1763318423210,208.0
1763318423211,222.0
1763318423212,480.0
1763318423213,534.0
1763318423214,1013.0
1763318423215,893.0
1763318423216,1146.0
1763318423217,1450.0
1763318423218,1907.0
1763318423219,1950.0
1763318423220,2022.0
1763318423221,2021.0
1763318423222,1775.0
1763318423223,1692.0
1763318423224,1583.0
1763318423225,1721.0
1763318423226,1266.0
1763318423227,1808.0
1763318423228,2382.0
1763318423229,2981.0
1763318423230,2755.0
1763318423231,2688.0
1763318423232,2421.0
1763318423233,1919.0
1763318423234,2017.0
1763318423235,3282.0
1763318423236,3456.0
1763318423237,3043.0
1763318423238,2751.0
1763318423239,3033.0
1763318423240,3458.0
1763318423241,2370.0
1763318423242,1933.0
1763318423243,1867.0
1763318423244,2229.0
1763318423245,2111.0
1763318423246,2063.0
1763318423247,2298.0
1763318423248,1835.0
1763318423249,1827.0
1763318423250,1986.0
1763318423251,1909.0
1763318423252,1477.0
1763318423253,1497.0
1763318423254,1488.0
1763318423255,1846.0
1763318423256,1795.0
1763318423257,1616.0
1763318423258,1629.0
1763318423259,1583.0
1763318423260,1911.0
1763318423261,1919.0
1763318423262,2335.0
1763318423263,2589.0
1763318423264,2629.0
1763318423265,2559.0
1763318423266,2332.0
1763318423267,1957.0
1763318423268,1806.0
1763318423269,1771.0
1763318423270,1702.0
1763318423271,1776.0
1763318423272,1783.0
1763318423273,1620.0
1763318423274,848.0
1763318423275,817.0
1763318423276,770.0
1763318423277,733.0
1763318423278,771.0
1763318423279,1092.0
1763318423280,1216.0
1763318423281,1145.0
1763318423282,1171.0
1763318423283,1107.0
1763318423284,829.0
1763318423285,768.0
1763318423286,1052.0
1763318423287,1070.0
1763318423288,1051.0
1763318423289,1079.0
1763318423290,818.0
1763318423291,758.0
1763318423292,771.0
1763318423293,767.0
1763318423294,818.0
1763318423295,1059.0
1763318423296,1231.0
1763318423297,1161.0
1763318423298,779.0
1763318423299,994.0
1763318423300,571.0
1763318423301,461.0
1763318423302,407.0
1763318423303,187.0
1763318423304,174.0
1763318423305,129.0
1763318423306,118.0
1763318423307,92.0
1763318423308,84.0
1763318423309,93.0
1763318423310,90.0
1763318423311,69.0
1763318423312,193.0
1763318423313,285.0
1763318423314,263.0
1763318423315,222.0
1763318423316,178.0
1763318423317,175.0
1763318423318,138.0
1763318423319,171.0
1763318423320,128.0
1763318423321,124.0
1763318423322,101.0
1763318423323,102.0
1763318423324,91.0
1763318423325,102.0
1763318423326,102.0
1763318423327,65.0
1763318423328,55.0
1763318423329,623.0
1763318423330,592.0
1763318423331,569.0
1763318423332,619.0
1763318423333,1243.0
1763318423334,1264.0
1763318423335,1408.0
1763318423336,1354.0
1763318423337,1682.0
1763318423338,2098.0
1763318423339,3929.0
1763318423340,3264.0
1763318423341,3226.0
1763318423342,3093.0
1763318423343,3022.0
1763318423344,2971.0
1763318423345,3093.0
1763318423346,2883.0
1763318423347,2611.0
1763318423348,2491.0
1763318423349,2490.0
1763318423350,2321.0
1763318423351,2550.0
1763318423352,3664.0
1763318423353,3362.0
1763318423354,3264.0
1763318423355,4095.0
1763318423356,4095.0
1763318423357,4095.0
1763318423358,4095.0
1763318423359,4095.0
1763318423360,4095.0
1763318423361,4095.0
1763318423362,4095.0
1763318423363,4095.0
1763318423364,4073.0
1763318423365,3186.0
1763318423366,2291.0
1763318423367,2225.0
1763318423368,1872.0
1763318423369,1594.0
1763318423370,1421.0
1763318423371,1447.0
1763318423372,1737.0
1763318423373,1712.0
1763318423374,1806.0
1763318423375,1757.0
1763318423376,1523.0
1763318423377,2266.0
1763318423378,1802.0
1763318423379,1830.0
1763318423380,1728.0
1763318423381,1782.0
1763318469787,2384.0
1763318469788,2224.0
1763318469789,1332.0
1763318469790,1113.0
1763318469791,889.0
1763318469792,1379.0
1763318469793,1198.0
1763318469794,1241.0
1763318469795,847.0
1763318469796,1088.0
1763318469797,1296.0
1763318469798,1477.0
1763318469799,1535.0
1763318469800,1565.0
1763318469801,767.0
1763318469802,381.0
1763318469803,528.0
1763318469804,259.0
1763318469805,176.0
1763318469806,192.0
1763318469807,159.0
1763318469808,176.0
1763318469809,112.0
1763318469810,779.0
1763318469811,1476.0
1763318469812,2122.0
1763318469813,1643.0
1763318469814,1787.0
1763318469815,1514.0
1763318469816,1465.0
1763318469817,1822.0
1763318469818,2662.0
1763318469819,2608.0
1763318469820,2258.0
1763318469821,2032.0
1763318469822,1231.0
1763318469823,1296.0
1763318469824,945.0
1763318469825,641.0
1763318469826,607.0
1763318469827,574.0
1763318469828,753.0
1763318469829,997.0
1763318469830,1118.0
1763318469831,1110.0
1763318469832,836.0
1763318469833,1086.0
1763318469834,1239.0
1763318469835,1968.0
1763318469836,1483.0
1763318469837,610.0
1763318469838,301.0
1763318469839,271.0
1763318469840,272.0
1763318469841,342.0
1763318469842,1391.0
1763318469843,1271.0
1763318469844,666.0
1763318469845,228.0
1763318469846,228.0
1763318469847,203.0
1763318469848,178.0
1763318469849,186.0
1763318469850,120.0
1763318469851,97.0
1763318469852,54.0
1763318469853,61.0
1763318469854,663.0
1763318469855,1280.0
1763318469856,1040.0
1763318469857,1207.0
1763318469858,1453.0
1763318469859,2161.0
1763318469860,2945.0
1763318469861,2319.0
1763318469862,3614.0
1763318469863,4095.0
1763318469864,695.0
1763318469865,694.0
1763318469866,1350.0
1763318469867,827.0
1763318469868,592.0
1763318469869,250.0
1763318469870,166.0
1763318469871,81.0
1763318469872,114.0
1763318469873,175.0
1763318469874,304.0
1763318469875,245.0
1763318469876,145.0
1763318469877,150.0
1763318469878,102.0
1763318469879,49.0
1763318469880,499.0
1763318469881,991.0
1763318469882,925.0
1763318469883,2339.0
1763318469884,1873.0
1763318469885,1988.0
1763318469886,2783.0
1763318469887,4095.0
1763318469888,2752.0
1763318469889,3117.0
1763318469890,3993.0
1763318469891,3818.0
1763318469892,2711.0
1763318469893,2096.0
1763318469894,2947.0
1763318469895,2210.0
1763318469896,2005.0
1763318469897,1792.0
1763318469898,1975.0
1763318469899,1706.0
1763318469900,2211.0
1763318469901,4095.0
1763318469902,3969.0
1763318469903,2279.0
1763318469904,1666.0
1763318469905,1322.0
1763318469906,1008.0
1763318469907,793.0
1763318469908,894.0
1763318469909,734.0
1763318469910,1106.0
1763318469911,1511.0
1763318469912,950.0
1763318469913,837.0
1763318469914,896.0
1763318469915,1246.0
1763318469916,1233.0
1763318469917,1221.0
1763318469918,546.0
1763318469919,237.0
1763318469920,163.0
1763318469921,214.0
1763318469922,187.0
1763318469923,237.0
1763318469924,228.0
1763318469925,147.0
1763318469926,144.0
1763318469927,66.0
1763318469928,166.0
1763318469929,737.0
1763318469930,1382.0
1763318469931,1343.0
1763318469932,2516.0
1763318469933,3438.0
1763318469934,2405.0
1763318469935,2187.0
1763318469936,4095.0
1763318469937,3312.0
1763318469938,4095.0
1763318469939,3536.0
1763318469940,2010.0
1763318469941,2195.0
1763318469942,2500.0
1763318469943,3097.0
1763318469944,3180.0
1763318469945,3210.0
1763318469946,2224.0
1763318469947,2608.0
1763318469948,2287.0
1763318469949,1328.0
1763318469950,964.0
1763318469951,1136.0
1763318469952,847.0
1763318469953,912.0
1763318469954,638.0
1763318469955,765.0
1763318469956,699.0
1763318469957,909.0
1763318469958,2202.0
1763318469959,1195.0
1763318469960,848.0
1763318469961,774.0
1763318469962,704.0
1763318469963,610.0
1763318469964,2366.0
1763318469965,49.0
1763318469966,123.0
1763318469967,147.0
1763318469968,329.0
1763318469969,425.0
1763318469970,547.0
1763318469971,549.0
1763318469972,811.0
1763318469973,934.0
1763318469974,1043.0
1763318469975,1616.0
1763318469976,1616.0
1763318469977,1471.0
1763318469978,1283.0
1763318469979,1761.0
1763318469980,1535.0
1763318469981,1564.0
1763318469982,1856.0
1763318469983,4095.0
1763318469984,4095.0
1763318469985,4055.0
1763318469986,3995.0
1763318469987,4095.0
1763318469988,3477.0
1763318469989,3282.0
1763318469990,2896.0
1763318469991,2672.0
1763318469992,4095.0
1763318469993,4095.0
1763318469994,4095.0
1763318469995,4095.0
1763318469996,3141.0
1763318469997,2662.0
1763318469998,3097.0
1763318469999,3040.0
1763318470000,2527.0
1763318470001,2369.0
1763318470002,2274.0
1763318470003,2559.0
1763318470004,2608.0
1763318470005,2362.0
1763318470006,2801.0
1763318470007,3632.0
1763318470008,3707.0
1763318470009,2902.0
1763318470010,2826.0
1763318470011,2935.0
1763318470012,2543.0
1763318470013,2189.0
1763318470014,1922.0
1763318470015,1729.0
1763318470016,2267.0
1763318470017,2469.0
1763318470018,2307.0
1763318470019,2390.0
1763318470020,3774.0
1763318470021,3679.0
1763318470022,3905.0
1763318470023,2752.0
1763318470024,2416.0
1763318470025,2250.0
1763318470026,2058.0
1763318470027,1969.0
1763318470028,1719.0
1763318470029,1535.0
1763318470030,1231.0
1763318470031,1319.0
1763318470032,1143.0
1763318470033,906.0
1763318470034,848.0
1763318470035,874.0
1763318470036,934.0
1763318470037,767.0
1763318470038,821.0
1763318470039,790.0
1763318470040,774.0
1763318470041,960.0
1763318470042,784.0
1763318470043,661.0
1763318470044,657.0
1763318470045,562.0
1763318470046,755.0
1763318470047,779.0
1763318470048,1040.0
1763318470049,1277.0
1763318470050,1075.0
1763318470051,1008.0
1763318470052,1097.0
1763318470053,1080.0
1763318470054,957.0
1763318470055,1104.0
1763318470056,939.0
1763318470057,630.0
1763318470058,544.0
1763318470059,501.0
1763318470060,464.0
1763318470061,831.0
1763318470062,803.0
1763318470063,703.0
1763318470064,537.0
1763318470065,466.0
1763318470066,305.0
1763318470067,273.0
1763318470068,225.0
1763318470069,209.0
1763318470070,234.0
1763318470071,216.0
1763318470072,375.0
1763318470073,420.0
1763318470074,405.0
1763318470075,304.0
1763318470076,176.0
1763318470077,132.0
1763318470078,93.0
1763318470079,84.0
1763318470080,77.0
1763318470081,76.0
1763318470082,54.0
1763318470083,49.0
1763318470084,52.0
1763318470085,31.0
1763318470086,38.0
1763318470087,30.0
1763318470088,449.0
1763318470089,397.0
1763318470090,827.0
1763318470091,1072.0
1763318470092,1092.0
1763318470093,909.0
1763318470094,1374.0
1763318470095,1246.0
1763318470096,1331.0
1763318470097,1392.0
1763318470098,1632.0
1763318470099,1895.0
1763318470100,2290.0
1763318470101,2228.0
1763318470102,2055.0
1763318470103,1873.0
1763318470104,1632.0
1763318470105,1984.0
1763318470106,2241.0
1763318470107,2443.0
1763318470108,1936.0
1763318470109,2143.0
1763318470110,2192.0
1763318470111,1999.0
1763318470112,2428.0
1763318470113,4016.0
1763318470114,2718.0
1763318470115,2853.0
1763318470116,2916.0
1763318470117,3325.0
1763318470118,2992.0
1763318470119,3024.0
1763318470120,2859.0
1763318470121,2512.0
1763318470122,3486.0
1763318470123,3233.0
1763318470124,3255.0
1763318470125,3035.0
1763318470126,3286.0
1763318470127,2640.0
1763318470128,2425.0
1763318470129,2274.0
1763318470130,2258.0
1763318470131,1760.0
1763318470132,1830.0
1763318470133,1985.0
1763318470134,2029.0
1763318470135,1497.0
1763318470136,1354.0
1763318470137,1280.0
1763318470138,1200.0
1763318470139,1393.0
1763318470140,1933.0
1763318470141,2096.0
1763318470142,2481.0
1763318470143,2522.0
1763318470144,2275.0
1763318470145,2368.0
1763318470146,1911.0
1763318470147,2130.0
1763318470148,2166.0
1763318470149,2156.0
1763318470150,1840.0
1763318470151,1645.0
1763318470152,2141.0
1763318470153,2064.0
1763318470154,2060.0
1763318470155,1718.0
1763318470156,1565.0
1763318470157,1392.0
1763318470158,1199.0
1763318470159,1275.0
1763318470160,1235.0
1763318470161,1123.0
1763318470162,1085.0
1763318470163,964.0
1763318470164,964.0
1763318470165,912.0
1763318470166,923.0
1763318470167,1003.0
1763318470168,1045.0
1763318470169,980.0
1763318470170,821.0
1763318470171,716.0
1763318470172,653.0
1763318470173,670.0
1763318470174,724.0
1763318470175,656.0
1763318470176,742.0
1763318470177,729.0
1763318470178,791.0
1763318470179,714.0
1763318470180,624.0
1763318470181,896.0
1763318470182,902.0
1763318470183,730.0
1763318470184,639.0
1763318470185,572.0
1763318470186,620.0
1763318470187,687.0
1763318470188,814.0
1763318470189,913.0
1763318470190,1163.0
1763318470191,1145.0
1763318470192,979.0
1763318470193,1069.0
1763318470194,741.0
1763318470195,867.0
1763318470196,874.0
1763318470197,1055.0
1763318470198,804.0
1763318470199,605.0
1763318470200,446.0
1763318470201,374.0
1763318470202,272.0
1763318470203,133.0
1763318470204,115.0
1763318470205,93.0
1763318470206,92.0
1763318470207,90.0
1763318470208,108.0
1763318470209,140.0
1763318470210,133.0
1763318470211,157.0
1763318470212,161.0
1763318470213,158.0
1763318470214,150.0
1763318470215,107.0
1763318470216,190.0
1763318470217,182.0
1763318470218,163.0
1763318470219,135.0
1763318470220,112.0
1763318470221,112.0
1763318470222,111.0
1763318470223,144.0
1763318470224,118.0
1763318470225,131.0
1763318470226,180.0
1763318470227,164.0
1763318470228,169.0
1763318470229,144.0
1763318470230,132.0
1763318470231,111.0
1763318470232,131.0
1763318470233,126.0
1763318470234,112.0
1763318470235,96.0
1763318470236,91.0
1763318470237,80.0
1763318470238,51.0
1763318470239,41.0
1763318470240,67.0
1763318470241,68.0
1763318470242,67.0
1763318470243,183.0
1763318470244,192.0
1763318470245,185.0
1763318470246,345.0
1763318470247,866.0
1763318470248,1682.0
1763318470249,2217.0
1763318470250,2474.0
1763318470251,2677.0
1763318470252,2559.0
1763318470253,3024.0
1763318470254,3341.0
1763318470255,3259.0
1763318470256,2158.0
1763318470257,2461.0
1763318470258,2527.0
1763318470259,2745.0
1763318470260,2535.0
1763318470261,2349.0
1763318470262,3271.0
1763318470263,3243.0
1763318470264,2734.0
1763318470265,2765.0
1763318470266,3011.0
1763318470267,2882.0
1763318470268,3632.0
1763318470269,4095.0
1763318470270,4095.0
1763318470271,3687.0
1763318470272,4095.0
1763318470273,4095.0
1763318470274,3856.0
1763318470275,3497.0
1763318470276,3071.0
1763318470277,2866.0
1763318470278,3583.0
1763318470279,3337.0
1763318470280,3014.0
1763318470281,2773.0
1763318470282,2231.0
1763318470283,1878.0
1763318470284,2169.0
1763318470285,2661.0
1763318470286,2482.0
1763318470287,2443.0
1763318470288,2341.0
1763318470289,3039.0
1763318470290,2624.0
1763318470291,2239.0
1763318470292,2559.0
1763318470293,2274.0
1763318470294,2438.0
1763318470295,2063.0
1763318470296,2094.0
1763318470297,2236.0
1763318470298,2281.0
1763318470299,2947.0
1763318470300,3020.0
1763318470301,3442.0
1763318470302,3296.0
1763318470303,3056.0
1763318470304,3689.0
1763318470305,3522.0
1763318470306,3120.0
1763318470307,2282.0
1763318470308,2087.0
1763318470309,1184.0
1763318470310,1134.0
1763318470311,676.0
1763318470312,582.0
1763318470313,451.0
1763318470314,438.0
1763318470315,702.0
1763318470316,773.0
1763318470317,813.0
1763318470318,1433.0
1763318470319,1689.0
1763318470320,1599.0
1763318470321,1475.0
1763318470322,1014.0
1763318470323,1177.0
1763318470324,1245.0
1763318470325,1267.0
1763318470326,784.0
1763318470327,784.0
1763318470328,763.0
1763318470329,1342.0
1763318470330,1716.0
1763318470331,2112.0
1763318470332,1907.0
1763318470333,1424.0
1763318470334,1265.0
1763318470335,1244.0
1763318470336,1599.0
1763318470337,1584.0
1763318470338,1382.0
1763318470339,775.0
1763318470340,1111.0
1763318470341,1481.0
1763318470342,1297.0
1763318470343,923.0
1763318470344,664.0
1763318470345,576.0
1763318470346,462.0
1763318470347,395.0
1763318470348,335.0
1763318470349,195.0
1763318470350,173.0
1763318470351,156.0
1763318470352,125.0
1763318470353,128.0
1763318470354,118.0
1763318470355,111.0
1763318470356,129.0
1763318470357,106.0
1763318470358,112.0
1763318470359,186.0
1763318470360,112.0
1763318470361,99.0
1763318470362,64.0
1763318470363,75.0
1763318470364,121.0
1763318470365,117.0
1763318470366,96.0
1763318470367,83.0
1763318470368,81.0
1763318470369,90.0
1763318470370,80.0
1763318470371,78.0
1763318470372,91.0
1763318470373,97.0
1763318470374,94.0
1763318470375,101.0
1763318470376,87.0
1763318470377,115.0
1763318470378,67.0
1763318470379,73.0
1763318470380,39.0
1763318470381,55.0
1763318470382,234.0
1763318470383,269.0
1763318470384,498.0
1763318470385,570.0
1763318470386,551.0
1763318470387,681.0
1763318470388,596.0
1763318470389,594.0
1763318470390,591.0
1763318470391,444.0
1763318470392,387.0
1763318470393,692.0
1763318470394,825.0
1763318470395,743.0
1763318470396,640.0
1763318470397,853.0
1763318470398,943.0
1763318470399,999.0
1763318470400,940.0
1763318470401,752.0
1763318470402,627.0
1763318470403,528.0
1763318470404,640.0
1763318470405,592.0
1763318470406,723.0
1763318470407,738.0
1763318470408,731.0
1763318470409,843.0
1763318470410,1185.0
1763318470411,1113.0
1763318470412,1745.0
1763318470413,2129.0
1763318470414,2457.0
1763318470415,2553.0
1763318470416,2922.0
1763318470417,2689.0
1763318470418,2787.0
1763318470419,2815.0
1763318470420,4095.0
1763318470421,4095.0
1763318470422,3793.0
1763318470423,3510.0
1763318470424,3019.0
1763318470425,3248.0
1763318470426,4095.0
1763318470427,4095.0
1763318470428,4080.0
1763318470429,4026.0
1763318470430,3511.0
1763318470431,3746.0
1763318470432,4095.0
1763318470433,4095.0
1763318470434,4095.0
1763318470435,3520.0
1763318470436,3472.0
1763318470437,3024.0
1763318470438,2977.0
1763318470439,3313.0
1763318470440,3230.0
1763318470441,3531.0
1763318470442,2982.0
1763318470443,2827.0
1763318470444,2305.0
1763318470445,2609.0
1763318470446,2419.0
1763318470447,2251.0
1763318470448,2277.0
1763318470449,2247.0
1763318470450,2460.0
1763318470451,2610.0
1763318470452,2428.0
1763318470453,2168.0
1763318470454,2154.0
1763318470455,1981.0
1763318470456,1829.0
1763318470457,1813.0
1763318470458,1701.0
1763318470459,1883.0
1763318470460,2615.0
1763318470461,2351.0
1763318470462,2755.0
1763318470463,2856.0
1763318470464,2803.0
1763318470465,4095.0
1763318470466,2652.0
1763318470467,2314.0
1763318470468,2141.0
1763318470469,1947.0
1763318470470,1815.0
1763318470471,1404.0
1763318470472,1298.0
1763318470473,1041.0
1763318470474,899.0
1763318470475,836.0
1763318470476,753.0
1763318470477,704.0
1763318470478,631.0
1763318470479,592.0
1763318470480,543.0
1763318470481,656.0
1763318470482,773.0
1763318470483,849.0
1763318470484,858.0
1763318470485,787.0
1763318470486,901.0
1763318470487,1186.0
1763318470488,1485.0
1763318470489,1482.0
1763318470490,1258.0
1763318470491,1104.0
1763318470492,944.0
1763318470493,922.0
1763318470494,1107.0
1763318470495,1138.0
1763318470496,2211.0
1763318470497,2880.0
1763318470498,2348.0
1763318470499,1989.0
1763318470500,1701.0
1763318470501,1905.0
1763318470502,1973.0
1763318470503,1884.0
1763318470504,2559.0
1763318470505,2450.0
1763318470506,1559.0
1763318470507,1486.0
1763318470508,1502.0
1763318470509,1414.0
1763318470510,1570.0
1763318470511,1495.0
1763318470512,676.0
1763318470513,623.0
1763318470514,483.0
1763318470515,421.0
1763318470516,378.0
1763318470517,341.0
1763318470518,304.0
1763318470519,269.0
1763318470520,324.0
1763318470521,295.0
1763318470522,230.0
1763318470523,208.0
1763318470524,183.0
1763318470525,176.0
1763318470526,154.0
1763318470527,130.0
1763318470528,121.0
1763318470529,175.0
1763318470530,146.0
1763318470531,177.0
1763318470532,144.0
1763318470533,126.0
1763318470534,115.0
1763318470535,112.0
1763318470536,80.0
1763318470537,75.0
1763318470538,59.0
1763318470539,341.0
1763318470540,464.0
1763318470541,590.0
1763318470542,656.0
1763318470543,960.0
1763318470544,1008.0
1763318470545,844.0
1763318470546,1119.0
1763318470547,1185.0
1763318470548,1232.0
1763318470549,1503.0
1763318470550,1344.0
1763318470551,1264.0
1763318470552,1578.0
1763318470553,1575.0
1763318470554,1631.0
1763318470555,2481.0
1763318470556,2640.0
1763318470557,2618.0
1763318470558,3275.0
1763318470559,3614.0
1763318470560,4095.0
1763318470561,4095.0
1763318470562,3430.0
1763318470563,2688.0
1763318470564,2058.0
1763318470565,1787.0
1763318470566,2522.0
1763318470567,2928.0
1763318470568,3950.0
1763318470569,4095.0
1763318470570,4095.0
1763318470571,3300.0
1763318470572,2814.0
1763318470573,4095.0
1763318470574,4095.0
1763318470575,4095.0
1763318470576,4095.0
1763318470577,4095.0
1763318470578,4095.0
1763318470579,4095.0
1763318470580,4095.0
1763318470581,4095.0
1763318470582,4095.0
1763318470583,4095.0
1763318470584,4095.0
1763318470585,4095.0
1763318470586,4095.0
1763318470587,4095.0
1763318470588,3963.0
1763318470589,4037.0
1763318470590,3723.0
1763318470591,2417.0
1763318470592,2315.0
1763318470593,2368.0
1763318470594,1904.0
1763318470595,1938.0
1763318470596,1862.0
1763318470597,1785.0
1763318470598,1840.0
1763318470599,1667.0
1763318470600,1898.0
1763318470601,1922.0
1763318470602,2445.0
1763318470603,2207.0
1763318470604,2088.0
1763318470605,3003.0
1763318470606,2863.0
1763318470607,2599.0
1763318470608,2447.0
1763318470609,2177.0
1763318470610,2237.0
1763318470611,2032.0
1763318470612,2194.0
1763318470613,2237.0
1763318470614,2320.0
1763318470615,2491.0
1763318470616,2271.0
1763318470617,1525.0
1763318470618,1493.0
1763318470619,1335.0
1763318470620,1170.0
1763318470621,1049.0
1763318470622,1042.0
1763318470623,1088.0
1763318470624,1020.0
1763318470625,1046.0
1763318470626,1033.0
1763318470627,1007.0
1763318470628,896.0
1763318470629,723.0
1763318470630,627.0
1763318470631,677.0
1763318470632,811.0
1763318470633,773.0
1763318470634,812.0
1763318470635,752.0
1763318470636,858.0
1763318470637,954.0
1763318470638,963.0
1763318470639,1165.0
1763318470640,1331.0
1763318470641,1266.0
1763318470642,1184.0
1763318470643,1251.0
1763318470644,1145.0
1763318470645,1098.0
1763318470646,951.0
1763318470647,697.0
1763318470648,649.0
1763318470649,601.0
1763318470650,694.0
1763318470651,577.0
1763318470652,441.0
1763318470653,448.0
1763318470654,468.0
1763318470655,553.0
1763318470656,438.0
1763318470657,258.0
1763318470658,560.0
1763318470659,461.0
1763318470660,336.0
1763318470661,277.0
1763318470662,267.0
1763318470663,238.0
1763318470664,159.0
1763318470665,129.0
1763318470666,117.0
1763318470667,81.0
1763318470668,124.0
1763318470669,125.0
1763318470670,129.0
1763318470671,131.0
1763318470672,132.0
1763318470673,112.0
1763318470674,155.0
1763318470675,155.0
1763318470676,169.0
1763318470677,237.0
1763318470678,223.0
1763318470679,193.0
1763318470680,186.0
1763318470681,192.0
1763318470682,151.0
1763318470683,125.0
1763318470684,74.0
1763318470685,62.0
1763318470686,61.0
1763318470687,62.0
1763318470688,153.0
1763318470689,175.0
1763318470690,269.0
1763318470691,693.0
1763318470692,786.0
1763318470693,767.0
1763318470694,1646.0
1763318470695,1472.0
1763318470696,1324.0
1763318470697,1163.0
1763318470698,1187.0
1763318470699,1136.0
1763318470700,1494.0
1763318470701,2065.0
1763318470702,1950.0
1763318470703,3847.0
1763318470704,4095.0
1763318470705,2736.0
1763318470706,2737.0
1763318470707,2809.0
1763318470708,2698.0
1763318470709,2478.0
1763318470710,2507.0
1763318470711,2531.0
1763318470712,4071.0
1763318470713,4095.0
1763318470714,4095.0
1763318470715,3424.0
1763318470716,4095.0
1763318470717,4095.0
1763318470718,4047.0
1763318470719,4095.0
1763318470720,4095.0
1763318470721,4095.0
1763318470722,4095.0
1763318470723,4095.0
1763318470724,4095.0
1763318470725,4095.0
1763318470726,3263.0
1763318470727,2337.0
1763318470728,2096.0
1763318470729,2095.0
1763318470730,1873.0
1763318470731,1821.0
1763318470732,2112.0
1763318470733,1690.0
1763318470734,1872.0
1763318470735,1881.0
1763318470736,1841.0
1763318470737,2160.0
1763318470738,2054.0
1763318470739,2166.0
1763318470740,2624.0
1763318470741,2689.0
1763318470742,2589.0
1763318470743,2508.0
1763318470744,2453.0
1763318470745,2056.0
1763318470746,2096.0
1763318470747,2021.0
1763318470748,1895.0
1763318470749,1809.0
1763318470750,1645.0
1763318470751,1411.0
1763318470752,1347.0
1763318470753,1012.0
1763318470754,939.0
1763318470755,913.0
1763318470756,947.0
1763318470757,774.0
1763318470758,820.0
1763318470759,739.0
1763318470760,670.0
1763318470761,644.0
1763318470762,543.0
1763318470763,506.0
1763318470764,509.0
1763318470765,602.0
1763318470766,762.0
1763318470767,940.0
1763318470768,1023.0
1763318470769,991.0
1763318470770,886.0
1763318470771,752.0
1763318470772,656.0
1763318470773,767.0
1763318470774,1191.0
1763318470775,1504.0
1763318470776,1266.0
1763318470777,1510.0
1763318470778,1760.0
1763318470779,1863.0
1763318470780,1920.0
1763318470781,1519.0
1763318470782,1355.0
1763318470783,1246.0
1763318470784,974.0
1763318470785,1124.0
1763318470786,1231.0
1763318470787,1318.0
1763318470788,889.0
1763318470789,539.0
1763318470790,316.0
1763318470791,290.0
1763318470792,188.0
1763318470793,165.0
1763318470794,143.0
1763318470795,115.0
1763318470796,80.0
1763318470797,87.0
1763318470798,112.0
1763318470799,112.0
1763318470800,112.0
1763318470801,141.0
1763318470802,151.0
1763318470803,167.0
1763318470804,138.0
1763318470805,128.0
1763318470806,155.0
1763318470807,185.0
1763318470808,309.0
1763318470809,445.0
1763318470810,620.0
1763318470811,881.0
1763318470812,900.0
1763318470813,709.0
1763318470814,554.0
1763318470815,474.0
1763318470816,411.0
1763318470817,372.0
1763318470818,257.0
1763318470819,255.0
1763318470820,251.0
1763318470821,304.0
1763318470822,370.0
1763318470823,723.0
1763318470824,638.0
1763318470825,970.0
1763318470826,913.0
1763318470827,1019.0
1763318470828,1186.0
1763318470829,1403.0
1763318470830,1611.0
1763318470831,1314.0
1763318470832,1354.0
1763318470833,1361.0
1763318470834,1587.0
1763318470835,1693.0
1763318470836,1790.0
1763318470837,2224.0
1763318470838,2480.0
1763318470839,2659.0
1763318470840,3296.0
1763318470841,4095.0
1763318470842,4095.0
1763318470843,4095.0
1763318470844,4095.0
1763318470845,2966.0
1763318470846,2484.0
1763318470847,2118.0
1763318470848,2112.0
1763318470849,3091.0
1763318470850,4095.0
1763318470851,4095.0
1763318470852,4095.0
1763318470853,3330.0
1763318470854,3120.0
1763318470855,3281.0
1763318470856,3214.0
1763318470857,2906.0
1763318470858,3218.0
1763318470859,3471.0
1763318470860,4095.0
1763318470861,3750.0
1763318470862,3307.0
1763318470863,2998.0
1763318470864,2638.0
1763318470865,2352.0
1763318470866,2320.0
1763318470867,2096.0
1763318470868,2091.0
1763318470869,1986.0
1763318470870,1859.0
1763318470871,1956.0
1763318470872,2207.0
1763318470873,1942.0
1763318470874,1808.0
1763318470875,2364.0
1763318470876,2947.0
1763318470877,2681.0
1763318470878,2672.0
1763318470879,3062.0
1763318470880,2386.0
1763318470881,3607.0
1763318470882,3798.0
1763318470883,4038.0
1763318470884,3943.0
1763318470885,4095.0
1763318470886,2790.0
1763318470887,2559.0
1763318470888,2113.0
1763318470889,1684.0
1763318470890,1535.0
1763318470891,1040.0
1763318470892,949.0
1763318470893,904.0
1763318470894,937.0
1763318470895,834.0
1763318470896,721.0
1763318470897,625.0
1763318470898,575.0
1763318470899,679.0
1763318470900,681.0
1763318470901,579.0
1763318470902,733.0
1763318470903,749.0
1763318470904,803.0
1763318470905,1007.0
1763318470906,927.0
1763318470907,799.0
1763318470908,983.0
1763318470909,1398.0
1763318470910,1197.0
1763318470911,1106.0
1763318470912,851.0
1763318470913,998.0
1763318470914,1225.0
1763318470915,1648.0
1763318470916,1169.0
1763318470917,1261.0
1763318470918,1241.0
1763318470919,1401.0
1763318470920,2622.0
1763318470921,1631.0
1763318470922,1647.0
1763318470923,1517.0
1763318470924,655.0
1763318470925,299.0
1763318470926,172.0
1763318470927,195.0
1763318470928,173.0
1763318470929,176.0
1763318470930,155.0
1763318470931,145.0
1763318470932,117.0
1763318470933,144.0
1763318470934,133.0
1763318470935,144.0
1763318470936,141.0
1763318470937,138.0
1763318470938,177.0
1763318470939,137.0
1763318470940,141.0
1763318470941,137.0
1763318470942,145.0
1763318470943,163.0
1763318470944,143.0
1763318470945,101.0
1763318470946,91.0
1763318470947,103.0
1763318470948,84.0
1763318470949,101.0
1763318470950,189.0
1763318470951,1514.0
1763318470952,1477.0
1763318470953,1248.0
1763318470954,1132.0
1763318470955,1404.0
1763318470956,1737.0
1763318470957,2432.0
1763318470958,2703.0
1763318470959,2633.0
1763318470960,2695.0
1763318470961,3334.0
1763318470962,3979.0
1763318470963,3216.0
1763318470964,2555.0
1763318470965,2832.0
1763318470966,2659.0
1763318470967,2439.0
1763318470968,2400.0
1763318470969,2679.0
1763318470970,2466.0
1763318470971,3030.0
1763318470972,3748.0
1763318470973,4095.0
1763318470974,4095.0
1763318470975,4095.0
1763318470976,3836.0
1763318470977,4095.0
1763318470978,4095.0
1763318470979,4095.0
1763318470980,4095.0
1763318470981,4095.0
1763318470982,3172.0
1763318470983,3411.0
1763318470984,3966.0
1763318470985,3271.0
1763318470986,2629.0
1763318470987,2511.0
1763318470988,2559.0
1763318470989,2593.0
1763318470990,2529.0
1763318470991,2289.0
1763318470992,2017.0
1763318470993,2122.0
1763318470994,2000.0
1763318470995,1842.0
1763318470996,1968.0
1763318470997,2166.0
1763318470998,2125.0
1763318470999,2289.0
1763318471000,2587.0
1763318471001,2479.0
1763318471002,2486.0
1763318471003,2559.0
1763318471004,2065.0
1763318471005,1586.0
1763318471006,1182.0
1763318471007,1200.0
1763318471008,1147.0
1763318471009,895.0
1763318471010,1023.0
1763318471011,757.0
1763318471012,752.0
1763318471013,653.0
1763318471014,604.0
1763318471015,650.0
1763318471016,640.0
1763318471017,574.0
1763318471018,717.0
1763318471019,785.0
1763318471020,958.0
1763318471021,936.0
1763318471022,905.0
1763318471023,1098.0
1763318471024,1057.0
1763318471025,914.0
1763318471026,1168.0
1763318471027,1067.0
1763318471028,912.0
1763318471029,782.0
1763318471030,725.0
1763318471031,656.0
1763318471032,578.0
1763318471033,576.0
1763318471034,748.0
1763318471035,932.0
1763318471036,869.0
1763318471037,875.0
1763318471038,982.0
1763318471039,1119.0
1763318471040,2305.0
1763318471041,4095.0
1763318471042,4095.0
1763318471043,2896.0
1763318471044,2485.0
1763318471045,1968.0
1763318471046,1871.0
1763318471047,1806.0
1763318471048,781.0
1763318471049,607.0
1763318471050,330.0
1763318471051,251.0
1763318471052,176.0
1763318471053,176.0
1763318471054,159.0
1763318471055,155.0
1763318471056,166.0
1763318471057,203.0
1763318471058,193.0
1763318471059,207.0
1763318471060,230.0
1763318471061,195.0
1763318471062,202.0
1763318471063,224.0
1763318471064,276.0
1763318471065,281.0
1763318471066,209.0
1763318471067,238.0
1763318471068,241.0
1763318471069,240.0
1763318471070,211.0
1763318471071,195.0
1763318471072,175.0
1763318471073,112.0
1763318471074,114.0
1763318471075,156.0
1763318471076,352.0
1763318471077,433.0
1763318471078,478.0
1763318471079,520.0
1763318471080,752.0
1763318471081,721.0
1763318471082,925.0
1763318471083,1387.0
1763318471084,1459.0
1763318471085,1453.0
1763318471086,1427.0
1763318471087,1434.0
1763318471088,2235.0
1763318471089,2887.0
1763318471090,3115.0
1763318471091,2812.0
1763318471092,2364.0
1763318471093,2143.0
1763318471094,2062.0
1763318471095,2339.0
1763318471096,2921.0
1763318471097,3234.0
1763318471098,3882.0
1763318471099,4095.0
1763318471100,4095.0
1763318471101,3821.0
1763318471102,3898.0
1763318471103,4095.0
1763318471104,3565.0
1763318471105,3464.0
1763318471106,2557.0
1763318471107,2304.0
1763318471108,2608.0
1763318471109,2373.0
1763318471110,2769.0
1763318471111,3195.0
1763318471112,3187.0
1763318471113,2816.0
1763318471114,2397.0
1763318471115,2544.0
1763318471116,2492.0
1763318471117,2665.0
1763318471118,2439.0
1763318471119,2448.0
1763318471120,2019.0
1763318471121,1998.0
1763318471122,1899.0
1763318471123,1892.0
1763318471124,1913.0
1763318471125,1572.0
1763318471126,1805.0
1763318471127,1910.0
1763318471128,2283.0
1763318471129,2288.0
1763318471130,2254.0
1763318471131,2256.0
1763318471132,2296.0
1763318471133,2145.0
1763318471134,2546.0
1763318471135,2407.0
1763318471136,2094.0
1763318471137,1819.0
1763318471138,1335.0
1763318471139,1109.0
1763318471140,1040.0
1763318471141,1022.0
1763318471142,1398.0
1763318471143,1084.0
1763318471144,998.0
1763318471145,912.0
1763318471146,693.0
1763318471147,625.0
1763318471148,505.0
1763318471149,465.0
1763318471150,391.0
1763318471151,388.0
1763318471152,461.0
1763318471153,509.0
1763318471154,621.0
1763318471155,579.0
1763318471156,609.0
1763318471157,575.0
1763318471158,1232.0
1763318471159,1382.0
1763318471160,1062.0
1763318471161,983.0
1763318471162,1003.0
1763318471163,1060.0
1763318471164,983.0
1763318471165,866.0
1763318471166,886.0
1763318471167,864.0
1763318471168,743.0
1763318471169,546.0
1763318471170,621.0
1763318471171,573.0
1763318471172,610.0
1763318471173,301.0
1763318471174,320.0
1763318471175,471.0
1763318471176,565.0
1763318471177,351.0
1763318471178,213.0
1763318471179,197.0
1763318471180,208.0
1763318471181,177.0
1763318471182,208.0
1763318471183,269.0
1763318471184,228.0
1763318471185,215.0
1763318471186,204.0
1763318471187,186.0
1763318471188,213.0
1763318471189,163.0
1763318471190,160.0
1763318471191,183.0
1763318471192,227.0
1763318471193,232.0
1763318471194,253.0
1763318471195,319.0
1763318471196,215.0
1763318471197,210.0
1763318471198,171.0
1763318471199,146.0
1763318471200,198.0
1763318471201,173.0
1763318471202,138.0
1763318471203,118.0
1763318471204,80.0
1763318471205,121.0
1763318471206,349.0
1763318471207,544.0
1763318471208,558.0
1763318471209,986.0
1763318471210,1405.0
1763318471211,1670.0
1763318471212,1909.0
1763318471213,2065.0
1763318471214,2086.0
1763318471215,1692.0
1763318471216,1936.0
1763318471217,2256.0
1763318471218,2471.0
1763318471219,2549.0
1763318471220,2977.0
1763318471221,2779.0
1763318471222,2241.0
1763318471223,2224.0
1763318471224,2033.0
1763318471225,2209.0
1763318471226,2598.0
1763318471227,2436.0
1763318471228,2027.0
1763318471229,2322.0
1763318471230,2087.0
1763318471231,1821.0
1763318471232,4095.0
1763318471233,4095.0
1763318471234,4095.0
1763318471235,4095.0
1763318471236,4095.0
1763318471237,3703.0
1763318471238,2421.0
1763318471239,2337.0
1763318471240,2335.0
1763318471241,2130.0
1763318471242,1934.0
