time_ms,emg_value
1763142377770,0.0
1763142377771,4.0
1763142377772,8.0
1763142377773,0.0
1763142377774,1.0
1763142377775,5.0
1763142377776,0.0
1763142377777,0.0
1763142377778,3.0
1763142377779,2.0
1763142377780,9.0
1763142377781,0.0
1763142377782,0.0
1763142377783,6.0
1763142377784,0.0
1763142377785,10.0
1763142377786,0.0
1763142377787,0.0
1763142377788,0.0
1763142377789,13.0
1763142377790,0.0
1763142377791,0.0
1763142377792,11.0
1763142377793,3.0
1763142377794,0.0
1763142377795,11.0
1763142377796,5.0
1763142377797,0.0
1763142377798,0.0
1763142377799,0.0
1763142377800,0.0
1763142377801,3.0
1763142377802,0.0
1763142377803,0.0
1763142377804,1.0
1763142377805,1.0
1763142377806,13.0
1763142377807,3.0
1763142377808,12.0
1763142377809,15.0
1763142377810,0.0
1763142377811,0.0
1763142377812,0.0
1763142377813,0.0
1763142377814,4.0
1763142377815,15.0
1763142377816,5.0
1763142377817,4.0
1763142377818,5.0
1763142377819,2.0
1763142377820,9.0
1763142377821,0.0
1763142377822,0.0
1763142377823,3.0
1763142377824,0.0
1763142377825,0.0
1763142377826,0.0
1763142377827,0.0
1763142377828,10.0
1763142377829,0.0
1763142377830,10.0
1763142377831,4.0
1763142377832,4.0
1763142377833,10.0
1763142377834,0.0
1763142377835,0.0
1763142377836,11.0
1763142377837,0.0
1763142377838,0.0
1763142377839,5.0
1763142377840,4.0
1763142377841,0.0
1763142377842,3.0
1763142377843,13.0
1763142377844,3.0
1763142377845,2.0
1763142377846,2.0
1763142377847,11.0
1763142377848,0.0
1763142377849,1.0
1763142377850,0.0
1763142377851,0.0
1763142377852,11.0
1763142377853,0.0
1763142377854,6.0
1763142377855,0.0
1763142377856,6.0
1763142377857,0.0
1763142377858,13.0
1763142377859,3.0
1763142377860,0.0
1763142377861,0.0
1763142377862,5.0
1763142377863,16.0
1763142377864,0.0
1763142377865,7.0
1763142377866,0.0
1763142377867,0.0
1763142377868,3.0
1763142377869,0.0
1763142377870,0.0
1763142377871,0.0
1763142377872,9.0
1763142377873,10.0
1763142377874,0.0
1763142377875,11.0
1763142377876,0.0
1763142377877,5.0
1763142377878,0.0
1763142377879,1.0
1763142377880,0.0
1763142377881,16.0
1763142377882,0.0
1763142377883,0.0
1763142377884,0.0
1763142377885,2.0
1763142377886,14.0
1763142377887,0.0
1763142377888,3.0
1763142377889,16.0
1763142377890,0.0
1763142377891,18.0
1763142377892,3.0
1763142377893,0.0
1763142377894,5.0
1763142377895,0.0
1763142377896,0.0
1763142377897,1.0
1763142377898,1.0
1763142377899,15.0
1763142377900,9.0
1763142377901,4.0
1763142377902,5.0
1763142377903,0.0
1763142377904,1.0
1763142377905,0.0
1763142377906,0.0
1763142377907,5.0
1763142377908,0.0
1763142377909,14.0
1763142377910,0.0
1763142377911,0.0
1763142377912,0.0
1763142377913,0.0
1763142377914,0.0
1763142377915,7.0
1763142377916,7.0
1763142377917,0.0
1763142377918,3.0
1763142377919,0.0
1763142377920,0.0
1763142377921,3.0
1763142377922,5.0
1763142377923,0.0
1763142377924,0.0
1763142377925,16.0
1763142377926,0.0
1763142377927,3.0
1763142377928,3.0
1763142377929,0.0
1763142377930,1.0
1763142377931,0.0
1763142377932,0.0
1763142377933,0.0
1763142377934,15.0
1763142377935,0.0
1763142377936,0.0
1763142377937,0.0
1763142377938,12.0
1763142377939,0.0
1763142377940,6.0
1763142377941,1.0
1763142377942,0.0
1763142377943,16.0
1763142377944,0.0
1763142377945,0.0
1763142377946,1.0
1763142377947,0.0
1763142377948,1.0
1763142377949,3.0
1763142377950,0.0
1763142377951,0.0
1763142377952,0.0
1763142377953,14.0
1763142377954,5.0
1763142377955,16.0
1763142377956,2.0
1763142377957,9.0
1763142377958,0.0
1763142377959,0.0
1763142377960,6.0
1763142377961,0.0
1763142377962,0.0
1763142377963,0.0
1763142377964,0.0
1763142377965,0.0
1763142377966,0.0
1763142377967,1.0
1763142377968,6.0
1763142377969,10.0
1763142377970,0.0
1763142377971,0.0
1763142377972,0.0
1763142377973,0.0
1763142377974,3.0
1763142377975,2.0
1763142377976,0.0
1763142377977,0.0
1763142377978,11.0
1763142377979,0.0
1763142377980,0.0
1763142377981,2.0
1763142377982,0.0
1763142377983,10.0
1763142377984,0.0
1763142377985,0.0
1763142377986,0.0
1763142377987,6.0
1763142377988,0.0
1763142377989,0.0
1763142377990,4.0
1763142377991,11.0
1763142377992,16.0
1763142377993,0.0
1763142377994,6.0
1763142377995,4.0
1763142377996,6.0
1763142377997,5.0
1763142377998,0.0
1763142377999,16.0
1763142378000,7.0
1763142378001,0.0
1763142378002,9.0
1763142378003,0.0
1763142378004,0.0
1763142378005,6.0
1763142378006,8.0
1763142378007,0.0
1763142378008,6.0
1763142378009,13.0
1763142378010,0.0
1763142378011,9.0
1763142378012,0.0
1763142378013,0.0
1763142378014,2.0
1763142378015,14.0
1763142378016,12.0
1763142378017,0.0
1763142378018,14.0
1763142378019,12.0
1763142378020,0.0
1763142378021,0.0
1763142378022,0.0
1763142378023,0.0
1763142378024,2.0
1763142378025,0.0
1763142378026,6.0
1763142378027,0.0
1763142378028,0.0
1763142378029,7.0
1763142378030,0.0
1763142378031,0.0
1763142378032,3.0
1763142378033,3.0
1763142378034,0.0
1763142378035,0.0
1763142378036,6.0
1763142378037,0.0
1763142378038,0.0
1763142378039,0.0
1763142378040,1.0
1763142378041,0.0
1763142378042,3.0
1763142378043,0.0
1763142378044,10.0
1763142378045,0.0
1763142378046,0.0
1763142378047,0.0
1763142378048,4.0
1763142378049,0.0
1763142378050,0.0
1763142378051,11.0
1763142378052,14.0
1763142378053,6.0
1763142378054,0.0
1763142378055,6.0
1763142378056,0.0
1763142378057,0.0
1763142378058,0.0
1763142378059,5.0
1763142378060,0.0
1763142378061,0.0
1763142378062,0.0
1763142378063,0.0
1763142378064,0.0
1763142378065,3.0
1763142378066,0.0
1763142378067,2.0
1763142378068,0.0
1763142378069,9.0
1763142378070,10.0
1763142378071,0.0
1763142378072,0.0
1763142378073,3.0
1763142378074,10.0
1763142378075,7.0
1763142378076,1.0
1763142378077,5.0
1763142378078,3.0
1763142378079,5.0
1763142378080,16.0
1763142378081,0.0
1763142378082,2.0
1763142378083,0.0
1763142378084,0.0
1763142378085,1.0
1763142378086,18.0
1763142378087,0.0
1763142378088,9.0
1763142378089,0.0
1763142378090,13.0
1763142378091,2.0
1763142378092,5.0
1763142378093,5.0
1763142378094,0.0
1763142378095,2.0
1763142378096,0.0
1763142378097,16.0
1763142378098,0.0
1763142378099,9.0
1763142378100,6.0
1763142378101,7.0
1763142378102,9.0
1763142378103,0.0
1763142378104,4.0
1763142378105,0.0
1763142378106,0.0
1763142378107,0.0
1763142378108,11.0
1763142378109,0.0
1763142378110,5.0
1763142378111,5.0
1763142378112,0.0
1763142378113,1.0
1763142378114,0.0
1763142378115,0.0
1763142378116,0.0
1763142378117,14.0
1763142378118,10.0
1763142378119,0.0
1763142378120,0.0
1763142378121,9.0
1763142378122,12.0
1763142378123,9.0
1763142378124,12.0
1763142378125,0.0
1763142378126,0.0
1763142378127,0.0
1763142378128,0.0
1763142378129,8.0
1763142378130,5.0
1763142378131,0.0
1763142378132,0.0
1763142378133,0.0
1763142378134,10.0
1763142378135,0.0
1763142378136,0.0
1763142378137,16.0
1763142378138,0.0
1763142378139,0.0
1763142378140,9.0
1763142378141,12.0
1763142378142,0.0
1763142378143,9.0
1763142378144,10.0
1763142378145,0.0
1763142378146,0.0
1763142378147,13.0
1763142378148,3.0
1763142378149,0.0
1763142378150,0.0
1763142378151,0.0
1763142378152,3.0
1763142378153,0.0
1763142378154,0.0
1763142378155,0.0
1763142378156,0.0
1763142378157,2.0
1763142378158,0.0
1763142378159,10.0
1763142378160,10.0
1763142378161,0.0
1763142378162,8.0
1763142378163,0.0
1763142378164,0.0
1763142378165,0.0
1763142378166,0.0
1763142378167,11.0
1763142378168,0.0
1763142378169,4.0
1763142378170,2.0
1763142378171,0.0
1763142378172,0.0
1763142378173,0.0
1763142378174,2.0
1763142378175,0.0
1763142378176,15.0
1763142378177,6.0
1763142378178,0.0
1763142378179,0.0
1763142378180,4.0
1763142378181,0.0
1763142378182,0.0
1763142378183,13.0
1763142378184,0.0
1763142378185,0.0
1763142378186,0.0
1763142378187,12.0
1763142378188,10.0
1763142378189,16.0
1763142378190,7.0
1763142378191,0.0
1763142378192,0.0
1763142378193,2.0
1763142378194,0.0
1763142378195,8.0
1763142378196,0.0
1763142378197,4.0
1763142378198,0.0
1763142378199,0.0
1763142378200,6.0
1763142378201,1.0
1763142378202,0.0
1763142378203,1.0
1763142378204,9.0
1763142378205,0.0
1763142378206,0.0
1763142378207,0.0
1763142378208,16.0
1763142378209,7.0
1763142378210,0.0
1763142378211,0.0
1763142378212,15.0
1763142378213,12.0
1763142378214,13.0
1763142378215,0.0
1763142378216,5.0
1763142378217,0.0
1763142378218,5.0
1763142378219,0.0
1763142378220,12.0
1763142378221,0.0
1763142378222,0.0
1763142378223,0.0
1763142378224,7.0
1763142378225,9.0
1763142378226,0.0
1763142378227,0.0
1763142378228,14.0
1763142378229,0.0
1763142378230,16.0
1763142378231,0.0
1763142378232,0.0
1763142378233,0.0
1763142378234,4.0
1763142378235,0.0
1763142378236,0.0
1763142378237,0.0
1763142378238,6.0
1763142378239,13.0
1763142378240,8.0
1763142378241,0.0
1763142378242,0.0
1763142378243,2.0
1763142378244,0.0
1763142378245,6.0
1763142378246,2.0
1763142378247,7.0
1763142378248,10.0
1763142378249,0.0
1763142378250,4.0
1763142378251,9.0
1763142378252,0.0
1763142378253,4.0
1763142378254,0.0
1763142378255,0.0
1763142378256,17.0
1763142378257,1.0
1763142378258,13.0
1763142378259,3.0
1763142378260,0.0
1763142378261,3.0
1763142378262,7.0
1763142378263,0.0
1763142378264,0.0
1763142378265,15.0
1763142378266,14.0
1763142378267,0.0
1763142378268,15.0
1763142378269,14.0
1763142378270,0.0
1763142378271,6.0
1763142378272,4.0
1763142378273,0.0
1763142378274,0.0
1763142378275,0.0
1763142378276,0.0
1763142378277,0.0
1763142378278,0.0
1763142378279,2.0
1763142378280,0.0
1763142378281,0.0
1763142378282,5.0
1763142378283,6.0
1763142378284,0.0
1763142378285,3.0
1763142378286,3.0
1763142378287,1.0
1763142378288,12.0
1763142378289,5.0
1763142378290,0.0
1763142378291,6.0
1763142378292,0.0
1763142378293,0.0
1763142378294,13.0
1763142378295,0.0
1763142378296,0.0
1763142378297,0.0
1763142378298,5.0
1763142378299,0.0
1763142378300,1.0
1763142378301,1.0
1763142378302,0.0
1763142378303,5.0
1763142378304,5.0
1763142378305,2.0
1763142378306,0.0
1763142378307,0.0
1763142378308,16.0
1763142378309,4.0
1763142378310,0.0
1763142378311,6.0
1763142378312,16.0
1763142378313,1.0
1763142378314,10.0
1763142378315,6.0
1763142378316,2.0
1763142378317,1.0
1763142378318,5.0
1763142378319,1.0
1763142378320,0.0
1763142378321,0.0
1763142378322,0.0
1763142378323,0.0
1763142378324,9.0
1763142378325,0.0
1763142378326,16.0
1763142378327,0.0
1763142378328,0.0
1763142378329,0.0
1763142378330,2.0
1763142378331,5.0
1763142378332,14.0
1763142378333,10.0
1763142378334,0.0
1763142378335,4.0
1763142378336,14.0
1763142378337,10.0
1763142378338,1.0
1763142378339,2.0
1763142378340,1.0
1763142378341,11.0
1763142378342,4.0
1763142378343,0.0
1763142378344,0.0
1763142378345,9.0
1763142378346,0.0
1763142378347,8.0
1763142378348,0.0
1763142378349,11.0
1763142378350,10.0
1763142378351,3.0
1763142378352,14.0
1763142378353,0.0
1763142378354,6.0
1763142378355,0.0
1763142378356,16.0
1763142378357,0.0
1763142378358,1.0
1763142378359,7.0
1763142378360,0.0
1763142378361,0.0
1763142378362,0.0
1763142378363,15.0
1763142378364,3.0
1763142378365,0.0
1763142378366,0.0
1763142378367,0.0
1763142378368,0.0
1763142378369,2.0
1763142378370,11.0
1763142378371,10.0
1763142378372,0.0
1763142378373,0.0
1763142378374,8.0
1763142378375,7.0
1763142378376,12.0
1763142378377,6.0
1763142378378,0.0
1763142378379,0.0
1763142378380,0.0
1763142378381,10.0
1763142378382,12.0
1763142378383,2.0
1763142378384,16.0
1763142378385,0.0
1763142378386,10.0
1763142378387,1.0
1763142378388,13.0
1763142378389,1.0
1763142378390,4.0
1763142378391,2.0
1763142378392,0.0
1763142378393,1.0
1763142378394,0.0
1763142378395,0.0
1763142378396,0.0
1763142378397,12.0
1763142378398,10.0
1763142378399,12.0
1763142378400,0.0
1763142378401,14.0
1763142378402,0.0
1763142378403,0.0
1763142378404,0.0
1763142378405,7.0
1763142378406,0.0
1763142378407,0.0
1763142378408,4.0
1763142378409,0.0
1763142378410,0.0
1763142378411,11.0
1763142378412,13.0
1763142378413,2.0
1763142378414,0.0
1763142378415,8.0
1763142378416,0.0
1763142378417,0.0
1763142378418,5.0
1763142378419,0.0
1763142378420,4.0
1763142378421,4.0
1763142378422,5.0
1763142378423,0.0
1763142378424,0.0
1763142378425,9.0
1763142378426,2.0
1763142378427,5.0
1763142378428,1.0
1763142378429,0.0
1763142378430,0.0
1763142378431,0.0
1763142378432,5.0
1763142378433,0.0
1763142378434,0.0
1763142378435,0.0
1763142378436,0.0
1763142378437,1.0
1763142378438,0.0
1763142378439,0.0
1763142378440,0.0
1763142378441,4.0
1763142378442,13.0
1763142378443,0.0
1763142378444,6.0
1763142378445,0.0
1763142378446,10.0
1763142378447,1.0
1763142378448,0.0
1763142378449,16.0
1763142378450,6.0
1763142378451,0.0
1763142378452,3.0
1763142378453,0.0
1763142378454,0.0
1763142378455,0.0
1763142378456,2.0
1763142378457,0.0
1763142378458,4.0
1763142378459,11.0
1763142378460,1.0
1763142378461,16.0
1763142378462,6.0
1763142378463,4.0
1763142378464,12.0
1763142378465,2.0
1763142378466,0.0
1763142378467,4.0
1763142378468,0.0
1763142378469,6.0
1763142378470,16.0
1763142378471,9.0
1763142378472,5.0
1763142378473,0.0
1763142378474,2.0
1763142378475,12.0
1763142378476,2.0
1763142378477,1.0
1763142378478,13.0
1763142378479,10.0
1763142378480,7.0
1763142378481,0.0
1763142378482,0.0
1763142378483,0.0
1763142378484,0.0
1763142378485,0.0
1763142378486,0.0
1763142378487,4.0
1763142378488,0.0
1763142378489,10.0
1763142378490,0.0
1763142378491,3.0
1763142378492,0.0
1763142378493,0.0
1763142378494,0.0
1763142378495,0.0
1763142378496,0.0
1763142378497,11.0
1763142378498,0.0
1763142378499,0.0
1763142378500,1.0
1763142378501,9.0
1763142378502,15.0
1763142378503,0.0
1763142378504,0.0
1763142378505,1.0
1763142378506,1.0
1763142378507,10.0
1763142378508,3.0
1763142378509,17.0
1763142378510,15.0
1763142378511,0.0
1763142378512,11.0
1763142378513,0.0
1763142378514,16.0
1763142378515,0.0
1763142378516,0.0
1763142378517,0.0
1763142378518,10.0
1763142378519,7.0
1763142378520,0.0
1763142378521,15.0
1763142378522,0.0
1763142378523,4.0
1763142378524,0.0
1763142378525,0.0
1763142378526,7.0
1763142378527,0.0
1763142378528,6.0
1763142378529,13.0
1763142378530,16.0
1763142378531,0.0
1763142378532,0.0
1763142378533,0.0
1763142378534,5.0
1763142378535,0.0
1763142378536,0.0
1763142378537,8.0
1763142378538,1.0
1763142378539,15.0
1763142378540,4.0
1763142378541,0.0
1763142378542,0.0
1763142378543,1.0
1763142378544,9.0
1763142378545,7.0
1763142378546,0.0
1763142378547,9.0
1763142378548,14.0
1763142378549,1.0
1763142378550,2.0
1763142378551,4.0
1763142378552,11.0
1763142378553,10.0
1763142378554,0.0
1763142378555,0.0
1763142378556,13.0
1763142378557,4.0
1763142378558,7.0
1763142378559,0.0
1763142378560,15.0
1763142378561,10.0
1763142378562,0.0
1763142378563,3.0
1763142378564,0.0
1763142378565,6.0
1763142378566,9.0
1763142378567,0.0
1763142378568,3.0
1763142378569,14.0
1763142378570,7.0
1763142378571,0.0
1763142378572,0.0
1763142378573,1.0
1763142378574,6.0
1763142378575,2.0
1763142378576,3.0
1763142378577,0.0
1763142378578,0.0
1763142378579,0.0
1763142378580,2.0
1763142378581,0.0
1763142378582,1.0
1763142378583,0.0
1763142378584,0.0
1763142378585,2.0
1763142378586,0.0
1763142378587,2.0
1763142378588,4.0
1763142378589,0.0
1763142378590,3.0
1763142378591,0.0
1763142378592,14.0
1763142378593,13.0
1763142378594,34.0
1763142378595,15.0
1763142378596,21.0
1763142378597,16.0
1763142378598,21.0
1763142378599,10.0
1763142378600,20.0
1763142378601,2.0
1763142378602,1.0
1763142378603,5.0
1763142378604,3.0
1763142378605,0.0
1763142378606,0.0
1763142378607,0.0
1763142378608,0.0
1763142378609,0.0
1763142378610,3.0
1763142378611,1.0
1763142378612,18.0
1763142378613,0.0
1763142378614,0.0
1763142378615,6.0
1763142378616,1.0
1763142378617,9.0
1763142378618,0.0
1763142378619,9.0
1763142378620,0.0
1763142378621,1.0
1763142378622,13.0
1763142378623,14.0
1763142378624,10.0
1763142378625,0.0
1763142378626,9.0
1763142378627,5.0
1763142378628,7.0
1763142378629,10.0
1763142378630,0.0
1763142378631,0.0
1763142378632,3.0
1763142378633,0.0
1763142378634,11.0
1763142378635,0.0
1763142378636,9.0
1763142378637,7.0
1763142378638,0.0
1763142378639,4.0
1763142378640,14.0
1763142378641,9.0
1763142378642,11.0
1763142378643,0.0
1763142378644,16.0
1763142378645,6.0
1763142378646,0.0
1763142378647,0.0
1763142378648,0.0
1763142378649,11.0
1763142378650,0.0
1763142378651,0.0
1763142378652,3.0
1763142378653,0.0
1763142378654,0.0
1763142378655,14.0
1763142378656,0.0
1763142378657,0.0
1763142378658,0.0
1763142378659,0.0
1763142378660,3.0
1763142378661,0.0
1763142378662,0.0
1763142378663,2.0
1763142378664,10.0
1763142378665,9.0
1763142378666,10.0
1763142378667,0.0
1763142378668,11.0
1763142378669,5.0
1763142378670,0.0
1763142378671,3.0
1763142378672,0.0
1763142378673,0.0
1763142378674,0.0
1763142378675,0.0
1763142378676,11.0
1763142378677,5.0
1763142378678,16.0
1763142378679,12.0
1763142378680,15.0
1763142378681,43.0
1763142378682,40.0
1763142378683,73.0
1763142378684,156.0
1763142378685,163.0
1763142378686,145.0
1763142378687,103.0
1763142378688,84.0
1763142378689,80.0
1763142378690,38.0
1763142378691,32.0
1763142378692,16.0
1763142378693,26.0
1763142378694,9.0
1763142378695,0.0
1763142378696,0.0
1763142378697,2.0
1763142378698,0.0
1763142378699,3.0
1763142378700,12.0
1763142378701,0.0
1763142378702,14.0
1763142378703,0.0
1763142378704,0.0
1763142378705,0.0
1763142378706,6.0
1763142378707,1.0
1763142378708,14.0
1763142378709,0.0
1763142378710,0.0
1763142378711,11.0
1763142378712,0.0
1763142378713,7.0
1763142378714,0.0
1763142378715,4.0
1763142378716,9.0
1763142378717,0.0
1763142378718,3.0
1763142378719,0.0
1763142378720,0.0
1763142378721,0.0
1763142378722,0.0
1763142378723,1.0
1763142378724,2.0
1763142378725,9.0
1763142378726,0.0
1763142378727,2.0
1763142378728,16.0
1763142378729,0.0
1763142378730,8.0
1763142378731,0.0
1763142378732,0.0
1763142378733,0.0
1763142378734,0.0
1763142378735,3.0
1763142378736,0.0
1763142378737,0.0
1763142378738,8.0
1763142378739,0.0
1763142378740,2.0
1763142378741,4.0
1763142378742,9.0
1763142378743,0.0
1763142378744,0.0
1763142378745,0.0
1763142378746,0.0
1763142378747,0.0
1763142378748,0.0
1763142378749,0.0
1763142378750,0.0
1763142378751,0.0
1763142378752,0.0
1763142378753,11.0
1763142378754,0.0
1763142378755,0.0
1763142378756,0.0
1763142378757,0.0
1763142378758,12.0
1763142378759,0.0
1763142378760,7.0
1763142378761,0.0
1763142378762,0.0
1763142378763,0.0
1763142378764,9.0
1763142378765,10.0
1763142378766,0.0
1763142378767,0.0
1763142378768,3.0
1763142378769,0.0
1763142378770,5.0
1763142378771,12.0
1763142378772,11.0
1763142378773,4.0
1763142378774,2.0
1763142378775,11.0
1763142378776,0.0
1763142378777,5.0
1763142378778,3.0
1763142378779,6.0
1763142378780,6.0
1763142378781,0.0
1763142378782,0.0
1763142378783,13.0
1763142378784,2.0
1763142378785,0.0
1763142378786,0.0
1763142378787,0.0
1763142378788,7.0
1763142378789,9.0
1763142378790,7.0
1763142378791,0.0
1763142378792,14.0
1763142378793,0.0
1763142378794,0.0
1763142378795,5.0
1763142378796,0.0
1763142378797,9.0
1763142378798,7.0
1763142378799,1.0
1763142378800,9.0
1763142378801,11.0
1763142378802,9.0
1763142378803,0.0
1763142378804,2.0
1763142378805,0.0
1763142378806,9.0
1763142378807,6.0
1763142378808,11.0
1763142378809,16.0
1763142378810,12.0
1763142378811,1.0
1763142378812,8.0
1763142378813,0.0
1763142378814,2.0
1763142378815,0.0
1763142378816,0.0
1763142378817,8.0
1763142378818,5.0
1763142378819,0.0
1763142378820,8.0
1763142378821,0.0
1763142378822,4.0
1763142378823,5.0
1763142378824,0.0
1763142378825,0.0
1763142378826,6.0
1763142378827,6.0
1763142378828,15.0
1763142378829,0.0
1763142378830,11.0
1763142378831,14.0
1763142378832,0.0
1763142378833,10.0
1763142378834,0.0
1763142378835,4.0
1763142378836,9.0
1763142378837,0.0
1763142378838,2.0
1763142378839,10.0
1763142378840,2.0
1763142378841,8.0
1763142378842,0.0
1763142378843,10.0
1763142378844,0.0
1763142378845,0.0
1763142378846,9.0
1763142378847,0.0
1763142378848,0.0
1763142378849,0.0
1763142378850,0.0
1763142378851,0.0
1763142378852,0.0
1763142378853,10.0
1763142378854,0.0
1763142378855,3.0
1763142378856,0.0
1763142378857,15.0
1763142378858,1.0
1763142378859,17.0
1763142378860,0.0
1763142378861,0.0
1763142378862,10.0
1763142378863,8.0
1763142378864,4.0
1763142378865,0.0
1763142378866,0.0
1763142378867,0.0
1763142378868,0.0
1763142378869,0.0
1763142378870,12.0
1763142378871,0.0
1763142378872,0.0
1763142378873,13.0
1763142378874,4.0
1763142378875,15.0
1763142378876,0.0
1763142378877,0.0
1763142378878,0.0
1763142378879,2.0
1763142378880,0.0
1763142378881,6.0
1763142378882,5.0
1763142378883,0.0
1763142378884,0.0
1763142378885,16.0
1763142378886,0.0
1763142378887,15.0
1763142378888,0.0
1763142378889,16.0
1763142378890,11.0
1763142378891,3.0
1763142378892,16.0
1763142378893,0.0
1763142378894,14.0
1763142378895,13.0
1763142378896,11.0
1763142378897,0.0
1763142378898,9.0
1763142378899,4.0
1763142378900,0.0
1763142378901,0.0
1763142378902,0.0
1763142378903,11.0
1763142378904,16.0
1763142378905,5.0
1763142378906,3.0
1763142378907,9.0
1763142378908,10.0
1763142378909,3.0
1763142378910,0.0
1763142378911,0.0
1763142378912,7.0
1763142378913,0.0
1763142378914,0.0
1763142378915,0.0
1763142378916,0.0
1763142378917,4.0
1763142378918,0.0
1763142378919,3.0
1763142378920,1.0
1763142378921,5.0
1763142378922,0.0
1763142378923,4.0
1763142378924,0.0
1763142378925,1.0
1763142378926,16.0
1763142378927,0.0
1763142378928,5.0
1763142378929,0.0
1763142378930,0.0
1763142378931,0.0
1763142378932,10.0
1763142378933,10.0
1763142378934,11.0
1763142378935,0.0
1763142378936,0.0
1763142378937,7.0
1763142378938,1.0
1763142378939,0.0
1763142378940,13.0
1763142378941,13.0
1763142378942,5.0
1763142378943,0.0
1763142378944,0.0
1763142378945,16.0
1763142378946,0.0
1763142378947,9.0
1763142378948,3.0
1763142378949,9.0
1763142378950,0.0
1763142378951,0.0
1763142378952,0.0
1763142378953,11.0
1763142378954,5.0
1763142378955,0.0
1763142378956,7.0
1763142378957,0.0
1763142378958,13.0
1763142378959,7.0
1763142378960,10.0
1763142378961,1.0
1763142378962,0.0
1763142378963,3.0
1763142378964,0.0
1763142378965,0.0
1763142378966,1.0
1763142378967,17.0
1763142378968,15.0
1763142378969,10.0
1763142378970,0.0
1763142378971,13.0
1763142378972,0.0
1763142378973,0.0
1763142378974,4.0
1763142378975,0.0
1763142378976,15.0
1763142378977,0.0
1763142378978,1.0
1763142378979,0.0
1763142378980,0.0
1763142378981,0.0
1763142378982,3.0
1763142378983,0.0
1763142378984,6.0
1763142378985,14.0
1763142378986,1.0
1763142378987,5.0
1763142378988,0.0
1763142378989,1.0
1763142378990,0.0
1763142378991,1.0
1763142378992,9.0
1763142378993,0.0
1763142378994,0.0
1763142378995,0.0
1763142378996,13.0
1763142378997,0.0
1763142378998,15.0
1763142378999,15.0
1763142379000,0.0
1763142379001,0.0
1763142379002,14.0
1763142379003,13.0
1763142379004,14.0
1763142379005,0.0
1763142379006,0.0
1763142379007,16.0
1763142379008,0.0
1763142379009,5.0
1763142379010,5.0
1763142379011,14.0
1763142379012,12.0
1763142379013,6.0
1763142379014,0.0
1763142379015,0.0
1763142379016,10.0
1763142379017,2.0
1763142379018,16.0
1763142379019,6.0
1763142379020,4.0
1763142379021,15.0
1763142379022,13.0
1763142379023,13.0
1763142379024,14.0
1763142379025,6.0
1763142379026,13.0
1763142379027,1.0
1763142379028,18.0
1763142379029,13.0
1763142379030,15.0
1763142379031,6.0
1763142379032,0.0
1763142379033,6.0
1763142379034,0.0
1763142379035,4.0
1763142379036,16.0
1763142379037,0.0
1763142379038,6.0
1763142379039,2.0
1763142379040,0.0
1763142379041,7.0
1763142379042,4.0
1763142379043,7.0
1763142379044,12.0
1763142379045,14.0
1763142379046,16.0
1763142379047,5.0
1763142379048,4.0
1763142379049,2.0
1763142379050,0.0
1763142379051,19.0
1763142379052,0.0
1763142379053,11.0
1763142379054,2.0
1763142379055,0.0
1763142379056,7.0
1763142379057,0.0
1763142379058,4.0
1763142379059,0.0
1763142379060,14.0
1763142379061,9.0
1763142379062,0.0
1763142379063,0.0
1763142379064,10.0
1763142379065,0.0
1763142379066,0.0
1763142379067,0.0
1763142379068,0.0
1763142379069,2.0
1763142379070,0.0
1763142379071,0.0
1763142379072,0.0
1763142379073,0.0
1763142379074,0.0
1763142379075,0.0
1763142379076,15.0
1763142379077,14.0
1763142379078,0.0
1763142379079,7.0
1763142379080,8.0
1763142379081,4.0
1763142379082,7.0
1763142379083,10.0
1763142379084,18.0
1763142379085,4.0
1763142379086,0.0
1763142379087,0.0
1763142379088,0.0
1763142379089,0.0
1763142379090,0.0
1763142379091,12.0
1763142379092,0.0
1763142379093,10.0
1763142379094,0.0
1763142379095,1.0
1763142379096,0.0
1763142379097,0.0
1763142379098,0.0
1763142379099,0.0
1763142379100,0.0
1763142379101,2.0
1763142379102,10.0
1763142379103,0.0
1763142379104,0.0
1763142379105,0.0
1763142379106,1.0
1763142379107,0.0
1763142379108,11.0
1763142379109,0.0
1763142379110,0.0
1763142379111,3.0
1763142379112,0.0
1763142379113,0.0
1763142379114,10.0
1763142379115,2.0
1763142379116,12.0
1763142379117,0.0
1763142379118,0.0
1763142379119,0.0
1763142379120,12.0
1763142379121,4.0
1763142379122,11.0
1763142379123,0.0
1763142379124,11.0
1763142379125,0.0
1763142379126,0.0
1763142379127,7.0
1763142379128,8.0
1763142379129,6.0
1763142379130,0.0
1763142379131,0.0
1763142379132,0.0
1763142379133,0.0
1763142379134,3.0
1763142379135,0.0
1763142379136,16.0
1763142379137,2.0
1763142379138,0.0
1763142379139,0.0
1763142379140,1.0
1763142379141,9.0
1763142379142,14.0
1763142379143,0.0
1763142379144,0.0
1763142379145,0.0
1763142379146,3.0
1763142379147,0.0
1763142379148,12.0
1763142379149,5.0
1763142379150,14.0
1763142379151,2.0
1763142379152,6.0
1763142379153,2.0
1763142379154,0.0
1763142379155,0.0
1763142379156,0.0
1763142379157,9.0
1763142379158,2.0
1763142379159,10.0
1763142379160,12.0
1763142379161,0.0
1763142379162,0.0
1763142379163,10.0
1763142379164,0.0
1763142379165,0.0
1763142379166,5.0
1763142379167,9.0
1763142379168,9.0
1763142379169,0.0
1763142379170,14.0
1763142379171,11.0
1763142379172,7.0
1763142379173,0.0
1763142379174,2.0
1763142379175,0.0
1763142379176,0.0
1763142379177,0.0
1763142379178,0.0
1763142379179,0.0
1763142379180,0.0
1763142379181,1.0
1763142379182,1.0
1763142379183,0.0
1763142379184,5.0
1763142379185,3.0
1763142379186,11.0
1763142379187,0.0
1763142379188,0.0
1763142379189,0.0
1763142379190,0.0
1763142379191,0.0
1763142379192,0.0
1763142379193,6.0
1763142379194,6.0
1763142379195,0.0
1763142379196,0.0
1763142379197,16.0
1763142379198,0.0
1763142379199,2.0
1763142379200,9.0
1763142379201,12.0
1763142379202,1.0
1763142379203,0.0
1763142379204,13.0
1763142379205,0.0
1763142379206,16.0
1763142379207,0.0
1763142379208,0.0
1763142379209,9.0
1763142379210,0.0
1763142379211,0.0
1763142379212,7.0
1763142379213,7.0
1763142379214,10.0
1763142379215,3.0
1763142379216,14.0
1763142379217,15.0
1763142379218,10.0
1763142379219,2.0
1763142379220,13.0
1763142379221,6.0
1763142379222,16.0
1763142379223,0.0
1763142379224,0.0
1763142379225,0.0
1763142379226,3.0
1763142379227,3.0
1763142379228,4.0
1763142379229,0.0
1763142379230,6.0
1763142379231,2.0
1763142379232,0.0
1763142379233,5.0
1763142379234,1.0
1763142379235,10.0
1763142379236,0.0
1763142379237,0.0
1763142379238,0.0
1763142379239,1.0
1763142379240,0.0
1763142379241,12.0
1763142379242,0.0
1763142379243,0.0
1763142379244,11.0
1763142379245,0.0
1763142379246,10.0
1763142379247,13.0
1763142379248,7.0
1763142379249,0.0
1763142379250,18.0
1763142379251,4.0
1763142379252,12.0
1763142379253,0.0
1763142379254,14.0
1763142379255,0.0
1763142379256,0.0
1763142379257,9.0
1763142379258,0.0
1763142379259,16.0
1763142379260,4.0
1763142379261,0.0
1763142379262,3.0
1763142379263,0.0
1763142379264,3.0
1763142379265,6.0
1763142379266,3.0
1763142379267,0.0
1763142379268,1.0
1763142379269,2.0
1763142379270,4.0
1763142379271,5.0
1763142379272,15.0
1763142379273,0.0
1763142379274,3.0
1763142379275,10.0
1763142379276,2.0
1763142379277,0.0
1763142379278,0.0
1763142379279,7.0
1763142379280,11.0
1763142379281,9.0
1763142379282,0.0
1763142379283,3.0
1763142379284,2.0
1763142379285,6.0
1763142379286,1.0
1763142379287,15.0
1763142379288,0.0
1763142379289,0.0
1763142379290,0.0
1763142379291,10.0
1763142379292,13.0
1763142379293,0.0
1763142379294,0.0
1763142379295,1.0
1763142379296,0.0
1763142379297,16.0
1763142379298,0.0
1763142379299,1.0
1763142379300,2.0
1763142379301,11.0
1763142379302,12.0
1763142379303,5.0
1763142379304,0.0
1763142379305,0.0
1763142379306,7.0
1763142379307,16.0
1763142379308,0.0
1763142379309,26.0
1763142379310,18.0
1763142379311,13.0
1763142379312,28.0
1763142379313,6.0
1763142379314,20.0
1763142379315,64.0
1763142379316,94.0
1763142379317,142.0
1763142379318,146.0
1763142379319,145.0
1763142379320,123.0
1763142379321,106.0
1763142379322,81.0
1763142379323,69.0
1763142379324,37.0
1763142379325,32.0
1763142379326,42.0
1763142379327,37.0
1763142379328,26.0
1763142379329,1.0
1763142379330,19.0
1763142379331,15.0
1763142379332,16.0
1763142379333,6.0
1763142379334,16.0
1763142379335,0.0
1763142379336,0.0
1763142379337,6.0
1763142379338,2.0
1763142379339,2.0
1763142379340,10.0
1763142379341,0.0
1763142379342,5.0
1763142379343,9.0
1763142379344,0.0
1763142379345,9.0
1763142379346,0.0
1763142379347,0.0
1763142379348,9.0
1763142379349,0.0
1763142379350,3.0
1763142379351,2.0
1763142379352,15.0
1763142379353,7.0
1763142379354,2.0
1763142379355,0.0
1763142379356,0.0
1763142379357,6.0
1763142379358,0.0
1763142379359,4.0
1763142379360,0.0
1763142379361,1.0
1763142379362,0.0
1763142379363,0.0
1763142379364,0.0
1763142379365,12.0
1763142379366,1.0
1763142379367,0.0
1763142379368,6.0
1763142379369,11.0
1763142395902,0.0
1763142395903,4.0
1763142395904,8.0
1763142395905,0.0
1763142395906,1.0
1763142395907,5.0
1763142395908,0.0
1763142395909,0.0
1763142395910,3.0
1763142395911,2.0
1763142395912,9.0
1763142395913,0.0
1763142395914,0.0
1763142395915,6.0
1763142395916,0.0
1763142395917,10.0
1763142395918,0.0
1763142395919,0.0
1763142395920,0.0
1763142395921,13.0
1763142395922,0.0
1763142395923,0.0
1763142395924,11.0
1763142395925,3.0
1763142395926,0.0
1763142395927,11.0
1763142395928,5.0
1763142395929,0.0
1763142395930,0.0
1763142395931,0.0
1763142395932,0.0
1763142395933,3.0
1763142395934,0.0
1763142395935,0.0
1763142395936,1.0
1763142395937,1.0
1763142395938,13.0
1763142395939,3.0
1763142395940,12.0
1763142395941,15.0
1763142395942,0.0
1763142395943,0.0
1763142395944,0.0
1763142395945,0.0
1763142395946,4.0
1763142395947,15.0
1763142395948,5.0
1763142395949,4.0
1763142395950,5.0
1763142395951,2.0
1763142395952,9.0
1763142395953,0.0
1763142395954,0.0
1763142395955,3.0
1763142395956,0.0
1763142395957,0.0
1763142395958,0.0
1763142395959,0.0
1763142395960,10.0
1763142395961,0.0
1763142395962,10.0
1763142395963,4.0
1763142395964,4.0
1763142395965,10.0
1763142395966,0.0
1763142395967,0.0
1763142395968,11.0
1763142395969,0.0
1763142395970,0.0
1763142395971,5.0
1763142395972,4.0
1763142395973,0.0
1763142395974,3.0
1763142395975,13.0
1763142395976,3.0
1763142395977,2.0
1763142395978,2.0
1763142395979,11.0
1763142395980,0.0
1763142395981,1.0
1763142395982,0.0
1763142395983,0.0
1763142395984,11.0
1763142395985,0.0
1763142395986,6.0
1763142395987,0.0
1763142395988,6.0
1763142395989,0.0
1763142395990,13.0
1763142395991,3.0
1763142395992,0.0
1763142395993,0.0
1763142395994,5.0
1763142395995,16.0
1763142395996,0.0
1763142395997,7.0
1763142395998,0.0
1763142395999,0.0
1763142396000,3.0
1763142396001,0.0
1763142396002,0.0
1763142396003,0.0
1763142396004,9.0
1763142396005,10.0
1763142396006,0.0
1763142396007,11.0
1763142396008,0.0
1763142396009,5.0
1763142396010,0.0
1763142396011,1.0
1763142396012,0.0
1763142396013,16.0
1763142396014,0.0
1763142396015,0.0
1763142396016,0.0
1763142396017,2.0
1763142396018,14.0
1763142396019,0.0
1763142396020,3.0
1763142396021,16.0
1763142396022,0.0
1763142396023,18.0
1763142396024,3.0
1763142396025,0.0
1763142396026,5.0
1763142396027,0.0
1763142396028,0.0
1763142396029,1.0
1763142396030,1.0
1763142396031,15.0
1763142396032,9.0
1763142396033,4.0
1763142396034,5.0
1763142396035,0.0
1763142396036,1.0
1763142396037,0.0
1763142396038,0.0
1763142396039,5.0
1763142396040,0.0
1763142396041,14.0
1763142396042,0.0
1763142396043,0.0
1763142396044,0.0
1763142396045,0.0
1763142396046,0.0
1763142396047,7.0
1763142396048,7.0
1763142396049,0.0
1763142396050,3.0
1763142396051,0.0
1763142396052,0.0
1763142396053,3.0
1763142396054,5.0
1763142396055,0.0
1763142396056,0.0
1763142396057,16.0
1763142396058,0.0
1763142396059,3.0
1763142396060,3.0
1763142396061,0.0
1763142396062,1.0
1763142396063,0.0
1763142396064,0.0
1763142396065,0.0
1763142396066,15.0
1763142396067,0.0
1763142396068,0.0
1763142396069,0.0
1763142396070,12.0
1763142396071,0.0
1763142396072,6.0
1763142396073,1.0
1763142396074,0.0
1763142396075,16.0
1763142396076,0.0
1763142396077,0.0
1763142396078,1.0
1763142396079,0.0
1763142396080,1.0
1763142396081,3.0
1763142396082,0.0
1763142396083,0.0
1763142396084,0.0
1763142396085,14.0
1763142396086,5.0
1763142396087,16.0
1763142396088,2.0
1763142396089,9.0
1763142396090,0.0
1763142396091,0.0
1763142396092,6.0
1763142396093,0.0
1763142396094,0.0
1763142396095,0.0
1763142396096,0.0
1763142396097,0.0
1763142396098,0.0
1763142396099,1.0
1763142396100,6.0
1763142396101,10.0
1763142396102,0.0
1763142396103,0.0
1763142396104,0.0
1763142396105,0.0
1763142396106,3.0
1763142396107,2.0
1763142396108,0.0
1763142396109,0.0
1763142396110,11.0
1763142396111,0.0
1763142396112,0.0
1763142396113,2.0
1763142396114,0.0
1763142396115,10.0
1763142396116,0.0
1763142396117,0.0
1763142396118,0.0
1763142396119,6.0
1763142396120,0.0
1763142396121,0.0
1763142396122,4.0
1763142396123,11.0
1763142396124,16.0
1763142396125,0.0
1763142396126,6.0
1763142396127,4.0
1763142396128,6.0
1763142396129,5.0
1763142396130,0.0
1763142396131,16.0
1763142396132,7.0
1763142396133,0.0
1763142396134,9.0
1763142396135,0.0
1763142396136,0.0
1763142396137,6.0
1763142396138,8.0
1763142396139,0.0
1763142396140,6.0
1763142396141,13.0
1763142396142,0.0
1763142396143,9.0
1763142396144,0.0
1763142396145,0.0
1763142396146,2.0
1763142396147,14.0
1763142396148,12.0
1763142396149,0.0
1763142396150,14.0
1763142396151,12.0
1763142396152,0.0
1763142396153,0.0
1763142396154,0.0
1763142396155,0.0
1763142396156,2.0
1763142396157,0.0
1763142396158,6.0
1763142396159,0.0
1763142396160,0.0
1763142396161,7.0
1763142396162,0.0
1763142396163,0.0
1763142396164,3.0
1763142396165,3.0
1763142396166,0.0
1763142396167,0.0
1763142396168,6.0
1763142396169,0.0
1763142396170,0.0
1763142396171,0.0
1763142396172,1.0
1763142396173,0.0
1763142396174,3.0
1763142396175,0.0
1763142396176,10.0
1763142396177,0.0
1763142396178,0.0
1763142396179,0.0
1763142396180,4.0
1763142396181,0.0
1763142396182,0.0
1763142396183,11.0
1763142396184,14.0
1763142396185,6.0
1763142396186,0.0
1763142396187,6.0
1763142396188,0.0
1763142396189,0.0
1763142396190,0.0
1763142396191,5.0
1763142396192,0.0
1763142396193,0.0
1763142396194,0.0
1763142396195,0.0
1763142396196,0.0
1763142396197,3.0
1763142396198,0.0
1763142396199,2.0
1763142396200,0.0
1763142396201,9.0
1763142396202,10.0
1763142396203,0.0
1763142396204,0.0
1763142396205,3.0
1763142396206,10.0
1763142396207,7.0
1763142396208,1.0
1763142396209,5.0
1763142396210,3.0
1763142396211,5.0
1763142396212,16.0
1763142396213,0.0
1763142396214,2.0
1763142396215,0.0
1763142396216,0.0
1763142396217,1.0
1763142396218,18.0
1763142396219,0.0
1763142396220,9.0
1763142396221,0.0
1763142396222,13.0
1763142396223,2.0
1763142396224,5.0
1763142396225,5.0
1763142396226,0.0
1763142396227,2.0
1763142396228,0.0
1763142396229,16.0
1763142396230,0.0
1763142396231,9.0
1763142396232,6.0
1763142396233,7.0
1763142396234,9.0
1763142396235,0.0
1763142396236,4.0
1763142396237,0.0
1763142396238,0.0
1763142396239,0.0
1763142396240,11.0
1763142396241,0.0
1763142396242,5.0
1763142396243,5.0
1763142396244,0.0
1763142396245,1.0
1763142396246,0.0
1763142396247,0.0
1763142396248,0.0
1763142396249,14.0
1763142396250,10.0
1763142396251,0.0
1763142396252,0.0
1763142396253,9.0
1763142396254,12.0
1763142396255,9.0
1763142396256,12.0
1763142396257,0.0
1763142396258,0.0
1763142396259,0.0
1763142396260,0.0
1763142396261,8.0
1763142396262,5.0
1763142396263,0.0
1763142396264,0.0
1763142396265,0.0
1763142396266,10.0
1763142396267,0.0
1763142396268,0.0
1763142396269,16.0
1763142396270,0.0
1763142396271,0.0
1763142396272,9.0
1763142396273,12.0
1763142396274,0.0
1763142396275,9.0
1763142396276,10.0
1763142396277,0.0
1763142396278,0.0
1763142396279,13.0
1763142396280,3.0
1763142396281,0.0
1763142396282,0.0
1763142396283,0.0
1763142396284,3.0
1763142396285,0.0
1763142396286,0.0
1763142396287,0.0
1763142396288,0.0
1763142396289,2.0
1763142396290,0.0
1763142396291,10.0
1763142396292,10.0
1763142396293,0.0
1763142396294,8.0
1763142396295,0.0
1763142396296,0.0
1763142396297,0.0
1763142396298,0.0
1763142396299,11.0
1763142396300,0.0
1763142396301,4.0
1763142396302,2.0
1763142396303,0.0
1763142396304,0.0
1763142396305,0.0
1763142396306,2.0
1763142396307,0.0
1763142396308,15.0
1763142396309,6.0
1763142396310,0.0
1763142396311,0.0
1763142396312,4.0
1763142396313,0.0
1763142396314,0.0
1763142396315,13.0
1763142396316,0.0
1763142396317,0.0
1763142396318,0.0
1763142396319,12.0
1763142396320,10.0
1763142396321,16.0
1763142396322,7.0
1763142396323,0.0
1763142396324,0.0
1763142396325,2.0
1763142396326,0.0
1763142396327,8.0
1763142396328,0.0
1763142396329,4.0
1763142396330,0.0
1763142396331,0.0
1763142396332,6.0
1763142396333,1.0
1763142396334,0.0
1763142396335,1.0
1763142396336,9.0
1763142396337,0.0
1763142396338,0.0
1763142396339,0.0
1763142396340,16.0
1763142396341,7.0
1763142396342,0.0
1763142396343,0.0
1763142396344,15.0
1763142396345,12.0
1763142396346,13.0
1763142396347,0.0
1763142396348,5.0
1763142396349,0.0
1763142396350,5.0
1763142396351,0.0
1763142396352,12.0
1763142396353,0.0
1763142396354,0.0
1763142396355,0.0
1763142396356,7.0
1763142396357,9.0
1763142396358,0.0
1763142396359,0.0
1763142396360,14.0
1763142396361,0.0
1763142396362,16.0
1763142396363,0.0
1763142396364,0.0
1763142396365,0.0
1763142396366,4.0
1763142396367,0.0
1763142396368,0.0
1763142396369,0.0
1763142396370,6.0
1763142396371,13.0
1763142396372,8.0
1763142396373,0.0
1763142396374,0.0
1763142396375,2.0
1763142396376,0.0
1763142396377,6.0
1763142396378,2.0
1763142396379,7.0
1763142396380,10.0
1763142396381,0.0
1763142396382,4.0
1763142396383,9.0
1763142396384,0.0
1763142396385,4.0
1763142396386,0.0
1763142396387,0.0
1763142396388,17.0
1763142396389,1.0
1763142396390,13.0
1763142396391,3.0
1763142396392,0.0
1763142396393,3.0
1763142396394,7.0
1763142396395,0.0
1763142396396,0.0
1763142396397,15.0
1763142396398,14.0
1763142396399,0.0
1763142396400,15.0
1763142396401,14.0
1763142396402,0.0
1763142396403,6.0
1763142396404,4.0
1763142396405,0.0
1763142396406,0.0
1763142396407,0.0
1763142396408,0.0
1763142396409,0.0
1763142396410,0.0
1763142396411,2.0
1763142396412,0.0
1763142396413,0.0
1763142396414,5.0
1763142396415,6.0
1763142396416,0.0
1763142396417,3.0
1763142396418,3.0
1763142396419,1.0
1763142396420,12.0
1763142396421,5.0
1763142396422,0.0
1763142396423,6.0
1763142396424,0.0
1763142396425,0.0
1763142396426,13.0
1763142396427,0.0
1763142396428,0.0
1763142396429,0.0
1763142396430,5.0
1763142396431,0.0
1763142396432,1.0
1763142396433,1.0
1763142396434,0.0
1763142396435,5.0
1763142396436,5.0
1763142396437,2.0
1763142396438,0.0
1763142396439,0.0
1763142396440,16.0
1763142396441,4.0
1763142396442,0.0
1763142396443,6.0
1763142396444,16.0
1763142396445,1.0
1763142396446,10.0
1763142396447,6.0
1763142396448,2.0
1763142396449,1.0
1763142396450,5.0
1763142396451,1.0
1763142396452,0.0
1763142396453,0.0
1763142396454,0.0
1763142396455,0.0
1763142396456,9.0
1763142396457,0.0
1763142396458,16.0
1763142396459,0.0
1763142396460,0.0
1763142396461,0.0
1763142396462,2.0
1763142396463,5.0
1763142396464,14.0
1763142396465,10.0
1763142396466,0.0
1763142396467,4.0
1763142396468,14.0
1763142396469,10.0
1763142396470,1.0
1763142396471,2.0
1763142396472,1.0
1763142396473,11.0
1763142396474,4.0
1763142396475,0.0
1763142396476,0.0
1763142396477,9.0
1763142396478,0.0
1763142396479,8.0
1763142396480,0.0
1763142396481,11.0
1763142396482,10.0
1763142396483,3.0
1763142396484,14.0
1763142396485,0.0
1763142396486,6.0
1763142396487,0.0
1763142396488,16.0
1763142396489,0.0
1763142396490,1.0
1763142396491,7.0
1763142396492,0.0
1763142396493,0.0
1763142396494,0.0
1763142396495,15.0
1763142396496,3.0
1763142396497,0.0
1763142396498,0.0
1763142396499,0.0
1763142396500,0.0
1763142396501,2.0
1763142396502,11.0
1763142396503,10.0
1763142396504,0.0
1763142396505,0.0
1763142396506,8.0
1763142396507,7.0
1763142396508,12.0
1763142396509,6.0
1763142396510,0.0
1763142396511,0.0
1763142396512,0.0
1763142396513,10.0
1763142396514,12.0
1763142396515,2.0
1763142396516,16.0
1763142396517,0.0
1763142396518,10.0
1763142396519,1.0
1763142396520,13.0
1763142396521,1.0
1763142396522,4.0
1763142396523,2.0
1763142396524,0.0
1763142396525,1.0
1763142396526,0.0
1763142396527,0.0
1763142396528,0.0
1763142396529,12.0
1763142396530,10.0
1763142396531,12.0
1763142396532,0.0
1763142396533,14.0
1763142396534,0.0
1763142396535,0.0
1763142396536,0.0
1763142396537,7.0
1763142396538,0.0
1763142396539,0.0
1763142396540,4.0
1763142396541,0.0
1763142396542,0.0
1763142396543,11.0
1763142396544,13.0
1763142396545,2.0
1763142396546,0.0
1763142396547,8.0
1763142396548,0.0
1763142396549,0.0
1763142396550,5.0
1763142396551,0.0
1763142396552,4.0
1763142396553,4.0
1763142396554,5.0
1763142396555,0.0
1763142396556,0.0
1763142396557,9.0
1763142396558,2.0
1763142396559,5.0
1763142396560,1.0
1763142396561,0.0
1763142396562,0.0
1763142396563,0.0
1763142396564,5.0
1763142396565,0.0
1763142396566,0.0
1763142396567,0.0
1763142396568,0.0
1763142396569,1.0
1763142396570,0.0
1763142396571,0.0
1763142396572,0.0
1763142396573,4.0
1763142396574,13.0
1763142396575,0.0
1763142396576,6.0
1763142396577,0.0
1763142396578,10.0
1763142396579,1.0
1763142396580,0.0
1763142396581,16.0
1763142396582,6.0
1763142396583,0.0
1763142396584,3.0
1763142396585,0.0
1763142396586,0.0
1763142396587,0.0
1763142396588,2.0
1763142396589,0.0
1763142396590,4.0
1763142396591,11.0
1763142396592,1.0
1763142396593,16.0
1763142396594,6.0
1763142396595,4.0
1763142396596,12.0
1763142396597,2.0
1763142396598,0.0
1763142396599,4.0
1763142396600,0.0
1763142396601,6.0
1763142396602,16.0
1763142396603,9.0
1763142396604,5.0
1763142396605,0.0
1763142396606,2.0
1763142396607,12.0
1763142396608,2.0
1763142396609,1.0
1763142396610,13.0
1763142396611,10.0
1763142396612,7.0
1763142396613,0.0
1763142396614,0.0
1763142396615,0.0
1763142396616,0.0
1763142396617,0.0
1763142396618,0.0
1763142396619,4.0
1763142396620,0.0
1763142396621,10.0
1763142396622,0.0
1763142396623,3.0
1763142396624,0.0
1763142396625,0.0
1763142396626,0.0
1763142396627,0.0
1763142396628,0.0
1763142396629,11.0
1763142396630,0.0
1763142396631,0.0
1763142396632,1.0
1763142396633,9.0
1763142396634,15.0
1763142396635,0.0
1763142396636,0.0
1763142396637,1.0
1763142396638,1.0
1763142396639,10.0
1763142396640,3.0
1763142396641,17.0
1763142396642,15.0
1763142396643,0.0
1763142396644,11.0
1763142396645,0.0
1763142396646,16.0
1763142396647,0.0
1763142396648,0.0
1763142396649,0.0
1763142396650,10.0
1763142396651,7.0
1763142396652,0.0
1763142396653,15.0
1763142396654,0.0
1763142396655,4.0
1763142396656,0.0
1763142396657,0.0
1763142396658,7.0
1763142396659,0.0
1763142396660,6.0
1763142396661,13.0
1763142396662,16.0
1763142396663,0.0
1763142396664,0.0
1763142396665,0.0
1763142396666,5.0
1763142396667,0.0
1763142396668,0.0
1763142396669,8.0
1763142396670,1.0
1763142396671,15.0
1763142396672,4.0
1763142396673,0.0
1763142396674,0.0
1763142396675,1.0
1763142396676,9.0
1763142396677,7.0
1763142396678,0.0
1763142396679,9.0
1763142396680,14.0
1763142396681,1.0
1763142396682,2.0
1763142396683,4.0
1763142396684,11.0
1763142396685,10.0
1763142396686,0.0
1763142396687,0.0
1763142396688,13.0
1763142396689,4.0
1763142396690,7.0
1763142396691,0.0
1763142396692,15.0
1763142396693,10.0
1763142396694,0.0
1763142396695,3.0
1763142396696,0.0
1763142396697,6.0
1763142396698,9.0
1763142396699,0.0
1763142396700,3.0
1763142396701,14.0
1763142396702,7.0
1763142396703,0.0
1763142396704,0.0
1763142396705,1.0
1763142396706,6.0
1763142396707,2.0
1763142396708,3.0
1763142396709,0.0
1763142396710,0.0
1763142396711,0.0
1763142396712,2.0
1763142396713,0.0
1763142396714,1.0
1763142396715,0.0
1763142396716,0.0
1763142396717,2.0
1763142396718,0.0
1763142396719,2.0
1763142396720,4.0
1763142396721,0.0
1763142396722,3.0
1763142396723,0.0
1763142396724,14.0
1763142396725,13.0
1763142396726,34.0
1763142396727,15.0
1763142396728,21.0
1763142396729,16.0
1763142396730,21.0
1763142396731,10.0
1763142396732,20.0
1763142396733,2.0
1763142396734,1.0
1763142396735,5.0
1763142396736,3.0
1763142396737,0.0
1763142396738,0.0
1763142396739,0.0
1763142396740,0.0
1763142396741,0.0
1763142396742,3.0
1763142396743,1.0
1763142396744,18.0
1763142396745,0.0
1763142396746,0.0
1763142396747,6.0
1763142396748,1.0
1763142396749,9.0
1763142396750,0.0
1763142396751,9.0
1763142396752,0.0
1763142396753,1.0
1763142396754,13.0
1763142396755,14.0
1763142396756,10.0
1763142396757,0.0
1763142396758,9.0
1763142396759,5.0
1763142396760,7.0
1763142396761,10.0
1763142396762,0.0
1763142396763,0.0
1763142396764,3.0
1763142396765,0.0
1763142396766,11.0
1763142396767,0.0
1763142396768,9.0
1763142396769,7.0
1763142396770,0.0
1763142396771,4.0
1763142396772,14.0
1763142396773,9.0
1763142396774,11.0
1763142396775,0.0
1763142396776,16.0
1763142396777,6.0
1763142396778,0.0
1763142396779,0.0
1763142396780,0.0
1763142396781,11.0
1763142396782,0.0
1763142396783,0.0
1763142396784,3.0
1763142396785,0.0
1763142396786,0.0
1763142396787,14.0
1763142396788,0.0
1763142396789,0.0
1763142396790,0.0
1763142396791,0.0
1763142396792,3.0
1763142396793,0.0
1763142396794,0.0
1763142396795,2.0
1763142396796,10.0
1763142396797,9.0
1763142396798,10.0
1763142396799,0.0
1763142396800,11.0
1763142396801,5.0
1763142396802,0.0
1763142396803,3.0
1763142396804,0.0
1763142396805,0.0
1763142396806,0.0
1763142396807,0.0
1763142396808,11.0
1763142396809,5.0
1763142396810,16.0
1763142396811,12.0
1763142396812,15.0
1763142396813,43.0
1763142396814,40.0
1763142396815,73.0
1763142396816,156.0
1763142396817,163.0
1763142396818,145.0
1763142396819,103.0
1763142396820,84.0
1763142396821,80.0
1763142396822,38.0
1763142396823,32.0
1763142396824,16.0
1763142396825,26.0
1763142396826,9.0
1763142396827,0.0
1763142396828,0.0
1763142396829,2.0
1763142396830,0.0
1763142396831,3.0
1763142396832,12.0
1763142396833,0.0
1763142396834,14.0
1763142396835,0.0
1763142396836,0.0
1763142396837,0.0
1763142396838,6.0
1763142396839,1.0
1763142396840,14.0
1763142396841,0.0
1763142396842,0.0
1763142396843,11.0
1763142396844,0.0
1763142396845,7.0
1763142396846,0.0
1763142396847,4.0
1763142396848,9.0
1763142396849,0.0
1763142396850,3.0
1763142396851,0.0
1763142396852,0.0
1763142396853,0.0
1763142396854,0.0
1763142396855,1.0
1763142396856,2.0
1763142396857,9.0
1763142396858,0.0
1763142396859,2.0
1763142396860,16.0
1763142396861,0.0
1763142396862,8.0
1763142396863,0.0
1763142396864,0.0
1763142396865,0.0
1763142396866,0.0
1763142396867,3.0
1763142396868,0.0
1763142396869,0.0
1763142396870,8.0
1763142396871,0.0
1763142396872,2.0
1763142396873,4.0
1763142396874,9.0
1763142396875,0.0
1763142396876,0.0
1763142396877,0.0
1763142396878,0.0
1763142396879,0.0
1763142396880,0.0
1763142396881,0.0
1763142396882,0.0
1763142396883,0.0
1763142396884,0.0
1763142396885,11.0
1763142396886,0.0
1763142396887,0.0
1763142396888,0.0
1763142396889,0.0
1763142396890,12.0
1763142396891,0.0
1763142396892,7.0
1763142396893,0.0
1763142396894,0.0
1763142396895,0.0
1763142396896,9.0
1763142396897,10.0
1763142396898,0.0
1763142396899,0.0
1763142396900,3.0
1763142396901,0.0
1763142396902,5.0
1763142396903,12.0
1763142396904,11.0
1763142396905,4.0
1763142396906,2.0
1763142396907,11.0
1763142396908,0.0
1763142396909,5.0
1763142396910,3.0
1763142396911,6.0
1763142396912,6.0
1763142396913,0.0
1763142396914,0.0
1763142396915,13.0
1763142396916,2.0
1763142396917,0.0
1763142396918,0.0
1763142396919,0.0
1763142396920,7.0
1763142396921,9.0
1763142396922,7.0
1763142396923,0.0
1763142396924,14.0
1763142396925,0.0
1763142396926,0.0
1763142396927,5.0
1763142396928,0.0
1763142396929,9.0
1763142396930,7.0
1763142396931,1.0
1763142396932,9.0
1763142396933,11.0
1763142396934,9.0
1763142396935,0.0
1763142396936,2.0
1763142396937,0.0
1763142396938,9.0
1763142396939,6.0
1763142396940,11.0
1763142396941,16.0
1763142396942,12.0
1763142396943,1.0
1763142396944,8.0
1763142396945,0.0
1763142396946,2.0
1763142396947,0.0
1763142396948,0.0
1763142396949,8.0
1763142396950,5.0
1763142396951,0.0
1763142396952,8.0
1763142396953,0.0
1763142396954,4.0
1763142396955,5.0
1763142396956,0.0
1763142396957,0.0
1763142396958,6.0
1763142396959,6.0
1763142396960,15.0
1763142396961,0.0
1763142396962,11.0
1763142396963,14.0
1763142396964,0.0
1763142396965,10.0
1763142396966,0.0
1763142396967,4.0
1763142396968,9.0
1763142396969,0.0
1763142396970,2.0
1763142396971,10.0
1763142396972,2.0
1763142396973,8.0
1763142396974,0.0
1763142396975,10.0
1763142396976,0.0
1763142396977,0.0
1763142396978,9.0
1763142396979,0.0
1763142396980,0.0
1763142396981,0.0
1763142396982,0.0
1763142396983,0.0
1763142396984,0.0
1763142396985,10.0
1763142396986,0.0
1763142396987,3.0
1763142396988,0.0
1763142396989,15.0
1763142396990,1.0
1763142396991,17.0
1763142396992,0.0
1763142396993,0.0
1763142396994,10.0
1763142396995,8.0
1763142396996,4.0
1763142396997,0.0
1763142396998,0.0
1763142396999,0.0
1763142397000,0.0
1763142397001,0.0
1763142397002,12.0
1763142397003,0.0
1763142397004,0.0
1763142397005,13.0
1763142397006,4.0
1763142397007,15.0
1763142397008,0.0
1763142397009,0.0
1763142397010,0.0
1763142397011,2.0
1763142397012,0.0
1763142397013,6.0
1763142397014,5.0
1763142397015,0.0
1763142397016,0.0
1763142397017,16.0
1763142397018,0.0
1763142397019,15.0
1763142397020,0.0
1763142397021,16.0
1763142397022,11.0
1763142397023,3.0
1763142397024,16.0
1763142397025,0.0
1763142397026,14.0
1763142397027,13.0
1763142397028,11.0
1763142397029,0.0
1763142397030,9.0
1763142397031,4.0
1763142397032,0.0
1763142397033,0.0
1763142397034,0.0
1763142397035,11.0
1763142397036,16.0
1763142397037,5.0
1763142397038,3.0
1763142397039,9.0
1763142397040,10.0
1763142397041,3.0
1763142397042,0.0
1763142397043,0.0
1763142397044,7.0
1763142397045,0.0
1763142397046,0.0
1763142397047,0.0
1763142397048,0.0
1763142397049,4.0
1763142397050,0.0
1763142397051,3.0
1763142397052,1.0
1763142397053,5.0
1763142397054,0.0
1763142397055,4.0
1763142397056,0.0
1763142397057,1.0
1763142397058,16.0
1763142397059,0.0
1763142397060,5.0
1763142397061,0.0
1763142397062,0.0
1763142397063,0.0
1763142397064,10.0
1763142397065,10.0
1763142397066,11.0
1763142397067,0.0
1763142397068,0.0
1763142397069,7.0
1763142397070,1.0
1763142397071,0.0
1763142397072,13.0
1763142397073,13.0
1763142397074,5.0
1763142397075,0.0
1763142397076,0.0
1763142397077,16.0
1763142397078,0.0
1763142397079,9.0
1763142397080,3.0
1763142397081,9.0
1763142397082,0.0
1763142397083,0.0
1763142397084,0.0
1763142397085,11.0
1763142397086,5.0
1763142397087,0.0
1763142397088,7.0
1763142397089,0.0
1763142397090,13.0
1763142397091,7.0
1763142397092,10.0
1763142397093,1.0
1763142397094,0.0
1763142397095,3.0
1763142397096,0.0
1763142397097,0.0
1763142397098,1.0
1763142397099,17.0
1763142397100,15.0
1763142397101,10.0
1763142397102,0.0
1763142397103,13.0
1763142397104,0.0
1763142397105,0.0
1763142397106,4.0
1763142397107,0.0
1763142397108,15.0
1763142397109,0.0
1763142397110,1.0
1763142397111,0.0
1763142397112,0.0
1763142397113,0.0
1763142397114,3.0
1763142397115,0.0
1763142397116,6.0
1763142397117,14.0
1763142397118,1.0
1763142397119,5.0
1763142397120,0.0
1763142397121,1.0
1763142397122,0.0
1763142397123,1.0
1763142397124,9.0
1763142397125,0.0
1763142397126,0.0
1763142397127,0.0
1763142397128,13.0
1763142397129,0.0
1763142397130,15.0
1763142397131,15.0
1763142397132,0.0
1763142397133,0.0
1763142397134,14.0
1763142397135,13.0
1763142397136,14.0
1763142397137,0.0
1763142397138,0.0
1763142397139,16.0
1763142397140,0.0
1763142397141,5.0
1763142397142,5.0
1763142397143,14.0
1763142397144,12.0
1763142397145,6.0
1763142397146,0.0
1763142397147,0.0
1763142397148,10.0
1763142397149,2.0
1763142397150,16.0
1763142397151,6.0
1763142397152,4.0
1763142397153,15.0
1763142397154,13.0
1763142397155,13.0
1763142397156,14.0
1763142397157,6.0
1763142397158,13.0
1763142397159,1.0
1763142397160,18.0
1763142397161,13.0
1763142397162,15.0
1763142397163,6.0
1763142397164,0.0
1763142397165,6.0
1763142397166,0.0
1763142397167,4.0
1763142397168,16.0
1763142397169,0.0
1763142397170,6.0
1763142397171,2.0
1763142397172,0.0
1763142397173,7.0
1763142397174,4.0
1763142397175,7.0
1763142397176,12.0
1763142397177,14.0
1763142397178,16.0
1763142397179,5.0
1763142397180,4.0
1763142397181,2.0
1763142397182,0.0
1763142397183,19.0
1763142397184,0.0
1763142397185,11.0
1763142397186,2.0
1763142397187,0.0
1763142397188,7.0
1763142397189,0.0
1763142397190,4.0
1763142397191,0.0
1763142397192,14.0
1763142397193,9.0
1763142397194,0.0
1763142397195,0.0
1763142397196,10.0
1763142397197,0.0
1763142397198,0.0
1763142397199,0.0
1763142397200,0.0
1763142397201,2.0
1763142397202,0.0
1763142397203,0.0
1763142397204,0.0
1763142397205,0.0
1763142397206,0.0
1763142397207,0.0
1763142397208,15.0
1763142397209,14.0
1763142397210,0.0
1763142397211,7.0
1763142397212,8.0
1763142397213,4.0
1763142397214,7.0
1763142397215,10.0
1763142397216,18.0
1763142397217,4.0
1763142397218,0.0
1763142397219,0.0
1763142397220,0.0
1763142397221,0.0
1763142397222,0.0
1763142397223,12.0
1763142397224,0.0
1763142397225,10.0
1763142397226,0.0
1763142397227,1.0
1763142397228,0.0
1763142397229,0.0
1763142397230,0.0
1763142397231,0.0
1763142397232,0.0
1763142397233,2.0
1763142397234,10.0
1763142397235,0.0
1763142397236,0.0
1763142397237,0.0
1763142397238,1.0
1763142397239,0.0
1763142397240,11.0
1763142397241,0.0
1763142397242,0.0
1763142397243,3.0
1763142397244,0.0
1763142397245,0.0
1763142397246,10.0
1763142397247,2.0
1763142397248,12.0
1763142397249,0.0
1763142397250,0.0
1763142397251,0.0
1763142397252,12.0
1763142397253,4.0
1763142397254,11.0
1763142397255,0.0
1763142397256,11.0
1763142397257,0.0
1763142397258,0.0
1763142397259,7.0
1763142397260,8.0
1763142397261,6.0
1763142397262,0.0
1763142397263,0.0
1763142397264,0.0
1763142397265,0.0
1763142397266,3.0
1763142397267,0.0
1763142397268,16.0
1763142397269,2.0
1763142397270,0.0
1763142397271,0.0
1763142397272,1.0
1763142397273,9.0
1763142397274,14.0
1763142397275,0.0
1763142397276,0.0
1763142397277,0.0
1763142397278,3.0
1763142397279,0.0
1763142397280,12.0
1763142397281,5.0
1763142397282,14.0
1763142397283,2.0
1763142397284,6.0
1763142397285,2.0
1763142397286,0.0
1763142397287,0.0
1763142397288,0.0
1763142397289,9.0
1763142397290,2.0
1763142397291,10.0
1763142397292,12.0
1763142397293,0.0
1763142397294,0.0
1763142397295,10.0
1763142397296,0.0
1763142397297,0.0
1763142397298,5.0
1763142397299,9.0
1763142397300,9.0
1763142397301,0.0
1763142397302,14.0
1763142397303,11.0
1763142397304,7.0
1763142397305,0.0
1763142397306,2.0
1763142397307,0.0
1763142397308,0.0
1763142397309,0.0
1763142397310,0.0
1763142397311,0.0
1763142397312,0.0
1763142397313,1.0
1763142397314,1.0
1763142397315,0.0
1763142397316,5.0
1763142397317,3.0
1763142397318,11.0
1763142397319,0.0
1763142397320,0.0
1763142397321,0.0
1763142397322,0.0
1763142397323,0.0
1763142397324,0.0
1763142397325,6.0
1763142397326,6.0
1763142397327,0.0
1763142397328,0.0
1763142397329,16.0
1763142397330,0.0
1763142397331,2.0
1763142397332,9.0
1763142397333,12.0
1763142397334,1.0
1763142397335,0.0
1763142397336,13.0
1763142397337,0.0
1763142397338,16.0
1763142397339,0.0
1763142397340,0.0
1763142397341,9.0
1763142397342,0.0
1763142397343,0.0
1763142397344,7.0
1763142397345,7.0
1763142397346,10.0
1763142397347,3.0
1763142397348,14.0
1763142397349,15.0
1763142397350,10.0
1763142397351,2.0
1763142397352,13.0
1763142397353,6.0
1763142397354,16.0
1763142397355,0.0
1763142397356,0.0
1763142397357,0.0
1763142397358,3.0
1763142397359,3.0
1763142397360,4.0
1763142397361,0.0
1763142397362,6.0
1763142397363,2.0
1763142397364,0.0
1763142397365,5.0
1763142397366,1.0
1763142397367,10.0
1763142397368,0.0
1763142397369,0.0
1763142397370,0.0
1763142397371,1.0
1763142397372,0.0
1763142397373,12.0
1763142397374,0.0
1763142397375,0.0
1763142397376,11.0
1763142397377,0.0
1763142397378,10.0
1763142397379,13.0
1763142397380,7.0
1763142397381,0.0
1763142397382,18.0
1763142397383,4.0
1763142397384,12.0
1763142397385,0.0
1763142397386,14.0
1763142397387,0.0
1763142397388,0.0
1763142397389,9.0
1763142397390,0.0
1763142397391,16.0
1763142397392,4.0
1763142397393,0.0
1763142397394,3.0
1763142397395,0.0
1763142397396,3.0
1763142397397,6.0
1763142397398,3.0
1763142397399,0.0
1763142397400,1.0
1763142397401,2.0
1763142397402,4.0
1763142397403,5.0
1763142397404,15.0
1763142397405,0.0
1763142397406,3.0
1763142397407,10.0
1763142397408,2.0
1763142397409,0.0
1763142397410,0.0
1763142397411,7.0
1763142397412,11.0
1763142397413,9.0
1763142397414,0.0
1763142397415,3.0
1763142397416,2.0
1763142397417,6.0
1763142397418,1.0
1763142397419,15.0
1763142397420,0.0
1763142397421,0.0
1763142397422,0.0
1763142397423,10.0
1763142397424,13.0
1763142397425,0.0
1763142397426,0.0
1763142397427,1.0
1763142397428,0.0
1763142397429,16.0
1763142397430,0.0
1763142397431,1.0
1763142397432,2.0
1763142397433,11.0
1763142397434,12.0
1763142397435,5.0
1763142397436,0.0
1763142397437,0.0
1763142397438,7.0
1763142397439,16.0
1763142397440,0.0
1763142397441,26.0
1763142397442,18.0
1763142397443,13.0
1763142397444,28.0
1763142397445,6.0
1763142397446,20.0
1763142397447,64.0
1763142397448,94.0
1763142397449,142.0
1763142397450,146.0
1763142397451,145.0
1763142397452,123.0
1763142397453,106.0
1763142397454,81.0
1763142397455,69.0
1763142397456,37.0
1763142397457,32.0
1763142397458,42.0
1763142397459,37.0
1763142397460,26.0
1763142397461,1.0
1763142397462,19.0
1763142397463,15.0
1763142397464,16.0
1763142397465,6.0
1763142397466,16.0
1763142397467,0.0
1763142397468,0.0
1763142397469,6.0
1763142397470,2.0
1763142397471,2.0
1763142397472,10.0
1763142397473,0.0
1763142397474,5.0
1763142397475,9.0
1763142397476,0.0
1763142397477,9.0
1763142397478,0.0
1763142397479,0.0
1763142397480,9.0
1763142397481,0.0
1763142397482,3.0
1763142397483,2.0
1763142397484,15.0
1763142397485,7.0
1763142397486,2.0
1763142397487,0.0
1763142397488,0.0
1763142397489,6.0
1763142397490,0.0
1763142397491,4.0
1763142397492,0.0
1763142397493,1.0
1763142397494,0.0
1763142397495,0.0
1763142397496,0.0
1763142397497,12.0
1763142397498,1.0
1763142397499,0.0
1763142397500,6.0
1763142397501,11.0
1763142400583,9.0
1763142400584,0.0
1763142400585,1.0
1763142400586,0.0
1763142400587,0.0
1763142400588,0.0
1763142400589,0.0
1763142400590,0.0
1763142400591,0.0
1763142400592,7.0
1763142400593,9.0
1763142400594,7.0
1763142400595,0.0
1763142400596,0.0
1763142400597,16.0
1763142400598,1.0
1763142400599,14.0
1763142400600,3.0
1763142400601,0.0
1763142400602,0.0
1763142400603,10.0
1763142400604,0.0
1763142400605,0.0
1763142400606,11.0
1763142400607,16.0
1763142400608,13.0
1763142400609,7.0
1763142400610,0.0
1763142400611,0.0
1763142400612,14.0
1763142400613,2.0
1763142400614,11.0
1763142400615,13.0
1763142400616,5.0
1763142400617,0.0
1763142400618,15.0
1763142400619,9.0
1763142400620,2.0
1763142400621,0.0
1763142400622,1.0
1763142400623,0.0
1763142400624,3.0
1763142400625,6.0
1763142400626,0.0
1763142400627,0.0
1763142400628,0.0
1763142400629,3.0
1763142400630,1.0
1763142400631,10.0
1763142400632,0.0
1763142400633,7.0
1763142400634,0.0
1763142400635,10.0
1763142400636,0.0
1763142400637,10.0
1763142400638,0.0
1763142400639,15.0
1763142400640,11.0
1763142400641,10.0
1763142400642,0.0
1763142400643,5.0
1763142400644,0.0
1763142400645,4.0
1763142400646,0.0
1763142400647,9.0
1763142400648,0.0
1763142400649,9.0
1763142400650,0.0
1763142400651,0.0
1763142400652,3.0
1763142400653,0.0
1763142400654,0.0
1763142400655,3.0
1763142400656,4.0
1763142400657,1.0
1763142400658,6.0
1763142400659,6.0
1763142400660,0.0
1763142400661,3.0
1763142400662,0.0
1763142400663,10.0
1763142400664,0.0
1763142400665,0.0
1763142400666,6.0
1763142400667,1.0
1763142400668,3.0
1763142400669,4.0
1763142400670,5.0
1763142400671,4.0
1763142400672,16.0
1763142400673,112.0
1763142400674,179.0
1763142400675,155.0
1763142400676,164.0
1763142400677,196.0
1763142400678,226.0
1763142400679,225.0
1763142400680,253.0
1763142400681,240.0
1763142400682,224.0
1763142400683,321.0
1763142400684,287.0
1763142400685,250.0
1763142400686,234.0
1763142400687,278.0
1763142400688,208.0
1763142400689,176.0
1763142400690,148.0
1763142400691,124.0
1763142400692,208.0
1763142400693,202.0
1763142400694,176.0
1763142400695,189.0
1763142400696,193.0
1763142400697,240.0
1763142400698,276.0
1763142400699,304.0
1763142400700,323.0
1763142400701,275.0
1763142400702,238.0
1763142400703,195.0
1763142400704,147.0
1763142400705,127.0
1763142400706,116.0
1763142400707,96.0
1763142400708,80.0
1763142400709,64.0
1763142400710,64.0
1763142400711,65.0
1763142400712,45.0
1763142400713,35.0
1763142400714,27.0
1763142400715,36.0
1763142400716,23.0
1763142400717,46.0
1763142400718,22.0
1763142400719,37.0
1763142400720,26.0
1763142400721,38.0
1763142400722,87.0
1763142400723,180.0
1763142400724,263.0
1763142400725,249.0
1763142400726,209.0
1763142400727,182.0
1763142400728,145.0
1763142400729,115.0
1763142400730,99.0
1763142400731,79.0
1763142400732,64.0
1763142400733,59.0
1763142400734,64.0
1763142400735,64.0
1763142400736,56.0
1763142400737,43.0
1763142400738,46.0
1763142400739,54.0
1763142400740,49.0
1763142400741,35.0
1763142400742,33.0
1763142400743,29.0
1763142400744,41.0
1763142400745,27.0
1763142400746,37.0
1763142400747,37.0
1763142400748,26.0
1763142400749,50.0
1763142400750,36.0
1763142400751,38.0
1763142400752,1373.0
1763142400753,1205.0
1763142400754,1277.0
1763142400755,1243.0
1763142400756,1206.0
1763142400757,1170.0
1763142400758,992.0
1763142400759,846.0
1763142400760,951.0
1763142400761,994.0
1763142400762,1270.0
1763142400763,1072.0
1763142400764,1003.0
1763142400765,927.0
1763142400766,855.0
1763142400767,830.0
1763142400768,946.0
1763142400769,991.0
1763142400770,976.0
1763142400771,833.0
1763142400772,849.0
1763142400773,1202.0
1763142400774,1165.0
1763142400775,1044.0
1763142400776,877.0
1763142400777,866.0
1763142400778,944.0
1763142400779,870.0
1763142400780,972.0
1763142400781,851.0
1763142400782,878.0
1763142400783,875.0
1763142400784,720.0
1763142400785,785.0
1763142400786,849.0
1763142400787,857.0
1763142400788,789.0
1763142400789,786.0
1763142400790,809.0
1763142400791,839.0
1763142400792,781.0
1763142400793,883.0
1763142400794,939.0
1763142400795,1008.0
1763142400796,910.0
1763142400797,837.0
1763142400798,851.0
1763142400799,779.0
1763142400800,741.0
1763142400801,907.0
1763142400802,860.0
1763142400803,985.0
1763142400804,1053.0
1763142400805,1002.0
1763142400806,886.0
1763142400807,768.0
1763142400808,721.0
1763142400809,912.0
1763142400810,1040.0
1763142400811,1085.0
1763142400812,1236.0
1763142400813,1356.0
1763142400814,1502.0
1763142400815,1509.0
1763142400816,1342.0
1763142400817,1266.0
1763142400818,1023.0
1763142400819,858.0
1763142400820,1032.0
1763142400821,1001.0
1763142400822,923.0
1763142400823,912.0
1763142400824,834.0
1763142400825,736.0
1763142400826,694.0
1763142400827,732.0
1763142400828,906.0
1763142400829,923.0
1763142400830,1083.0
1763142400831,1045.0
1763142400832,1288.0
1763142400833,1103.0
1763142400834,988.0
1763142400835,937.0
1763142400836,841.0
1763142400837,978.0
1763142400838,816.0
1763142400839,821.0
1763142400840,730.0
1763142400841,764.0
1763142400842,944.0
1763142400843,881.0
1763142400844,1073.0
1763142400845,1136.0
1763142400846,1014.0
1763142400847,1093.0
1763142400848,1051.0
1763142400849,981.0
1763142400850,1111.0
1763142400851,1226.0
1763142400852,1294.0
1763142400853,1152.0
1763142400854,1012.0
1763142400855,914.0
1763142400856,847.0
1763142400857,1072.0
1763142400858,1122.0
1763142400859,1273.0
1763142400860,1431.0
1763142400861,1340.0
1763142400862,1328.0
1763142400863,1667.0
1763142400864,1872.0
1763142400865,1671.0
1763142400866,1509.0
1763142400867,1810.0
1763142400868,1725.0
1763142400869,1728.0
1763142400870,1905.0
1763142400871,1617.0
1763142400872,1527.0
1763142400873,1629.0
1763142400874,1597.0
1763142400875,1829.0
1763142400876,2166.0
1763142400877,2399.0
1763142400878,2131.0
1763142400879,2022.0
1763142400880,2041.0
1763142400881,1740.0
1763142400882,1667.0
1763142400883,1856.0
1763142400884,1725.0
1763142400885,1908.0
1763142400886,1922.0
1763142400887,1870.0
1763142400888,1677.0
1763142400889,1557.0
1763142400890,1711.0
1763142400891,1911.0
1763142400892,2218.0
1763142400893,2318.0
1763142400894,2159.0
1763142400895,3507.0
1763142400896,3096.0
1763142400897,3216.0
1763142400898,3665.0
1763142400899,3850.0
1763142400900,4095.0
1763142400901,4095.0
1763142400902,3583.0
1763142400903,3520.0
1763142400904,3184.0
1763142400905,2512.0
1763142400906,2819.0
1763142400907,3325.0
1763142400908,4074.0
1763142400909,3437.0
1763142400910,3263.0
1763142400911,3329.0
1763142400912,3017.0
1763142400913,2721.0
1763142400914,2929.0
1763142400915,3086.0
1763142400916,2800.0
1763142400917,2841.0
1763142400918,2701.0
1763142400919,2331.0
1763142400920,2243.0
1763142400921,2256.0
1763142400922,1863.0
1763142400923,1854.0
1763142400924,1717.0
1763142400925,1805.0
1763142400926,1851.0
1763142400927,1904.0
1763142400928,1650.0
1763142400929,1841.0
1763142400930,2010.0
1763142400931,1973.0
1763142400932,1600.0
1763142400933,1648.0
1763142400934,1647.0
1763142400935,1728.0
1763142400936,1808.0
1763142400937,1602.0
1763142400938,1472.0
1763142400939,1266.0
1763142400940,1340.0
1763142400941,1136.0
1763142400942,883.0
1763142400943,893.0
1763142400944,1096.0
1763142400945,1359.0
1763142400946,2288.0
1763142400947,2498.0
1763142400948,2687.0
1763142400949,3746.0
1763142400950,3501.0
1763142400951,3974.0
1763142400952,3325.0
1763142400953,3551.0
1763142400954,3169.0
1763142400955,2723.0
1763142400956,2643.0
1763142400957,2417.0
1763142400958,2254.0
1763142400959,2334.0
1763142400960,1995.0
1763142400961,1839.0
1763142400962,1687.0
1763142400963,1729.0
1763142400964,1402.0
1763142400965,1165.0
1763142400966,1074.0
1763142400967,1307.0
1763142400968,1329.0
1763142400969,1438.0
1763142400970,1417.0
1763142400971,1400.0
1763142400972,1296.0
1763142400973,1354.0
1763142400974,1316.0
1763142400975,1125.0
1763142400976,1057.0
1763142400977,935.0
1763142400978,871.0
1763142400979,1287.0
1763142400980,1266.0
1763142400981,974.0
1763142400982,1394.0
1763142400983,1326.0
1763142400984,1200.0
1763142400985,1197.0
1763142400986,1211.0
1763142400987,1195.0
1763142400988,1452.0
1763142400989,1134.0
1763142400990,1152.0
1763142400991,1149.0
1763142400992,1231.0
1763142400993,1011.0
1763142400994,1008.0
1763142400995,991.0
1763142400996,965.0
1763142400997,972.0
1763142400998,927.0
1763142400999,1044.0
1763142401000,942.0
1763142401001,788.0
1763142401002,667.0
1763142401003,581.0
1763142401004,537.0
1763142401005,502.0
1763142401006,747.0
1763142401007,755.0
1763142401008,720.0
1763142401009,624.0
1763142401010,577.0
1763142401011,526.0
1763142401012,658.0
1763142401013,629.0
1763142401014,593.0
1763142401015,593.0
1763142401016,625.0
1763142401017,624.0
1763142401018,578.0
1763142401019,619.0
1763142401020,507.0
1763142401021,546.0
1763142401022,633.0
1763142401023,561.0
1763142401024,603.0
1763142401025,573.0
1763142401026,475.0
1763142401027,592.0
1763142401028,752.0
1763142401029,848.0
1763142401030,791.0
1763142401031,736.0
1763142401032,720.0
1763142401033,1082.0
1763142401034,1018.0
1763142401035,1020.0
1763142401036,1008.0
1763142401037,1190.0
1763142401038,1236.0
1763142401039,1234.0
1763142401040,1109.0
1763142401041,1064.0
1763142401042,1200.0
1763142401043,1289.0
1763142401044,1356.0
1763142401045,1753.0
1763142401046,1765.0
1763142401047,1574.0
1763142401048,1299.0
1763142401049,1264.0
1763142401050,1483.0
1763142401051,1564.0
1763142401052,1413.0
1763142401053,1480.0
1763142401054,1577.0
1763142401055,1535.0
1763142401056,1308.0
1763142401057,1439.0
1763142401058,1376.0
1763142401059,1618.0
1763142401060,1819.0
1763142401061,1918.0
1763142401062,2212.0
1763142401063,1865.0
1763142401064,1713.0
1763142401065,1600.0
1763142401066,1745.0
1763142401067,1978.0
1763142401068,2071.0
1763142401069,1859.0
1763142401070,1632.0
1763142401071,1402.0
1763142401072,1703.0
1763142401073,1907.0
1763142401074,2310.0
1763142401075,2448.0
1763142401076,2284.0
1763142401077,1871.0
1763142401078,1699.0
1763142401079,1597.0
1763142401080,1744.0
1763142401081,1979.0
1763142401082,2193.0
1763142401083,2435.0
1763142401084,2399.0
1763142401085,2759.0
1763142401086,2849.0
1763142401087,2769.0
1763142401088,2591.0
1763142401089,2353.0
1763142401090,1961.0
1763142401091,2452.0
1763142401092,2960.0
1763142401093,2543.0
1763142401094,1687.0
1763142401095,1659.0
1763142401096,1419.0
1763142401097,1370.0
1763142401098,1232.0
1763142401099,1972.0
1763142401100,1358.0
1763142401101,1251.0
1763142401102,1159.0
1763142401103,960.0
1763142401104,937.0
1763142401105,940.0
1763142401106,1229.0
1763142401107,1319.0
1763142401108,1506.0
1763142401109,1293.0
1763142401110,1125.0
1763142401111,1158.0
1763142401112,1180.0
1763142401113,989.0
1763142401114,883.0
1763142401115,1232.0
1763142401116,1280.0
1763142401117,1244.0
1763142401118,1035.0
1763142401119,1259.0
1763142401120,1472.0
1763142401121,1866.0
1763142401122,1921.0
1763142401123,1968.0
1763142401124,2105.0
1763142401125,2370.0
1763142401126,3293.0
1763142401127,4095.0
1763142401128,4095.0
1763142401129,4095.0
1763142401130,4095.0
1763142401131,4095.0
1763142401132,4095.0
1763142401133,4095.0
1763142401134,4095.0
1763142401135,4095.0
1763142401136,4095.0
1763142401137,4095.0
1763142401138,4095.0
1763142401139,4095.0
1763142401140,4095.0
1763142401141,4095.0
1763142401142,4095.0
1763142401143,4095.0
1763142401144,4095.0
1763142401145,3323.0
1763142401146,3361.0
1763142401147,2944.0
1763142401148,2999.0
1763142401149,2897.0
1763142401150,3312.0
1763142401151,3567.0
1763142401152,4095.0
1763142401153,4095.0
1763142401154,4095.0
1763142401155,4095.0
1763142401156,4095.0
1763142401157,4095.0
1763142401158,4095.0
1763142401159,4095.0
1763142401160,4095.0
1763142401161,3643.0
1763142401162,3392.0
1763142401163,2846.0
1763142401164,2736.0
1763142401165,2894.0
1763142401166,2982.0
1763142401167,3024.0
1763142401168,3020.0
1763142401169,4095.0
1763142401170,4095.0
1763142401171,4095.0
1763142401172,4095.0
1763142401173,4095.0
1763142401174,4095.0
1763142401175,4095.0
1763142401176,4095.0
1763142401177,4095.0
1763142401178,3598.0
1763142401179,3196.0
1763142401180,3095.0
1763142401181,3261.0
1763142401182,3470.0
1763142401183,3714.0
1763142401184,3335.0
1763142401185,2950.0
1763142401186,2555.0
1763142401187,2391.0
1763142401188,2418.0
1763142401189,2637.0
1763142401190,2495.0
1763142401191,2180.0
1763142401192,2162.0
1763142401193,2675.0
1763142401194,2383.0
1763142401195,2515.0
1763142401196,2243.0
1763142401197,2040.0
1763142401198,1950.0
1763142401199,1943.0
1763142401200,1758.0
1763142401201,1654.0
1763142401202,1735.0
1763142401203,1697.0
1763142401204,1558.0
1763142401205,1467.0
1763142401206,1616.0
1763142401207,1642.0
1763142401208,1613.0
1763142401209,2023.0
1763142401210,1843.0
1763142401211,1427.0
1763142401212,1457.0
1763142401213,2078.0
1763142401214,2031.0
1763142401215,2365.0
1763142401216,2759.0
1763142401217,3088.0
1763142401218,2976.0
1763142401219,2823.0
1763142401220,3181.0
1763142401221,2943.0
1763142401222,2579.0
1763142401223,2157.0
1763142401224,2135.0
1763142401225,1973.0
1763142401226,2149.0
1763142401227,2211.0
1763142401228,2043.0
1763142401229,2025.0
1763142401230,2039.0
1763142401231,1873.0
1763142401232,1840.0
1763142401233,2075.0
1763142401234,2281.0
1763142401235,2214.0
1763142401236,2083.0
1763142401237,1891.0
1763142401238,1819.0
1763142401239,1712.0
1763142401240,1579.0
1763142401241,1645.0
1763142401242,1742.0
1763142401243,1910.0
1763142401244,1949.0
1763142401245,1939.0
1763142401246,1980.0
1763142401247,1883.0
1763142401248,2199.0
1763142401249,2071.0
1763142401250,2106.0
1763142401251,1999.0
1763142401252,2147.0
1763142401253,2064.0
1763142401254,1936.0
1763142401255,1854.0
1763142401256,1711.0
1763142401257,1917.0
1763142401258,1751.0
1763142401259,1434.0
1763142401260,1363.0
1763142401261,1184.0
1763142401262,1173.0
1763142401263,1455.0
1763142401264,1386.0
1763142401265,1221.0
1763142401266,1218.0
1763142401267,1105.0
1763142401268,1143.0
1763142401269,1203.0
1763142401270,1136.0
1763142401271,1133.0
1763142401272,1068.0
1763142401273,939.0
1763142401274,926.0
1763142401275,927.0
1763142401276,773.0
1763142401277,865.0
1763142401278,803.0
1763142401279,895.0
1763142401280,733.0
1763142401281,657.0
1763142401282,646.0
1763142401283,730.0
1763142401284,659.0
1763142401285,720.0
1763142401286,740.0
1763142401287,664.0
1763142401288,609.0
1763142401289,714.0
1763142401290,654.0
1763142401291,736.0
1763142401292,620.0
1763142401293,642.0
1763142401294,720.0
1763142401295,683.0
1763142401296,646.0
1763142401297,592.0
1763142401298,563.0
1763142401299,560.0
1763142401300,551.0
1763142401301,617.0
1763142401302,663.0
1763142401303,603.0
1763142401304,704.0
1763142401305,631.0
1763142401306,685.0
1763142401307,635.0
1763142401308,650.0
1763142401309,625.0
1763142401310,619.0
1763142401311,620.0
1763142401312,624.0
1763142401313,666.0
1763142401314,825.0
1763142401315,933.0
1763142401316,1020.0
1763142401317,912.0
1763142401318,1105.0
1763142401319,1245.0
1763142401320,1291.0
1763142401321,1143.0
1763142401322,1153.0
1763142401323,1090.0
1763142401324,1399.0
1763142401325,1391.0
1763142401326,1612.0
1763142401327,1509.0
1763142401328,1253.0
1763142401329,1339.0
1763142401330,1130.0
1763142401331,1570.0
1763142401332,1587.0
1763142401333,1725.0
1763142401334,1478.0
1763142401335,1556.0
1763142401336,1358.0
1763142401337,1307.0
1763142401338,1193.0
1763142401339,1499.0
1763142401340,1605.0
1763142401341,2432.0
1763142401342,2393.0
1763142401343,2173.0
1763142401344,2159.0
1763142401345,2099.0
1763142401346,2275.0
1763142401347,2256.0
1763142401348,2145.0
1763142401349,2367.0
1763142401350,2320.0
1763142401351,2109.0
1763142401352,2061.0
1763142401353,1904.0
1763142401354,1987.0
1763142401355,2223.0
1763142401356,2043.0
1763142401357,2022.0
1763142401358,2032.0
1763142401359,2307.0
1763142401360,2253.0
1763142401361,2317.0
1763142401362,2235.0
1763142401363,2137.0
1763142401364,2213.0
1763142401365,1871.0
1763142401366,2160.0
1763142401367,2197.0
1763142401368,2896.0
1763142401369,3552.0
1763142401370,3818.0
1763142401371,3719.0
1763142401372,2879.0
1763142401373,3037.0
1763142401374,2725.0
1763142401375,2480.0
1763142401376,2256.0
1763142401377,2084.0
1763142401378,2195.0
1763142401379,2017.0
1763142401380,2334.0
1763142401381,2466.0
1763142401382,2463.0
1763142401383,2558.0
1763142401384,2483.0
1763142401385,2624.0
1763142401386,2795.0
1763142401387,2649.0
1763142401388,2327.0
1763142401389,1991.0
1763142401390,2031.0
1763142401391,1840.0
1763142401392,1535.0
1763142401393,1427.0
1763142401394,2001.0
1763142401395,2258.0
1763142401396,2123.0
1763142401397,1899.0
1763142401398,1616.0
1763142401399,1895.0
1763142401400,1767.0
1763142401401,1737.0
1763142401402,1797.0
1763142401403,2046.0
1763142401404,1800.0
1763142401405,1950.0
1763142401406,2118.0
1763142401407,2170.0
1763142401408,2224.0
1763142401409,1939.0
1763142401410,1875.0
1763142401411,1744.0
1763142401412,1642.0
1763142401413,1839.0
1763142401414,1948.0
1763142401415,2032.0
1763142401416,1739.0
1763142401417,1505.0
1763142401418,1535.0
1763142401419,1932.0
1763142401420,1578.0
1763142401421,1568.0
1763142401422,1723.0
1763142401423,1737.0
1763142401424,1943.0
1763142401425,1719.0
1763142401426,1707.0
1763142401427,1776.0
1763142401428,2079.0
1763142401429,1916.0
1763142401430,2094.0
1763142401431,2510.0
1763142401432,2535.0
1763142401433,2352.0
1763142401434,2368.0
1763142401435,2196.0
1763142401436,1971.0
1763142401437,1875.0
1763142401438,1742.0
1763142401439,1535.0
1763142401440,1936.0
1763142401441,2139.0
1763142401442,2244.0
1763142401443,2112.0
1763142401444,2000.0
1763142401445,1691.0
1763142401446,1658.0
1763142401447,2138.0
1763142401448,2068.0
1763142401449,1958.0
1763142401450,1731.0
1763142401451,1983.0
1763142401452,2322.0
1763142401453,2151.0
1763142401454,2099.0
1763142401455,2595.0
1763142401456,3199.0
1763142401457,3679.0
1763142401458,4095.0
1763142401459,4095.0
1763142401460,4095.0
1763142401461,4095.0
1763142401462,4095.0
1763142401463,4095.0
1763142401464,4095.0
1763142401465,4095.0
1763142401466,4095.0
1763142401467,3952.0
1763142401468,3619.0
1763142401469,3853.0
1763142401470,3795.0
1763142401471,3408.0
1763142401472,2766.0
1763142401473,2481.0
1763142401474,2797.0
1763142401475,2909.0
1763142401476,3343.0
1763142401477,4095.0
1763142401478,4095.0
1763142401479,4095.0
1763142401480,4095.0
1763142401481,3972.0
1763142401482,3157.0
1763142401483,2818.0
1763142401484,3280.0
1763142401485,2861.0
1763142401486,2589.0
1763142401487,2192.0
1763142401488,1954.0
1763142401489,2586.0
1763142401490,3088.0
1763142401491,2685.0
1763142401492,2587.0
1763142401493,2655.0
1763142401494,2225.0
1763142401495,2423.0
1763142401496,2896.0
1763142401497,3005.0
1763142401498,3326.0
1763142401499,3407.0
1763142401500,2918.0
1763142401501,2650.0
1763142401502,4095.0
1763142401503,4095.0
1763142401504,4095.0
1763142401505,3991.0
1763142401506,3639.0
1763142401507,3153.0
1763142401508,3137.0
1763142401509,3060.0
1763142401510,2786.0
1763142401511,2309.0
1763142401512,1983.0
1763142401513,2238.0
1763142401514,2191.0
1763142401515,2096.0
1763142401516,1841.0
1763142401517,1940.0
1763142401518,1971.0
1763142401519,2221.0
1763142401520,1995.0
1763142401521,1802.0
1763142401522,1765.0
1763142401523,1788.0
1763142401524,1908.0
1763142401525,1819.0
1763142401526,1841.0
1763142401527,1774.0
1763142401528,1995.0
1763142401529,1809.0
1763142401530,2112.0
1763142401531,1554.0
1763142401532,1666.0
1763142401533,1634.0
1763142401534,1626.0
1763142401535,1611.0
1763142401536,1552.0
1763142401537,1840.0
1763142401538,1698.0
1763142401539,1808.0
1763142401540,2100.0
1763142401541,2622.0
1763142401542,3495.0
1763142401543,3226.0
1763142401544,3214.0
1763142401545,2811.0
1763142401546,1886.0
1763142401547,1664.0
1763142401548,1584.0
1763142401549,1474.0
1763142401550,1646.0
1763142401551,1750.0
1763142401552,1687.0
1763142401553,1535.0
1763142401554,1408.0
1763142401555,1329.0
1763142401556,1309.0
1763142401557,1535.0
1763142401558,1446.0
1763142401559,1569.0
1763142401560,1352.0
1763142401561,1299.0
1763142401562,1344.0
1763142401563,1137.0
1763142401564,1136.0
1763142401565,1157.0
1763142401566,1207.0
1763142401567,1182.0
1763142401568,1169.0
1763142401569,1393.0
1763142401570,1578.0
1763142401571,1699.0
1763142401572,1678.0
1763142401573,1668.0
1763142401574,1394.0
1763142401575,1242.0
1763142401576,1279.0
1763142401577,1141.0
1763142401578,1265.0
1763142401579,1055.0
1763142401580,998.0
1763142401581,1006.0
1763142401582,880.0
1763142401583,1005.0
1763142401584,1105.0
1763142401585,1023.0
1763142401586,1045.0
1763142401587,1143.0
1763142401588,1031.0
1763142401589,1075.0
1763142401590,1248.0
1763142401591,1038.0
1763142401592,1110.0
1763142401593,959.0
1763142401594,938.0
1763142401595,861.0
1763142401596,927.0
1763142401597,933.0
1763142401598,749.0
1763142401599,770.0
1763142401600,723.0
1763142401601,630.0
1763142401602,560.0
1763142401603,552.0
1763142401604,546.0
1763142401605,507.0
1763142401606,653.0
1763142401607,592.0
1763142401608,609.0
1763142401609,576.0
1763142401610,657.0
1763142401611,810.0
1763142401612,737.0
1763142401613,711.0
1763142401614,643.0
1763142401615,753.0
1763142401616,843.0
1763142401617,791.0
1763142401618,752.0
1763142401619,688.0
1763142401620,688.0
1763142401621,624.0
1763142401622,789.0
1763142401623,1031.0
1763142401624,972.0
1763142401625,912.0
1763142401626,912.0
1763142401627,1050.0
1763142401628,997.0
1763142401629,975.0
1763142401630,1158.0
1763142401631,1203.0
1763142401632,1346.0
1763142401633,1535.0
1763142401634,1584.0
1763142401635,1663.0
1763142401636,1811.0
1763142401637,1744.0
1763142401638,1889.0
1763142401639,1713.0
1763142401640,1382.0
1763142401641,1393.0
1763142401642,1299.0
1763142401643,1517.0
1763142401644,1462.0
1763142401645,1523.0
1763142401646,1821.0
1763142401647,1707.0
1763142401648,1502.0
1763142401649,1483.0
1763142401650,1327.0
1763142401651,1350.0
1763142401652,1282.0
1763142401653,1392.0
1763142401654,1406.0
1763142401655,1456.0
1763142401656,1392.0
1763142401657,1273.0
1763142401658,1437.0
1763142401659,1261.0
1763142401660,1333.0
1763142401661,1403.0
1763142401662,2475.0
1763142401663,2266.0
1763142401664,1904.0
1763142401665,1773.0
1763142401666,1487.0
1763142401667,1830.0
1763142401668,3194.0
1763142401669,2542.0
1763142401670,2971.0
1763142401671,2802.0
1763142401672,2815.0
1763142401673,2615.0
1763142401674,2369.0
1763142401675,2353.0
1763142401676,2176.0
1763142401677,3014.0
1763142401678,3794.0
1763142401679,3091.0
1763142401680,3247.0
1763142401681,3007.0
1763142401682,2551.0
1763142401683,2458.0
1763142401684,2210.0
1763142401685,2287.0
1763142401686,2086.0
1763142401687,1955.0
1763142401688,1609.0
1763142401689,1423.0
1763142401690,1125.0
1763142401691,1072.0
1763142401692,893.0
1763142401693,758.0
1763142401694,640.0
1763142401695,528.0
1763142401696,460.0
1763142401697,482.0
1763142401698,490.0
1763142401699,429.0
1763142401700,405.0
1763142401701,340.0
1763142401702,316.0
1763142401703,240.0
1763142401704,206.0
1763142401705,176.0
1763142401706,147.0
1763142401707,143.0
1763142401708,162.0
1763142401709,139.0
1763142401710,145.0
1763142401711,112.0
1763142401712,131.0
1763142401713,626.0
1763142401714,1100.0
1763142401715,1095.0
1763142401716,801.0
1763142401717,659.0
1763142401718,1328.0
1763142401719,1674.0
1763142401720,1605.0
1763142401721,2226.0
1763142401722,2346.0
1763142401723,2662.0
1763142401724,3340.0
1763142401725,2883.0
1763142401726,2933.0
1763142401727,3083.0
1763142401728,3286.0
1763142401729,4095.0
1763142401730,4095.0
1763142401731,4095.0
1763142401732,4095.0
1763142401733,4095.0
1763142401734,3679.0
1763142401735,2973.0
1763142401736,2704.0
1763142401737,2890.0
1763142401738,2939.0
1763142401739,3061.0
1763142401740,2892.0
1763142401741,2986.0
1763142401742,3925.0
1763142401743,4095.0
1763142401744,4016.0
1763142401745,4095.0
1763142401746,4095.0
1763142401747,4095.0
1763142401748,4095.0
1763142401749,4095.0
1763142401750,4095.0
1763142401751,4095.0
1763142401752,4095.0
1763142401753,3985.0
1763142401754,4095.0
1763142401755,4095.0
1763142401756,4095.0
1763142401757,4095.0
1763142401758,4095.0
1763142401759,4095.0
1763142401760,4095.0
1763142401761,4095.0
1763142401762,4095.0
1763142401763,4095.0
1763142401764,4037.0
1763142401765,3271.0
1763142401766,3851.0
1763142401767,4095.0
1763142401768,4095.0
1763142401769,3120.0
1763142401770,2721.0
1763142401771,3334.0
1763142401772,3825.0
1763142401773,3421.0
1763142401774,3234.0
1763142401775,2786.0
1763142401776,3011.0
1763142401777,3168.0
1763142401778,3117.0
1763142401779,3263.0
1763142401780,4095.0
1763142401781,4095.0
1763142401782,3525.0
1763142401783,3973.0
1763142401784,3270.0
1763142401785,3311.0
1763142401786,4095.0
1763142401787,4090.0
1763142401788,3677.0
1763142401789,4095.0
1763142401790,3536.0
1763142401791,2608.0
1763142401792,2913.0
1763142401793,2425.0
1763142401794,2265.0
1763142401795,2205.0
1763142401796,2378.0
1763142401797,2302.0
1763142401798,2166.0
1763142401799,2081.0
1763142401800,2073.0
1763142401801,1935.0
1763142401802,1712.0
1763142401803,1563.0
1763142401804,1677.0
1763142401805,1639.0
1763142401806,1755.0
1763142401807,1622.0
1763142401808,1489.0
1763142401809,1488.0
1763142401810,1278.0
1763142401811,1085.0
1763142401812,1056.0
1763142401813,1168.0
1763142401814,1535.0
1763142401815,1416.0
1763142401816,1439.0
1763142401817,1582.0
1763142401818,1593.0
1763142401819,1793.0
1763142401820,2018.0
1763142401821,2429.0
1763142401822,3190.0
1763142401823,3104.0
1763142401824,2689.0
1763142401825,2615.0
1763142401826,2409.0
1763142401827,2396.0
1763142401828,2190.0
1763142401829,2016.0
1763142401830,1645.0
1763142401831,1497.0
1763142401832,1331.0
1763142401833,1317.0
1763142401834,1535.0
1763142401835,1701.0
1763142401836,2162.0
1763142401837,2246.0
1763142401838,2167.0
1763142401839,2095.0
1763142401840,1834.0
1763142401841,1931.0
1763142401842,2085.0
1763142401843,1898.0
1763142401844,1830.0
1763142401845,1722.0
1763142401846,1586.0
1763142401847,1253.0
1763142401848,1160.0
1763142401849,1118.0
1763142401850,958.0
1763142401851,772.0
1763142401852,759.0
1763142401853,832.0
1763142401854,838.0
1763142401855,611.0
1763142401856,623.0
1763142401857,553.0
1763142401858,496.0
1763142401859,473.0
1763142401860,448.0
1763142401861,383.0
1763142401862,413.0
1763142401863,483.0
1763142401864,450.0
1763142401865,473.0
1763142401866,549.0
1763142401867,611.0
1763142401868,534.0
1763142401869,531.0
1763142401870,537.0
1763142401871,563.0
1763142401872,630.0
1763142401873,691.0
1763142401874,731.0
1763142401875,626.0
1763142401876,609.0
1763142401877,605.0
1763142401878,625.0
1763142401879,578.0
1763142401880,543.0
1763142401881,478.0
1763142401882,578.0
1763142401883,612.0
1763142401884,571.0
1763142401885,601.0
1763142401886,564.0
1763142401887,467.0
1763142401888,448.0
1763142401889,576.0
1763142401890,678.0
1763142401891,789.0
1763142401892,741.0
1763142401893,689.0
1763142401894,623.0
1763142401895,590.0
1763142401896,608.0
1763142401897,688.0
1763142401898,735.0
1763142401899,640.0
1763142401900,721.0
1763142401901,676.0
1763142401902,834.0
1763142401903,861.0
1763142401904,829.0
1763142401905,987.0
1763142401906,1080.0
1763142401907,1712.0
1763142401908,1778.0
1763142401909,1642.0
1763142401910,1675.0
1763142401911,1664.0
1763142401912,1805.0
1763142401913,1689.0
1763142401914,1788.0
1763142401915,1802.0
1763142401916,1504.0
1763142401917,1361.0
1763142401918,1314.0
1763142401919,1212.0
1763142401920,1407.0
1763142401921,1322.0
1763142401922,1363.0
1763142401923,1265.0
1763142401924,1226.0
1763142401925,1258.0
1763142401926,1264.0
1763142401927,1293.0
1763142401928,1219.0
1763142401929,1463.0
1763142401930,1491.0
1763142401931,1402.0
1763142401932,1838.0
1763142401933,1867.0
1763142401934,2162.0
1763142401935,2176.0
1763142401936,2096.0
1763142401937,2203.0
1763142401938,2425.0
1763142401939,2304.0
1763142401940,2263.0
1763142401941,2013.0
1763142401942,2258.0
1763142401943,1975.0
1763142401944,1872.0
1763142401945,1797.0
1763142401946,1743.0
1763142401947,1950.0
1763142401948,2134.0
1763142401949,2129.0
1763142401950,2281.0
1763142401951,2272.0
1763142401952,1996.0
1763142401953,1677.0
1763142401954,2065.0
1763142401955,2384.0
1763142401956,2041.0
1763142401957,2204.0
1763142401958,2162.0
1763142401959,2421.0
1763142401960,2347.0
1763142401961,2094.0
1763142401962,3071.0
1763142401963,3343.0
1763142401964,3342.0
1763142401965,3427.0
1763142401966,3283.0
1763142401967,3194.0
1763142401968,3725.0
1763142401969,4095.0
1763142401970,3361.0
1763142401971,3745.0
1763142401972,3302.0
1763142401973,3029.0
1763142401974,2807.0
1763142401975,2640.0
1763142401976,2918.0
1763142401977,2871.0
1763142401978,3853.0
1763142401979,3601.0
1763142401980,2812.0
1763142401981,2815.0
1763142401982,2947.0
1763142401983,3226.0
1763142401984,3082.0
1763142401985,1872.0
1763142401986,1697.0
1763142401987,1575.0
1763142401988,1822.0
1763142401989,2000.0
1763142401990,1914.0
1763142401991,1629.0
1763142401992,1168.0
1763142401993,925.0
1763142401994,1319.0
1763142401995,1424.0
1763142401996,1295.0
1763142401997,1421.0
1763142401998,1234.0
1763142401999,1057.0
1763142402000,759.0
1763142402001,617.0
1763142402002,478.0
1763142402003,379.0
1763142402004,320.0
1763142402005,605.0
1763142402006,850.0
1763142402007,1126.0
1763142402008,989.0
1763142402009,994.0
1763142402010,849.0
1763142402011,694.0
1763142402012,576.0
1763142402013,496.0
1763142402014,463.0
1763142402015,411.0
1763142402016,489.0
1763142402017,659.0
1763142402018,845.0
1763142402019,1081.0
1763142402020,1128.0
1763142402021,981.0
1763142402022,1186.0
1763142402023,2149.0
1763142402024,2068.0
1763142402025,1937.0
1763142402026,1958.0
1763142402027,1983.0
1763142402028,2172.0
1763142402029,2128.0
1763142402030,3130.0
1763142402031,4095.0
1763142402032,4095.0
1763142402033,3407.0
1763142402034,3276.0
1763142402035,3119.0
1763142402036,3426.0
1763142402037,3282.0
1763142402038,3136.0
1763142402039,2621.0
1763142402040,2430.0
1763142402041,4095.0
1763142402042,4095.0
1763142402043,4080.0
1763142402044,4095.0
1763142402045,4095.0
1763142402046,4095.0
1763142402047,4095.0
1763142402048,4095.0
1763142402049,4095.0
1763142402050,4095.0
1763142402051,4095.0
1763142402052,4095.0
1763142402053,4095.0
1763142402054,4062.0
1763142402055,4095.0
1763142402056,4095.0
1763142402057,4095.0
1763142402058,4095.0
1763142402059,4095.0
1763142402060,4095.0
1763142402061,4095.0
1763142402062,4095.0
1763142402063,4095.0
1763142402064,4095.0
1763142402065,4095.0
1763142402066,4095.0
1763142402067,4095.0
1763142402068,4095.0
1763142402069,4095.0
1763142402070,4095.0
1763142402071,4095.0
1763142402072,4095.0
1763142402073,4083.0
1763142402074,3653.0
1763142402075,4095.0
1763142402076,4095.0
1763142402077,4095.0
1763142402078,4095.0
1763142402079,4095.0
1763142402080,4095.0
1763142402081,4095.0
1763142402082,4095.0
1763142402083,4095.0
1763142402084,4095.0
1763142402085,4095.0
1763142402086,4095.0
1763142402087,4095.0
1763142402088,4095.0
1763142402089,4095.0
1763142402090,4095.0
1763142402091,4095.0
1763142402092,3971.0
1763142402093,3355.0
1763142402094,3572.0
1763142402095,3115.0
1763142402096,2961.0
1763142402097,2775.0
1763142402098,2496.0
1763142402099,2693.0
1763142402100,2256.0
1763142402101,2244.0
1763142402102,2480.0
1763142402103,2709.0
1763142402104,2519.0
1763142402105,2483.0
1763142402106,2317.0
1763142402107,2127.0
1763142402108,1872.0
1763142402109,1743.0
1763142402110,2029.0
1763142402111,2041.0
1763142402112,1892.0
1763142402113,1786.0
1763142402114,1777.0
1763142402115,1697.0
1763142402116,1696.0
1763142402117,1563.0
1763142402118,1735.0
1763142402119,1599.0
1763142402120,2077.0
1763142402121,1918.0
1763142402122,1946.0
1763142402123,2019.0
1763142402124,1839.0
1763142402125,1791.0
1763142402126,1851.0
1763142402127,1872.0
1763142402128,2222.0
1763142402129,2759.0
1763142402130,3738.0
1763142402131,4095.0
1763142402132,4095.0
1763142402133,4095.0
1763142402134,3764.0
1763142402135,3575.0
1763142402136,2988.0
1763142402137,2875.0
1763142402138,2816.0
1763142402139,2559.0
1763142402140,2799.0
1763142402141,2559.0
1763142402142,2483.0
1763142402143,2211.0
1763142402144,2669.0
1763142402145,2934.0
1763142402146,2767.0
1763142402147,2506.0
1763142402148,2295.0
1763142402149,1964.0
1763142402150,2194.0
1763142402151,1847.0
1763142402152,1815.0
1763142402153,1807.0
1763142402154,1917.0
1763142402155,2176.0
1763142402156,2277.0
1763142402157,2304.0
1763142402158,2320.0
1763142402159,2320.0
1763142402160,2146.0
1763142402161,2000.0
1763142402162,1905.0
1763142402163,1909.0
1763142402164,1807.0
1763142402165,1725.0
1763142402166,1839.0
1763142402167,1882.0
1763142402168,2102.0
1763142402169,2183.0
1763142402170,2206.0
1763142402171,2310.0
1763142402172,2109.0
1763142402173,1859.0
1763142402174,1876.0
1763142402175,1906.0
1763142402176,1763.0
1763142402177,1574.0
1763142402178,1933.0
1763142402179,1738.0
1763142402180,1579.0
1763142402181,1605.0
1763142402182,1495.0
1763142430791,1319.0
1763142430792,862.0
1763142430793,847.0
1763142430794,704.0
1763142430795,772.0
1763142430796,691.0
1763142430797,771.0
1763142430798,1008.0
1763142430799,755.0
1763142430800,949.0
1763142430801,1053.0
1763142430802,1086.0
1763142430803,1408.0
1763142430804,1630.0
1763142430805,1559.0
1763142430806,1300.0
1763142430807,1744.0
1763142430808,1884.0
1763142430809,1947.0
1763142430810,2358.0
1763142430811,2352.0
1763142430812,2545.0
1763142430813,2918.0
1763142430814,1571.0
1763142430815,4095.0
1763142430816,2559.0
1763142430817,2283.0
1763142430818,1232.0
1763142430819,797.0
1763142430820,811.0
1763142430821,637.0
1763142430822,1223.0
1763142430823,1871.0
1763142430824,4095.0
1763142430825,3282.0
1763142430826,3747.0
1763142430827,4095.0
1763142430828,4095.0
1763142430829,4095.0
1763142430830,4095.0
1763142430831,4095.0
1763142430832,4095.0
1763142430833,4095.0
1763142430834,4095.0
1763142430835,3957.0
1763142430836,4095.0
1763142430837,3693.0
1763142430838,4095.0
1763142430839,4095.0
1763142430840,2753.0
1763142430841,2485.0
1763142430842,2309.0
1763142430843,1904.0
1763142430844,3909.0
1763142430845,2695.0
1763142430846,2650.0
1763142430847,3117.0
1763142430848,2086.0
1763142430849,1666.0
1763142430850,1253.0
1763142430851,1036.0
1763142430852,976.0
1763142430853,704.0
1763142430854,747.0
1763142430855,804.0
1763142430856,835.0
1763142430857,560.0
1763142430858,816.0
1763142430859,1070.0
1763142430860,1437.0
1763142430861,1280.0
1763142430862,2004.0
1763142430863,2074.0
1763142430864,1961.0
1763142430865,2635.0
1763142430866,2765.0
1763142430867,2806.0
1763142430868,4095.0
1763142430869,2634.0
1763142430870,3383.0
1763142430871,4055.0
1763142430872,3603.0
1763142430873,2907.0
1763142430874,2328.0
1763142430875,1772.0
1763142430876,1277.0
1763142430877,2043.0
1763142430878,1757.0
1763142430879,1118.0
1763142430880,1781.0
1763142430881,2672.0
1763142430882,4095.0
1763142430883,4095.0
1763142430884,4095.0
1763142430885,4095.0
1763142430886,4095.0
1763142430887,3515.0
1763142430888,4095.0
1763142430889,4095.0
1763142430890,4095.0
1763142430891,4095.0
1763142430892,4095.0
1763142430893,4095.0
1763142430894,4095.0
1763142430895,3037.0
1763142430896,2365.0
1763142430897,1847.0
1763142430898,1370.0
1763142430899,1167.0
1763142430900,1222.0
1763142430901,1840.0
1763142430902,3225.0
1763142430903,2704.0
1763142430904,2446.0
1763142430905,2334.0
1763142430906,1616.0
1763142430907,1744.0
1763142430908,1781.0
1763142430909,1629.0
1763142430910,1435.0
1763142430911,1115.0
1763142430912,1008.0
1763142430913,1115.0
1763142430914,1264.0
1763142430915,929.0
1763142430916,556.0
1763142430917,626.0
1763142430918,620.0
1763142430919,635.0
1763142430920,799.0
1763142430921,779.0
1763142430922,940.0
1763142430923,1322.0
1763142430924,1407.0
1763142430925,1904.0
1763142430926,2034.0
1763142430927,2413.0
1763142430928,2878.0
1763142430929,2495.0
1763142430930,2465.0
1763142430931,2974.0
1763142430932,4095.0
1763142430933,2746.0
1763142430934,2590.0
1763142430935,3078.0
1763142430936,2685.0
1763142430937,1555.0
1763142430938,1339.0
1763142430939,851.0
1763142430940,1202.0
1763142430941,1340.0
1763142430942,1904.0
1763142430943,2242.0
1763142430944,2554.0
1763142430945,3062.0
1763142430946,3981.0
1763142430947,4095.0
1763142430948,4095.0
1763142430949,4095.0
1763142430950,3603.0
1763142430951,3071.0
1763142430952,3402.0
1763142430953,4095.0
1763142430954,4095.0
1763142430955,4095.0
1763142430956,4095.0
1763142430957,3478.0
1763142430958,3430.0
1763142430959,3070.0
1763142430960,2171.0
1763142430961,1717.0
1763142430962,1584.0
1763142430963,1789.0
1763142430964,1681.0
1763142430965,1843.0
1763142430966,1842.0
1763142430967,1898.0
1763142430968,1535.0
1763142430969,2992.0
1763142430970,2757.0
1763142430971,2191.0
1763142430972,1840.0
1763142430973,1885.0
1763142430974,1958.0
1763142430975,1901.0
1763142430976,2139.0
1763142430977,1703.0
1763142430978,1365.0
1763142430979,1382.0
1763142430980,1296.0
1763142430981,1750.0
1763142430982,2260.0
1763142430983,1984.0
1763142430984,1690.0
1763142430985,1335.0
1763142430986,1705.0
1763142430987,1727.0
1763142430988,2126.0
1763142430989,2208.0
1763142430990,2082.0
1763142430991,1835.0
1763142430992,1787.0
1763142430993,1715.0
1763142430994,2001.0
1763142430995,2420.0
1763142430996,2252.0
1763142430997,2224.0
1763142430998,2463.0
1763142430999,3553.0
1763142431000,3968.0
1763142431001,3955.0
1763142431002,3765.0
1763142431003,4095.0
1763142431004,4095.0
1763142431005,3640.0
1763142431006,2855.0
1763142431007,3122.0
1763142431008,3597.0
1763142431009,4095.0
1763142431010,3597.0
1763142431011,4095.0
1763142431012,4095.0
1763142431013,4095.0
1763142431014,3748.0
1763142431015,4095.0
1763142431016,4095.0
1763142431017,4095.0
1763142431018,4095.0
1763142431019,4095.0
1763142431020,4095.0
1763142431021,4095.0
1763142431022,4095.0
1763142431023,4095.0
1763142431024,4095.0
1763142431025,4095.0
1763142431026,4095.0
1763142431027,4095.0
1763142431028,4095.0
1763142431029,4095.0
1763142431030,4095.0
1763142431031,4095.0
1763142431032,3984.0
1763142431033,4095.0
1763142431034,4095.0
1763142431035,4095.0
1763142431036,4095.0
1763142431037,4095.0
1763142431038,4095.0
1763142431039,4095.0
1763142431040,4095.0
1763142431041,4095.0
1763142431042,4095.0
1763142431043,4095.0
1763142431044,4095.0
1763142431045,4095.0
1763142431046,4095.0
1763142431047,4095.0
1763142431048,4095.0
1763142431049,4095.0
1763142431050,4095.0
1763142431051,4095.0
1763142431052,4095.0
1763142431053,3712.0
1763142431054,3371.0
1763142431055,3602.0
1763142431056,3306.0
1763142431057,3558.0
1763142431058,4095.0
1763142431059,3441.0
1763142431060,3213.0
1763142431061,4095.0
1763142431062,4095.0
1763142431063,3546.0
1763142431064,3374.0
1763142431065,3153.0
1763142431066,3119.0
1763142431067,2995.0
1763142431068,2862.0
1763142431069,2874.0
1763142431070,2511.0
1763142431071,2758.0
1763142431072,2518.0
1763142431073,2112.0
1763142431074,1792.0
1763142431075,1867.0
1763142431076,1730.0
1763142431077,1733.0
1763142431078,1904.0
1763142431079,1873.0
1763142431080,1922.0
1763142431081,1776.0
1763142431082,1926.0
1763142431083,2095.0
1763142431084,2017.0
1763142431085,1813.0
1763142431086,2087.0
1763142431087,1856.0
1763142431088,2097.0
1763142431089,2233.0
1763142431090,2245.0
1763142431091,2162.0
1763142431092,2271.0
1763142431093,1674.0
1763142431094,1366.0
1763142431095,1575.0
1763142431096,1587.0
1763142431097,2476.0
1763142431098,4095.0
1763142431099,4095.0
1763142431100,3897.0
1763142431101,2691.0
1763142431102,2624.0
1763142431103,2515.0
1763142431104,2259.0
1763142431105,2316.0
1763142431106,1938.0
1763142431107,1845.0
1763142431108,1879.0
1763142431109,2314.0
1763142431110,2375.0
1763142431111,1989.0
1763142431112,1808.0
1763142431113,2001.0
1763142431114,2372.0
1763142431115,2459.0
1763142431116,2379.0
1763142431117,2559.0
1763142431118,2930.0
1763142431119,2704.0
1763142431120,2603.0
1763142431121,2338.0
1763142431122,2496.0
1763142431123,2546.0
1763142431124,2204.0
1763142431125,2267.0
1763142431126,2759.0
1763142431127,3252.0
1763142431128,3457.0
1763142431129,3267.0
1763142431130,2963.0
1763142431131,3303.0
1763142431132,3317.0
1763142431133,2736.0
1763142431134,2508.0
1763142431135,2232.0
1763142431136,2127.0
1763142431137,1920.0
1763142431138,1755.0
1763142431139,1447.0
1763142431140,1611.0
1763142431141,1535.0
1763142431142,1561.0
1763142431143,1437.0
1763142431144,1328.0
1763142431145,1454.0
1763142431146,1237.0
1763142431147,1291.0
1763142431148,1310.0
1763142431149,1394.0
1763142431150,1322.0
1763142431151,1139.0
1763142431152,1011.0
1763142431153,910.0
1763142431154,857.0
1763142431155,1043.0
1763142431156,1376.0
1763142431157,1164.0
1763142431158,1061.0
1763142431159,1063.0
1763142431160,1021.0
1763142431161,1018.0
1763142431162,1021.0
1763142431163,987.0
1763142431164,962.0
1763142431165,925.0
1763142431166,812.0
1763142431167,740.0
1763142431168,742.0
1763142431169,641.0
1763142431170,677.0
1763142431171,703.0
1763142431172,864.0
1763142431173,812.0
1763142431174,762.0
1763142431175,823.0
1763142431176,768.0
1763142431177,768.0
1763142431178,725.0
1763142431179,684.0
1763142431180,819.0
1763142431181,827.0
1763142431182,778.0
1763142431183,750.0
1763142431184,797.0
1763142431185,933.0
1763142431186,1086.0
1763142431187,964.0
1763142431188,885.0
1763142431189,883.0
1763142431190,789.0
1763142431191,853.0
1763142431192,1013.0
1763142431193,1022.0
1763142431194,1104.0
1763142431195,986.0
1763142431196,983.0
1763142431197,1008.0
1763142431198,931.0
1763142431199,879.0
1763142431200,927.0
1763142431201,937.0
1763142431202,943.0
1763142431203,1083.0
1763142431204,1095.0
1763142431205,983.0
1763142431206,912.0
1763142431207,967.0
1763142431208,1205.0
1763142431209,1390.0
1763142431210,1313.0
1763142431211,1104.0
1763142431212,1083.0
1763142431213,1097.0
1763142431214,1097.0
1763142431215,1369.0
1763142431216,1219.0
1763142431217,1173.0
1763142431218,1271.0
1763142431219,1610.0
1763142431220,1611.0
1763142431221,1585.0
1763142431222,1821.0
1763142431223,1786.0
1763142431224,2094.0
1763142431225,1904.0
1763142431226,1822.0
1763142431227,1801.0
1763142431228,1872.0
1763142431229,2401.0
1763142431230,2073.0
1763142431231,2686.0
1763142431232,2559.0
1763142431233,2480.0
1763142431234,2462.0
1763142431235,1965.0
1763142431236,1729.0
1763142431237,1872.0
1763142431238,1982.0
1763142431239,1742.0
1763142431240,1817.0
1763142431241,1734.0
1763142431242,1685.0
1763142431243,1372.0
1763142431244,2036.0
1763142431245,3060.0
1763142431246,3408.0
1763142431247,4095.0
1763142431248,4095.0
1763142431249,4003.0
1763142431250,3261.0
1763142431251,3255.0
1763142431252,2931.0
1763142431253,2623.0
1763142431254,2662.0
1763142431255,2433.0
1763142431256,2537.0
1763142431257,2437.0
1763142431258,2219.0
1763142431259,2481.0
1763142431260,2314.0
1763142431261,2304.0
1763142431262,2100.0
1763142431263,1553.0
1763142431264,1891.0
1763142431265,3023.0
1763142431266,3718.0
1763142431267,3581.0
1763142431268,3191.0
1763142431269,2860.0
1763142431270,2390.0
1763142431271,1941.0
1763142431272,2619.0
1763142431273,2960.0
1763142431274,2741.0
1763142431275,2260.0
1763142431276,1910.0
1763142431277,1875.0
1763142431278,1682.0
1763142431279,1407.0
1763142431280,2069.0
1763142431281,2559.0
1763142431282,2477.0
1763142431283,2288.0
1763142431284,2196.0
1763142431285,2285.0
1763142431286,2529.0
1763142431287,2506.0
1763142431288,2615.0
1763142431289,2789.0
1763142431290,2812.0
1763142431291,2759.0
1763142431292,4095.0
1763142431293,4095.0
1763142431294,4095.0
1763142431295,4095.0
1763142431296,4095.0
1763142431297,4095.0
1763142431298,4095.0
1763142431299,4095.0
1763142431300,4095.0
1763142431301,4095.0
1763142431302,4095.0
1763142431303,4095.0
1763142431304,4095.0
1763142431305,4095.0
1763142431306,4095.0
1763142431307,4095.0
1763142431308,4095.0
1763142431309,4095.0
1763142431310,4095.0
1763142431311,4095.0
1763142431312,3619.0
1763142431313,3797.0
1763142431314,2754.0
1763142431315,2450.0
1763142431316,2768.0
1763142431317,2745.0
1763142431318,2534.0
1763142431319,2559.0
1763142431320,3004.0
1763142431321,4095.0
1763142431322,3792.0
1763142431323,3373.0
1763142431324,4023.0
1763142431325,4035.0
1763142431326,4095.0
1763142431327,4095.0
1763142431328,3701.0
1763142431329,3407.0
1763142431330,3105.0
1763142431331,2879.0
1763142431332,2943.0
1763142431333,2928.0
1763142431334,3141.0
1763142431335,3723.0
1763142431336,3257.0
1763142431337,3152.0
1763142431338,3156.0
1763142431339,3217.0
1763142431340,2991.0
1763142431341,4095.0
1763142431342,3408.0
1763142431343,3083.0
1763142431344,2595.0
1763142431345,2842.0
1763142431346,2752.0
1763142431347,2384.0
1763142431348,2320.0
1763142431349,2496.0
1763142431350,2763.0
1763142431351,2866.0
1763142431352,3245.0
1763142431353,3366.0
1763142431354,3280.0
1763142431355,2815.0
1763142431356,2741.0
1763142431357,2704.0
1763142431358,2633.0
1763142431359,2403.0
1763142431360,1971.0
1763142431361,1856.0
1763142431362,1770.0
1763142431363,1799.0
1763142431364,1759.0
1763142431365,1758.0
1763142431366,1642.0
1763142431367,1742.0
1763142431368,1870.0
1763142431369,1730.0
1763142431370,1707.0
1763142431371,1721.0
1763142431372,2091.0
1763142431373,2025.0
1763142431374,1617.0
1763142431375,1424.0
1763142431376,1689.0
1763142431377,1726.0
1763142431378,1705.0
1763142431379,1712.0
1763142431380,2225.0
1763142431381,2066.0
1763142431382,2405.0
1763142431383,2398.0
1763142431384,2864.0
1763142431385,4095.0
1763142431386,4095.0
1763142431387,4095.0
1763142431388,4095.0
1763142431389,4087.0
1763142431390,3819.0
1763142431391,3191.0
1763142431392,3078.0
1763142431393,3009.0
1763142431394,2651.0
1763142431395,2672.0
1763142431396,2383.0
1763142431397,2298.0
1763142431398,1933.0
1763142431399,1849.0
1763142431400,2447.0
1763142431401,2208.0
1763142431402,1889.0
1763142431403,2030.0
1763142431404,2019.0
1763142431405,2077.0
1763142431406,1821.0
1763142431407,2266.0
1763142431408,2557.0
1763142431409,2306.0
1763142431410,2559.0
1763142431411,2800.0
1763142431412,2640.0
1763142431413,2441.0
1763142431414,2434.0
1763142431415,2475.0
1763142431416,2166.0
1763142431417,2212.0
1763142431418,2270.0
1763142431419,2471.0
1763142431420,2479.0
1763142431421,2362.0
1763142431422,2591.0
1763142431423,2554.0
1763142431424,2025.0
1763142431425,1728.0
1763142431426,2080.0
1763142431427,2064.0
1763142431428,2306.0
1763142431429,1936.0
1763142431430,1836.0
1763142431431,1931.0
1763142431432,1811.0
1763142431433,1653.0
1763142431434,1710.0
1763142431435,1744.0
1763142431436,1833.0
1763142431437,1566.0
1763142431438,1360.0
1763142431439,1240.0
1763142431440,1358.0
1763142431441,1266.0
1763142431442,1161.0
1763142431443,1463.0
1763142431444,1333.0
1763142431445,957.0
1763142431446,1023.0
1763142431447,1143.0
1763142431448,1206.0
1763142431449,1076.0
1763142431450,1067.0
1763142431451,898.0
1763142431452,866.0
1763142431453,840.0
1763142431454,883.0
1763142431455,1017.0
1763142431456,894.0
1763142431457,773.0
1763142431458,726.0
1763142431459,725.0
1763142431460,711.0
1763142431461,613.0
1763142431462,547.0
1763142431463,497.0
1763142431464,545.0
1763142431465,529.0
1763142431466,485.0
1763142431467,525.0
1763142431468,535.0
1763142431469,495.0
1763142431470,597.0
1763142431471,740.0
1763142431472,762.0
1763142431473,747.0
1763142431474,609.0
1763142431475,646.0
1763142431476,845.0
1763142431477,1007.0
1763142431478,888.0
1763142431479,879.0
1763142431480,910.0
1763142431481,900.0
1763142431482,817.0
1763142431483,876.0
1763142431484,839.0
1763142431485,889.0
1763142431486,985.0
1763142431487,1177.0
1763142431488,1168.0
1763142431489,1359.0
1763142431490,1569.0
1763142431491,1637.0
1763142431492,1744.0
1763142431493,1951.0
1763142431494,1851.0
1763142431495,1703.0
1763142431496,1631.0
1763142431497,1847.0
1763142431498,1911.0
1763142431499,2438.0
1763142431500,2181.0
1763142431501,1837.0
1763142431502,1899.0
1763142431503,1651.0
1763142431504,1535.0
1763142431505,1409.0
1763142431506,1611.0
1763142431507,1805.0
1763142431508,2005.0
1763142431509,2483.0
1763142431510,2130.0
1763142431511,1744.0
1763142431512,1571.0
1763142431513,2145.0
1763142431514,2315.0
1763142431515,2407.0
1763142431516,2593.0
1763142431517,2901.0
1763142431518,2585.0
1763142431519,2391.0
1763142431520,2423.0
1763142431521,2182.0
1763142431522,2030.0
1763142431523,2102.0
1763142431524,2256.0
1763142431525,2285.0
1763142431526,3710.0
1763142431527,2873.0
1763142431528,2592.0
1763142431529,2909.0
1763142431530,2879.0
1763142431531,2256.0
1763142431532,2059.0
1763142431533,2187.0
1763142431534,2006.0
1763142431535,2585.0
1763142431536,2256.0
1763142431537,2475.0
1763142431538,2441.0
1763142431539,2349.0
1763142431540,2474.0
1763142431541,2017.0
1763142431542,2275.0
1763142431543,2722.0
1763142431544,3209.0
1763142431545,2945.0
1763142431546,2478.0
1763142431547,2950.0
1763142431548,2672.0
1763142431549,3294.0
1763142431550,3568.0
1763142431551,4095.0
1763142431552,4095.0
1763142431553,4095.0
1763142431554,4095.0
1763142431555,3680.0
1763142431556,2926.0
1763142431557,2461.0
1763142431558,2141.0
1763142431559,2315.0
1763142431560,2769.0
1763142431561,2464.0
1763142431562,2236.0
1763142431563,2081.0
1763142431564,1744.0
1763142431565,1959.0
1763142431566,2128.0
1763142431567,2285.0
1763142431568,2448.0
1763142431569,2380.0
1763142431570,2383.0
1763142431571,2274.0
1763142431572,1984.0
1763142431573,2594.0
1763142431574,2993.0
1763142431575,3056.0
1763142431576,2640.0
1763142431577,2614.0
1763142431578,2544.0
1763142431579,2750.0
1763142431580,3029.0
1763142431581,3239.0
1763142431582,3374.0
1763142431583,3669.0
1763142431584,4095.0
1763142431585,3655.0
1763142431586,3105.0
1763142431587,2927.0
1763142431588,2548.0
1763142431589,4095.0
1763142431590,4095.0
1763142431591,4095.0
1763142431592,4095.0
1763142431593,4095.0
1763142431594,4095.0
1763142431595,4095.0
1763142431596,4095.0
1763142431597,4095.0
1763142431598,4095.0
1763142431599,4095.0
1763142431600,4095.0
1763142431601,4095.0
1763142431602,4095.0
1763142431603,4095.0
1763142431604,4095.0
1763142431605,4095.0
1763142431606,4095.0
1763142431607,4095.0
1763142431608,4095.0
1763142431609,4095.0
1763142431610,4095.0
1763142431611,4095.0
1763142431612,4095.0
1763142431613,4095.0
1763142431614,4095.0
1763142431615,4095.0
1763142431616,4095.0
1763142431617,4095.0
1763142431618,4095.0
1763142431619,4095.0
1763142431620,4095.0
1763142431621,4095.0
1763142431622,4095.0
1763142431623,4095.0
1763142431624,4095.0
1763142431625,4095.0
1763142431626,4095.0
1763142431627,4095.0
1763142431628,4095.0
1763142431629,4095.0
1763142431630,4095.0
1763142431631,4095.0
1763142431632,4095.0
1763142431633,4095.0
1763142431634,4095.0
1763142431635,4095.0
1763142431636,4095.0
1763142431637,4095.0
1763142431638,4095.0
1763142431639,4095.0
1763142431640,4095.0
1763142431641,4095.0
1763142431642,4095.0
1763142431643,4095.0
1763142431644,3776.0
1763142431645,3071.0
1763142431646,4095.0
1763142431647,3896.0
1763142431648,3605.0
1763142431649,3063.0
1763142431650,2850.0
1763142431651,2371.0
1763142431652,2219.0
1763142431653,2319.0
1763142431654,1998.0
1763142431655,1809.0
1763142431656,1840.0
1763142431657,2093.0
1763142431658,2047.0
1763142431659,1973.0
1763142431660,2166.0
1763142431661,1996.0
1763142431662,1769.0
1763142431663,1709.0
1763142431664,1395.0
1763142431665,1727.0
1763142431666,1776.0
1763142431667,1858.0
1763142431668,1942.0
1763142431669,2051.0
1763142431670,2057.0
1763142431671,1904.0
1763142431672,2662.0
1763142431673,2768.0
1763142431674,2703.0
1763142431675,2559.0
1763142431676,2269.0
1763142431677,2017.0
1763142431678,2000.0
1763142431679,2011.0
1763142431680,2351.0
1763142431681,2224.0
1763142431682,1820.0
1763142431683,1735.0
1763142431684,1621.0
1763142431685,1865.0
1763142431686,1872.0
1763142431687,1686.0
1763142431688,1593.0
1763142431689,1584.0
1763142431690,1557.0
1763142431691,1815.0
1763142431692,2043.0
1763142431693,2254.0
1763142431694,2414.0
1763142431695,2542.0
1763142431696,2366.0
1763142431697,2379.0
1763142431698,2352.0
1763142431699,2715.0
1763142431700,2062.0
1763142431701,1966.0
1763142431702,1681.0
1763142431703,1905.0
1763142431704,1904.0
1763142431705,1501.0
1763142431706,1439.0
1763142431707,1441.0
1763142431708,1454.0
1763142431709,1200.0
1763142431710,1394.0
1763142431711,1232.0
1763142431712,1137.0
1763142431713,1227.0
1763142431714,1055.0
1763142431715,896.0
1763142431716,761.0
1763142431717,784.0
1763142431718,782.0
1763142431719,774.0
1763142431720,765.0
1763142431721,890.0
1763142431722,877.0
1763142431723,816.0
1763142431724,891.0
1763142431725,901.0
1763142431726,1098.0
1763142431727,937.0
1763142431728,729.0
1763142431729,656.0
1763142431730,589.0
1763142431731,572.0
1763142431732,492.0
1763142431733,576.0
1763142431734,603.0
1763142431735,633.0
1763142431736,625.0
1763142431737,641.0
1763142431738,617.0
1763142431739,582.0
1763142431740,553.0
1763142431741,529.0
1763142431742,624.0
1763142431743,558.0
1763142431744,691.0
1763142431745,708.0
1763142431746,790.0
1763142431747,893.0
1763142431748,1119.0
1763142431749,1201.0
1763142431750,1280.0
1763142431751,1196.0
1763142431752,1181.0
1763142431753,1067.0
1763142431754,885.0
1763142431755,815.0
1763142431756,848.0
1763142431757,871.0
1763142431758,976.0
1763142431759,1079.0
1763142431760,1175.0
1763142431761,1066.0
1763142431762,1579.0
1763142431763,1618.0
1763142431764,1517.0
1763142431765,1533.0
1763142431766,1357.0
1763142431767,1248.0
1763142431768,1335.0
1763142431769,1680.0
1763142431770,1772.0
1763142431771,1578.0
1763142431772,1266.0
1763142431773,1394.0
1763142431774,2133.0
1763142431775,1799.0
1763142431776,1842.0
1763142431777,1566.0
1763142431778,1600.0
1763142431779,1579.0
1763142431780,1853.0
1763142431781,1663.0
1763142431782,1505.0
1763142431783,1283.0
1763142431784,1181.0
1763142431785,1037.0
1763142431786,1045.0
1763142431787,1194.0
1763142431788,1360.0
1763142431789,1699.0
1763142431790,1559.0
1763142431791,1638.0
1763142431792,1629.0
1763142431793,2177.0
1763142431794,2896.0
1763142431795,2676.0
1763142431796,2621.0
1763142431797,2707.0
1763142431798,2987.0
1763142431799,3246.0
1763142431800,3293.0
1763142431801,3210.0
1763142431802,2849.0
1763142431803,2630.0
1763142431804,2453.0
1763142431805,2905.0
1763142431806,2766.0
1763142431807,3006.0
1763142431808,3088.0
1763142431809,3712.0
1763142431810,3200.0
1763142431811,3107.0
1763142431812,2733.0
1763142431813,3574.0
1763142431814,4095.0
1763142431815,3061.0
1763142431816,2559.0
1763142431817,2183.0
1763142431818,1841.0
1763142431819,1851.0
1763142431820,1966.0
1763142431821,1899.0
1763142431822,2092.0
1763142431823,2217.0
1763142431824,1959.0
1763142431825,1805.0
1763142431826,1815.0
1763142431827,1785.0
1763142431828,1702.0
1763142431829,1610.0
1763142431830,1327.0
1763142431831,1106.0
1763142431832,918.0
1763142431833,738.0
1763142431834,655.0
1763142431835,603.0
1763142431836,484.0
1763142431837,377.0
1763142431838,304.0
1763142431839,253.0
1763142431840,176.0
1763142431841,138.0
1763142431842,138.0
1763142431843,96.0
1763142431844,61.0
1763142431845,67.0
1763142431846,62.0
1763142431847,86.0
1763142431848,112.0
1763142431849,394.0
1763142431850,598.0
1763142431851,677.0
1763142431852,832.0
1763142431853,1427.0
1763142431854,1524.0
1763142431855,2096.0
1763142431856,2238.0
1763142431857,2768.0
1763142431858,3392.0
1763142431859,3295.0
1763142431860,2779.0
1763142431861,2672.0
1763142431862,2367.0
1763142431863,2187.0
1763142431864,2313.0
1763142431865,2469.0
1763142431866,2782.0
1763142431867,3261.0
1763142431868,4095.0
1763142431869,4095.0
1763142431870,4095.0
1763142431871,4095.0
1763142431872,4095.0
1763142431873,4095.0
1763142431874,4095.0
1763142431875,4095.0
1763142431876,4095.0
1763142431877,4095.0
1763142431878,4095.0
1763142431879,4095.0
1763142431880,4095.0
1763142431881,4095.0
1763142431882,4095.0
1763142431883,4095.0
1763142431884,4095.0
1763142431885,3738.0
1763142431886,4095.0
1763142431887,4095.0
1763142431888,4095.0
1763142431889,3643.0
1763142431890,4095.0
1763142431891,4095.0
1763142431892,4095.0
1763142431893,4095.0
1763142431894,4095.0
1763142431895,4095.0
1763142431896,4095.0
1763142431897,4095.0
1763142431898,4095.0
1763142431899,4095.0
1763142431900,4095.0
1763142431901,4095.0
1763142431902,4095.0
1763142431903,4095.0
1763142431904,4095.0
1763142431905,4095.0
1763142431906,4095.0
1763142431907,4095.0
1763142431908,4095.0
1763142431909,4095.0
1763142431910,4095.0
1763142431911,4095.0
1763142431912,4095.0
1763142431913,4095.0
1763142431914,4095.0
1763142431915,4095.0
1763142431916,4095.0
1763142431917,4095.0
1763142431918,4095.0
1763142431919,4095.0
1763142431920,4093.0
1763142431921,4015.0
1763142431922,4095.0
1763142431923,4081.0
1763142431924,4095.0
1763142431925,4095.0
1763142431926,3993.0
1763142431927,3686.0
1763142431928,2991.0
1763142431929,3133.0
1763142431930,2786.0
1763142431931,2492.0
1763142431932,2371.0
1763142431933,2547.0
1763142431934,2522.0
1763142431935,2196.0
1763142431936,2092.0
1763142431937,1799.0
1763142431938,1760.0
1763142431939,1586.0
1763142431940,1366.0
1763142431941,1382.0
1763142431942,1488.0
1763142431943,1401.0
1763142431944,1213.0
1763142431945,1373.0
1763142431946,1512.0
1763142431947,1379.0
1763142431948,1312.0
1763142431949,1142.0
1763142431950,1218.0
1763142431951,1307.0
1763142431952,1426.0
1763142431953,1442.0
1763142431954,1625.0
1763142431955,1621.0
1763142431956,1436.0
1763142431957,1386.0
1763142431958,1367.0
1763142431959,1359.0
1763142431960,1301.0
1763142431961,1094.0
1763142431962,1152.0
1763142431963,1391.0
1763142431964,1331.0
1763142431965,1369.0
1763142431966,1264.0
1763142431967,1262.0
1763142431968,1742.0
1763142431969,1757.0
1763142431970,1807.0
1763142431971,1953.0
1763142431972,1871.0
1763142431973,1793.0
1763142431974,2122.0
1763142431975,2624.0
1763142431976,2447.0
1763142431977,2449.0
1763142431978,2399.0
1763142431979,2609.0
1763142431980,2379.0
1763142431981,2302.0
1763142431982,2342.0
1763142431983,2101.0
1763142431984,2000.0
1763142431985,1861.0
1763142431986,1906.0
1763142431987,1791.0
1763142431988,2010.0
1763142431989,1937.0
1763142431990,1930.0
1763142431991,1815.0
1763142431992,1938.0
1763142431993,2065.0
1763142431994,1911.0
1763142431995,1718.0
1763142431996,1479.0
1763142431997,1363.0
1763142431998,1633.0
1763142431999,1630.0
1763142432000,1567.0
1763142432001,1535.0
1763142432002,1746.0
1763142432003,1533.0
1763142432004,1563.0
1763142432005,1898.0
1763142432006,1810.0
1763142432007,1634.0
1763142432008,1419.0
1763142432009,1456.0
1763142432010,1439.0
1763142432011,1582.0
1763142432012,1296.0
1763142432013,1143.0
1763142432014,1094.0
1763142432015,914.0
1763142432016,869.0
1763142432017,1049.0
1763142432018,962.0
1763142432019,928.0
1763142432020,933.0
1763142432021,929.0
1763142432022,867.0
1763142432023,801.0
1763142432024,752.0
1763142432025,853.0
1763142432026,763.0
1763142432027,732.0
1763142432028,690.0
1763142432029,693.0
1763142432030,753.0
1763142432031,752.0
1763142432032,896.0
1763142432033,946.0
1763142432034,916.0
1763142432035,770.0
1763142432036,689.0
1763142432037,595.0
1763142432038,673.0
1763142432039,738.0
1763142432040,706.0
1763142432041,811.0
1763142432042,816.0
1763142432043,784.0
1763142432044,877.0
1763142432045,848.0
1763142432046,911.0
1763142432047,1051.0
1763142432048,1023.0
1763142432049,949.0
1763142432050,1268.0
1763142432051,1194.0
1763142432052,1177.0
1763142432053,1378.0
1763142432054,1323.0
1763142432055,1345.0
1763142432056,1232.0
1763142432057,1166.0
1763142432058,1086.0
1763142432059,1049.0
1763142432060,1265.0
1763142432061,1535.0
1763142432062,1468.0
1763142432063,1451.0
1763142432064,1403.0
1763142432065,1416.0
1763142432066,1668.0
1763142432067,1843.0
1763142432068,1857.0
1763142432069,2126.0
1763142432070,1730.0
1763142432071,2371.0
1763142432072,2286.0
1763142432073,2191.0
1763142432074,2002.0
1763142432075,2102.0
1763142432076,2061.0
1763142432077,2224.0
1763142432078,1977.0
1763142432079,1809.0
1763142432080,1842.0
1763142432081,1938.0
1763142432082,1787.0
1763142432083,1584.0
1763142432084,1429.0
1763142432085,1803.0
1763142432086,2433.0
1763142432087,2687.0
1763142432088,2426.0
1763142432089,2407.0
1763142432090,2608.0
1763142432091,2951.0
1763142432092,3027.0
1763142432093,3070.0
1763142432094,2997.0
1763142432095,3071.0
1763142432096,2700.0
1763142432097,2729.0
1763142432098,2655.0
1763142432099,2448.0
1763142432100,2357.0
1763142432101,2337.0
1763142432102,2624.0
1763142432103,3071.0
1763142432104,2914.0
1763142432105,2992.0
1763142432106,3474.0
1763142432107,4095.0
1763142432108,3814.0
1763142432109,2993.0
1763142432110,3159.0
1763142432111,3658.0
1763142432112,3581.0
1763142432113,3722.0
1763142432114,3769.0
1763142432115,3440.0
1763142432116,3488.0
1763142432117,3859.0
1763142432118,3667.0
1763142432119,3159.0
1763142432120,3645.0
1763142432121,3821.0
1763142432122,4095.0
1763142432123,4095.0
1763142432124,3974.0
1763142432125,3600.0
1763142432126,4095.0
1763142432127,3419.0
1763142432128,2859.0
1763142432129,3248.0
1763142432130,3680.0
1763142432131,3046.0
1763142432132,2522.0
1763142432133,2147.0
1763142432134,1953.0
1763142432135,3270.0
1763142432136,3573.0
1763142432137,2971.0
1763142432138,2549.0
1763142432139,2103.0
1763142432140,1751.0
1763142432141,1535.0
1763142432142,2203.0
1763142432143,2256.0
1763142432144,2097.0
1763142432145,1658.0
1763142432146,1418.0
1763142432147,1488.0
1763142432148,1639.0
1763142432149,1853.0
1763142432150,1959.0
1763142432151,1846.0
1763142432152,1875.0
1763142432153,2323.0
1763142432154,1816.0
1763142432155,2083.0
1763142432156,2432.0
1763142432157,3116.0
1763142432158,3381.0
1763142432159,4095.0
1763142432160,4095.0
1763142432161,4095.0
1763142432162,4095.0
1763142432163,4095.0
1763142432164,4095.0
1763142432165,3760.0
1763142432166,4095.0
1763142432167,4095.0
