X [s].2,L DELTOID ANTERIOR: EMG 3 [V],X [s].3,L BICEPS BRACHII: EMG 4 [V],X [s].4,L DELTOID POSTERIOR: EMG 5 [V],X [s].7,L DELTOID MEDIUS: EMG 8 [V]
0.0,-7.53643e-05,0.0,4.7837e-05,0.0,-1.17494e-05,0.0,-1.79599e-05
0.000794117179931,-7.90569961866265e-05,0.000794117179931,6.277558457322248e-05,0.000794117179931,-2.299528838659598e-05,0.000794117179931,-1.0910207280076675e-05
0.0015882343598621,-5.455117405035797e-05,0.0015882343598621,6.361489403899186e-05,0.0015882343598621,-3.0044949930514626e-05,0.0015882343598621,-1.0574502384261208e-05
0.0023823515397932,-1.963819365913928e-05,0.0023823515397932,7.5699932304709e-05,0.0023823515397932,-2.467379218915404e-05,0.0023823515397932,-8.896010650919988e-06
0.0031764687197242,8.677792843592795e-05,0.0031764687197242,4.078745628589384e-05,0.0031764687197242,-2.06455064944022e-05,0.0031764687197242,-9.231709458786385e-06
0.0039705858996553,0.0001280687867993,0.0039705858996553,5.421523066662736e-05,0.0039705858996553,-2.114899740023733e-05,0.0039705858996553,-1.3260079199884937e-05
0.0047647030795864,0.0001005422398859,0.0047647030795864,2.803102818663337e-05,0.0047647030795864,-1.9302716089708844e-05,0.0047647030795864,-1.4938585372595845e-05
0.0055588202595174,5.287248617706269e-05,0.0055588202595174,7.888908189854693e-06,0.0055588202595174,-1.6281398025285334e-05,0.0055588202595174,-1.3931501206770076e-05
0.0063529374394485,1.0574636385186868e-05,0.0063529374394485,2.349907859952664e-06,0.0063529374394485,-1.023881948369025e-05,0.0063529374394485,-1.76241880933004e-05
0.0071470546193796,-2.63520497996624e-05,0.0071470546193796,9.23166337170599e-06,0.0071470546193796,-6.210447294594604e-06,0.0071470546193796,-1.8966990901756628e-05
0.0079411717993107,-7.049869333691625e-06,0.0079411717993107,2.265946133335797e-05,0.0079411717993107,-4.53194733336898e-06,0.0079411717993107,-1.7624213866777795e-05
0.0087352889792417,2.114896375310187e-05,0.0087352889792417,1.0574515534327986e-05,0.0087352889792417,-4.3640802157563405e-06,0.0087352889792417,-1.3931504746639497e-05
0.0095294061591728,1.5274328413473123e-05,0.0095294061591728,3.692713284492415e-06,0.0095294061591728,-6.881807822741958e-06,0.0095294061591728,-1.0238817860049397e-05
0.0103235233391039,1.829542240414389e-05,0.0103235233391039,1.7289309041910826e-05,0.0103235233391039,-6.210400267421005e-06,0.0103235233391039,-6.88182986643645e-06
0.0111176405190349,1.2251133170409011e-05,0.0111176405190349,4.4813713282635226e-05,0.0111176405190349,-5.538995746058812e-06,0.0111176405190349,-7.217434365657218e-06
0.011911757698966,-2.4336151068543124e-05,0.011911757698966,5.876794091811495e-06,0.011911757698966,-4.8676657604056766e-06,0.011911757698966,-5.539119400481567e-06
0.0127058748788971,-3.4408781407093565e-05,0.0127058748788971,-2.1817851269402384e-06,0.0127058748788971,-4.196251239527096e-06,0.0127058748788971,-3.1892143380284883e-06
0.0134999920588282,-3.0045043641944155e-05,0.0134999920588282,-0.0001005410163791,0.0134999920588282,-7.553186429373729e-06,0.0134999920588282,-5.539006500591612e-06
0.0142941092387592,-3.440911562247318e-05,0.0142941092387592,-0.0001686876914596,0.0142941092387592,-1.091020976346402e-05,0.0142941092387592,-6.881853197639152e-06
0.0150882264186903,-3.575215683876856e-05,0.0150882264186903,-0.0001421681005254,0.0150882264186903,-1.1749416752017696e-05,0.0150882264186903,-9.735332584536733e-06
0.0158823435986214,-4.347245167377963e-05,0.0158823435986214,-0.0001451897853878,0.0158823435986214,-1.2252964236043494e-05,0.0158823435986214,-1.1917145038952234e-05
0.0166764607785524,-6.881694817348999e-05,0.0166764607785524,-0.0001320976466772,0.0166764607785524,-1.7959618130111026e-05,0.0166764607785524,-1.2588666838836591e-05
0.0174705779584835,-7.334997420986225e-05,0.0174705779584835,-5.1196245592249055e-05,0.0174705779584835,-2.098111613898296e-05,0.0174705779584835,-1.5609916138982956e-05
0.0182646951384146,-6.160077193138294e-05,0.0182646951384146,-1.561021784996089e-05,0.0182646951384146,-2.5009475338213876e-05,0.0182646951384146,-1.8631281503201244e-05
0.0190588123183456,-4.112278234459667e-05,0.0190588123183456,-2.299440431619164e-05,0.0190588123183456,-2.7023671359574798e-05,0.0190588123183456,-1.8463345322119504e-05
0.0198529294982767,-2.064557480795673e-05,0.0198529294982767,3.4745685267725255e-05,0.0198529294982767,-2.5177393763836983e-05,0.0198529294982767,-1.4938487782493587e-05
0.0206470466782078,-2.2659464775344243e-05,0.0206470466782078,5.857779976883965e-05,0.0206470466782078,-2.5009511272637756e-05,0.0206470466782078,-1.1917502847054483e-05
0.0214411638581389,-5.673144921786952e-05,0.0214411638581389,5.891508472129106e-05,0.0214411638581389,-2.83663472129106e-05,0.0214411638581389,-1.292435416387318e-05
0.0222352810380699,-9.483389018553664e-05,0.0222352810380699,7.469252324954098e-05,0.0222352810380699,-3.004495991990991e-05,0.0222352810380699,-1.1581632064072076e-05
0.023029398218001,-5.723668437218608e-05,0.023029398218001,5.404754632927987e-05,0.023029398218001,-3.0548598869897154e-05,0.023029398218001,-8.22461753324853e-06
0.0238235153979321,1.728987346994947e-05,0.0238235153979321,4.129096834735062e-05,0.0238235153979321,-2.702369023692379e-05,0.0238235153979321,-8.896049055989032e-06
0.0246176325778631,8.812358519612184e-05,0.0246176325778631,4.48145708419094e-05,0.0246176325778631,-2.652008983743468e-05,0.0246176325778631,-1.0910144919127536e-05
0.0254117497577942,0.000153577858839,0.0254117497577942,1.7290241409274534e-05,0.0254117497577942,-2.383476989482213e-05,0.0254117497577942,-9.567494946778447e-06
0.0262058669377253,9.819410616547854e-05,0.0262058669377253,1.091046555988734e-05,0.0262058669377253,-2.2995334944172183e-05,0.0262058669377253,-4.867825674873764e-06
0.0269999841176564,4.53380323792579e-06,0.0269999841176564,6.546207283488298e-06,0.0269999841176564,-2.769500600196644e-05,0.0269999841176564,7.217278291770863e-06
0.0277941012975874,-3.239491810200701e-05,0.0277941012975874,1.0910203839819668e-05,0.0277941012975874,-2.735940383981967e-05,0.0277941012975874,9.903087932060687e-06
0.0285882184775185,-4.347271492692689e-05,0.0285882184775185,1.3260240584554931e-05,0.0285882184775185,-2.970925313848169e-05,0.0285882184775185,2.517579890510405e-06
0.0293823356574496,-3.122099268354308e-05,0.0293823356574496,1.930221045543317e-05,0.0293823356574496,-2.7695263181522275e-05,0.0293823356574496,-4.363522465562688e-06
0.0301764528373806,1.1243377895635756e-05,0.0301764528373806,7.21823775436811e-06,0.0301764528373806,-2.2324219002469305e-05,0.0301764528373806,-1.4937971965670297e-05
0.0309705700173117,4.615718181135656e-05,0.0309705700173117,2.9372763456945652e-05,0.0309705700173117,-1.8967126745858437e-05,0.0309705700173117,-1.7624098600292708e-05
0.0317646871972428,4.8844056701820094e-05,0.0317646871972428,1.25889706120122e-05,0.0317646871972428,-1.2924497420904796e-05,0.0317646871972428,-2.903771598434762e-05
0.0325588043771738,1.0574215036664008e-05,0.0325588043771738,-3.693051007076472e-06,0.0325588043771738,-6.88180519670767e-06,0.0325588043771738,-5.5893911950039486e-05
0.0333529215571049,-4.1123737834618434e-05,0.0333529215571049,-7.100262377100719e-05,0.0333529215571049,-4.19623e-06,0.0333529215571049,-7.62035863307e-05
0.034147038737036,-6.462018734290615e-05,0.034147038737036,-0.0001602891119045,0.034147038737036,-4.19623e-06,0.034147038737036,-7.57000388466742e-05
0.0349411559169671,-5.6565647258757576e-05,0.0349411559169671,-0.000140827080842,0.0349411559169671,-1.1751077214789602e-06,0.0349411559169671,-7.032909817250505e-05
0.0357352730968981,1.8443610910360915e-06,0.0357352730968981,-0.0001455248408038,0.0357352730968981,4.867425285384737e-06,0.0357352730968981,-6.4118610400483e-05
0.0365293902768292,5.354326700138129e-05,0.0365293902768292,-0.0001438470205458,0.0365293902768292,4.531934110399723e-06,0.0365293902768292,-5.253694180817823e-05
0.0373235074567603,5.488692065944457e-05,0.0373235074567603,-8.67774411739575e-05,0.0373235074567603,-3.357610455609555e-07,0.0373235074567603,-3.4744569883681855e-05
0.0381176246366913,7.838630291191746e-05,0.0381176246366913,-1.6617401993349287e-05,0.0381176246366913,-7.049748102220317e-06,0.0381176246366913,-1.0238326180152931e-05
0.0389117418166224,0.0001010433399642,0.0389117418166224,-2.6351586795747808e-05,0.0389117418166224,-9.567225549462372e-06,0.0389117418166224,5.034361000755488e-06
0.0397058589965535,5.488908338922461e-05,0.0397058589965535,2.5846104590089905e-05,0.0397058589965535,-8.224679335635212e-06,0.0397058589965535,6.210359331835541e-06
0.0404999761764846,-2.366434334701564e-05,0.0404999761764846,6.697066628030943e-05,0.0404999761764846,-8.560299928782117e-06,0.0404999761764846,5.203360213353643e-06
0.0412940933564156,-2.0981222467379064e-05,0.0412940933564156,4.817285727750977e-05,0.0412940933564156,-6.881834042551139e-06,0.0412940933564156,8.560281914897723e-06
0.0420882105363467,-8.390589493852221e-07,0.0420882105363467,7.435711092793752e-05,0.0420882105363467,-8.896027814279826e-06,0.0420882105363467,9.735226598109243e-06
0.0428823277162778,1.3258816754961846e-05,0.0428823277162778,6.764381107140617e-05,0.0428823277162778,-1.0238677786628911e-05,0.0428823277162778,7.2177491508671645e-06
0.0436764448962088,3.4071955733867616e-05,0.0436764448962088,4.011791015373243e-05,0.0436764448962088,-6.210699535335693e-06,0.0436764448962088,3.6929245939391673e-06
0.0444705620761399,-6.879864100199718e-06,0.0444705620761399,3.541642444850452e-05,0.0444705620761399,-6.716615273051755e-07,0.0444705620761399,-1.6766463258846865e-07
0.045264679256071,-3.3736998455525314e-05,0.045264679256071,2.2156446387826004e-05,0.045264679256071,-6.210275306510873e-06,0.045264679256071,-4.196124768354921e-06
0.046058796436002,-1.4267287385494463e-05,0.046058796436002,5.203406085677774e-06,0.046058796436002,-1.158157589362265e-05,0.046058796436002,-5.035476233364514e-06
0.0468529136159331,-5.874840861208349e-06,0.0468529136159331,1.3092271942256754e-05,0.0468529136159331,-9.567438776388377e-06,0.0468529136159331,-3.5247782025009247e-06
0.0476470307958642,-1.2923785712651975e-05,0.0476470307958642,1.7288134347374843e-05,0.0476470307958642,-1.1245753741564043e-05,0.0476470307958642,-5.038112651847191e-07
0.0484411479757953,8.558902463227761e-06,0.0484411479757953,1.527443195712517e-05,0.0484411479757953,-1.4602680071458056e-05,0.0484411479757953,3.0210590758171188e-06
0.0492352651557263,1.728811701619365e-05,0.0492352651557263,1.0574706222285844e-05,0.0492352651557263,-1.997386431738761e-05,0.0492352651557263,4.86754898454078e-06
0.0500293823356574,1.1581726947030027e-05,0.0500293823356574,1.1917270130110584e-05,0.0500293823356574,-2.635215812024971e-05,0.0500293823356574,2.517792272084037e-06
0.0508234995155885,9.231711433463922e-06,0.0508234995155885,1.4602898361748547e-05,0.0508234995155885,-2.7695099180874276e-05,0.0508234995155885,1.8463404095628635e-06
0.0516176166955195,-1.99748056978766e-05,0.0516176166955195,2.433747192872165e-05,0.0516176166955195,-2.198815885958381e-05,0.0516176166955195,3.1891682278730203e-06
0.0524117338754506,-5.354110500138941e-05,0.0524117338754506,-5.536542450570498e-06,0.0524117338754506,-1.5274859003052493e-05,0.0524117338754506,4.531818200222095e-06
0.0532058510553817,-7.60343137104078e-05,0.0532058510553817,-4.917711018659039e-05,0.0532058510553817,-1.8295413781167143e-05,0.0532058510553817,2.182184836253648e-06
0.0539999682353128,-9.51697345914411e-05,0.0539999682353128,-0.0001552567566601,0.0539999682353128,-2.265942543622347e-05,0.0539999682353128,-6.210084294337315e-06
0.0547940854152438,-0.000123704475924,0.0547940854152438,-0.0001559319876761,0.0547940854152438,-2.098123082616129e-05,0.0547940854152438,-1.3595664357176436e-05
0.0555882025951749,-0.0001052407882906,0.0555882025951749,-0.0001414969945136,0.0555882025951749,-1.628138244874886e-05,0.0555882025951749,-1.4267224132970314e-05
0.056382319775106,-4.045824459169459e-05,0.056382319775106,-0.0001398181696016,0.056382319775106,-1.091074256352376e-05,0.056382319775106,-2.1651853975154826e-05
0.057176436955037,-5.541801776836011e-06,0.057176436955037,-9.75237580791128e-05,0.057176436955037,-9.567516606404426e-06,0.057176436955037,-2.8365966971947453e-05
0.0579705541349681,2.8028861098952424e-05,0.0579705541349681,-3.239866146975345e-05,0.0579705541349681,-1.2924206109490942e-05,0.0579705541349681,-3.1051944887130694e-05
0.0587646713148992,4.8843348165712027e-05,0.0587646713148992,-1.5610606317275024e-05,0.0587646713148992,-6.546350401214719e-06,0.0587646713148992,-3.2394851494329014e-05
0.0595587884948302,4.414446809072669e-05,0.0595587884948302,6.210103858915561e-06,0.0595587884948302,-8.393286829792974e-07,0.0595587884948302,-3.004503404608776e-05
0.0603529056747613,5.891502564147687e-05,0.0603529056747613,5.891501364816669e-05,0.0603529056747613,-1.1749711825350204e-06,0.0603529056747613,-2.90379e-05
0.0611470228546924,4.850941086385324e-05,0.0611470228546924,4.683107390641021e-05,0.0611470228546924,-5.538606090323226e-06,0.0611470228546924,-2.90379e-05
0.0619411400346235,-1.493380888648452e-05,0.0619411400346235,7.704051851413729e-05,0.0619411400346235,-1.2252493003728948e-05,0.0619411400346235,-2.4506342220236428e-05
0.0627352572145545,-1.7624055302112796e-05,0.0627352572145545,6.764370644260521e-05,0.0627352572145545,-1.5609819127641e-05,0.0627352572145545,-1.7792361744718004e-05
0.0635293743944856,5.387729438159323e-05,0.0635293743944856,5.455142215402964e-05,0.0635293743944856,-9.735449429214656e-06,0.0635293743944856,-1.6281448708840163e-05
0.0643234915744167,8.509926874863341e-05,0.0643234915744167,3.172374220501508e-05,0.0643234915744167,-2.8535130176899303e-06,0.0643234915744167,-1.5945703561854058e-05
0.0651176087543477,9.852718176920663e-05,0.0651176087543477,2.534497057843844e-05,0.0651176087543477,-5.539026299629121e-06,0.0651176087543477,-1.2924409250376055e-05
0.0659117259342788,6.966009237569412e-05,0.0659117259342788,4.533871009634994e-06,0.0659117259342788,-5.203361306802558e-06,0.0659117259342788,-1.376352173765652e-05
0.0667058431142099,-3.5744348946844674e-05,0.0667058431142099,8.560021424784059e-06,0.0667058431142099,-6.378185832527165e-06,0.0667058431142099,-1.2924460116553358e-05
0.067499960294141,-9.281774650326696e-05,0.067499960294141,2.181973698115613e-05,0.067499960294141,-1.1917023042508254e-05,0.067499960294141,-1.1245983926815688e-05
0.068294077474072,-9.013507618137772e-05,0.068294077474072,7.889305189194908e-06,0.068294077474072,-1.5609895250605642e-05,0.068294077474072,-9.063921897085727e-06
0.0690881946540031,-7.167172429829815e-05,0.0690881946540031,1.6952738980572288e-05,0.0690881946540031,-1.829558192014962e-05,0.0690881946540031,-1.0238792090132778e-05
0.0698823118339342,-3.239926020160649e-05,0.0698823118339342,1.69528e-05,0.0698823118339342,-1.5106754040817162e-05,0.0698823118339342,-7.721349499305967e-06
0.0706764290138652,3.910250813703587e-05,0.0706764290138652,1.4938780053233289e-05,0.0706764290138652,-1.1749700088722146e-05,0.0706764290138652,-6.881895022180536e-06
0.0714705461937963,3.978025450763742e-05,0.0714705461937963,1.695266352291225e-05,0.0714705461937963,-1.5106172538187084e-05,0.0714705461937963,-6.546142746181291e-06
0.0722646633737274,-2.3663773634156086e-05,0.0722646633737274,8.560697086798139e-06,0.0722646633737274,-2.0309560003593043e-05,0.0722646633737274,-6.881804516509625e-06
0.0730587805536585,-7.334888332657972e-05,0.0730587805536585,-3.2393897067120416e-05,0.0730587805536585,-2.064549177920056e-05,0.0730587805536585,-5.539062882952899e-06
0.0738528977335895,-8.241397413106973e-05,0.0738528977335895,-0.0001404896914899,0.0738528977335895,-2.0981199041891477e-05,0.0738528977335895,-7.888903293297379e-06
0.0746470149135206,-6.059593772477245e-05,0.0746470149135206,-0.0001562663096267,0.0746470149135206,-2.3834294301485504e-05,0.0746470149135206,-9.56723017419339e-06
0.0754411320934517,-1.5110289785598644e-05,0.0754411320934517,-0.0001341138946448,0.0754411320934517,-2.4338056943776517e-05,0.0754411320934517,-1.0238742586856234e-05
0.0762352492733827,2.366422319833476e-05,0.0762352492733827,-0.0001455242709446,0.0762352492733827,-2.031005732531441e-05,0.0762352492733827,-1.1581514222765885e-05
0.0770293664533138,4.481480656231531e-05,0.0770293664533138,-9.68510563134304e-05,0.0770293664533138,-1.6617255997793666e-05,0.0770293664533138,-1.2924343273529577e-05
0.0778234836332449,3.692696259374667e-05,0.0778234836332449,-5.38804856184941e-05,0.0778234836332449,-1.4938634594633444e-05,0.0778234836332449,-1.29244e-05
0.078617600813176,1.863129106325516e-05,0.078617600813176,-1.493858625120274e-05,0.078617600813176,-1.4435001890516448e-05,0.078617600813176,-1.225300446837242e-05
0.079411717993107,9.904001249764524e-06,0.079411717993107,-1.51202653396898e-06,0.079411717993107,-1.628120934584849e-05,0.079411717993107,-1.6616649375117736e-05
0.0802058351730381,-1.5607917218535656e-05,0.0802058351730381,6.025285747791559e-05,0.0802058351730381,-1.8966780758986533e-05,0.0802058351730381,-2.0309498543606484e-05
0.0809999523529692,-4.078588932331768e-05,0.0809999523529692,5.958654028487154e-05,0.0809999523529692,-2.064539928782117e-05,0.0809999523529692,-1.6953001424357663e-05
0.0817940695329002,-5.522184617480868e-05,0.0817940695329002,5.992218712025516e-05,0.0817940695329002,-1.8295690158213863e-05,0.0817940695329002,-1.3931615917703535e-05
0.0825881867128313,-5.320823370232353e-05,0.0825881867128313,7.687471633961364e-05,0.0825881867128313,-1.3595878638754884e-05,0.0825881867128313,-1.359580561705392e-05
0.0833823038927624,-3.1390440516704856e-05,0.0833823038927624,5.9588592105234186e-05,0.0833823038927624,-1.35958e-05,0.0833823038927624,-8.56091935159127e-06
0.0841764210726934,6.542349666123299e-06,0.0841764210726934,3.1054936095372466e-05,0.0841764210726934,-1.1246133561613904e-05,0.0841764210726934,-7.888976731889687e-06
0.0849705382526245,1.0238512865762094e-05,0.0849705382526245,1.963928750285733e-05,0.0849705382526245,-9.903204413015658e-06,0.0849705382526245,-3.5251693407457357e-06
0.0857646554325556,-5.538144497467741e-06,0.0857646554325556,2.131680579718501e-05,0.0857646554325556,-1.258854927549602e-05,0.0857646554325556,-8.393967236060085e-07
0.0865587726124866,-9.56727106622481e-06,0.0865587726124866,3.861132048313523e-06,0.0865587726124866,-1.0910257889360402e-05,0.0865587726124866,-1.2252606353935746e-05
0.0873528897924177,-2.03096619143315e-05,0.0873528897924177,1.1581500751219004e-05,0.0873528897924177,-9.567427260596088e-06,0.0873528897924177,-2.1988174859746437e-05
0.0881470069723488,-2.786211526510352e-05,0.0881470069723488,7.721522198486722e-06,0.0881470069723488,-1.309178712800988e-05,0.0881470069723488,-1.829603253992377e-05
0.0889411241522799,-1.1583155102719914e-05,0.0889411241522799,1.52735785602886e-05,0.0889411241522799,-1.1581744283548633e-05,0.0889411241522799,-1.7120712229027964e-05
0.0897352413322109,1.09085383148504e-05,0.0897352413322109,2.518682449528807e-06,0.0897352413322109,-1.2924300794475369e-05,0.0897352413322109,-1.963821398594734e-05
0.090529358512142,1.6281119380956244e-05,0.090529358512142,3.0379244296024834e-05,0.090529358512142,-1.1581670154760938e-05,0.090529358512142,-1.7120731542789018e-05
0.0913234756920731,2.853851038748045e-06,0.0913234756920731,1.443548810843678e-05,0.0913234756920731,-1.0238841103997246e-05,0.0913234756920731,-1.0910390104456734e-05
0.0921175928720041,-1.712042070913824e-05,0.0921175928720041,1.6617080413046664e-05,0.0921175928720041,-1.359576986691611e-05,0.0921175928720041,-8.224634106377349e-06
0.0929117100519352,-4.078471958844278e-05,0.0929117100519352,-1.963429384026516e-05,0.0929117100519352,-1.6281095839180707e-05,0.0929117100519352,-1.1916881780006031e-05
0.0937058272318663,-3.7095038384192434e-05,0.0937058272318663,-0.0001283950330657,0.0937058272318663,-1.9302423140206195e-05,0.0937058272318663,-1.963769246941583e-05
0.0944999444117974,-1.6282856962519963e-05,0.0944999444117974,-0.0001586158850442,0.0944999444117974,-1.980616475423749e-05,0.0944999444117974,-2.3666418012899485e-05
0.0952940615917284,-2.0645288921372863e-05,0.0952940615917284,-0.0001478755196071,0.0952940615917284,-2.09811431687205e-05,0.0952940615917284,-2.735922139500781e-05
0.0960881787716595,-8.89632409416189e-06,0.0960881787716595,-0.0001455250628215,0.0960881787716595,-1.96384358965062e-05,0.0960881787716595,-2.5680944870632742e-05
0.0968822959515906,-1.0238624080630014e-05,0.0968822959515906,-0.0001086028378187,0.0968822959515906,-1.5274871742210288e-05,0.0968822959515906,-1.6282631431659588e-05
0.0976764131315216,-8.89615689097594e-06,0.0976764131315216,-6.73120168655129e-05,0.0976764131315216,-6.211411519283738e-06,0.0976764131315216,-9.735976097746664e-06
0.0984705303114527,1.795754318177429e-05,0.0984705303114527,-2.8369917380328108e-05,0.0984705303114527,-1.846722982489979e-06,0.0984705303114527,-1.225277904842846e-05
0.0992646474913838,3.5415045729559786e-05,0.0992646474913838,-5.540539430626535e-06,0.0992646474913838,5.202863851635554e-06,0.0992646474913838,-1.6281133628372486e-05
0.1000587646713148,3.407379783376352e-05,0.1000587646713148,4.748558564633438e-05,0.1000587646713148,1.42645146309844e-05,0.1000587646713148,-1.4267796750645278e-05
0.1008528818512459,1.0577996682312444e-05,0.1008528818512459,6.562640254787996e-05,0.1008528818512459,5.204678721595961e-06,0.1008528818512459,-1.5945450235914812e-05
0.101646999031177,-6.932160251225002e-05,0.101646999031177,5.589381187881892e-05,0.101646999031177,-9.063842591459274e-06,0.101646999031177,-1.829559713269888e-05
0.1024411162111081,-0.0001179907282582,0.1024411162111081,7.569643783681361e-05,0.1024411162111081,-1.6952898267176295e-05,0.1024411162111081,-2.064594218765716e-05
0.1032352333910391,-6.828825341444697e-05,0.1032352333910391,5.13603704950462e-05,0.1032352333910391,-1.762202911060349e-05,0.1032352333910391,-2.3665515907905333e-05
0.1040293505709702,2.135050344016566e-05,0.1040293505709702,4.614458493420261e-05,0.1040293505709702,-1.02367275434857e-05,0.1040293505709702,-1.9637215731575208e-05
0.1048234677509013,9.746938208277794e-05,0.1048234677509013,1.4624026339192987e-05,0.1048234677509013,-5.542176475907573e-06,0.1048234677509013,-1.6954597997709968e-05
0.1056175849308323,9.81914490208575e-05,0.1056175849308323,2.735273144856834e-05,0.1056175849308323,-7.719929323014466e-06,0.1056175849308323,-2.0643569614716288e-05
0.1064117021107634,-1.2882711939564949e-05,0.1064117021107634,6.386141603019501e-06,0.1064117021107634,-1.5607040267840265e-05,0.1064117021107634,-2.2323270305674294e-05
0.1072058192906945,-0.0001084092633106,0.1072058192906945,1.7286016901655223e-05,0.1072058192906945,-1.7623741581003694e-05,0.1072058192906945,-1.963901120256905e-05
0.1079999364706256,-8.342310108728061e-05,0.1079999364706256,1.77919597140554e-05,0.1079999364706256,-1.7959873140036542e-05,0.1079999364706256,-1.96384e-05
0.1087940536505566,7.94006617899079e-05,0.1087940536505566,6.546845862300876e-06,0.1087940536505566,-2.1652736092677804e-05,0.1087940536505566,-1.5273642188092225e-05
0.1095881708304877,0.0001972318115398,0.1095881708304877,1.7290197310623104e-05,0.1095881708304877,-2.36656166248892e-05,0.1095881708304877,-5.538379964175933e-06
0.1103822880104188,0.0002381426262266,0.1103822880104188,2.517052004048672e-05,0.1103822880104188,-1.863032584284536e-05,0.1103822880104188,-2.5191403436551208e-06
0.1111764051903498,0.0001406005969124,0.1111764051903498,6.211617676416715e-06,0.1111764051903498,-1.5945528902640936e-05,0.1111764051903498,-6.380237609435769e-06
0.1119705223702809,2.809846553194185e-05,0.1119705223702809,8.558898204653451e-06,0.1119705223702809,-1.5610201685907783e-05,0.1119705223702809,-1.0236480624076357e-05
0.112764639550212,-2.9347540297469937e-05,0.112764639550212,1.040586179989418e-05,0.112764639550212,-1.6448819030904196e-05,0.112764639550212,-1.627865685908209e-05
0.1135587567301431,-4.246188871291252e-05,0.1135587567301431,-0.0001001721099046,0.1135587567301431,-2.181875434375898e-05,0.1135587567301431,-2.2322048667367375e-05
0.1143528739100741,-5.186390732713114e-05,0.1143528739100741,-0.0001614612709076,0.1143528739100741,-2.4673346870284163e-05,0.1143528739100741,-3.457495418153496e-05
0.1151469910900052,-8.140656849545278e-05,0.1151469910900052,-0.0001482111487991,0.1151469910900052,-2.534519246578024e-05,0.1151469910900052,-4.045163407501603e-05
0.1159411082699363,-8.40853131807152e-05,0.1159411082699363,-0.0001341101231392,0.1159411082699363,-1.930137249467476e-05,0.1159411082699363,-2.970797250694717e-05
0.1167352254498673,-3.137378812037769e-05,0.1167352254498673,-0.0001203327489695,0.1167352254498673,-9.565884896953865e-06,0.1167352254498673,-1.9973432764932824e-05
0.1175293426297984,1.7964240365329822e-05,0.1175293426297984,-6.66266511014586e-05,0.1175293426297984,-4.195795963467018e-06,0.1175293426297984,-1.7622753197190695e-05
0.1183234598097295,2.8023956978371007e-05,0.1183234598097295,-4.44950547970704e-05,0.1183234598097295,-3.1898243021628995e-06,0.1183234598097295,-1.426948102985915e-05
0.1191175769896605,3.2057053835199904e-05,0.1191175769896605,1.4861380903828095e-06,0.1191175769896605,-6.879852692921751e-06,0.1191175769896605,-6.885754624811671e-06
0.1199116941695916,3.871391474509944e-06,0.1199116941695916,3.741656454046793e-05,0.1199116941695916,-9.063019528735231e-06,0.1199116941695916,2.178548811076846e-06
0.1207058113495227,-5.31946407516983e-05,0.1207058113495227,6.293743821348668e-05,0.1207058113495227,-1.7622166105508093e-05,0.1207058113495227,7.216323594829634e-06
0.1214999285294538,-0.0001097679084166,0.1214999285294538,5.757278347934227e-05,0.1214999285294538,-2.098089782541108e-05,0.1214999285294538,1.0909867609752447e-05
0.1222940457093848,-0.0001156444634119,0.1222940457093848,6.747494584790134e-05,0.1222940457093848,-2.16526e-05,0.1222940457093848,9.23155539462604e-06
0.1230881628893159,-5.42086541774548e-05,0.1230881628893159,5.9586603293161936e-05,0.1230881628893159,-2.1650465062664768e-05,0.1230881628893159,6.545844526266311e-06
0.123882280069247,-2.180613138896856e-05,0.123882280069247,6.007484331548849e-05,0.123882280069247,-1.12440054126724e-05,0.123882280069247,5.20285635140444e-06
0.124676397249178,1.8657803415824053e-05,0.124676397249178,1.7119341944332512e-05,0.124676397249178,-5.8782426158311045e-06,0.124676397249178,3.858517081450635e-06
0.1254705144291091,7.163920399280211e-05,0.1254705144291091,1.460443776331058e-05,0.1254705144291091,-1.2920094189436658e-05,0.1254705144291091,-1.653885426669947e-07
0.1262646316090402,5.1539045206388535e-05,0.1262646316090402,1.46029e-05,0.1262646316090402,-2.164855039045967e-05,0.1262646316090402,-5.200993695619056e-06
0.1270587487889713,5.196919951317146e-07,0.1270587487889713,4.19952253183382e-06,0.1270587487889713,-2.299487518759668e-05,0.1270587487889713,-1.157958200029215e-05
0.1278528659689023,7.552029980760526e-06,0.1278528659689023,1.594371663178746e-05,0.1278528659689023,-2.031025332558275e-05,0.1278528659689023,-1.1749371674536292e-05
0.1286469831488334,3.357069057354182e-06,0.1286469831488334,5.203557986733327e-06,0.1286469831488334,-2.03098e-05,0.1286469831488334,-1.258868218742556e-05
0.1294411003287645,-2.568446314953656e-05,0.1294411003287645,8.226773334562378e-06,0.1294411003287645,-2.0644990976832512e-05,0.1294411003287645,-1.695364835930995e-05
0.1302352175086955,-5.38836462918008e-05,0.1302352175086955,2.534510803820012e-05,0.1302352175086955,-1.6615996458401404e-05,0.1302352175086955,-2.3667435694399062e-05
0.1310293346886266,-6.865114796205257e-05,0.1310293346886266,2.4995791355928717e-05,0.1310293346886266,-1.2587216070617929e-05,0.1310293346886266,-2.634982679839628e-05
0.1318234518685577,-7.066311126245149e-05,0.1318234518685577,-7.530768867071068e-06,0.1318234518685577,-9.06629028381515e-06,0.1318234518685577,-2.0481650450042795e-05
0.1326175690484888,-6.999346440912423e-05,0.1326175690484888,1.8617088087575887e-05,0.1326175690484888,-6.883004324226142e-06,0.1326175690484888,-1.6283677529888425e-05
0.1334116862284198,-7.066423467728097e-05,0.1334116862284198,-8.13673670729372e-05,0.1334116862284198,-8.89521403579472e-06,0.1334116862284198,-1.3932428629516573e-05
0.1342058034083509,-5.85823922288894e-05,0.1342058034083509,-0.0001629618022878,0.1342058034083509,-1.107755972207617e-05,0.1342058034083509,-1.4938350645529244e-05
0.134999920588282,-5.320873719926922e-05,0.134999920588282,-0.0001492193766031,0.134999920588282,-1.1581549642569248e-05,0.134999920588282,-1.661693212522837e-05
0.135794037768213,-3.306366525330427e-05,0.135794037768213,-0.0001552593552751,0.135794037768213,-3.189060158758611e-06,0.135794037768213,-1.6281272254013776e-05
0.1365881549481441,2.2334971396167263e-05,0.1365881549481441,-0.0001206736819172,0.1365881549481441,-1.5109020458034797e-06,0.1365881549481441,-1.3595374165811904e-05
0.1373822721280752,7.906217742513274e-05,0.1373822721280752,-6.780425426525553e-05,0.1373822721280752,-2.8557410827873245e-06,0.1373822721280752,-1.1413987653770184e-05
0.1381763893080062,9.41509063470504e-05,0.1381763893080062,-4.78258214735682e-05,0.1381763893080062,-9.57069781139756e-06,0.1381763893080062,-1.225332878162945e-05
0.1389705064879373,6.86661377642841e-05,0.1389705064879373,-2.502367062466714e-05,0.1389705064879373,-1.6277232157165305e-05,0.1389705064879373,-1.292398321509576e-05
0.1397646236678684,-1.2214654267833842e-05,0.1397646236678684,3.907850980586302e-05,0.1397646236678684,-1.829464532974886e-05,0.1397646236678684,-1.1582236446834092e-05
0.1405587408477994,-7.702165337627171e-05,0.1405587408477994,6.931183889974382e-05,0.1405587408477994,-2.131591388344662e-05,0.1405587408477994,-7.5545348155434115e-06
0.1413528580277305,-4.1129522671696e-05,0.1413528580277305,4.683392167744308e-05,0.1413528580277305,-2.5008839739543907e-05,0.1413528580277305,-8.560129925878048e-06
0.1421469752076616,4.414173755578064e-05,0.1421469752076616,6.663558155605662e-05,0.1421469752076616,-2.299536289260441e-05,0.1421469752076616,-9.567378553697796e-06
0.1429410923875927,9.382391109639244e-05,0.1429410923875927,6.697031803119313e-05,0.1429410923875927,-2.165252187779631e-05,0.1429410923875927,-1.225292187779631e-05
0.1437352095675237,6.124307052702748e-05,0.1437352095675237,5.336949899251548e-05,0.1437352095675237,-2.098018103730189e-05,0.1437352095675237,-1.1582308834435591e-05
0.1445293267474548,-2.1828885364250265e-05,0.1445293267474548,2.8354358376940384e-05,0.1445293267474548,-1.7120255086208675e-05,0.1445293267474548,-1.426913163231229e-05
0.1453234439273859,-4.245145924886255e-05,0.1453234439273859,-1.1542768732516912e-06,0.1453234439273859,-1.6281986988852513e-05,0.1453234439273859,-1.8963712666576453e-05
0.146117561107317,-1.126315721607473e-05,0.146117561107317,2.7343627313551256e-05,0.146117561107317,-1.7623457751769856e-05,0.146117561107317,-2.467064550029804e-05
0.146911678287248,1.5599118532122442e-05,0.146911678287248,1.796370848742046e-05,0.146911678287248,-1.4268560188549442e-05,0.146911678287248,-2.4338236018854945e-05
0.1477057954671791,1.1247024183480575e-05,0.1477057954671791,1.79599e-05,0.1477057954671791,-7.55494950789508e-06,0.1477057954671791,-2.1653291779459017e-05
0.1484999126471102,-2.366285904722944e-05,0.1484999126471102,7.218701836191615e-06,0.1484999126471102,-4.196599323397319e-06,0.1484999126471102,-1.8295969324497483e-05
0.1492940298270412,-3.9778818242101913e-05,0.1492940298270412,6.546700093878973e-06,0.1492940298270412,-4.19631827489417e-06,0.1492940298270412,-1.4938625221505665e-05
0.1500881470069723,-3.346724638085445e-07,0.1500881470069723,2.199010244619292e-05,0.1500881470069723,-6.546679383747452e-06,0.1500881470069723,-1.561037292373262e-05
0.1508822641869034,5.204000179620879e-06,0.1508822641869034,3.1711995245959744e-05,0.1508822641869034,-9.5670190599469e-06,0.1508822641869034,-1.7625093577264225e-05
0.1516763813668344,7.201094257006414e-06,0.1516763813668344,-2.8486894116828426e-06,0.1516763813668344,-8.389158744768787e-06,0.1516763813668344,-2.030883377474466e-05
0.1524704985467655,-2.700210204966033e-05,0.1524704985467655,7.043423526364182e-06,0.1524704985467655,-1.5149807684249137e-06,0.1524704985467655,-1.8296870474345663e-05
0.1532646157266966,-8.205165514734339e-05,0.1532646157266966,-4.579721123588688e-05,0.1532646157266966,-2.181715061592062e-06,0.1532646157266966,-1.1584849384079375e-05
0.1540587329066277,-9.952872788156798e-05,0.1540587329066277,-0.0001558949604061,0.1540587329066277,-1.2920786381411904e-05,0.1540587329066277,-5.541062657932881e-06
0.1548528500865587,-9.08080479527678e-05,0.1548528500865587,-0.0001495552042165,0.1548528500865587,-2.366467176932043e-05,0.1548528500865587,-4.196483531195045e-06
0.1556469672664898,-6.126621787621869e-05,0.1556469672664898,-0.0001451901799106,0.1556469672664898,-2.769493392484583e-05,0.1556469672664898,-4.53191616040382e-06
0.1564410844464209,-4.179482132182224e-05,0.1564410844464209,-0.0001310850729554,0.1564410844464209,-2.1652278667542196e-05,0.1564410844464209,-7.553309257952501e-06
0.157235201626352,-4.4806749138380254e-05,0.157235201626352,-8.475384090192994e-05,0.157235201626352,-1.8630831129853545e-05,0.157235201626352,-8.39292885491021e-06
0.158029318806283,-9.534832004005148e-06,0.158029318806283,-4.5150726937779306e-05,0.158029318806283,-1.678496733028292e-05,0.158029318806283,-1.024149240928846e-05
0.1588234359862141,7.161396487850262e-05,0.1588234359862141,-4.347419074306693e-05,0.1588234359862141,-1.695268088312623e-05,0.1588234359862141,-1.6948036743951788e-05
0.1596175531661451,0.00014481281565,0.1596175531661451,2.6313004901808665e-05,0.1596175531661451,-1.9133572051043767e-05,0.1596175531661451,-3.439927623952125e-05
0.1604116703460762,0.0001475378852383,0.1604116703460762,6.393498989027579e-05,0.1604116703460762,-1.2926978441722928e-05,0.1604116703460762,-4.3469236838539794e-05
0.1612057875260073,5.826759537646837e-05,0.1612057875260073,6.126571866518219e-05,0.1612057875260073,-1.0239518665182192e-05,0.1612057875260073,-4.599002626477167e-05
0.1619999047059384,3.5418939704271406e-05,0.1619999047059384,6.83137539231527e-05,0.1619999047059384,-8.224851738470985e-06,0.1619999047059384,-4.951507696157635e-05
0.1627940218858694,4.112426590492087e-05,0.1627940218858694,5.891518327931669e-05,0.1627940218858694,-3.524644935678718e-06,0.1627940218858694,-4.86759344977105e-05
0.1635881390658005,8.342398100902554e-05,0.1635881390658005,6.19319902830144e-05,0.1635881390658005,3.1887872212399856e-06,0.1635881390658005,-3.5414259716819926e-05
0.1643822562457316,9.984581533307192e-05,0.1643822562457316,3.674621597145026e-05,0.1643822562457316,1.1716898262585452e-06,0.1643822562457316,-2.4335933239020872e-05
0.1651763734256627,2.395194126833109e-05,0.1651763734256627,-2.8463442360150947e-06,0.1651763734256627,-8.89947904925161e-06,0.1651763734256627,-1.7620100213666793e-05
0.1659704906055937,-8.335226864150737e-05,0.1659704906055937,1.224332058360426e-05,0.1659704906055937,-1.6276667828485405e-05,0.1659704906055937,-8.901602567500425e-06
0.1667646077855248,-0.000150695751722,0.1667646077855248,1.7957080946110354e-05,0.1667646077855248,-1.695246834660122e-05,0.1667646077855248,4.989048731639125e-07
0.1675587249654559,-0.0001975427785041,0.1675587249654559,2.6517234788151185e-05,0.1675587249654559,-1.6281632566993597e-05,0.1675587249654559,7.886351776233289e-06
0.1683528421453869,-0.000139494546051,0.1683528421453869,1.259146971226911e-05,0.1683528421453869,-1.1582534364118892e-05,0.1683528421453869,1.1916499118457613e-05
0.169146959325318,-1.4944980105616349e-05,0.169146959325318,4.3645013272074415e-06,0.169146959325318,-1.0574551591274808e-05,0.169146959325318,1.19173e-05
0.1699410765052491,7.536627310313492e-05,0.1699410765052491,2.4003305691107705e-05,0.1699410765052491,-1.0910102961667032e-05,0.1699410765052491,1.6617358768887917e-05
0.1707351936851801,9.582335215585138e-05,0.1707351936851801,3.3395080384714044e-05,0.1707351936851801,-9.903345667940745e-06,0.1707351936851801,1.9301144103041952e-05
0.1715293108651112,1.9761635003289703e-05,0.1715293108651112,5.029441716976282e-06,0.1715293108651112,-1.0911775206307188e-05,0.1715293108651112,1.2919805663911712e-05
0.1723234280450423,-9.40814056883683e-05,0.1723234280450423,-1.0395590274957596e-05,0.1723234280450423,-1.49357018071049e-05,0.1723234280450423,1.183393033833095e-06
0.1731175452249733,-0.0001634452950472,0.1731175452249733,-1.694905062619435e-05,0.1731175452249733,-1.5609615445903193e-05,0.1731175452249733,-1.4258355290139289e-05
0.1739116624049044,-0.0001512372097641,0.1739116624049044,-0.0001478193341402,0.1739116624049044,-1.6281114532308376e-05,0.1739116624049044,-3.1044963350227684e-05
0.1747057795848355,-6.128997492582228e-05,0.1747057795848355,-0.0001587819713734,0.1747057795848355,-2.04764351308398e-05,0.1747057795848355,-4.1791517899416976e-05
0.1754998967647666,9.817106755672097e-05,0.1754998967647666,-0.000143512985913,0.1754998967647666,-2.030982181721935e-05,0.1754998967647666,-3.910924917952493e-05
0.1762940139446976,0.0003294886485338,0.1762940139446976,-0.0001542518149658,0.1762940139446976,-1.7792011791523953e-05,0.1762940139446976,-2.8702055554709708e-05
0.1770881311246287,0.0003663845087346,0.1770881311246287,-8.677089296763496e-05,0.1770881311246287,-1.846392667842062e-05,0.1770881311246287,-2.0475909119837875e-05
0.1778822483045598,0.0001817395321377,0.1778822483045598,-4.3138979683401954e-05,0.1778822483045598,-2.165249501783284e-05,0.1778822483045598,-1.023696282145647e-05
0.1786763654844909,4.916945986909146e-05,0.1786763654844909,-4.848555913179143e-05,0.1786763654844909,-2.1315896825525056e-05,0.1786763654844909,-4.363076853108792e-06
0.1794704826644219,2.670263623692356e-05,0.1794704826644219,1.142609233436469e-06,0.1794704826644219,-1.9136219972282825e-05,0.1794704826644219,-2.1834599332386326e-06
0.180264599844353,-2.838551871491318e-06,0.180264599844353,7.364925638526913e-05,0.180264599844353,-1.6282838040457292e-05,0.180264599844353,-1.5109783683896497e-06
0.181058717024284,-4.3794103848842585e-05,0.181058717024284,5.757804273198791e-05,0.181058717024284,-1.2254435691906793e-05,0.181058717024284,-4.195272875626065e-06
0.1818528342042151,-5.75694260115063e-05,0.1818528342042151,5.99217093154726e-05,0.1818528342042151,-1.1581740195579256e-05,0.1818528342042151,-6.881259219771078e-06
0.1826469513841462,-8.14054406304433e-05,0.1826469513841462,6.831408614144699e-05,0.1826469513841462,-1.0238882218348143e-05,0.1826469513841462,-1.4266747800309777e-05
0.1834410685640773,-0.0001230370874206,0.1834410685640773,5.958510855508861e-05,0.1834410685640773,-8.224552023632415e-06,0.1834410685640773,-2.333063764662319e-05
0.1842351857440083,-0.0001703670786019,0.1842351857440083,4.346608922339645e-05,0.1842351857440083,-7.554162377139083e-06,0.1842351857440083,-1.913319010942469e-05
0.1850293029239394,-0.0001706895688478,0.1850293029239394,1.3927342812838316e-05,0.1850293029239394,-1.1585053675842608e-05,0.1850293029239394,-1.2252104602559323e-05
0.1858234201038705,-0.0001354797116461,0.1858234201038705,3.0292482245921745e-06,0.1858234201038705,-2.0638888527637786e-05,0.1858234201038705,-9.904814085427242e-06
0.1866175372838016,-3.195175276142285e-05,0.1866175372838016,2.4661181653509705e-05,0.1866175372838016,-1.9135680384585568e-05,0.1866175372838016,-1.0909613096368489e-05
0.1874116544637326,9.243077339741984e-05,0.1874116544637326,1.7962821783306492e-05,0.1874116544637326,-1.6953749571958887e-05,0.1874116544637326,-1.3594631269270034e-05
0.1882057716436637,7.100637905211358e-05,0.1882057716436637,1.493946893324788e-05,0.1882057716436637,-1.69528e-05,0.1882057716436637,-1.560942071116808e-05
0.1889998888235948,-2.09683207035307e-05,0.1889998888235948,1.1917723044424446e-05,0.1889998888235948,-1.3931923044424446e-05,0.1889998888235948,-1.4938694009872098e-05
0.1897940060035258,-4.213015177293569e-05,0.1897940060035258,9.903296714522887e-06,0.1897940060035258,-9.567422691257104e-06,0.1897940060035258,-1.5106419037377125e-05
0.1905881231834569,-3.5754738432310704e-05,0.1905881231834569,3.591764278972632e-05,0.1905881231834569,-1.124558751273662e-05,0.1905881231834569,-1.762451248881481e-05
0.191382240363388,-5.404582317778008e-05,0.191382240363388,2.2649132719355846e-05,0.191382240363388,-9.231608375328264e-06,0.191382240363388,-1.9637993501313046e-05
0.192176357543319,-4.850387071319251e-05,0.192176357543319,-1.1918960754986544e-05,0.192176357543319,-8.897821728215194e-06,0.192176357543319,-1.8294694133643703e-05
0.1929704747232501,-3.844415410015098e-05,0.1929704747232501,-1.5607560139051375e-05,0.1929704747232501,-1.2921738340117844e-05,0.1929704747232501,-1.6282730833244706e-05
0.1937645919031812,-4.950980617561905e-05,0.1937645919031812,-0.0001169388926151,0.1937645919031812,-1.4937564749858448e-05,0.1937645919031812,-1.6616927458309742e-05
0.1945587090831123,-6.126069505293168e-05,0.1945587090831123,-0.0001586027481142,0.1945587090831123,-1.6952062009074002e-05,0.1945587090831123,-1.7623831004537e-05
0.1953528262630433,-9.012868288924708e-05,0.1953528262630433,-0.0001485492036585,0.1953528262630433,-1.7959679634144812e-05,0.1953528262630433,-1.5610440731710375e-05
0.1961469434429744,-6.865183036615504e-05,0.1961469434429744,-0.0001579453305044,0.1961469434429744,-1.3596110857072116e-05,0.1961469434429744,-1.3931619560412352e-05
0.1969410606229055,-1.1576038069838943e-05,0.1969410606229055,-0.0001062445017269,0.1969410606229055,-1.2252820582159148e-05,0.1969410606229055,-1.359595378672073e-05
0.1977351778028366,6.126770625322483e-05,0.1977351778028366,-4.7330305102480805e-05,0.1977351778028366,-9.902799304948427e-06,0.1977351778028366,-1.561e-05
0.1985292949827676,7.33292984831123e-05,0.1985292949827676,-3.3061068489892286e-05,0.1985292949827676,-8.561181920824936e-06,0.1985292949827676,-1.5609003514816675e-05
0.1993234121626987,1.732995295553389e-05,0.1993234121626987,-1.8977425276052754e-05,0.1993234121626987,-1.0908462449061754e-05,0.1993234121626987,-1.2926385780951344e-05
0.2001175293426297,-3.0352443248976938e-05,0.2001175293426297,7.027586835466076e-05,0.2001175293426297,-1.6949218143293112e-05,0.2001175293426297,-1.0240391936314172e-05
0.2009116465225608,-2.534744173255019e-05,0.2009116465225608,6.026238342058181e-05,0.2009116465225608,-1.9637204409306567e-05,0.2009116465225608,-8.561057239731541e-06
0.2017057637024919,-2.366719952817038e-05,0.2017057637024919,5.354589811268151e-05,0.2017057637024919,-2.5007901539615184e-05,0.2017057637024919,-9.567110283097772e-06
0.202499880882423,-2.467364891270552e-05,0.202499880882423,7.284370416769015e-05,0.202499880882423,-3.105119347623309e-05,0.202499880882423,-1.8474983314237228e-06
0.203293998062354,-2.433810081922889e-05,0.203293998062354,5.589384137093698e-05,0.203293998062354,-3.10521e-05,0.203293998062354,5.035422654270461e-07
0.2040881152422851,-2.0643697214424045e-05,0.2040881152422851,5.588839166794617e-05,0.2040881152422851,-2.8366110208210297e-05,0.2040881152422851,-2.3507426651857305e-06
0.2048822324222162,-8.221121532804983e-06,0.2048822324222162,1.8626386652894263e-05,0.2048822324222162,-2.568031039694224e-05,0.2048822324222162,-8.226182271893458e-06
0.2056763496021472,3.7144545058063353e-06,0.2056763496021472,1.851063964934504e-06,0.2056763496021472,-2.366256655926613e-05,0.2056763496021472,-1.3598161991262277e-05
0.2064704667820783,5.317498922935542e-05,0.2064704667820783,1.2581494944814444e-05,0.2064704667820783,-1.4273504379690929e-05,0.2064704667820783,-1.896339745899293e-05
0.2072645839620094,9.34708922025124e-05,0.2072645839620094,2.265432307682696e-05,0.2072645839620094,-5.543603363108681e-06,0.2072645839620094,-2.232214106054081e-05
0.2080587011419405,4.2820679640527694e-05,0.2080587011419405,1.8632816234157507e-05,0.2080587011419405,-1.6987068857789948e-07,0.2080587011419405,-2.500848915213529e-05
0.2088528183218715,-1.0897910000881468e-05,0.2088528183218715,9.56948394278558e-06,0.2088528183218715,3.188371874711871e-06,0.2088528183218715,-2.4338253625561016e-05
0.2096469355018026,-5.7072926768328745e-06,0.2096469355018026,1.0077953709872752e-06,0.2096469355018026,5.203166383344896e-06,0.2096469355018026,-2.3834640900305255e-05
0.2104410526817337,1.6286144262156115e-05,0.2104410526817337,3.2058721120386444e-05,0.2104410526817337,5.035402042313551e-06,0.2104410526817337,-2.29952554527506e-05
0.2112351698616647,8.778943708584375e-05,0.2112351698616647,2.4835128788114964e-05,0.2112351698616647,3.859668202565201e-06,0.2112351698616647,-2.232181733340203e-05
0.2120292870415958,0.0001075757280872,0.2120292870415958,-5.880659118085132e-06,0.2120292870415958,-1.6936408533686707e-07,0.2120292870415958,-1.2585669826437798e-05
0.2128234042215269,6.532509811263283e-05,0.2128234042215269,-2.231157287126556e-05,0.2128234042215269,-4.360935315600143e-06,0.2128234042215269,-4.20251937479497e-06
0.2136175214014579,1.916262297060664e-05,0.2136175214014579,-8.841673726221684e-05,0.2136175214014579,-1.0403057696319924e-05,0.2136175214014579,3.184688328319552e-06
0.214411638581389,1.1831150978005825e-06,0.214411638581389,-0.0001616056883106,0.214411638581389,-1.4265442749940192e-05,0.214411638581389,5.047704470153142e-07
0.2152057557613201,-4.983550408429022e-05,0.2152057557613201,-0.0001445232665118,0.2152057557613201,-1.6280780421222875e-05,0.2152057557613201,-1.6778187933493788e-06
0.2159998729412512,-8.475831314360298e-05,0.2159998729412512,-0.0001465316777124,0.2159998729412512,-1.6617046280073083e-05,0.2159998729412512,-4.531473382221441e-06
0.2167939901211822,-5.790833413670087e-05,0.2167939901211822,-0.0001260552547714,0.2167939901211822,-1.863127493965412e-05,0.2167939901211822,-2.853460883497148e-06
0.2175881073011133,1.931567469115848e-05,0.2175881073011133,-5.387601606173088e-05,0.2175881073011133,-2.182051340943867e-05,0.2175881073011133,-2.1826751279929424e-06
0.2183822244810444,0.0001153095324048,0.2183822244810444,-2.736025418712784e-05,0.2183822244810444,-2.2659125479867817e-05,0.2183822244810444,-6.8846672847716985e-06
0.2191763416609755,0.0001065410074972,0.2191763416609755,-3.034593081710963e-05,0.2191763416609755,-2.0980911457636558e-05,0.2191763416609755,-1.695712809247547e-05
0.2199704588409065,6.614216111260128e-06,0.2199704588409065,5.0467528859766814e-05,0.2199704588409065,-2.0310257024170244e-05,0.2199704588409065,-2.701684470551665e-05
0.2207645760208376,-5.384733394691347e-05,0.2207645760208376,7.702863877558985e-05,0.2207645760208376,-2.047751039835838e-05,0.2207645760208376,-2.9875676291511583e-05
0.2215586932007686,-9.683239675202704e-05,0.2215586932007686,5.489526105094354e-05,0.2215586932007686,-1.661859168568329e-05,0.2215586932007686,-2.7192637707828272e-05
0.2223528103806997,-7.88933890978215e-05,0.2223528103806997,7.166759151008502e-05,0.2223528103806997,-1.292528187303523e-05,0.2223528103806997,-2.5681260778182448e-05
0.2231469275606308,-3.911252928538217e-05,0.2231469275606308,5.0860198869423605e-05,0.2231469275606308,-1.0239045016586702e-05,0.2231469275606308,-1.829627378649009e-05
0.2239410447405619,-4.313752698791622e-05,0.2239410447405619,6.260577597980462e-05,0.2239410447405619,-1.3931821574197325e-05,0.2239410447405619,-1.2924589161292542e-05
0.2247351619204929,-4.716601075599115e-05,0.2247351619204929,2.668444013717569e-05,0.2247351619204929,-1.9638331540668143e-05,0.2247351619204929,-1.6281468459331858e-05
0.225529279100424,-4.917349485811842e-05,0.225529279100424,9.225817319395412e-06,0.225529279100424,-1.930081433434257e-05,0.225529279100424,-1.6616275021274876e-05
0.2263233962803551,-3.123363859632484e-05,0.2263233962803551,-7.5404735949949e-06,0.2263233962803551,-1.39355788666121e-05,0.2263233962803551,-1.4268984504142792e-05
0.2271175134602862,3.6717344479591805e-05,0.2271175134602862,2.867998375104492e-05,0.2271175134602862,-8.899095599324207e-06,0.2271175134602862,-1.4602694292969874e-05
0.2279116306402172,6.15891439232804e-05,0.2279116306402172,1.2260651981030936e-05,0.2279116306402172,-1.0238175349341698e-05,0.2279116306402172,-1.8293882197896985e-05
0.2287057478201483,-2.83296892258873e-06,0.2287057478201483,9.06487289276089e-06,0.2287057478201483,-6.379496130834708e-06,0.2287057478201483,-2.36649941017616e-05
0.2294998650000794,-0.0001216707946332,0.2294998650000794,1.0238600230722024e-05,0.2294998650000794,-2.182753464378884e-06,0.2294998650000794,-2.7694415070931787e-05
0.2302939821800104,-0.000138475623289,0.2302939821800104,2.4002091099234223e-05,0.2302939821800104,-2.8534249315604825e-06,0.2302939821800104,-2.702371506843952e-05
0.2310880993599415,-5.117736451787639e-05,0.2310880993599415,2.903558951845736e-05,0.2310880993599415,-5.875098079594223e-06,0.2310880993599415,-2.7023237901188704e-05
0.2318822165398726,8.177821355468692e-05,0.2318822165398726,1.0568640687404035e-05,0.2318822165398726,-8.895643793985453e-06,0.2318822165398726,-2.3330267609788525e-05
0.2326763337198036,0.0002123189951222,0.2326763337198036,-1.0940919978350766e-05,0.2326763337198036,-7.55322e-06,0.2326763337198036,-2.06436680671758e-05
0.2334704508997347,0.0001885114619568,0.2334704508997347,-8.404195355931811e-05,0.2334704508997347,-7.55322e-06,0.2334704508997347,-1.628441424964479e-05
0.2342645680796658,9.790540577326996e-05,0.2342645680796658,-0.0001619326334566,0.2342645680796658,-1.241815213251867e-05,0.2342645680796658,-7.557967957710647e-06
0.2350586852595969,7.856105156118255e-05,0.2350586852595969,-0.0001525787261458,0.2350586852595969,-1.896440509618793e-05,0.2350586852595969,-4.365344170288597e-06
0.2358528024395279,4.650217686484274e-05,0.2358528024395279,-0.0001515682505584,0.2358528024395279,-2.2994297691625305e-05,0.2358528024395279,-8.22364943560565e-06
0.236646919619459,3.138932929547123e-05,0.236646919619459,-0.0001357915972848,0.236646919619459,-2.7191175187828607e-05,0.236646919619459,-1.6951916402224288e-05
0.2374410367993901,1.896249579636505e-05,0.2374410367993901,-6.327778416895702e-05,0.2374410367993901,-2.702363776546472e-05,0.2374410367993901,-2.0645546675901463e-05
0.2382351539793211,-7.823387777726215e-05,0.2382351539793211,-3.272910265776224e-05,0.2382351539793211,-2.5680183899192195e-05,0.2382351539793211,-2.165129796327151e-05
0.2390292711592522,-0.0001616393434683,0.2390292711592522,-2.499513023092696e-05,0.2390292711592522,-2.198910147171186e-05,0.2390292711592522,-1.4934821482795557e-05
0.2398233883391833,-0.0001626452252296,0.2398233883391833,1.7088185746700305e-05,0.2398233883391833,-2.433629209989049e-05,0.2398233883391833,-3.869053297287492e-06
0.2406175055191144,-0.0001408395888827,0.2406175055191144,8.807668300853679e-05,0.2406175055191144,-2.6351045612846632e-05,0.2406175055191144,2.178276857223056e-06
0.2414116226990454,-2.271575150568508e-05,0.2414116226990454,5.691573543551711e-05,0.2414116226990454,-2.232581425587563e-05,0.2414116226990454,4.195272876814087e-06
0.2422057398789765,7.365423644325602e-05,0.2422057398789765,7.435148117050124e-05,0.2422057398789765,-1.5947789551526323e-05,0.2422057398789765,1.6793148326267432e-06
0.2429998570589076,2.132632779316644e-05,0.2429998570589076,6.79800482634379e-05,0.2429998570589076,-1.1246746088848983e-05,0.2429998570589076,-6.880278916797553e-06
0.2437939742388386,-5.052026918268225e-05,0.2437939742388386,4.783765349966707e-05,0.2437939742388386,-1.393141286627846e-05,0.2437939742388386,-1.0910069300066586e-05
0.2445880914187697,-7.200722269702517e-05,0.2445880914187697,3.306427080266775e-05,0.2445880914187697,-1.762342697025177e-05,0.2445880914187697,-1.3763657982987969e-05
0.2453822085987008,-7.133382743792086e-05,0.2453822085987008,1.5435794116445372e-05,0.2453822085987008,-1.090931805835434e-05,0.2453822085987008,-1.4266670831859978e-05
0.2461763257786318,-6.344445507469761e-05,0.2461763257786318,-8.550542947626272e-06,0.2461763257786318,-7.552807306087845e-06,0.2461763257786318,-1.2252587306087844e-05
0.2469704429585629,-5.724095150961076e-05,0.2469704429585629,1.5257599540370423e-05,0.2469704429585629,-6.546825655888346e-06,0.2469704429585629,-1.1246605655888349e-05
0.247764560138494,-4.247408269816955e-05,0.247764560138494,3.0036817301830453e-05,0.247764560138494,-5.875091943343988e-06,0.247764560138494,-1.0407164901480897e-05
0.2485586773184251,-2.971448428183681e-05,0.2485586773184251,8.233477805806341e-06,0.2485586773184251,-8.223655004778271e-06,0.2485586773184251,-1.3594503949860794e-05
0.2493527944983561,-1.9137536872963217e-05,0.2493527944983561,1.0238278690987394e-05,0.2493527944983561,-7.217780653212211e-06,0.2493527944983561,-1.628070491786562e-05
0.2501469116782872,-1.176937790423716e-06,0.2501469116782872,1.7287715816651683e-05,0.2501469116782872,-4.53222873540128e-06,0.2501469116782872,-1.0239472157155695e-05
0.2509410288582183,4.530966112612555e-06,0.2509410288582183,3.541491888588609e-05,0.2509410288582183,-8.560450310910591e-06,0.2509410288582183,-7.889056413297047e-06
0.2517351460381494,-2.199814817640809e-05,0.2517351460381494,1.665523745406928e-07,0.2517351460381494,-1.242064564834385e-05,0.2517351460381494,-1.1917917443410025e-05
0.2525292632180804,-7.553314473769904e-05,0.2525292632180804,-6.9028267827490585e-06,0.2525292632180804,-1.158004394079232e-05,0.2525292632180804,-1.5273966557322248e-05
0.2533233803980115,-7.838337613545413e-05,0.2533233803980115,-7.027935110066422e-05,0.2533233803980115,-6.885482884318848e-06,0.2533233803980115,-1.4267984907122782e-05
0.2541174975779426,2.2260173710088215e-05,0.2541174975779426,-0.0001426262231493,0.2541174975779426,-8.391504107233257e-06,0.2541174975779426,-9.234896323987191e-06
0.2549116147578736,0.0001374131325652,0.2549116147578736,-0.0001579385891835,0.2549116147578736,-1.3089919725653692e-05,0.2549116147578736,-1.0909385610759842e-05
0.2557057319378047,0.0001582749733268,0.2557057319378047,-0.0001519060398385,0.2557057319378047,-1.4266803308464172e-05,0.2557057319378047,-1.4937239972610272e-05
0.2564998491177358,8.645605153842063e-05,0.2564998491177358,-0.0001378066793953,0.2564998491177358,-1.6616653453107554e-05,0.2564998491177358,-1.5945508622760378e-05
0.2572939662976669,-1.392723950300123e-05,0.2572939662976669,-8.24163510985302e-05,0.2572939662976669,-1.9302586006314992e-05,0.2572939662976669,-1.6617071501578747e-05
0.2580880834775979,-4.212797648901896e-05,0.2580880834775979,-3.071572941415243e-05,0.2580880834775979,-2.16526e-05,0.2580880834775979,-1.7623952942056157e-05
0.258882200657529,-2.097492206529118e-05,0.258882200657529,-2.4331652413646573e-05,0.258882200657529,-2.1652175814027093e-05,0.258882200657529,-1.5273875814027093e-05
0.2596763178374601,3.861603686923771e-06,0.2596763178374601,1.2046005757822086e-06,0.2596763178374601,-1.9972153915214596e-05,0.2596763178374601,-1.3596068422730431e-05
0.2604704350173911,6.544211431893661e-06,0.2604704350173911,7.531157585136763e-05,0.2604704350173911,-1.5109859328107128e-05,0.2604704350173911,-1.426672285619674e-05
0.2612645521973222,5.539597981862486e-06,0.2612645521973222,7.167368262084183e-05,0.2612645521973222,-1.158358792805895e-05,0.2612645521973222,-1.4434905363615442e-05
0.2620586693772533,5.874580218199203e-06,0.2620586693772533,7.100047957192963e-05,0.2620586693772533,-1.15816e-05,0.2620586693772533,-1.7622872012514214e-05
0.2628527865571843,4.364486089741844e-06,0.2628527865571843,6.294566579941159e-05,0.2628527865571843,-1.661574635856653e-05,0.2628527865571843,-1.6281760971048926e-05
0.2636469037371154,-7.216115871253935e-06,0.2636469037371154,4.951712798238604e-05,0.2636469037371154,-1.628144069955965e-05,0.2636469037371154,-1.4267444197357906e-05
0.2644410209170465,-2.8031516332446698e-05,0.2644410209170465,4.078675883720141e-05,0.2644410209170465,-1.5609964625428094e-05,0.2644410209170465,-1.2420769048566775e-05
0.2652351380969776,-5.522254595841761e-05,0.2652351380969776,1.644794469325607e-05,0.2652351380969776,-1.42672e-05,0.2652351380969776,-1.1245958386845557e-05
0.2660292552769086,-5.605270701948215e-05,0.2660292552769086,9.22782942172062e-06,0.2660292552769086,-1.426741558857414e-05,0.2660292552769086,-1.1580737648914469e-05
0.2668233724568397,-2.8388361472425143e-05,0.2668233724568397,-2.8439004361970617e-06,0.2668233724568397,-1.4938070022040497e-05,0.2668233724568397,-8.89812990394439e-06
0.2676174896367708,1.4950783816156294e-07,0.2676174896367708,3.3378695915068415e-05,0.2676174896367708,-1.527408422048356e-05,0.2676174896367708,-2.8573240120126822e-06
0.2684116068167018,2.7178218025760267e-05,0.2684116068167018,1.3605607892997053e-05,0.2684116068167018,-1.728750258211698e-05,0.2684116068167018,-4.195565059696584e-06
0.2692057239966329,2.803050828460248e-05,0.2692057239966329,1.1750041829492345e-05,0.2692057239966329,-1.5107158522603575e-05,0.2692057239966329,-3.525063386222465e-06
0.269999841176564,-1.9628864752977287e-05,0.269999841176564,1.5273594915957678e-05,0.269999841176564,-1.8966227766049024e-05,0.269999841176564,-7.888037055188112e-06
0.270793958356495,-3.642241966994236e-05,0.270793958356495,2.131658307929113e-05,0.270793958356495,-1.8967e-05,0.270793958356495,-1.1581406326757944e-05
0.2715880755364261,-1.090898641883893e-05,0.2715880755364261,1.2586911563803612e-05,0.2715880755364261,-2.064546806350345e-05,0.2715880755364261,-2.0478126947436463e-05
0.2723821927163572,1.840717915322566e-06,0.2723821927163572,-6.222723381172055e-06,0.2723821927163572,-2.031020739849568e-05,0.2723821927163572,-2.6017659236088768e-05
0.2731763098962882,-2.1340061765529342e-05,0.2731763098962882,-5.6935184703439314e-05,0.2731763098962882,-2.198797283527702e-05,0.2731763098962882,-3.038148514855835e-05
0.2739704270762193,-8.06926794604332e-05,0.2739704270762193,-0.0001447906158206,0.2739704270762193,-2.1149604848967468e-05,0.2739704270762193,-3.2393448448957134e-05
0.2747645442561504,-0.0001035498973643,0.2747645442561504,-0.0001354593954561,0.2747645442561504,-1.695520855458624e-05,0.2747645442561504,-3.172388537332568e-05
0.2755586614360815,-5.121633029451956e-05,0.2755586614360815,-0.0001460244907891,0.2755586614360815,-1.5275015717301286e-05,0.2755586614360815,-2.903904514768206e-05
0.2763527786160125,3.7237836457571646e-05,0.2763527786160125,-0.0001465318597529,0.2763527786160125,-1.6952331998711617e-05,0.2763527786160125,-2.46750168033498e-05
0.2771468957959436,8.173676245989185e-05,0.2771468957959436,-8.745725394982117e-05,0.2771468957959436,-1.3931896513495446e-05,0.2771468957959436,-2.433814405705505e-05
0.2779410129758747,8.207757034564688e-05,0.2779410129758747,-3.47447286800821e-05,0.2779410129758747,-1.2253021944590125e-05,0.2779410129758747,-1.863119850545356e-05
0.2787351301558057,3.742115510196614e-05,0.2787351301558057,-3.037558229568397e-05,0.2787351301558057,-1.3595249706498888e-05,0.2787351301558057,-1.2419781968497637e-05
0.2795292473357368,-1.8955407078456068e-05,0.2795292473357368,8.55852044837092e-07,0.2795292473357368,-1.0238173357021662e-05,0.2795292473357368,-6.211255525008163e-06
0.2803233645156679,1.8265814089970625e-05,0.2803233645156679,5.417263377858317e-05,0.2803233645156679,-8.22622004551808e-06,0.2803233645156679,-8.893863269978054e-06
0.2811174816955989,5.553377592223853e-05,0.2811174816955989,7.80343413374354e-05,0.2811174816955989,-4.198859631086824e-06,0.2811174816955989,-1.6276578992266788e-05
0.2819115988755301,6.025552568667038e-05,0.2819115988755301,6.429325329566014e-05,0.2819115988755301,-8.409419300094733e-07,0.2819115988755301,-1.712017604073658e-05
0.2827057160554611,5.421746091092021e-05,0.2827057160554611,7.099779902362772e-05,0.2827057160554611,-1.5103999009323203e-06,0.2827057160554611,-1.493938031106277e-05
0.2834998332353922,4.011896128996802e-05,0.2834998332353922,5.656823179737209e-05,0.2834998332353922,4.530660873027593e-06,0.2834998332353922,-1.3092587801223955e-05
0.2842939504153233,1.6618567487858004e-05,0.2842939504153233,3.575319977424624e-05,0.2842939504153233,2.85354482038286e-06,0.2842939504153233,-1.3595768550575333e-05
0.2850880675952543,1.3093300287286109e-05,0.2850880675952543,1.863055694597114e-05,0.2850880675952543,1.678161343189886e-06,0.2850880675952543,-1.3092128556753853e-05
0.2858821847751854,2.601191269570429e-05,0.2858821847751854,9.898568933130244e-06,0.2858821847751854,-2.183836801376307e-06,0.2858821847751854,-1.2252296902493927e-05
0.2866763019551165,5.8502391807359655e-06,0.2866763019551165,-9.554914599717068e-06,0.2866763019551165,-9.903737524104503e-06,0.2866763019551165,-9.230562460410068e-06
0.2874704191350475,-5.853230674296004e-05,0.2874704191350475,2.330696285112052e-05,0.2874704191350475,-1.1580373607770278e-05,0.2874704191350475,-6.212627498707023e-06
0.2882645363149786,-0.0001169568884332,0.2882645363149786,2.366650395584172e-05,0.2882645363149786,-9.56858625910984e-06,0.2882645363149786,-6.21042e-06
0.2890586534949096,-0.0001267217516032,0.2890586534949096,7.895795496913552e-06,0.2890586534949096,-9.56741e-06,0.2890586534949096,-5.874866500955703e-06
0.2898527706748408,-9.585082002663832e-05,0.2898527706748408,1.543991846788463e-05,0.2898527706748408,-1.2587827383110336e-05,0.2898527706748408,-5.539126954864873e-06
0.2906468878547718,1.660121619620456e-05,0.2906468878547718,2.8029021961418475e-05,0.2906468878547718,-1.7623488781742572e-05,0.2906468878547718,-4.86772482910099e-06
0.2914410050347029,0.0001515680830155,0.2914410050347029,1.9973961637994908e-05,0.2914410050347029,-1.96384298004951e-05,0.2914410050347029,-4.364110865328419e-06
0.292235122214634,0.0001646476505036,0.292235122214634,-1.850887101663472e-06,0.292235122214634,-2.433830668741876e-05,0.292235122214634,-9.232381732571731e-06
0.293029239394565,8.440712328091676e-05,0.293029239394565,-3.1421866358520985e-05,0.293029239394565,-2.5680596736771733e-05,0.293029239394565,-1.3596002175485512e-05
0.2938233565744961,1.4491648314437664e-05,0.2938233565744961,-0.0001444264391749,0.2938233565744961,-2.467461508657227e-05,0.2938233565744961,-1.426665660895182e-05
0.2946174737544272,-2.733169959953752e-05,0.2946174737544272,-0.0001425053348344,0.2946174737544272,-2.031269236231692e-05,0.2946174737544272,-1.3596244989014567e-05
0.2954115909343582,-5.3530409849752685e-05,0.2954115909343582,-0.0001445169623952,0.2954115909343582,-2.4000497587167857e-05,0.2954115909343582,-1.8293178681734145e-05
0.2962057081142893,-8.609472945085542e-05,0.2962057081142893,-0.0001488803957314,0.2962057081142893,-2.3666823408102125e-05,0.2962057081142893,-2.098021273518301e-05
0.2969998252942204,-9.14766181836113e-05,0.2969998252942204,-0.0001062583806442,0.2969998252942204,-1.6618651140886177e-05,0.2969998252942204,-1.963869545959799e-05
0.2977939424741515,-8.627487698267967e-05,0.2977939424741515,-5.119798877278434e-05,0.2977939424741515,-1.4267370251878413e-05,0.2977939424741515,-1.728867025187841e-05
0.2985880596540825,-8.174154069676209e-05,0.2985880596540825,-2.2322563269966823e-05,0.2985880596540825,-1.3931537828501943e-05,0.2985880596540825,-1.2420535178698388e-05
0.2993821768340136,-6.763639645608801e-05,0.2993821768340136,-4.521089155158865e-06,0.2993821768340136,-1.4434962628781496e-05,0.2993821768340136,-8.896159529416584e-06
0.3001762940139447,-3.709172036283072e-05,0.3001762940139447,4.4152221510586485e-05,0.3001762940139447,-1.42672e-05,0.3001762940139447,-9.56505113166918e-06
0.3009704111938757,-2.9043867161235003e-05,0.3009704111938757,6.527773627582177e-05,0.3009704111938757,-1.42672e-05,0.3009704111938757,-3.19386398042528e-06
0.3017645283738068,-2.7024896409922373e-05,0.3017645283738068,7.15001110991054e-05,0.3017645283738068,-1.2589697008268643e-05,0.3017645283738068,-1.5116370082686442e-06
0.3025586455537379,-1.9138321651281143e-05,0.3025586455537379,7.267817551774136e-05,0.3025586455537379,-7.052142655515444e-06,0.3025586455537379,-4.530581278403935e-06
0.3033527627336689,2.029801300312239e-05,0.3033527627336689,5.724121447154956e-05,0.3033527627336689,-6.378470630497042e-06,0.3033527627336689,-6.2099184267456365e-06
0.3041468799136,4.682588903861915e-05,0.3041468799136,4.078988781512686e-05,0.3041468799136,-1.0238216124496528e-05,0.3041468799136,-6.37824461397703e-06
0.3049409970935311,4.7165598771156667e-05,0.3049409970935311,1.9302778645607497e-05,0.3049409970935311,-1.2924390169253306e-05,0.3049409970935311,-1.05744846395315e-05
0.3057351142734621,6.210267810487914e-05,0.3057351142734621,1.3258988774054493e-05,0.3057351142734621,-1.7959706742562932e-05,0.3057351142734621,-1.9303811215871025e-05
0.3065292314533932,5.151455123042726e-05,0.3065292314533932,5.539127731559212e-06,0.3065292314533932,-1.6618028462913645e-05,0.3065292314533932,-2.702467734470575e-05
0.3073233486333243,-4.60915643052623e-07,0.3073233486333243,5.874444959397044e-06,0.3073233486333243,-1.980358707740211e-05,0.3073233486333243,-3.0377949512037525e-05
0.3081174658132554,-5.585653458639879e-05,0.3081174658132554,3.338348021650965e-05,0.3081174658132554,-2.0309461188356945e-05,0.3081174658132554,-3.306449318397816e-05
0.3089115829931864,-0.0001078996722935,0.3089115829931864,5.050378025336973e-06,0.3089115829931864,-1.6283515705601795e-05,0.3089115829931864,-2.635582617600299e-05
0.3097057001731175,-9.61820367581517e-05,0.3097057001731175,6.545549558587306e-06,0.3097057001731175,-1.443569722966716e-05,0.3097057001731175,-1.37683536910263e-05
0.3104998173530486,-3.643704551728947e-05,0.3104998173530486,2.769023501672273e-05,0.3104998173530486,-1.8965957486166588e-05,0.3104998173530486,-1.2924593044485656e-05
0.3112939345329796,2.5145292268784225e-06,0.3112939345329796,1.4603979480256878e-05,0.3112939345329796,-2.1988050887268747e-05,0.3112939345329796,-1.4267089283230554e-05
0.3120880517129107,5.3545539794256985e-05,0.3120880517129107,1.2922585293660888e-05,0.3120880517129107,-2.06455e-05,0.3120880517129107,-1.9135051432861576e-05
0.3128821688928418,7.87202288918073e-05,0.3128821688928418,-1.496330672547573e-05,0.3128821688928418,-2.064528577836146e-05,0.3128821688928418,-2.2995942664915615e-05
0.3136762860727728,7.369365185199107e-05,0.3136762860727728,-0.0001310989391444,0.3136762860727728,-1.9637192017234607e-05,0.3136762860727728,-2.6015331636088336e-05
0.314470403252704,9.548982105069418e-05,0.314470403252704,-0.0001559133529605,0.314470403252704,-1.6283919849902824e-05,0.314470403252704,-2.249444580486669e-05
0.315264520432635,9.231902618171747e-05,0.315264520432635,-0.0001284216260086,0.315264520432635,-1.527490827744745e-05,0.315264520432635,-1.2259184123849645e-05
0.3160586376125661,4.2153105669906935e-05,0.3160586376125661,-0.0001535705090322,0.3160586376125661,-1.628094035216036e-05,0.3160586376125661,-3.696586992944728e-06
0.3168527547924971,-5.188712195601063e-06,0.3168527547924971,-0.0001190156782617,0.3168527547924971,-1.2254244072927598e-05,0.3168527547924971,-3.5248818363719835e-06
0.3176468719724282,-3.440439075086315e-05,0.3176468719724282,-5.791785151203049e-05,0.3176468719724282,-4.868820845072664e-06,0.3176468719724282,-1.040559034117719e-05
0.3184409891523593,-4.7501121134154605e-05,0.3184409891523593,-2.299577697786471e-05,0.3184409891523593,1.8462482736346853e-06,0.3184409891523593,-1.6281319739754823e-05
0.3192351063322903,-4.313320893878421e-05,0.3192351063322903,-1.963030779129605e-05,0.3192351063322903,7.385167694112803e-06,0.3192351063322903,-1.628059077645121e-05
0.3200292235122214,-1.2584264100543228e-05,0.3200292235122214,4.0790797695028285e-05,0.3200292235122214,5.873776193638775e-06,0.3200292235122214,-1.0237337099858953e-05
0.3208233406921525,3.176055152542965e-06,0.3208233406921525,5.28624776084684e-05,0.3208233406921525,2.5205240040979192e-06,0.3208233406921525,-5.039795207181093e-06
0.3216174578720835,-9.558700073208364e-06,0.3216174578720835,7.88713363663085e-05,0.3216174578720835,-3.520704249516262e-06,0.3216174578720835,-5.538686185752737e-06
0.3224115750520147,-2.768539807891228e-05,0.3224115750520147,7.905691014009228e-05,0.3224115750520147,-8.38985484941853e-06,0.3224115750520147,-5.53903e-06
0.3232056922319457,-3.709105655339691e-05,0.3232056922319457,5.758062783918822e-05,0.3232056922319457,-1.2922643342121108e-05,0.3232056922319457,-6.210159757690237e-06
0.3239998094118768,-4.447822726641502e-05,0.3239998094118768,5.354486695868465e-05,0.3239998094118768,-2.064364666252109e-05,0.3239998094118768,-9.734413913551288e-06
0.3247939265918079,-3.77667207245103e-05,0.3247939265918079,1.997720365028761e-05,0.3247939265918079,-1.86314862201267e-05,0.3247939265918079,-9.903084482580645e-06
0.3255880437717389,-2.903760389576287e-05,0.3255880437717389,1.661652629914313e-05,0.3255880437717389,-1.561e-05,0.3255880437717389,-9.56742850596354e-06
0.32638216095167,-2.3665270976205577e-05,0.32638216095167,6.209535357727987e-06,0.32638216095167,-1.5610408298304405e-05,0.32638216095167,-9.903576348021808e-06
0.3271762781316011,-1.6617687225021912e-05,0.3271762781316011,1.853856431301304e-06,0.3271762781316011,-1.7626548865102534e-05,0.3271762781316011,-1.2253998265044694e-05
0.3279703953115321,-1.8294323308687685e-05,0.3279703953115321,2.3314658457688365e-05,0.3279703953115321,-2.4332993310812174e-05,0.3279703953115321,-1.5104229662799782e-05
0.3287645124914632,-2.366340219508589e-05,0.3287645124914632,1.913737642735763e-05,0.3287645124914632,-2.568007553342171e-05,0.3287645124914632,-1.460320914426733e-05
0.3295586296713942,-3.675289363576229e-05,0.3295586296713942,8.565242035438234e-06,0.3295586296713942,-2.433872629376797e-05,0.3295586296713942,-1.409953488348343e-05
0.3303527468513254,-4.179289454640917e-05,0.3303527468513254,2.601103446262277e-05,0.3303527468513254,-2.1989049179793016e-05,0.3303527468513254,-1.1917995680614676e-05
0.3311468640312564,-4.246578502592639e-05,0.3311468640312564,2.0646419775464404e-05,0.3311468640312564,-2.0645729948147235e-05,0.3311468640312564,-7.5539673280536e-06
0.3319409812111875,-3.8101903269844656e-05,0.3319409812111875,7.889211865463128e-06,0.3319409812111875,-2.1988268224663184e-05,0.3319409812111875,-8.895978224899818e-06
0.3327350983911186,-2.7021952838919044e-05,0.3327350983911186,-2.864588576207048e-06,0.3327350983911186,-2.182008801093292e-05,0.3327350983911186,-9.735280798445017e-06
0.3335292155710496,-1.2920440301478218e-05,0.3335292155710496,-9.284117209440264e-05,0.3335292155710496,-1.9301971776590103e-05,0.3335292155710496,-9.902644863080404e-06
0.3343233327509807,1.6662336930419336e-06,0.3343233327509807,-0.0001686243239644,0.3343233327509807,-1.661935404272487e-05,0.3343233327509807,-8.226018768309974e-06
0.3351174499309118,-8.21774930832798e-06,0.3351174499309118,-0.0001284329073464,0.3351174499309118,-1.6952567433006404e-05,0.3351174499309118,-2.857161051114096e-06
0.3359115671108428,-3.842102791878261e-05,0.3359115671108428,-0.0001528976393177,0.3359115671108428,-2.2320971673864145e-05,0.3359115671108428,-3.1889569762090063e-06
0.3367056842907739,-7.132281898185924e-05,0.3367056842907739,-0.0001304279432391,0.3367056842907739,-1.7290502169064333e-05,0.3367056842907739,-6.377001942362447e-06
0.337499801470705,-8.274684612888248e-05,0.337499801470705,-6.665214805329641e-05,0.337499801470705,-1.0240562685101995e-05,0.337499801470705,-8.391956378185513e-06
0.338293918650636,-4.247002728149364e-05,0.338293918650636,-4.045438273604452e-05,0.338293918650636,-5.539511515491224e-06,0.338293918650636,-1.4937929314452045e-05
0.3390880358305671,5.22027285128138e-05,0.3390880358305671,-2.2992701958971536e-05,0.3390880358305671,5.539378426091823e-06,0.3390880358305671,-2.198831514450671e-05
0.3398821530104982,8.828569182131341e-05,0.3398821530104982,3.458204302201189e-05,0.3398821530104982,1.3259064926375424e-05,0.3398821530104982,-2.232396469222198e-05
0.3406762701904293,7.269313268909198e-05,0.3406762701904293,6.126465772480333e-05,0.3406762701904293,7.888453636469724e-06,0.3406762701904293,-2.266074091732225e-05
0.3414703873703603,0.0001151122753282,0.3414703873703603,6.025867607460393e-05,0.3414703873703603,6.547154758432544e-06,0.3414703873703603,-2.601401308465356e-05
0.3422645045502914,0.0001676482179522,0.3422645045502914,7.602585477781944e-05,0.3422645045502914,4.868677364460054e-06,0.3422645045502914,-2.9036014732740043e-05
0.3430586217302225,0.000161641878471,0.3430586217302225,5.154137491079024e-05,0.3430586217302225,-3.18530167179436e-06,0.3430586217302225,-2.9373440069062582e-05
0.3438527389101535,0.0001097900550201,0.3438527389101535,5.320764806132583e-05,0.3438527389101535,-8.222954193842345e-06,0.3438527389101535,-3.306508573491682e-05
0.3446468560900846,7.236107846911682e-06,0.3446468560900846,3.0049198254599213e-05,0.3446468560900846,-8.89588831093554e-06,0.3446468560900846,-3.5751413243742154e-05
0.3454409732700157,-0.000117657795935,0.3454409732700157,2.198857122854453e-05,0.3454409732700157,-1.3763436132740317e-05,0.3454409732700157,-2.8702437327922157e-05
0.3462350904499467,-0.0001715381566746,0.3462350904499467,1.3259392527628688e-05,0.3462350904499467,-1.7624429451237724e-05,0.3462350904499467,-2.2995147043899862e-05
0.3470292076298778,-0.0001377799773014,0.3470292076298778,7.049187792014261e-06,0.3470292076298778,-1.9638136976037765e-05,0.3470292076298778,-2.165312602180751e-05
0.3478233248098089,-4.5900919250320426e-05,0.3478233248098089,5.204898088877256e-06,0.3478233248098089,-1.86321553258383e-05,0.3478233248098089,-2.366498943325299e-05
0.34861744198974,0.0001269404993801,0.34861744198974,2.3318260168954817e-05,0.34861744198974,-2.0308620377554903e-05,0.34861744198974,-2.0312159174611827e-05
0.349411559169671,0.0001339401791003,0.349411559169671,5.884411760270611e-06,0.349411559169671,-1.896774552514576e-05,0.349411559169671,-8.566833339473356e-06
0.3502056763496021,-2.830033896989467e-05,0.3502056763496021,1.9968352808631315e-05,0.3502056763496021,-2.098037897149699e-05,0.3502056763496021,-1.68129516849002e-06
0.3509997935295332,-0.0001250228591002,0.3509997935295332,2.802870494885428e-05,0.3509997935295332,-2.5008452487429055e-05,0.3509997935295332,3.0200678768635264e-06
0.3517939107094642,-0.0001092717743401,0.3517939107094642,9.06599295747356e-06,0.3517939107094642,-2.63521489932854e-05,0.3517939107094642,7.049216982105319e-06
0.3525880278893953,-7.267629454070493e-05,0.3525880278893953,8.557715874916678e-06,0.3525880278893953,-2.5009405667808377e-05,0.3525880278893953,8.56016850241507e-06
0.3533821450693264,-4.187765838795354e-06,0.3533821450693264,-6.531370177621959e-05,0.3533821450693264,-2.23239e-05,0.3533821450693264,4.531071317665052e-06
0.3541762622492574,4.213839461305592e-05,0.3541762622492574,-0.0001764014731055,0.3541762622492574,-2.2324121476920088e-05,0.3541762622492574,-1.7183556839779018e-07
0.3549703794291886,6.695250876235765e-05,0.3549703794291886,-0.0001505811775281,0.3549703794291886,-2.2994775910386445e-05,0.3549703794291886,-1.2243566425205006e-05
0.3557644966091196,8.039128679798174e-05,0.3557644966091196,-0.0001351287901284,0.3557644966091196,-2.1653451263142408e-05,0.3557644966091196,-2.5001412461252612e-05
0.3565586137890507,8.409070382723855e-05,0.3565586137890507,-0.0001391450407333,0.3565586137890507,-2.198813671156714e-05,0.3565586137890507,-2.66871835578357e-05
0.3573527309689818,3.660719489925343e-05,0.3573527309689818,-7.337239396347662e-05,0.3573527309689818,-1.963919621661163e-05,0.3573527309689818,-3.138620756677674e-05
0.3581468481489128,-4.188429495714853e-06,0.3581468481489128,-3.844417697262619e-05,0.3581468481489128,-1.561077042433183e-05,0.3581468481489128,-3.457629009029971e-05
0.3589409653288439,-1.359538955420798e-05,0.3589409653288439,-1.8967850207487525e-05,0.3589409653288439,-1.0239034541201149e-05,0.3589409653288439,-2.803108584490558e-05
0.3597350825087749,-1.5611255827198777e-05,0.3597350825087749,1.930761867644564e-05,0.3597350825087749,-1.5274474421887544e-05,0.3597350825087749,-2.165249534686748e-05
0.360529199688706,-2.769223309813273e-05,0.360529199688706,6.663114071708469e-05,0.360529199688706,-1.6951450857889252e-05,0.360529199688706,-2.0644403822035016e-05
0.3613233168686371,-1.629120761815893e-05,0.3613233168686371,4.651150771309542e-05,0.3613233168686371,-1.1586215390158777e-05,0.3613233168686371,-1.6285150004504007e-05
0.3621174340485681,-1.359771425587572e-05,0.3621174340485681,8.574300407909609e-05,0.3621174340485681,-6.885169933526809e-06,0.3621174340485681,-1.1249489229766978e-05
0.3629115512284993,-6.761265222568136e-05,0.3629115512284993,6.127885087455554e-05,0.3629115512284993,-4.8687684270391336e-06,0.3629115512284993,-1.359447182852697e-05
0.3637056684084303,-0.0001084139661327,0.3637056684084303,5.757384215137183e-05,0.3637056684084303,-7.2165386351214145e-06,0.3637056684084303,-1.5609158826524458e-05
0.3644997855883614,-8.141419758383245e-05,0.3644997855883614,3.609340172510335e-05,0.3644997855883614,-8.224338045570368e-06,0.3644997855883614,-1.1582687828520124e-05
0.3652939027682925,-2.3338111862623025e-05,0.3652939027682925,1.0241965394157826e-05,0.3652939027682925,-1.1245530018657925e-05,0.3652939027682925,-1.2924235563303706e-05
0.3660880199482235,5.539485434273314e-06,0.3660880199482235,1.191719035813188e-05,0.3660880199482235,-1.8295608434028508e-05,0.3660880199482235,-1.510630300992835e-05
0.3668821371281546,2.3667308769561943e-05,0.3668821371281546,7.552176413294108e-06,0.3668821371281546,-1.8631242022768886e-05,0.3668821371281546,-1.1245146299449663e-05
0.3676762543080857,2.7177693666151348e-05,0.3676762543080857,1.512895079349086e-06,0.3676762543080857,-1.82956e-05,0.3676762543080857,-6.880370306361219e-06
0.3684703714880167,-1.6247031067361976e-05,0.3684703714880167,8.554736664059297e-06,0.3684703714880167,-1.82956e-05,0.3684703714880167,-2.3534728582543238e-06
0.3692644886679478,-2.2655492470912668e-05,0.3692644886679478,1.7115087215802107e-05,0.3692644886679478,-1.5276245702177975e-05,0.3692644886679478,-8.402188472250169e-07
0.3700586058478789,2.3308169656749327e-05,0.3700586058478789,2.2992383721075726e-05,0.3700586058478789,-6.55045278420707e-06,0.3700586058478789,-7.549887094341101e-06
0.3708527230278099,6.628541092087948e-05,0.3708527230278099,3.2056038226406686e-05,0.3708527230278099,2.8501611376342686e-06,0.3708527230278099,-1.4264857952463066e-05
0.371646840207741,4.884761307507611e-05,0.371646840207741,8.565039144479382e-06,0.371646840207741,2.5178075595230977e-06,0.371646840207741,-1.980508527793137e-05
0.3724409573876721,-1.9131151713879e-05,0.3724409573876721,2.853746275838758e-06,0.3724409573876721,-2.853151739945081e-06,0.3724409573876721,-2.9708768521228133e-05
0.3732350745676032,-4.380624091258681e-05,0.3732350745676032,-4.851905608615317e-05,0.3732350745676032,-6.882355955117592e-06,0.3732350745676032,-3.440903694623578e-05
0.3740291917475342,-1.7622256767778133e-05,0.3740291917475342,-0.0001619745139983,0.3740291917475342,-1.2590602738519322e-05,0.3740291917475342,-3.373385402684689e-05
0.3748233089274653,-9.57441355507777e-06,0.3748233089274653,-0.0001599617515863,0.3748233089274653,-2.047074238727173e-05,0.3748233089274653,-1.7805861176498774e-05
0.3756174261073964,-3.7745718363196e-05,0.3756174261073964,-0.0001257437489378,0.3756174261073964,-2.2658022879520065e-05,0.3756174261073964,-1.5224079497237354e-06
0.3764115432873274,-5.269610724442009e-05,0.3764115432873274,-0.0001498750972981,0.3764115432873274,-1.8298110194084506e-05,0.3764115432873274,3.521933573096544e-06
0.3772056604672585,-2.502134310728184e-05,0.3772056604672585,-8.680508767870798e-05,0.3772056604672585,-1.7960043553074705e-05,0.3772056604672585,-1.662699251583529e-07
0.3779997776471896,1.167607274782887e-06,0.3779997776471896,-3.509497746429498e-05,0.3779997776471896,-1.5275052078976794e-05,0.3779997776471896,-5.537525847367201e-06
0.3787938948271206,-1.0405165901226204e-05,0.3787938948271206,-2.702476720006845e-05,0.3787938948271206,-1.6281266599991444e-05,0.3787938948271206,-1.5273010470557748e-05
0.3795880120070517,-3.440938428434056e-05,0.3795880120070517,9.568339000866714e-06,0.3795880120070517,-2.2659594923466916e-05,0.3795880120070517,-2.0645474617334576e-05
0.3803821291869828,-5.321289728099887e-05,0.3803821291869828,7.099588505715096e-05,0.3803821291869828,-2.2323026100499376e-05,0.3803821291869828,-1.896705461973569e-05
0.3811762463669139,-8.208475007174241e-05,0.3811762463669139,4.448717817119415e-05,0.3811762463669139,-1.6952175808505767e-05,0.3811762463669139,-1.930009920210736e-05
0.3819703635468449,-0.000102875337176,0.3819703635468449,6.762465623682836e-05,0.3819703635468449,-1.4940212508106838e-05,0.3819703635468449,-1.0916918783778492e-05
0.382764480726776,-0.0001075879268704,0.382764480726776,8.240433994844245e-05,0.382764480726776,-1.3596678186505231e-05,0.382764480726776,-1.6845275060636115e-06
0.3835585979067071,-8.947277998231413e-05,0.3835585979067071,5.724935020613634e-05,0.3835585979067071,-7.220750054922085e-06,0.3835585979067071,5.024429838228997e-07
0.3843527150866381,-4.818751653543163e-05,0.3843527150866381,3.2739393560258736e-05,0.3843527150866381,-7.21752e-06,0.3843527150866381,5.201643563363261e-06
0.3851468322665692,1.1645152532028811e-06,0.3851468322665692,5.8803933361314485e-06,0.3851468322665692,-8.224397251056953e-06,0.3851468322665692,5.874578168075472e-06
0.3859409494465003,2.937180460837677e-05,0.3859409494465003,2.165159543192534e-05,0.3859409494465003,-1.2252743514845702e-05,0.3859409494465003,2.517953736885772e-06
0.3867350666264313,5.757472255886191e-05,0.3867350666264313,5.875339724828371e-06,0.3867350666264313,-1.695291267754666e-05,0.3867350666264313,-1.5110343697350548e-06
0.3875291838063624,8.643782074770424e-05,0.3875291838063624,1.325699541828894e-05,0.3875291838063624,-1.82952119258122e-05,0.3875291838063624,-6.21224393249846e-06
0.3883233009862935,6.66536148494002e-05,0.3883233009862935,-1.5604230767191917e-07,0.3883233009862935,-1.6618575842146308e-05,0.3883233009862935,-1.4092363603460728e-05
0.3891174181662246,0.0001243336889599,0.3891174181662246,2.532650434052572e-05,0.3891174181662246,-1.4939829984876665e-05,0.3891174181662246,-1.8963433007218268e-05
0.3899115353461556,0.0001877858704125,0.3899115353461556,1.460918646220669e-05,0.3899115353461556,-1.5777308894828496e-05,0.3899115353461556,-1.561196453772729e-05
0.3907056525260867,0.0001623211651158,0.3907056525260867,2.936713597867696e-05,0.3907056525260867,-1.3596754896824582e-05,0.3907056525260867,-1.4938893821140247e-05
0.3914997697060178,0.0001166682419039,0.3914997697060178,1.3264773604637856e-05,0.3914997697060178,-1.1582184204205266e-05,0.3914997697060178,-1.8965831591589463e-05
0.3922938868859488,0.0001092710520746,0.3922938868859488,-8.372373927653852e-07,0.3922938868859488,-1.107817172912436e-05,0.3922938868859488,-2.433733482760705e-05
0.3930880040658799,5.119344475339515e-05,0.3930880040658799,-2.23244879093446e-05,0.3930880040658799,-1.4267186247698691e-05,0.3930880040658799,-2.803079570266188e-05
0.393882121245811,-5.724900546213896e-05,0.393882121245811,-0.0001371382543414,0.393882121245811,-1.1581138641364832e-05,0.393882121245811,-2.71911642633228e-05
0.394676238425742,-0.0001384708652992,0.394676238425742,-0.0001715318817513,0.394676238425742,-8.55879982634526e-06,0.394676238425742,-2.43381e-05
0.3954703556056732,-0.0001213688775789,0.3954703556056732,-0.0001378313466362,0.3954703556056732,-3.528911553138279e-06,0.3954703556056732,-2.43381e-05
0.3962644727856042,-5.727917448805108e-05,0.3962644727856042,-0.0001371334455426,0.3962644727856042,-7.550545157179218e-06,0.3962644727856042,-2.3163980131226155e-05
0.3970585899655353,3.16775595629918e-05,0.3970585899655353,-0.0001035803360919,0.3970585899655353,-1.2250572957460229e-05,0.3970585899655353,-1.896916698566856e-05
0.3978527071454664,6.96434086717972e-05,0.3978527071454664,-4.919985839631353e-05,0.3978527071454664,-8.561671991193659e-06,0.3978527071454664,-1.7624695270866182e-05
0.3986468243253974,3.34100216032552e-05,0.3986468243253974,-3.458013093029384e-05,0.3986468243253974,-3.190328385585491e-06,0.3986468243253974,-1.728857427451394e-05
0.3994409415053285,-2.500519677392436e-05,0.3994409415053285,-1.8487512888602792e-06,0.3994409415053285,-7.21722322573708e-06,0.3994409415053285,-1.5610123656556807e-05
0.4002350586852595,-3.9109718785019136e-05,0.4002350586852595,6.227133083137221e-05,0.4002350586852595,-1.4435198495129751e-05,0.4002350586852595,-1.644891466694653e-05
0.4010291758651906,-5.0187345569392416e-05,0.4010291758651906,5.186488016904218e-05,0.4010291758651906,-1.711974600305857e-05,0.4010291758651906,-1.2587029121414856e-05
0.4018232930451217,-5.219930886979134e-05,0.4018232930451217,4.95175896519101e-05,0.4018232930451217,-1.326353295510402e-05,0.4018232930451217,-5.042196711604915e-06
0.4026174102250527,-4.91820441902368e-05,0.4026174102250527,9.211753213077204e-05,0.4026174102250527,-1.4937353227646224e-05,0.4026174102250527,-5.538655968293868e-06
0.4034115274049838,-5.622530396336883e-05,0.4034115274049838,5.490887893172319e-05,0.4034115274049838,-1.9635602642245887e-05,0.4034115274049838,-7.552021138343173e-06
0.4042056445849149,-7.468463530115624e-05,0.4042056445849149,5.086010321678685e-05,0.4042056445849149,-2.030949946386886e-05,0.4042056445849149,-6.211021072262283e-06
0.404999761764846,-9.01303666863069e-05,0.404999761764846,2.602405360985684e-05,0.404999761764846,-1.9638601449725985e-05,0.404999761764846,-3.693435433471983e-06
0.4057938789447771,-8.627508858147105e-05,0.4057938789447771,8.227322611228348e-06,0.4057938789447771,-2.2323490561963348e-05,0.4057938789447771,-5.874387320732268e-06
0.4065879961247081,-6.36150105951682e-05,0.4065879961247081,5.874731469155669e-06,0.4065879961247081,-2.735937542313327e-05,0.4065879961247081,-1.091017542323088e-05
0.4073821133046392,-3.004236525330621e-05,0.4073821133046392,1.62795796239787e-05,0.4073821133046392,-2.8365541919374145e-05,0.4073821133046392,-1.4267104190510404e-05
0.4081762304845703,-1.1583254531313646e-05,0.4081762304845703,3.5278957260054008e-06,0.4081762304845703,-2.165182139702887e-05,0.4081762304845703,-1.3595605349257218e-05
0.4089703476645013,-1.728381721577727e-05,0.4089703476645013,1.4090623141937006e-05,0.4089703476645013,-1.896920366316364e-05,0.4089703476645013,-1.2924950915790908e-05
0.4097644648444324,-2.852682026952459e-05,0.4097644648444324,3.070520008364978e-05,0.4097644648444324,-1.8967e-05,0.4097644648444324,-1.124703130808588e-05
0.4105585820243635,-1.1926047535200416e-05,0.4105585820243635,2.6522408953861265e-05,0.4105585820243635,-1.6618337028902002e-05,0.4105585820243635,-1.0574853436829144e-05
0.4113526992042945,1.593514449528831e-05,0.4113526992042945,1.645301525635974e-05,0.4113526992042945,-1.8294964123940045e-05,0.4113526992042945,-1.4936946722244111e-05
0.4121468163842256,4.245976709438381e-05,0.4121468163842256,-4.191455659173168e-06,0.4121468163842256,-1.6281865792056323e-05,0.4121468163842256,-1.49386e-05
0.4129409335641567,6.629840571145283e-05,0.4129409335641567,-1.0238294403988066e-05,0.4129409335641567,-8.896627952912514e-06,0.4129409335641567,-1.3092354492620926e-05
0.4137350507440878,6.763972440705373e-05,0.4137350507440878,-0.0001263924672874,0.4137350507440878,-3.5248729087915937e-06,0.4137350507440878,-1.225312872637478e-05
0.4145291679240188,1.324347207916273e-05,0.4145291679240188,-0.0001649947945378,0.4145291679240188,-4.195379104494332e-06,0.4145291679240188,-1.4267129091706752e-05
0.4153232851039499,-6.539041063341943e-05,0.4153232851039499,-0.0001592941319644,0.4153232851039499,-1.714714825979143e-07,0.4153232851039499,-1.3931801874973624e-05
0.416117402283881,-0.0001266798804049,0.416117402283881,-0.0001334594588966,0.416117402283881,1.675962895394053e-07,0.416117402283881,-1.191881627179706e-05
0.416911519463812,-0.0001089447678839,0.416911519463812,-0.0001129753928709,0.416911519463812,-8.890524468196477e-06,0.416911519463812,-1.292379049370921e-05
0.4177056366437431,-8.941790138029991e-06,0.4177056366437431,-5.122226719475245e-05,0.4177056366437431,-1.023818550233221e-05,0.4177056366437431,-7.891214378838967e-06
0.4184997538236742,8.507045706056901e-05,0.4184997538236742,-3.139394082814035e-05,0.4184997538236742,-1.02388e-05,0.4184997538236742,-5.539758570307806e-06
0.4192938710036052,0.0001341040372507,0.4192938710036052,-1.762643608914174e-05,0.4192938710036052,-1.2923963686753532e-05,0.4192938710036052,-8.559819150847006e-06
0.4200879881835363,0.0001196772148245,0.4200879881835363,5.018589082191263e-05,0.4200879881835363,-1.997399508498221e-05,0.4200879881835363,-1.1917250040616545e-05
0.4208821053634674,7.149950121033788e-05,0.4208821053634674,7.099605713234577e-05,0.4208821053634674,-2.467339908802536e-05,0.4208821053634674,-1.6953334566992795e-05
0.4216762225433985,3.910241595314738e-05,0.4216762225433985,3.9790167014431314e-05,0.4216762225433985,-2.1651660279007895e-05,0.4216762225433985,-2.0981012055801583e-05
0.4224703397233295,1.5964937887513165e-05,0.4224703397233295,7.499932499350564e-05,0.4224703397233295,-1.829838811167636e-05,0.4224703397233295,-2.031035762233527e-05
0.4232644569032606,-5.859794812401224e-06,0.4232644569032606,7.200936657201338e-05,0.4232644569032606,-1.7960129619112597e-05,0.4232644569032606,-1.7626036952900782e-05
0.4240585740831917,-2.0973096594777608e-05,0.4240585740831917,5.288276427322907e-05,0.4240585740831917,-1.6282300379550085e-05,0.4240585740831917,-1.7959719924089983e-05
0.4248526912631227,-1.3598671719563094e-05,0.4248526912631227,1.914791847876944e-05,0.4248526912631227,-1.3596844261659306e-05,0.4248526912631227,-1.896660840187776e-05
0.4256468084430538,-1.2253323958019235e-05,0.4256468084430538,7.220395110532844e-06,0.4256468084430538,-9.903990884552903e-06,0.4256468084430538,-1.1583381769105807e-05
0.4264409256229849,-3.105033901644256e-05,0.4264409256229849,1.191685975364227e-05,0.4264409256229849,-1.023876855369777e-05,0.4264409256229849,-8.224924462085552e-06
0.4272350428029159,-4.246566474029513e-05,0.4272350428029159,1.8966837127896622e-05,0.4272350428029159,-1.0574246644472913e-05,0.4272350428029159,-1.0910344775202998e-05
0.428029159982847,-3.810038134455764e-05,0.428029159982847,1.5942457369251942e-05,0.428029159982847,-5.875733321291246e-06,0.428029159982847,-1.359552977991574e-05
0.4288232771627781,-3.1058509793160905e-05,0.4288232771627781,-1.531980905743393e-07,0.4288232771627781,-1.0905621594498224e-05,0.4288232771627781,-1.2254220912983027e-05
0.4296173943427092,-4.0444530055074574e-05,0.4296173943427092,2.8344734210943773e-05,0.4296173943427092,-1.6948190749690797e-05,0.4296173943427092,-1.258844393053838e-05
0.4304115115226402,-5.5548806379864186e-05,0.4304115115226402,1.997926309495497e-05,0.4304115115226402,-2.1146418452522514e-05,0.4304115115226402,-1.4266167368704787e-05
0.4312056287025713,-7.1664064860055e-05,0.4312056287025713,2.332943021619876e-05,0.4312056287025713,-2.0310192434259588e-05,0.4312056287025713,-1.6616001118605098e-05
0.4319997458825024,-9.835115854762256e-05,0.4319997458825024,6.551491954286043e-06,0.4319997458825024,-1.7792805814906116e-05,0.4319997458825024,-1.7959470240584663e-05
0.4327938630624334,-0.0001089321762986,0.4327938630624334,-1.090718938793204e-05,0.4327938630624334,-1.79598710430511e-05,0.4327938630624334,-1.6281689483256268e-05
0.4335879802423645,-8.4764501440836e-05,0.4335879802423645,-9.449702000124548e-05,0.4335879802423645,-1.8295591646551372e-05,0.4335879802423645,-1.7624166586205496e-05
0.4343820974222956,-4.07797181415621e-05,0.4343820974222956,-0.0001592899061255,0.4343820974222956,-1.695267643073814e-05,0.4343820974222956,-2.5682053313110717e-05
0.4351762146022266,2.1842103060606587e-05,0.4351762146022266,-0.0001666698315879,0.4351762146022266,-1.594397824498584e-05,0.4351762146022266,-3.508176866357841e-05
0.4359703317821577,0.0001021524220789,0.4359703317821577,-0.0001512449793961,0.4359703317821577,-9.572771115950804e-06,0.4359703317821577,-3.977634969784291e-05
0.4367644489620888,0.000166126617852,0.4367644489620888,-0.0001129895587781,0.4367644489620888,-6.212749759140409e-06,0.4367644489620888,-4.078670107017587e-05
0.4375585661420199,0.0001794237544624,0.4375585661420199,-6.196428198691089e-05,0.4375585661420199,-5.539396861346673e-06,0.4375585661420199,-3.5083618367892464e-05
0.438352683321951,0.0001153375731483,0.438352683321951,-3.307781451755996e-05,0.438352683321951,-3.1900772274314598e-06,0.438352683321951,-2.8033611694259543e-05
0.439146800501882,-6.179886632139611e-06,0.439146800501882,-2.3669061716007145e-05,0.439146800501882,-8.223344802533887e-06,0.439146800501882,-1.7962430384881944e-05
0.4399409176818131,-5.4042540476456174e-05,0.4399409176818131,4.4808600066744505e-05,0.4399409176818131,-1.2252582355464657e-05,0.4399409176818131,-7.21863371945208e-06
0.4407350348617442,-2.450447447817336e-05,0.4407350348617442,7.066351246425881e-05,0.4407350348617442,-1.158165895761981e-05,0.4407350348617442,5.203447914361493e-06
0.4415291520416752,1.023924941224235e-05,0.4415291520416752,4.817603849094319e-05,0.4415291520416752,-1.2925042017489073e-05,0.4415291520416752,7.889006302623362e-06
0.4423232692216063,1.2586539929374432e-05,0.4423232692216063,6.561305376106722e-05,0.4423232692216063,-1.627831418482062e-05,0.4423232692216063,8.391997127723094e-06
0.4431173864015373,7.05395052933574e-06,0.4431173864015373,7.636309841465323e-05,0.4431173864015373,-1.5610518853914136e-05,0.4431173864015373,9.56650200565026e-06
0.4439115035814684,5.75407126325034e-05,0.4439115035814684,5.171302636216954e-05,0.4439115035814684,-1.577769508938339e-05,0.4439115035814684,5.092148376118302e-07
0.4447056207613995,9.14616056997882e-05,0.4447056207613995,2.166695040774691e-05,0.4447056207613995,-1.309348272441488e-05,0.4447056207613995,-7.549371842039531e-06
0.4454997379413306,7.906109946891847e-05,0.4454997379413306,1.1920513123129111e-05,0.4454997379413306,-9.065189548388436e-06,0.4454997379413306,-1.6614108478170423e-05
0.4462938551212617,2.938266557721464e-05,0.4462938551212617,1.1769001253949497e-06,0.4462938551212617,-2.8545731962394947e-06,0.4462938551212617,-2.1651681187799865e-05
0.4470879723011927,-1.762256047480696e-05,0.4470879723011927,1.1916925251185104e-05,0.4470879723011927,-1.5106868437762875e-06,0.4470879723011927,-2.0309846843776288e-05
0.4478820894811238,-5.522466992424085e-05,0.4478820894811238,2.0642246435910967e-05,0.4478820894811238,-6.0432698945284745e-06,0.4478820894811238,-1.2755762278847847e-05
0.4486762066610549,-7.536626346198707e-05,0.4486762066610549,-8.220072211942737e-06,0.4486762066610549,-1.2252825468890256e-05,0.4486762066610549,-6.2085001681908565e-06
0.4494703238409859,-8.291107589400632e-05,0.4494703238409859,9.216863147018537e-06,0.4494703238409859,-1.1582171035423946e-05,0.4494703238409859,1.1686586443571625e-06
0.450264441020917,-9.851651049938796e-05,0.450264441020917,3.338498402198924e-05,0.450264441020917,-1.6949018654344182e-05,0.450264441020917,5.200493997798174e-06
0.4510585582008481,-0.0001075859568682,0.4510585582008481,3.071789432720689e-05,0.4510585582008481,-2.164998492738794e-05,0.4510585582008481,4.532303581801723e-06
0.4518526753807791,-9.450445249669684e-05,0.4518526753807791,6.556001785215391e-06,0.4518526753807791,-2.0981474495396565e-05,0.4518526753807791,-8.370500466396736e-07
0.4526467925607102,-5.875654048960332e-05,0.4526467925607102,-4.193423469200512e-06,0.4526467925607102,-2.433722298116885e-05,0.4526467925607102,-9.732935840269244e-06
0.4534409097406413,-3.5754514031523994e-05,0.4534409097406413,-7.015350133774061e-05,0.4534409097406413,-2.7359056548362344e-05,0.4534409097406413,-2.19869071139396e-05
0.4542350269205724,-6.663633657952359e-05,0.4542350269205724,-0.0001646594536886,0.4542350269205724,-2.2995231711933457e-05,0.4542350269205724,-2.6352220326633448e-05
0.4550291441005034,-7.064934880179847e-05,0.4550291441005034,-0.0001485489470787,0.4550291441005034,-2.098141296060562e-05,0.4550291441005034,-2.400154813945168e-05
0.4558232612804345,1.284672860894319e-05,0.4558232612804345,-0.0001592790184583,0.4558232612804345,-2.215500827469493e-05,0.4558232612804345,-1.9307066994140965e-05
0.4566173784603656,0.0001455890693361,0.4566173784603656,-0.0001119920528426,0.4566173784603656,-2.634901523348365e-05,0.4566173784603656,-1.6954639491167432e-05
0.4574114956402966,0.0001641452714136,0.4574114956402966,-6.918108784647155e-05,0.4574114956402966,-2.8365220552500684e-05,0.4574114956402966,-1.359793241249886e-05
0.4582056128202277,6.097963712516491e-05,0.4582056128202277,-3.727805126573084e-05,0.4582056128202277,-2.4004528074614973e-05,0.4582056128202277,-9.737142522667696e-06
0.4589997300001588,-3.0349650018261175e-05,0.4589997300001588,-2.031556476864991e-05,0.4589997300001588,-2.0478798608866855e-05,0.4589997300001588,-7.050583235357112e-06
0.4597938471800898,-5.723143108787901e-05,0.4597938471800898,1.0232920359815931e-05,0.4597938471800898,-2.04776e-05,0.4597938471800898,-4.196779197033148e-06
0.4605879643600209,-6.025776438404434e-05,0.4605879643600209,7.099747262591333e-05,0.4605879643600209,-2.299518698894795e-05,0.4605879643600209,-7.553069316053691e-06
0.461382081539952,-4.934295973958769e-05,0.461382081539952,6.092962750511456e-05,0.461382081539952,-2.4337720787875564e-05,0.461382081539952,-1.3596558444787902e-05
0.4621761987198831,-3.177979706392892e-06,0.4621761987198831,6.411911326690118e-05,0.4621761987198831,-2.0644828701738285e-05,0.4621761987198831,-2.098170344870008e-05
0.4629703158998141,4.142038029678802e-05,0.4629703158998141,6.696944455360952e-05,0.4629703158998141,-1.7962210967873235e-05,0.4629703158998141,-2.2993566860145414e-05
0.4637644330797452,3.34077525983733e-05,0.4637644330797452,6.965548253860944e-05,0.4637644330797452,-1.5611677841192213e-05,0.4637644330797452,-2.3330760308401112e-05
0.4645585502596763,-1.692427785383868e-05,0.4645585502596763,3.140947680389427e-05,0.4645585502596763,-1.2925921187170454e-05,0.4645585502596763,-2.6350588664433235e-05
0.4653526674396073,-5.151521774881454e-05,0.4653526674396073,1.4609930217802145e-05,0.4653526674396073,-9.233256652942574e-06,0.4653526674396073,-2.601674060519373e-05
0.4661467846195384,-3.944787820455356e-05,0.4661467846195384,2.521018220829166e-06,0.4661467846195384,5.870622229388741e-06,0.4661467846195384,-2.165378377875829e-05
0.4669409017994695,-1.5612947821617e-05,0.4669409017994695,1.0573503554022683e-05,0.4669409017994695,1.9972356213355777e-05,0.4669409017994695,-1.7792477472251876e-05
0.4677350189794005,8.896114317143768e-06,0.4677350189794005,2.131653087743123e-05,0.4677350189794005,1.9973843218989055e-05,0.4677350189794005,-1.4938680244140616e-05
0.4685291361593316,1.3257771453120015e-05,0.4685291361593316,5.873800081522066e-06,0.4685291361593316,9.230560101046236e-06,0.4685291361593316,-1.829600246643215e-05
0.4693232533392627,-3.229288823159995e-07,0.4693232533392627,5.085925826989352e-07,0.4693232533392627,2.5240457330696486e-06,0.4693232533392627,-2.0643292983564068e-05
0.4701173705191938,-1.023094885059085e-05,0.4701173705191938,4.042002922553242e-05,0.4701173705191938,1.0082976308376343e-06,0.4701173705191938,-1.5949425987270766e-05
0.4709114876991248,-1.8290401630112044e-05,0.4709114876991248,2.971623115985061e-05,0.4709114876991248,1.8457985095888232e-06,0.4709114876991248,-1.4603766394981327e-05
0.4717056048790559,-2.3664027161079703e-05,0.4717056048790559,3.537860267640415e-06,0.4717056048790559,2.5174058889145444e-06,0.4717056048790559,-1.6280564722286363e-05
0.472499722058987,-2.433786497531975e-05,0.472499722058987,-5.535857180818724e-06,0.472499722058987,-4.865044739018826e-06,0.472499722058987,-1.2925575123401235e-05
0.473293839238918,-3.0379476555524214e-05,0.473293839238918,-5.890429295369868e-05,0.473293839238918,-1.8460647266127085e-05,0.473293839238918,-1.2253135938275086e-05
0.4740879564188491,-3.5751605185040966e-05,0.4740879564188491,-0.0001552557117566,0.4740879564188491,-2.3666414400752845e-05,0.4740879564188491,-1.1749427641646814e-05
0.4748820735987802,-3.709445106185887e-05,0.4748820735987802,-0.0001507292022576,0.4748820735987802,-2.584878443673149e-05,0.4748820735987802,-1.1917704524479332e-05
0.4756761907787112,-3.4406199875620784e-05,0.4756761907787112,-0.0001529064081124,0.4756761907787112,-2.568025552791573e-05,0.4756761907787112,-1.6281077763957863e-05
0.4764703079586423,-2.233442007322638e-05,0.4764703079586423,-0.0001337926568696,0.4764703079586423,-2.2997637794050304e-05,0.4764703079586423,-1.4939768897025152e-05
0.4772644251385734,-3.322630086823384e-05,0.4772644251385734,-7.809024607725858e-05,0.4772644251385734,-1.1589863596806632e-05,0.4772644251385734,-7.558567065595186e-06
0.4780585423185045,-9.144422692952972e-05,0.4780585423185045,-3.594398490295117e-05,0.4780585423185045,-8.226545053153274e-06,0.4780585423185045,-4.869178041369769e-06
0.4788526594984356,-9.751780867159576e-05,0.4788526594984356,-2.7027514989819653e-05,0.4788526594984356,-9.5668341492435e-06,0.4788526594984356,-1.5120796226028171e-06
0.4796467766783666,-2.100272753042757e-05,0.4796467766783666,9.892713912732394e-06,0.4796467766783666,-8.896198838973089e-06,0.4796467766783666,5.872642782546478e-06
0.4804408938582977,6.69601424537053e-05,0.4804408938582977,7.736947990702712e-05,0.4804408938582977,-1.2923861485929226e-05,0.4804408938582977,6.546030247432071e-06
0.4812350110382288,0.0001354538973333,0.4812350110382288,5.89151350011947e-05,0.4812350110382288,-1.5609976665406802e-05,0.4812350110382288,-5.036786730546132e-07
0.4820291282181598,0.0001280542463798,0.4820291282181598,6.14321773758413e-05,0.4820291282181598,-1.3932203845121357e-05,0.4820291282181598,-9.904615974107531e-06
0.4828232453980909,3.6677929431418494e-05,0.4828232453980909,5.7575964327886746e-05,0.4828232453980909,-1.8291457662652365e-05,0.4828232453980909,-1.929377804263586e-05
0.483617362578022,3.215955042080036e-06,0.483617362578022,7.501458610922648e-05,0.483617362578022,-2.433324909029983e-05,0.483617362578022,-2.232147458528984e-05
0.484411479757953,8.724530741684064e-06,0.484411479757953,3.611311479288409e-05,0.484411479757953,-1.930599927808964e-05,0.484411479757953,-2.2994860087518493e-05
0.4852055969378841,1.56065065377938e-05,0.4852055969378841,8.574283813290367e-06,0.4852055969378841,-1.5611874543419907e-05,0.4852055969378841,-2.6350595869618265e-05
0.4859997141178152,4.27918095793242e-05,0.4859997141178152,1.5131782557453625e-06,0.4859997141178152,-1.8294633041315448e-05,0.4859997141178152,-3.574851564460406e-05
0.4867938312977463,3.810279857286152e-05,0.4867938312977463,5.037619781991255e-07,0.4867938312977463,-2.030937204020221e-05,0.4867938312977463,-4.447814552879003e-05
0.4875879484776773,-7.550257465147767e-06,0.4875879484776773,2.131554943043083e-05,0.4875879484776773,-1.8631408917151925e-05,0.4875879484776773,-4.313738712723258e-05
0.4883820656576084,-4.313618960911125e-05,0.4883820656576084,1.527266217922754e-05,0.4883820656576084,-1.6448880766754095e-05,0.4883820656576084,-3.373720032410006e-05
0.4891761828375395,-2.9698568448362535e-05,0.4891761828375395,-4.526448408674174e-06,0.4891761828375395,-1.258939485164539e-05,0.4891761828375395,-2.7694019119662728e-05
0.4899703000174705,1.6911714899639044e-05,0.4899703000174705,1.9281714057112383e-05,0.4899703000174705,-1.560733980224378e-05,0.4899703000174705,-2.299943808539857e-05
0.4907644171974016,4.26148500059832e-05,0.4907644171974016,4.077163005165502e-05,0.4907644171974016,-2.064180390115333e-05,0.4907644171974016,-2.232439281317956e-05
0.4915585343773327,3.994967490709739e-05,0.4915585343773327,7.237206268346259e-06,0.4915585343773327,-2.2993922014932432e-05,0.4915585343773327,-1.930447171184192e-05
0.4923526515572637,3.206266200239517e-05,0.4923526515572637,1.8486971141762336e-06,0.4923526515572637,-2.098208387722295e-05,0.4923526515572637,-1.6953831241291997e-05
0.4931467687371948,2.1320028834297382e-05,0.4931467687371948,-3.339173346349311e-05,0.4931467687371948,-1.796077999283791e-05,0.4931467687371948,-1.4435733341928076e-05
0.4939408859171259,-3.171587909159322e-05,0.4939408859171259,-0.0001384609028414,0.4939408859171259,-1.527468587023509e-05,0.4939408859171259,-9.903751148837654e-06
0.494735003097057,-6.630036202711674e-05,0.494735003097057,-0.0001549249777394,0.494735003097057,-2.030981571268856e-05,0.494735003097057,-3.5248025022684524e-06
0.495529120276988,-5.656606340722392e-05,0.495529120276988,-0.0001492198791955,0.495529120276988,-2.4337998422679535e-05,0.495529120276988,3.5256426155378603e-06
0.4963232374569191,-6.226662609168795e-05,0.4963232374569191,-0.0001616270861036,0.4963232374569191,-2.3667343989213184e-05,0.4963232374569191,8.890858105478018e-06
0.4971173546368502,-6.529094428755098e-05,0.4971173546368502,-8.147211264580834e-05,0.4971173546368502,-2.433755428612244e-05,0.4971173546368502,1.1914844295678983e-05
0.4979114718167812,-7.535760065443585e-05,0.4979114718167812,-3.947251408398126e-05,0.4979114718167812,-2.46735766862638e-05,0.4979114718167812,1.0072228192288188e-05
0.4987055889967123,-5.925914093384893e-05,0.4987055889967123,-2.6191363910195195e-05,0.4987055889967123,-2.8700114753596856e-05,0.4987055889967123,5.085004612427386e-07
0.4994997061766434,-6.23004783688462e-06,0.4994997061766434,-1.7747658151642337e-07,0.4994997061766434,-3.239353349935909e-05,0.4994997061766434,-1.0905976289989134e-05
0.5002938233565745,-2.668344429486367e-05,0.5002938233565745,5.386757591116651e-05,0.5002938233565745,-2.8367396209540933e-05,0.5002938233565745,-1.426645315871589e-05
0.5010879405365055,-5.538815045458805e-05,0.5010879405365055,6.831351894767939e-05,0.5010879405365055,-1.963905365658188e-05,0.5010879405365055,-1.963799774518709e-05
0.5018820577164366,3.407584021313684e-05,0.5018820577164366,6.495706554080451e-05,0.5018820577164366,-1.7623760759018502e-05,0.5018820577164366,-2.5345566034151247e-05
0.5026761748963677,6.76406890381481e-05,0.5026761748963677,5.623127245918926e-05,0.5026761748963677,-1.1579089026928328e-05,0.5026761748963677,-3.038099540986488e-05
0.5034702920762988,5.623966355817429e-05,0.5034702920762988,6.427912566078496e-05,0.5034702920762988,-1.7801260358826347e-07,0.5034702920762988,-3.1722304276797496e-05
0.5042644092562298,0.0001001732810536,0.5042644092562298,5.4726018239227055e-05,0.5042644092562298,1.190830853087813e-05,0.5042644092562298,-2.4343594809873892e-05
0.5050585264361609,9.785750154617834e-05,0.5050585264361609,1.647202512097587e-05,0.5050585264361609,2.0640294257051884e-05,0.5050585264361609,-1.0247209217427236e-05
0.505852643616092,4.01419164263089e-05,0.505852643616092,1.0912686159277952e-05,0.505852643616092,1.561226016520024e-05,0.505852643616092,-5.541139474054839e-06
0.506646760796023,1.3939388459111706e-05,0.506646760796023,2.184669484362138e-06,0.506646760796023,7.891236089967837e-06,0.506646760796023,-9.06279809401246e-06
0.507440877975954,-3.910074860930941e-05,0.507440877975954,2.131395930348056e-05,0.507440877975954,3.861149092224609e-06,0.507440877975954,-8.39256318254971e-06
0.5082349951558852,-8.812060098267833e-05,0.5082349951558852,1.4938638913371883e-05,0.5082349951558852,1.174956384516626e-06,0.5082349951558852,-1.5106819852971628e-06
0.5090291123358163,-4.782191561723658e-05,0.5090291123358163,7.048080921563893e-06,0.5090291123358163,-5.042595282780041e-07,0.5090291123358163,3.8617633158514376e-06
0.5098232295157473,5.881163985912441e-05,0.5098232295157473,-4.185330894518488e-06,0.5098232295157473,-5.534149799262999e-06,0.5098232295157473,1.2580240984226204e-05
0.5106173466956784,0.0001300244429513,0.5106173466956784,4.276293011908472e-05,0.5106173466956784,-1.090578059373644e-05,0.5106173466956784,1.7955480569052397e-05
0.5114114638756094,8.177524038726562e-05,0.5114114638756094,1.9318566918691523e-05,0.5114114638756094,-1.4264933287683788e-05,0.5114114638756094,2.8636401784141685e-06
0.5122055810555405,-2.159804477810335e-05,0.5122055810555405,3.197642124289569e-06,0.5122055810555405,-1.443491146236736e-05,0.5122055810555405,-9.560856289306515e-06
0.5129996982354716,-6.141768129308403e-05,0.5129996982354716,-1.4931710442177038e-05,0.5129996982354716,-1.5273981018931164e-05,0.5129996982354716,-2.366134147909681e-05
0.5137938154154027,-5.455259984166438e-05,0.5137938154154027,-0.0001347551392565,0.5137938154154027,-1.4267434124871428e-05,0.5137938154154027,-3.5077846584790473e-05
0.5145879325953338,-3.172543788415592e-05,0.5145879325953338,-0.0001552592615708,0.5145879325953338,-1.2588842492106265e-05,0.5145879325953338,-3.7094529009472486e-05
0.5153820497752648,-1.661726835825081e-05,0.5153820497752648,-0.0001411624310702,0.5153820497752648,-1.4938978806064324e-05,0.5153820497752648,-3.642308955218649e-05
0.5161761669551959,-1.93062954378953e-05,0.5161761669551959,-0.0001639760633873,0.5161761669551959,-2.098134099838808e-05,0.5161761669551959,-3.3064537520149044e-05
0.5169702841351269,-3.640788360233273e-05,0.5169702841351269,-0.0001024434691723,0.5169702841351269,-2.1651995431854383e-05,0.5169702841351269,-2.468135710182018e-05
0.5177644013150581,-4.715750018482121e-05,0.5177644013150581,-4.083384754614028e-05,0.5177644013150581,-1.5614556188451205e-05,0.5177644013150581,-1.6287727964114433e-05
0.5185585184949891,-5.723049264865944e-05,0.5185585184949891,-3.1728996616206504e-05,0.5185585184949891,-1.091305009729226e-05,0.5185585184949891,-1.5274910735134056e-05
0.5193526356749202,-6.478633423149555e-05,0.5193526356749202,-1.091975013499094e-05,0.5193526356749202,-1.225238385929834e-05,0.5193526356749202,-6.382351922971536e-06
0.5201467528548512,-6.126609715015171e-05,0.5201467528548512,5.0335730292769954e-05,0.5201467528548512,-1.930050566856999e-05,0.5201467528548512,7.548883601802359e-06
0.5209408700347823,-5.8244194538932286e-05,0.5209408700347823,7.066117562395226e-05,0.5209408700347823,-2.5679855989733592e-05,0.5209408700347823,1.1580940618030636e-05
0.5217349872147133,-5.522244865010885e-05,0.5217349872147133,5.757251081552811e-05,0.5217349872147133,-2.76950675665941e-05,0.5217349872147133,1.42671567554588e-05
0.5225291043946444,-4.649300979600293e-05,0.5225291043946444,6.898287018290468e-05,0.5225291043946444,-3.273082041057935e-05,0.5225291043946444,1.124519468877237e-05
0.5233232215745756,-3.743927483315994e-05,0.5233232215745756,4.517473768380083e-05,0.5233232215745756,-3.440745649424536e-05,0.5233232215745756,5.879979198831838e-06
0.5241173387545066,-3.541787743157774e-05,0.5241173387545066,6.8966150476277e-05,0.5241173387545066,-2.6359009726310966e-05,0.5241173387545066,-6.871196316642472e-06
0.5249114559344377,-5.051224877580412e-05,0.5249114559344377,2.0510838979755865e-05,0.5249114559344377,-2.0649410419838023e-05,0.5249114559344377,-1.7616839094438286e-05
0.5257055731143687,-6.394338057902148e-05,0.5257055731143687,1.4270538955320596e-05,0.5257055731143687,-1.863238291314677e-05,0.5257055731143687,-2.7521975703910312e-05
0.5264996902942998,-9.113149374994094e-05,0.5264996902942998,1.1918216596253011e-05,0.5264996902942998,-1.4436636798526111e-05,0.5264996902942998,-3.641983004797362e-05
0.5272938074742308,-9.852570921937536e-05,0.5272938074742308,6.547422381059315e-06,0.5272938074742308,-9.568590272681332e-06,0.5272938074742308,-3.977948600880698e-05
0.528087924654162,-4.985581908893562e-05,0.528087924654162,1.795881690073174e-05,0.528087924654162,-4.868075980935237e-06,0.528087924654162,-3.440960969466642e-05
0.528882041834093,3.944827894494061e-05,0.528882041834093,1.1748772106670142e-05,0.528882041834093,-2.8536876209495827e-06,0.528882041834093,-2.534484625954972e-05
0.5296761590140241,0.0001092722157954,0.5296761590140241,-1.6093300025134327e-07,0.5296761590140241,-7.554227184827509e-06,0.5296761590140241,-1.8630897124468856e-05
0.5304702761939551,0.0001203379140586,0.5304702761939551,3.437761949094387e-05,0.5304702761939551,-1.2584115458034138e-05,0.5304702761939551,-1.661893382406993e-05
0.5312643933738862,9.921505818179227e-05,0.5312643933738862,3.23964388744564e-05,0.5312643933738862,-1.627857873016325e-05,0.5312643933738862,-1.5610769437228204e-05
0.5320585105538173,8.242434673203011e-05,0.5320585105538173,8.586978821067089e-07,0.5320585105538173,-1.8294358384759215e-05,0.5320585105538173,-1.5945493064126536e-05
0.5328526277337483,9.7177774769365e-05,0.5328526277337483,-9.898063459848828e-06,0.5328526277337483,-1.82956e-05,0.5328526277337483,-1.6952327821987278e-05
0.5336467449136795,0.0001206764504408,0.5336467449136795,-0.0001142714590723,0.5336467449136795,-2.2658197989039408e-05,0.5336467449136795,-1.4939247096809536e-05
0.5344408620936105,9.702101063515322e-05,0.5344408620936105,-0.0001612948371228,0.5344408620936105,-2.26596e-05,0.5344408620936105,-1.5609883387468603e-05
0.5352349792735416,5.5223490997439805e-05,0.5352349792735416,-0.0001431754732106,0.5352349792735416,-2.3666673710810714e-05,0.5352349792735416,-1.829552989549524e-05
0.5360290964534726,1.862875445454604e-05,0.5360290964534726,-0.0001478734116114,0.5360290964534726,-2.23236556390701e-05,0.5360290964534726,-1.4938274169250117e-05
0.5368232136334037,-2.3291366579040456e-06,0.5368232136334037,-0.0001347959498257,0.5368232136334037,-2.0311792227624623e-05,0.5368232136334037,-1.225565643538488e-05
0.5376173308133347,-5.048199982976888e-05,0.5376173308133347,-4.120203697248565e-05,0.5376173308133347,-1.6955629294251162e-05,0.5376173308133347,-1.3594668282299537e-05
0.5384114479932659,-9.312666008879142e-05,0.5384114479932659,-3.038816835911889e-05,0.5384114479932659,-9.237077876164478e-06,0.5384114479932659,-1.3260333386222466e-05
0.539205565173197,-6.161798113433882e-05,0.539205565173197,-2.568347380227806e-05,0.539205565173197,-8.225161529059585e-06,0.539205565173197,-1.3595616156980138e-05
0.539999682353128,5.512170144555045e-06,0.539999682353128,4.3445334357653e-05,0.539999682353128,-1.1580257005827543e-05,0.539999682353128,-1.2924668599634607e-05
0.5407937995330591,3.339496523380189e-05,0.5407937995330591,5.7568740247430304e-05,0.5407937995330591,-1.5273367677238293e-05,0.5407937995330591,-1.3931245730155898e-05
0.5415879167129901,4.280061402446129e-05,0.5415879167129901,5.740441761195083e-05,0.5415879167129901,-8.896679053780881e-06,0.5415879167129901,-1.091051692070887e-05
0.5423820338929212,1.3760648075971072e-05,0.5423820338929212,7.60344103231272e-05,0.5423820338929212,-3.86053e-06,0.5423820338929212,-4.699672526998411e-06
0.5431761510728523,-5.5400092124225374e-05,0.5431761510728523,4.582426723094364e-05,0.5431761510728523,-3.86040241660084e-06,0.5431761510728523,-2.181657245811917e-06
0.5439702682527834,-0.0001068725701703,0.5439702682527834,5.353679321580619e-05,0.5439702682527834,-3.1897579720298765e-06,0.5439702682527834,-1.6970293541880106e-07
0.5447643854327144,-0.0001250339686703,0.5447643854327144,3.45915807275898e-05,0.5447643854327144,-1.1239663953244247e-05,0.5447643854327144,-2.515921150965533e-06
0.5455585026126455,-0.0001139769396185,0.5455585026126455,1.0589535881912172e-05,0.5455585026126455,-1.694922501272854e-05,0.5455585026126455,-4.866157952681957e-06
0.5463526197925765,-8.897207600710244e-05,0.5463526197925765,9.232352995876716e-06,0.5463526197925765,-2.030819249833694e-05,0.5463526197925765,-7.719703628374907e-06
0.5471467369725076,-6.530124004125395e-05,0.5471467369725076,7.889354827854995e-06,0.5471467369725076,-1.762508965570999e-05,0.5471467369725076,-9.063415175457694e-06
0.5479408541524387,-4.750456817934068e-05,0.5479408541524387,2.5341993504626048e-05,0.5479408541524387,-1.5274731646328015e-05,0.5479408541524387,-1.3594967541061417e-05
0.5487349713323698,2.1985791055223334e-05,0.5487349713323698,1.1246409059846216e-05,0.5487349713323698,-1.8966866673856566e-05,0.5487349713323698,-2.29949606279727e-05
0.5495290885123009,8.678082839445624e-05,0.5495290885123009,6.8826796359190326e-06,0.5495290885123009,-1.9302662624428447e-05,0.5495290885123009,-2.4673912126714662e-05
0.5503232056922319,0.000111259515438,0.5503232056922319,1.4595185642990895e-05,0.5503232056922319,-1.896733540769529e-05,0.5503232056922319,-2.567989377691413e-05
0.551117322872163,0.0001062532938774,0.551117322872163,4.445452063463536e-05,0.551117322872163,-1.829617257384103e-05,0.551117322872163,-2.702255485231794e-05
0.551911440052094,9.249460677452398e-05,0.551911440052094,6.572871884974636e-06,0.551911440052094,-1.427004092461493e-05,0.551911440052094,-2.7694626512564172e-05
0.5527055572320251,1.4646330296505189e-05,0.5527055572320251,-1.5061472099371982e-06,0.5527055572320251,-1.2254123203092122e-05,0.5527055572320251,-2.6688561601546062e-05
0.5534996744119562,-2.365100714836396e-05,0.5534996744119562,-8.204526238437184e-05,0.5534996744119562,-6.548460166114741e-06,0.5534996744119562,-2.1654664818684492e-05
0.5542937915918873,-9.738916706696454e-06,0.5542937915918873,-0.0001693370904101,0.5542937915918873,-1.5119617064019128e-06,0.5542937915918873,-1.9974540570550496e-05
0.5550879087718184,-6.546486422472681e-06,0.5550879087718184,-0.0001438499313659,0.5550879087718184,-3.5245985757037164e-06,0.5550879087718184,-1.4603517134520677e-05
0.5558820259517494,-6.52942997216581e-05,0.5558820259517494,-0.0001465320438957,0.5558820259517494,-1.1917398750655556e-05,0.5558820259517494,-6.210359652704009e-06
0.5566761431316805,-9.281576486780056e-05,0.5566761431316805,-0.0001478602831105,0.5566761431316805,-1.4938962636265256e-05,0.5566761431316805,-4.3640497803112285e-06
0.5574702603116115,-6.598968741810541e-05,0.5574702603116115,-6.620865522532251e-05,0.5574702603116115,-1.6950925936663903e-05,0.5574702603116115,-4.196386171944675e-06
0.5582643774915427,-9.611626360196362e-06,0.5582643774915427,-2.1016599405995755e-05,0.5582643774915427,-1.7623673611866177e-05,0.5582643774915427,1.6442749359447245e-07
0.5590584946714737,3.2703680112019615e-05,0.5590584946714737,-1.69553638103717e-05,0.5590584946714737,-1.5275795556050157e-05,0.5590584946714737,2.348501275109902e-06
0.5598526118514048,3.575042303104424e-05,0.5598526118514048,2.666666610174277e-05,0.5598526118514048,-1.7623051246367742e-05,0.5598526118514048,-6.541771166517678e-06
0.5606467290313358,1.6288044704503507e-05,0.5606467290313358,6.02464435882123e-05,0.5606467290313358,-2.433580874494409e-05,0.5606467290313358,-1.627807763751013e-05
0.5614408462112669,-2.298769255172213e-05,0.5614408462112669,5.857972510628271e-05,0.5614408462112669,-2.601627489371728e-05,0.5614408462112669,-2.0980289702408397e-05
0.5622349633911979,-4.850722367250771e-05,0.5622349633911979,7.687415644836308e-05,0.5622349633911979,-2.7695022609730065e-05,0.5622349633911979,-2.500931426796284e-05
0.563029080571129,-5.92520588149421e-05,0.563029080571129,6.092732671677105e-05,0.563029080571129,-2.2994619564147257e-05,0.563029080571129,-2.6352368044598746e-05
0.5638231977510602,-7.16590659451171e-05,0.5638231977510602,4.147844803519881e-05,0.5638231977510602,-1.628817511843668e-05,0.5638231977510602,-2.702302247806515e-05
0.5646173149309912,-4.2491098891623e-05,0.5646173149309912,4.749608648679429e-05,0.5646173149309912,-1.1585655021822786e-05,0.5646173149309912,-2.8365341422336343e-05
0.5654114321109223,9.194734549035984e-06,0.5654114321109223,1.2613670383143951e-05,0.5654114321109223,-7.556101200255765e-06,0.5654114321109223,-2.769558020242671e-05
0.5662055492908533,9.243764184606733e-05,0.5662055492908533,7.723833079803035e-06,0.5662055492908533,4.989746259065408e-07,0.5662055492908533,-2.635306223204301e-05
0.5669996664707844,0.00014147641188,0.5669996664707844,7.888839496796546e-06,0.5669996664707844,1.291918247226148e-05,0.5669996664707844,-2.2996710148081485e-05
0.5677937836507154,7.034819192588938e-05,0.5677937836507154,1.5272287627401787e-05,0.5677937836507154,1.527365969876086e-05,0.5677937836507154,-1.7625663518441445e-05
0.5685879008306466,-4.4130102477046406e-05,0.5685879008306466,1.6616932286388237e-05,0.5685879008306466,5.875893992784375e-06,0.5685879008306466,-1.5274593498820585e-05
0.5693820180105776,-3.7765079620934434e-05,0.5693820180105776,9.902985778686256e-06,0.5693820180105776,-1.5107237625689444e-06,0.5693820180105776,-1.3092120045965032e-05
