X [s].2,L DELTOID ANTERIOR: EMG 3 [V],X [s].3,L BICEPS BRACHII: EMG 4 [V],X [s].4,L DELTOID POSTERIOR: EMG 5 [V],X [s].7,L DELTOID MEDIUS: EMG 8 [V]
0.0,-6.88182e-06,0.0,-3.57519e-05,0.0,-6.88182e-06,0.0,-1.72885e-05
0.000794117179931,-2.8534441600231627e-06,0.000794117179931,-7.553249120182789e-06,0.000794117179931,-9.567407226647784e-06,0.000794117179931,-1.7959899306659366e-05
0.0015882343598621,1.8463066204851308e-06,0.0015882343598621,1.8463215220679663e-05,0.0015882343598621,-1.1749384502728289e-05,0.0015882343598621,-1.4938621458350872e-05
0.0023823515397932,1.1749334908388958e-06,0.0023823515397932,2.2491778194277337e-05,0.0023823515397932,-1.0910205207359906e-05,0.0023823515397932,-1.2420795769117023e-05
0.0031764687197242,-2.1820345878960624e-06,0.0031764687197242,1.1245918130575597e-05,0.0031764687197242,-1.3595795670291057e-05,0.0031764687197242,-1.0238803517807906e-05
0.0039705858996553,1.0070835332529998e-06,0.0039705858996553,1.1749920002102043e-06,0.0039705858996553,-1.4602894799958326e-05,0.0039705858996553,-1.15815930666111e-05
0.0047647030795864,1.846332686385068e-06,0.0047647030795864,-2.6519958648790035e-05,0.0047647030795864,-1.426720292548083e-05,0.0047647030795864,-1.15816e-05
0.0055588202595174,2.5177402194127405e-06,0.0055588202595174,-5.18653981349917e-05,0.0055588202595174,-1.2924399341761775e-05,0.0055588202595174,-1.1749400877650962e-05
0.0063529374394485,3.189137835145528e-06,0.0063529374394485,-4.615851840126301e-05,0.0063529374394485,-1.0910206494563416e-05,0.0063529374394485,-1.4434991340582113e-05
0.0071470546193796,2.5177445491216858e-06,0.0071470546193796,-3.3066388707195315e-05,0.0071470546193796,-9.567419098175616e-06,0.0071470546193796,-1.560999203869827e-05
0.0079411717993107,1.8463469333888983e-06,0.0079411717993107,-1.0574732267495429e-05,0.0079411717993107,-1.3595758399769876e-05,0.0079411717993107,-1.3595820800166696e-05
0.0087352889792417,5.035497260404419e-07,0.0087352889792417,-8.224613020575916e-06,0.0087352889792417,-1.6281396547898548e-05,0.0087352889792417,-1.0238804315126812e-05
0.0095294061591728,1.5106351291161295e-06,0.0095294061591728,-2.56808155712076e-05,0.0095294061591728,-1.62814e-05,0.0095294061591728,-9.231714870874196e-06
0.0103235233391039,3.18906106874352e-06,0.0103235233391039,-1.0909371222277209e-05,0.0103235233391039,-1.8295659198618705e-05,0.0103235233391039,-9.231566937259278e-06
0.0111176405190349,5.035394365147031e-07,0.0111176405190349,1.728891104219238e-05,0.0111176405190349,-2.03098e-05,0.0111176405190349,-4.3641056904558905e-06
0.011911757698966,3.357069401014191e-07,0.011911757698966,2.5344770880458127e-05,0.011911757698966,-2.03098e-05,0.011911757698966,-4.867603179695743e-06
0.0127058748788971,3.5247291128157195e-06,0.0127058748788971,1.6617376110688777e-05,0.0127058748788971,-1.7624284958108382e-05,0.0127058748788971,-9.735106014061247e-06
0.0134999920588282,1.0071251778446996e-06,0.0134999920588282,1.1750944249408428e-06,0.0134999920588282,-1.8295593285854747e-05,0.0134999920588282,-8.896018392681567e-06
0.0142941092387592,1.1749204720481436e-06,0.0142941092387592,-5.874747339211712e-06,0.0142941092387592,-1.6617080471908532e-05,0.0142941092387592,-7.721071952692803e-06
0.0150882264186903,-5.03581500442827e-07,0.0150882264186903,-8.224799837018033e-06,0.0150882264186903,-1.4938544165485094e-05,0.0150882264186903,-7.888965834514906e-06
0.0158823435986214,-1.51056847975678e-06,0.0158823435986214,-1.39310947161125e-05,0.0158823435986214,-1.3260219201352257e-05,0.0158823435986214,-9.567290798647744e-06
0.0166764607785524,-1.51064e-06,0.0166764607785524,-1.762401761360125e-05,0.0166764607785524,-1.577767564810677e-05,0.0166764607785524,-1.0574450258748796e-05
0.0174705779584835,-3.524774092932869e-06,0.0174705779584835,-1.896696272843687e-05,0.0174705779584835,-1.695276738599443e-05,0.0174705779584835,-1.158157204632765e-05
0.0182646951384146,-2.8534441103385017e-06,0.0182646951384146,-2.0309791779200555e-05,0.0182646951384146,-1.6281404110399724e-05,0.0182646951384146,-1.0910204110399722e-05
0.0190588123183456,3.35698e-07,0.0190588123183456,-2.1316837510107297e-05,0.0190588123183456,-1.62814e-05,0.0190588123183456,-9.7352886410457e-06
0.0198529294982767,3.355546117811564e-07,0.0198529294982767,-1.728893639769961e-05,0.0198529294982767,-1.6281412468611822e-05,0.0198529294982767,-1.1581587531388177e-05
0.0206470466782078,-3.524570808018553e-06,0.0206470466782078,-2.9037111157057574e-05,0.0206470466782078,-1.661707746143839e-05,0.0206470466782078,-1.1245922538561609e-05
0.0214411638581389,-5.2032536064553e-06,0.0214411638581389,-7.905472348147053e-05,0.0214411638581389,-1.6952784721291063e-05,0.0214411638581389,-1.359569304903742e-05
0.0222352810380699,-5.20333e-06,0.0222352810380699,-0.0001089332865815,0.0222352810380699,-1.661710801601802e-05,0.0222352810380699,-1.0910264128144148e-05
0.023029398218001,-1.846347533248532e-06,0.023029398218001,-0.000100206019586,0.023029398218001,-1.292440828659807e-05,0.023029398218001,-1.174939811679446e-05
0.0238235153979321,-5.035935653916357e-07,0.0238235153979321,-4.246479992139204e-05,0.0238235153979321,-1.4267193490636176e-05,0.0238235153979321,-1.4435009765015256e-05
0.0246176325778631,-2.8536190133482537e-06,0.0246176325778631,1.426871472706923e-05,0.0246176325778631,-1.3931486229679337e-05,0.0246176325778631,-1.4938579342468016e-05
0.0254117497577942,-7.217243922179269e-06,0.0254117497577942,5.119166395884802e-05,0.0254117497577942,-1.3595821236852766e-05,0.0254117497577942,-1.4435031858442218e-05
0.0262058669377253,-6.881833976836175e-06,0.0262058669377253,7.234211946348441e-05,0.0262058669377253,-1.2588741930508528e-05,0.0262058669377253,-1.6449116138982947e-05
0.0269999841176564,-4.867670284671522e-06,0.0269999841176564,6.747549735410617e-05,0.0269999841176564,-1.0910233570726271e-05,0.0269999841176564,-1.9134746286837964e-05
0.0277941012975874,-5.035485211151156e-06,0.0277941012975874,4.850838025251939e-05,0.0277941012975874,-1.2924401645637e-05,0.0277941012975874,-2.2995295611798067e-05
0.0285882184775185,-8.224617810253051e-06,0.0285882184775185,3.642304226164929e-05,0.0285882184775185,-1.393158591278357e-05,0.0285882184775185,-2.030972189746948e-05
0.0293823356574496,-8.56028280307962e-06,0.0293823356574496,2.534609749837252e-05,0.0293823356574496,-1.7623900833875828e-05,0.0293823356574496,-1.6953071969203795e-05
0.0301764528373806,-8.224629937654331e-06,0.0301764528373806,9.23266700087487e-06,0.0301764528373806,-1.795988006234567e-05,0.0301764528373806,-1.2924639251851975e-05
0.0309705700173117,-2.333042963079973e-05,0.0309705700173117,-6.545524279362631e-06,0.0309705700173117,-1.628146337481706e-05,0.0309705700173117,-1.527421127525612e-05
0.0317646871972428,-5.220063454617821e-05,0.0317646871972428,-2.366642397603776e-05,0.0317646871972428,-1.5274316236817467e-05,0.0317646871972428,-1.3260132473634932e-05
0.0325588043771738,-1.4602827833901666e-05,0.0325588043771738,-0.0001044023099464,0.0325588043771738,-1.5274307401673726e-05,0.0325588043771738,-1.258869814958157e-05
0.0333529215571049,-1.5109315816949589e-06,0.0333529215571049,-0.0001606307881117,0.0333529215571049,-1.6617182007657068e-05,0.0333529215571049,-1.2253063783733274e-05
0.034147038737036,-1.225217135631631e-05,0.034147038737036,-0.0001159874440554,0.034147038737036,-1.963816694309616e-05,0.034147038737036,-1.4602718733519235e-05
0.0349411559169671,-1.762390182749495e-05,0.0349411559169671,-2.770000119944916e-05,0.0349411559169671,-1.96384e-05,0.0349411559169671,-1.2924493178907828e-05
0.0357352730968981,-6.042962370949708e-06,0.0357352730968981,4.34705889149467e-05,0.0357352730968981,-1.6617202357815814e-05,0.0357352730968981,-1.0910268238543874e-05
0.0365293902768292,2.1819392956965577e-06,0.0365293902768292,7.066416706007129e-05,0.0365293902768292,-1.3931532883197784e-05,0.0365293902768292,-1.3595767116802216e-05
0.0373235074567603,3.6087648860044e-05,0.0373235074567603,4.884358617916463e-05,0.0373235074567603,-1.426718423854403e-05,0.0373235074567603,-1.2588709456873585e-05
0.0381176246366913,4.129007211782955e-05,0.0381176246366913,-5.876323698468881e-06,0.0381176246366913,-1.2588752068353684e-05,0.0381176246366913,-1.3595883309365894e-05
0.0389117418166224,1.46048551724754e-05,0.0389117418166224,-5.756851261670186e-05,0.0389117418166224,-1.4267077032486512e-05,0.0389117418166224,-1.628120325197842e-05
0.0397058589965535,3.364346886456436e-07,0.0397058589965535,-3.239620003799671e-05,0.0397058589965535,-1.091037333908803e-05,0.0397058589965535,-1.779192199999214e-05
0.0404999761764846,-1.1245552544543069e-05,0.0404999761764846,3.3400026050295126e-05,0.0404999761764846,-8.896070427007292e-06,0.0404999761764846,-1.762420503410891e-05
0.0412940933564156,-1.896693540387992e-05,0.0412940933564156,6.965709668076153e-05,0.0412940933564156,-1.225297191481406e-05,0.0412940933564156,-1.829559438294608e-05
0.0420882105363467,-1.863127995812261e-05,0.0420882105363467,6.965714614594864e-05,0.0420882105363467,-1.1581593320258645e-05,0.0420882105363467,-1.762417327838126e-05
0.0428823277162778,-1.7120737495617112e-05,0.0428823277162778,5.052434154440611e-05,0.0428823277162778,-1.1078145825804736e-05,0.0428823277162778,-1.561018332142185e-05
0.0436764448962088,-1.5945781528074783e-05,0.0436764448962088,2.3332886865944628e-05,0.0436764448962088,-1.3595625293017373e-05,0.0436764448962088,-1.5106434945560016e-05
0.0444705620761399,-6.882252864017866e-06,0.0444705620761399,-2.1808215729022894e-06,0.0444705620761399,-1.4267167935927924e-05,0.0444705620761399,-1.5609975949558093e-05
0.045264679256071,-1.5107803089994262e-06,0.045264679256071,-1.997363522575368e-05,0.045264679256071,-1.3931508769345115e-05,0.045264679256071,-1.3595852616070703e-05
0.046058796436002,1.1749279468562064e-06,0.046058796436002,-2.7695065347402336e-05,0.046058796436002,-1.2253007533270971e-05,0.046058796436002,-1.5609990960074834e-05
0.0468529136159331,-2.853532084477089e-06,0.0468529136159331,-3.390557481905553e-05,0.0468529136159331,-1.0406702876798771e-05,0.0468529136159331,-1.493858273406411e-05
0.0476470307958642,-8.224141972830669e-06,0.0476470307958642,-3.826921972580095e-05,0.0476470307958642,-1.0574485378426114e-05,0.0476470307958642,-1.3931587755584395e-05
0.0484411479757953,-8.89596601429161e-06,0.0484411479757953,-4.3136981100338505e-05,0.0484411479757953,-1.2252890035729027e-05,0.0484411479757953,-1.158175394997936e-05
0.0492352651557263,-9.903055809948966e-06,0.0492352651557263,-5.320775809948967e-05,0.0492352651557263,-1.5441960065642837e-05,0.0492352651557263,-9.567498380540858e-06
0.0500293823356574,-1.0238792532527644e-05,0.0500293823356574,-6.730718636838557e-05,0.0500293823356574,-1.3595841069985726e-05,0.0500293823356574,-9.56741e-06
0.0508234995155885,-2.6016590375333716e-05,0.0508234995155885,-6.865029918087426e-05,0.0508234995155885,-1.2924400409562862e-05,0.0508234995155885,-1.0910199180880372e-05
0.0516176166955195,-4.850784955447904e-05,0.0516176166955195,-4.112276126300114e-05,0.0516176166955195,-1.359581411404162e-05,0.0516176166955195,-1.4602935285104047e-05
0.0524117338754506,-2.2326080103578785e-05,0.0524117338754506,-2.501084160732598e-05,0.0524117338754506,-1.4267144099694753e-05,0.0524117338754506,-1.6281260249236877e-05
0.0532058510553817,1.795741709455561e-05,0.0532058510553817,-4.7499913710407805e-05,0.0532058510553817,-1.393152069098143e-05,0.0532058510553817,-1.4435113803479623e-05
0.0539999682353128,2.8540442714728607e-06,0.0539999682353128,-4.615855371316204e-05,0.0539999682353128,-1.4938559715128471e-05,0.0539999682353128,-1.158171413846928e-05
0.0547940854152438,-5.538875860561343e-06,0.0547940854152438,-1.3596398059486552e-05,0.0547940854152438,-1.594568150320124e-05,0.0547940854152438,-9.56744699341385e-06
0.0555882025951749,-8.560306709173088e-06,0.0555882025951749,1.1748884433958417e-06,0.0555882025951749,-1.8295593418280823e-05,0.0555882025951749,-1.1245896709140413e-05
0.056382319775106,-7.55332172965057e-06,0.056382319775106,-1.4601306225709755e-05,0.056382319775106,-1.628160346132141e-05,0.056382319775106,-1.0238901730660704e-05
0.057176436955037,1.1742470563864352e-06,0.057176436955037,-2.265896036474911e-05,0.057176436955037,-1.4267359910797516e-05,0.057176436955037,-1.1581493392801656e-05
0.0579705541349681,3.5246942768169314e-06,0.0579705541349681,-1.6797018112054285e-06,0.0579705541349681,-1.3931519389108664e-05,0.0579705541349681,-1.5609767330696046e-05
0.0587646713148992,1.1750248845629942e-06,0.0587646713148992,1.9973317848222748e-05,0.0587646713148992,-1.2924436379253237e-05,0.0587646713148992,-1.561e-05
0.0595587884948302,-3.189076771841066e-06,0.0595587884948302,2.568081731809284e-05,0.0595587884948302,-1.4267180545092706e-05,0.0595587884948302,-1.225304863726823e-05
0.0603529056747613,-5.539125946267097e-06,0.0603529056747613,1.930263523612502e-05,0.0603529056747613,-1.4267216790634256e-05,0.0603529056747613,-1.1581609594648145e-05
0.0611470228546924,-1.896569566245828e-05,0.0611470228546924,1.023968042980766e-05,0.0611470228546924,-1.6616871740420238e-05,0.0611470228546924,-1.292426956595442e-05
0.0619411400346235,-3.7429005761576095e-05,0.0619411400346235,3.525336996271054e-06,0.0619411400346235,-1.6281425349926822e-05,0.0619411400346235,-1.29244e-05
0.0627352572145545,-4.198020629349834e-06,0.0627352572145545,1.17506661011251e-06,0.0627352572145545,-1.376373565696321e-05,0.0627352572145545,-1.32600819127641e-05
0.0635293743944856,2.836545002461879e-05,0.0635293743944856,-3.86036763279268e-06,0.0635293743944856,-1.2253048708840165e-05,0.0635293743944856,-1.5274235052730138e-05
0.0643234915744167,4.532182890258954e-06,0.0643234915744167,-9.735197667766149e-06,0.0643234915744167,-1.091021424741624e-05,0.0643234915744167,-1.7624175067021578e-05
0.0651176087543477,-4.53191519862671e-06,0.0651176087543477,-1.7792079557422765e-05,0.0651176087543477,-1.191730740074176e-05,0.0651176087543477,-1.695281480148352e-05
0.0659117259342788,-3.189265226277647e-06,0.0659117259342788,-2.500882690840793e-05,0.0659117259342788,-1.2588637386394883e-05,0.0659117259342788,-1.829547477278977e-05
0.0667058431142099,-7.552907376730002e-06,0.0667058431142099,-2.4506036068499304e-05,0.0667058431142099,-1.25887e-05,0.0667058431142099,-1.9302627855837835e-05
0.067499960294141,-8.895942859047461e-06,0.067499960294141,-2.299537553663417e-05,0.067499960294141,-6.546422135536452e-06,0.067499960294141,-1.4267451780447062e-05
0.068294077474072,-6.210496181094051e-06,0.068294077474072,-3.105187145586685e-05,0.068294077474072,3.5245443212518924e-06,0.068294077474072,-1.1581676181377715e-05
0.0690881946540031,-7.888898700160834e-06,0.0690881946540031,-5.690072598211331e-05,0.0690881946540031,-1.5106061004825006e-06,0.0690881946540031,-9.231725819801765e-06
0.0698823118339342,-5.539290865870888e-06,0.0698823118339342,-4.179617699805605e-05,0.0698823118339342,-1.963638759345174e-05,0.0698823118339342,-1.0910013666759312e-05
0.0706764290138652,-6.21035998314949e-06,0.0706764290138652,-1.124863079843234e-05,0.0706764290138652,-3.239375967179503e-05,0.0706764290138652,-1.4938239893533423e-05
0.0714705461937963,-6.881774507637416e-06,0.0714705461937963,5.8735599501747215e-06,0.0714705461937963,-3.3066254507637416e-05,0.0714705461937963,-1.5945631761456124e-05
0.0722646633737274,-7.55318903301925e-06,0.0722646633737274,1.8966396144797844e-05,0.0722646633737274,-2.500987160376899e-05,0.0722646633737274,-1.8966860648586623e-05
0.0730587805536585,-6.881836441598892e-06,0.0730587805536585,3.340164650807268e-05,0.0730587805536585,-1.4938846621534524e-05,0.0730587805536585,-1.963838355840111e-05
0.0738528977335895,-4.3640871857854256e-06,0.0738528977335895,3.608759233513177e-05,0.0738528977335895,-1.3260104790542644e-05,0.0738528977335895,-1.896700191621706e-05
0.0746470149135206,-1.8466097376385664e-06,0.0746470149135206,1.326254562025641e-05,0.0746470149135206,-1.1581779825806607e-05,0.0746470149135206,-1.5946023686451895e-05
0.0754411320934517,-8.393321204852726e-07,0.0754411320934517,-2.836294034917074e-05,0.0754411320934517,-9.90324353499726e-06,0.0754411320934517,-1.1581973190992871e-05
0.0762352492733827,-2.8533113345321024e-06,0.0762352492733827,-3.6422785336595306e-05,0.0762352492733827,-1.023877855569147e-05,0.0762352492733827,-1.2588635667074412e-05
0.0770293664533138,-1.510696726470424e-06,0.0770293664533138,-2.970958363235212e-05,0.0770293664533138,-6.210590178566375e-06,0.0770293664533138,-1.527418654705915e-05
0.0778234836332449,2.517656973291941e-06,0.0778234836332449,-3.591957200088678e-05,0.0778234836332449,1.1747877844372603e-06,0.0778234836332449,-1.6617072324293246e-05
0.078617600813176,2.5177365628047803e-06,0.078617600813176,-2.7695084532659394e-05,0.078617600813176,-3.692688077411735e-06,0.078617600813176,-1.2924399312558088e-05
0.079411717993107,-8.388993669207838e-07,0.079411717993107,-1.2590259845035952e-05,0.079411717993107,-1.1580785411964396e-05,0.079411717993107,-1.2253069326904964e-05
0.0802058351730381,-4.195955950039341e-06,0.0802058351730381,-2.265877785436308e-05,0.0802058351730381,-1.4266980758986537e-05,0.0802058351730381,-1.4602708164113218e-05
0.0809999523529692,-6.378139074767533e-06,0.0809999523529692,-5.522044618973082e-05,0.0809999523529692,-1.4938559715128468e-05,0.0809999523529692,-1.292450071217883e-05
0.0817940695329002,-5.8747393196172565e-06,0.0817940695329002,-4.71659091138761e-05,0.0817940695329002,-1.4267225759489674e-05,0.0817940695329002,-1.2253025759489674e-05
0.0825881867128313,-6.37826157441912e-06,0.0825881867128313,-2.098163812685932e-05,0.0825881867128313,-1.7624143829460795e-05,0.0825881867128313,-1.2420797192309655e-05
0.0833823038927624,-7.553077817679677e-06,0.0833823038927624,-5.205239301813993e-06,0.0833823038927624,-1.829551875295982e-05,0.0833823038927624,-1.1246042176269754e-05
0.0841764210726934,-5.874886829724217e-06,0.0841764210726934,1.2922598245935911e-05,0.0841764210726934,-1.6617266829724217e-05,0.0841764210726934,-1.1581566634055155e-05
0.0849705382526245,-6.210393896746086e-06,0.0849705382526245,2.9204533996073038e-05,0.0849705382526245,-1.7624121690238255e-05,0.0849705382526245,-1.0910252206507828e-05
0.0857646554325556,-7.888815797746246e-06,0.0857646554325556,2.702382246646565e-05,0.0857646554325556,-1.493875072450398e-05,0.0857646554325556,-1.5609736232118035e-05
0.0865587726124866,-8.22459842212792e-06,0.0865587726124866,1.2253509422922665e-05,0.0865587726124866,-1.5106394212788397e-05,0.0865587726124866,-1.4267246311488322e-05
0.0873528897924177,-1.0238774109041595e-05,0.0873528897924177,1.1750824004640289e-06,0.0873528897924177,-1.426721078731018e-05,0.0873528897924177,-1.292441726072463e-05
0.0881470069723488,-8.89616728607367e-06,0.0881470069723488,-6.545215603026555e-06,0.0881470069723488,-1.42672e-05,0.0881470069723488,-1.2253078643622504e-05
0.0889411241522799,-6.8820123834773065e-06,0.0889411241522799,-1.4266462528252564e-05,0.0889411241522799,-1.644899158830722e-05,0.0889411241522799,-1.35956717437117e-05
0.0897352413322109,-6.88182e-06,0.0897352413322109,-2.098070397237685e-05,0.0897352413322109,-1.762411319147197e-05,0.0897352413322109,-1.225309920552463e-05
0.090529358512142,-7.55318492261953e-06,0.090529358512142,-2.5680654463561227e-05,0.090529358512142,-2.030965969047812e-05,0.090529358512142,-1.0910270154760938e-05
0.0913234756920731,-5.874771379996559e-06,0.0913234756920731,-2.299538220799449e-05,0.0913234756920731,-2.03098e-05,0.0913234756920731,-1.4267097240006882e-05
0.0921175928720041,-2.182073146212754e-06,0.0921175928720041,-2.987713822672921e-05,0.0921175928720041,-1.6784931640186892e-05,0.0921175928720041,-1.6281381920149666e-05
0.0929117100519352,1.6758286052893604e-07,0.0929117100519352,-7.166686652556379e-05,0.0929117100519352,-1.594579504459322e-05,0.0929117100519352,-1.5442195055918837e-05
0.0937058272318663,-2.5846415938808565e-05,0.0937058272318663,-6.999325381099656e-05,0.0937058272318663,-1.6281369237800686e-05,0.0937058272318663,-1.5609984614318547e-05
0.0944999444117974,-3.373714776505294e-05,0.0944999444117974,-1.0914335892476008e-05,0.0944999444117974,-1.829545900294967e-05,0.0944999444117974,-1.561e-05
0.0952940615917284,9.229631696553338e-06,0.0952940615917284,3.8435113197505033e-05,0.0952940615917284,-1.4938762368174718e-05,0.0952940615917284,-1.5274316236817474e-05
0.0960881787716595,5.874809740998164e-06,0.0960881787716595,1.3260773056817916e-05,0.0960881787716595,-1.0574616663645138e-05,0.0960881787716595,-1.493860897412655e-05
0.0968822959515906,-3.5235985617898944e-06,0.0968822959515906,-6.897522491074869e-05,0.0968822959515906,-1.2924092138809844e-05,0.0968822959515906,-1.107860576540474e-05
0.0976764131315216,-5.538809661895204e-06,0.0976764131315216,-5.623089546372448e-05,0.0976764131315216,-1.5609706215860272e-05,0.0976764131315216,-1.426685113680369e-05
0.0984705303114527,-4.532018380979647e-06,0.0984705303114527,2.063875361154764e-05,0.0984705303114527,-1.4938658920653095e-05,0.0984705303114527,-1.5777667432918424e-05
0.0992646474913838,-6.881664617211851e-06,0.0992646474913838,6.965415916503561e-05,0.0992646474913838,-1.2253177581085009e-05,0.0992646474913838,-1.57778e-05
0.1000587646713148,-6.88182e-06,0.1000587646713148,7.502700866494593e-05,0.1000587646713148,-8.22580349832784e-06,0.1000587646713148,-1.527444917284773e-05
0.1008528818512459,-1.5114392420965646e-06,0.1008528818512459,5.186884672949541e-05,0.1008528818512459,-9.902850237402831e-06,0.1008528818512459,-1.3596049764085188e-05
0.101646999031177,-5.035492288335753e-07,0.101646999031177,1.8295640961200525e-05,0.101646999031177,-1.225299713269888e-05,0.101646999031177,-1.1917302048072227e-05
0.1024411162111081,-2.51774e-06,0.1024411162111081,-1.1079745953248671e-05,0.1024411162111081,-1.5945749133588144e-05,0.1024411162111081,-8.896599601594142e-06
0.1032352333910391,-2.517641323209249e-06,0.1032352333910391,-2.2324590737535256e-05,0.1032352333910391,-1.6281202646418498e-05,0.1032352333910391,-1.29245973535815e-05
0.1040293505709702,-2.181743932893801e-06,0.1040293505709702,-2.467661263750889e-05,0.1040293505709702,-1.5611480335530997e-05,0.1040293505709702,-1.3593727534666306e-05
0.1048234677509013,-1.5110894994274922e-06,0.1048234677509013,-3.1047829755438826e-05,0.1048234677509013,-1.896475250286254e-05,0.1048234677509013,-8.899156489297487e-06
0.1056175849308323,-4.194826088657597e-06,0.1056175849308323,-6.225577952214976e-05,0.1056175849308323,-1.8967e-05,0.1056175849308323,-1.057362255737134e-05
0.1064117021107634,-4.531804053631352e-06,0.1064117021107634,-7.166807353919537e-05,0.1064117021107634,-1.426896324916108e-05,0.1064117021107634,-1.4265814589944865e-05
0.1072058192906945,-7.888145972891365e-06,0.1072058192906945,-4.582868302102654e-05,0.1072058192906945,-1.29247056126642e-05,0.1072058192906945,-1.7959059565173444e-05
0.1079999364706256,-1.1077844827146672e-05,0.1079999364706256,-4.649414628007308e-05,0.1079999364706256,-1.3931419420109625e-05,0.1079999364706256,-1.3931822319561504e-05
0.1087940536505566,-1.1246104149152202e-05,0.1087940536505566,-5.8913308030865446e-05,0.1087940536505566,-1.3092143295280665e-05,0.1087940536505566,-1.5609909267043466e-05
0.1095881708304877,-1.4264744309587194e-05,0.1095881708304877,-3.238796629365137e-05,0.1095881708304877,-1.2252494414907878e-05,0.1095881708304877,-1.426770558509212e-05
0.1103822880104188,-2.8463773823928906e-06,0.1103822880104188,-1.593860463551741e-07,0.1103822880104188,-9.90334353928866e-06,0.1103822880104188,-1.6616978230355672e-05
0.1111764051903498,1.6611795992062483e-05,0.1111764051903498,2.3174406800567687e-05,0.1111764051903498,-1.0575184389436257e-05,0.1111764051903498,-1.6280715610563743e-05
0.1119705223702809,6.216672251125383e-06,0.1119705223702809,4.5138189663159134e-05,0.1119705223702809,-1.1916493256368876e-05,0.1119705223702809,-1.4939406743631123e-05
0.112764639550212,-4.527053327733174e-06,0.112764639550212,1.5287863217078493e-05,0.112764639550212,-1.2252847603282338e-05,0.112764639550212,-1.292531438030597e-05
0.1135587567301431,-8.223478617462004e-06,0.1135587567301431,-0.0001075533558892,0.1135587567301431,-1.2253e-05,0.1135587567301431,-1.393119143945481e-05
0.1143528739100741,-8.895903379375056e-06,0.1143528739100741,-0.000157602056811,0.1143528739100741,-1.1246059930937414e-05,0.1143528739100741,-1.4267146689687528e-05
0.1151469910900052,-6.2104501367668185e-06,0.1151469910900052,-7.67080078645036e-05,0.1151469910900052,-1.3595773630230843e-05,0.1151469910900052,-1.5274288698670364e-05
0.1159411082699363,-2.352430567691481e-06,0.1159411082699363,5.0869423535986587e-05,0.1159411082699363,-1.2924308447814562e-05,0.1159411082699363,-1.560972534344369e-05
0.1167352254498673,-2.098444082764638e-05,0.1167352254498673,0.0001324380518942,0.1167352254498673,-1.2252809361409375e-05,0.1167352254498673,-1.359603828404118e-05
0.1175293426297984,-3.2381444794210795e-05,0.1175293426297984,0.0001502098087859,0.1175293426297984,-1.158188936056186e-05,0.1175293426297984,-1.4435651082813231e-05
0.1183234598097295,-1.196153482562258e-06,0.1183234598097295,0.0001150009504737,0.1183234598097295,-1.225254379402817e-05,0.1183234598097295,-1.594467350258915e-05
0.1191175769896605,2.096939612556499e-05,0.1191175769896605,4.552412134280166e-05,0.1191175769896605,-1.2253e-05,0.1191175769896605,-1.59457e-05
0.1199116941695916,-2.173118056488916e-06,0.1199116941695916,-4.177093132113537e-06,0.1199116941695916,-1.2253e-05,0.1199116941695916,-1.7623553480679586e-05
0.1207058113495227,-1.0236885753628174e-05,0.1207058113495227,-3.10457191779686e-05,0.1207058113495227,-1.359548095735406e-05,0.1207058113495227,-1.644947917419495e-05
0.1214999285294538,-9.063965760205993e-06,0.1214999285294538,-4.3807551736562094e-05,0.1214999285294538,-1.35958e-05,0.1214999285294538,-1.5777860434917785e-05
0.1222940457093848,-7.888813371857158e-06,0.1222940457093848,-4.48155260740635e-05,0.1222940457093848,-1.5106544945956218e-05,0.1222940457093848,-1.5274145394050355e-05
0.1230881628893159,-6.210282264158907e-06,0.1230881628893159,-4.179353583475183e-05,0.1230881628893159,-1.7624613213677786e-05,0.1230881628893159,-1.2588011312588524e-05
0.123882280069247,-5.537017000876243e-06,0.123882280069247,-3.709919962638462e-05,0.123882280069247,-1.9638873648595563e-05,0.123882280069247,-9.231591587851111e-06
0.124676397249178,1.6935869228489429e-07,0.124676397249178,-4.986973564664922e-05,0.124676397249178,-2.098086451182621e-05,0.124676397249178,-8.89567451182621e-06
0.1254705144291091,3.1872946528774745e-06,0.1254705144291091,-8.692324326223262e-05,0.1254705144291091,-2.03102100783599e-05,0.1254705144291091,-8.2250200783599e-06
0.1262646316090402,-1.0051530769760646e-06,0.1262646316090402,-8.073838142974373e-05,0.1262646316090402,-1.9974255754213088e-05,0.1262646316090402,-1.0237865479361146e-05
0.1270587487889713,-3.188449631595633e-06,0.1270587487889713,-3.643731979010833e-05,0.1270587487889713,-1.829613105505249e-05,0.1270587487889713,-1.292355031191602e-05
0.1278528659689023,-8.559403320137664e-06,0.1278528659689023,-1.0130784284132714e-06,0.1278528659689023,-1.544258168480744e-05,0.1278528659689023,-1.158182667123162e-05
0.1286469831488334,-1.292430738034316e-05,0.1286469831488334,2.181972316461756e-06,0.1286469831488334,-1.3931532059662752e-05,0.1286469831488334,-1.2252985750789372e-05
0.1294411003287645,-3.188588560762393e-06,0.1294411003287645,-1.023947869755665e-05,0.1294411003287645,-1.3595715162805418e-05,0.1294411003287645,-1.4267157581402709e-05
0.1302352175086955,1.173652543019852e-06,0.1302352175086955,-1.5609448229200703e-05,0.1302352175086955,-1.29244e-05,0.1302352175086955,-1.393214373259918e-05
0.1310293346886266,-3.5265259198952157e-06,0.1310293346886266,-1.3594386729912389e-05,0.1310293346886266,-1.2923905334419736e-05,0.1310293346886266,-1.6280976018973717e-05
0.1318234518685577,-7.550442531797724e-06,0.1318234518685577,-1.024111456258084e-05,0.1318234518685577,-1.175021013137697e-05,0.1318234518685577,-1.5274994368774254e-05
0.1326175690484888,-7.049943306843172e-06,0.1326175690484888,-2.5219306832182245e-06,0.1326175690484888,-1.091065548426728e-05,0.1326175690484888,-1.3932228818248455e-05
0.1334116862284198,-6.210751653398777e-06,0.1334116862284198,3.1868847647918887e-06,0.1334116862284198,-9.56794064148626e-06,0.1334116862284198,-1.7622740725045386e-05
0.1342058034083509,-6.3782284409215405e-06,0.1342058034083509,4.867214411691374e-06,0.1342058034083509,-1.1581101293534454e-05,0.1342058034083509,-1.7791958453301368e-05
0.134999920588282,-5.8747703624314895e-06,0.134999920588282,3.5249642998173045e-06,0.134999920588282,-1.0910267149908653e-05,0.134999920588282,-1.359621968192834e-05
0.135794037768213,-4.532009840765719e-06,0.135794037768213,1.6767335026785185e-07,0.135794037768213,-1.0910231936496554e-05,0.135794037768213,-1.69528e-05
0.1365881549481441,-6.2109768453809066e-06,0.1365881549481441,-3.525878179310943e-06,0.1365881549481441,-1.15816e-05,0.1365881549481441,-1.695194835113869e-05
0.1373822721280752,-9.06380247267327e-06,0.1373822721280752,-8.898541198948861e-06,0.1373822721280752,-1.158211772880405e-05,0.1373822721280752,-1.2588412346229815e-05
0.1381763893080062,-8.896338781629451e-06,0.1381763893080062,-1.6285509721398588e-05,0.1381763893080062,-1.3092446610706868e-05,0.1381763893080062,-1.1750961737224677e-05
0.1389705064879373,-9.56699321509576e-06,0.1389705064879373,-2.4668590250774e-05,0.1389705064879373,-1.3595487380283326e-05,0.1389705064879373,-1.493662024066637e-05
0.1397646236678684,-1.0909563557905605e-05,0.1397646236678684,-4.866492353653907e-05,0.1397646236678684,-1.158255467025114e-05,0.1397646236678684,-1.695184532974886e-05
0.1405587408477994,-1.057460956850593e-05,0.1405587408477994,-5.572359909401426e-05,0.1405587408477994,-1.2252780862988137e-05,0.1405587408477994,-1.628161913701186e-05
0.1413528580277305,-9.231950099425294e-06,0.1413528580277305,-6.730542913597512e-05,0.1413528580277305,-1.3259919924089984e-05,0.1413528580277305,-1.6617039974696662e-05
0.1421469752076616,-1.023876855401004e-05,0.1421469752076616,-6.797887903579853e-05,0.1421469752076616,-1.191734192840294e-05,0.1421469752076616,-1.4267273374705146e-05
0.1429410923875927,-1.191929210455839e-05,0.1429410923875927,-2.232143916687376e-05,0.1429410923875927,-1.1581678122203687e-05,0.1429410923875927,-1.4267610135751515e-05
0.1437352095675237,-2.904091254635127e-05,0.1437352095675237,-1.1723704883679226e-06,0.1437352095675237,-1.2253265812913346e-05,0.1437352095675237,-1.779204431534917e-05
0.1445293267474548,-4.043679888987844e-05,0.1445293267474548,8.562931496885221e-06,0.1445293267474548,-1.3259962026263408e-05,0.1445293267474548,-1.795796836768771e-05
0.1453234439273859,-4.221589338337245e-06,0.1453234439273859,1.4934138625919811e-05,0.1453234439273859,-1.2924634809530251e-05,0.1453234439273859,-1.3263387333423546e-05
0.146117561107317,5.183441128563705e-05,0.146117561107317,3.439833745593905e-05,0.146117561107317,-1.460197218971232e-05,0.146117561107317,-1.2924585562057535e-05
0.146911678287248,2.9382713222763283e-05,0.146911678287248,5.353614696578616e-05,0.146911678287248,-1.678401589770185e-05,0.146911678287248,-1.3931091943435168e-05
0.1477057954671791,1.8534309674291468e-06,0.1477057954671791,6.361230573042944e-05,0.1477057954671791,-1.4435605329566464e-05,0.1477057954671791,-1.2589045902609409e-05
0.1484999126471102,3.358641951437369e-07,0.1484999126471102,5.6230312513894464e-05,0.1484999126471102,-1.5945533798475322e-05,0.1484999126471102,-9.903395459597984e-06
0.1492940298270412,-2.853591328282676e-06,0.1492940298270412,3.474401813708095e-05,0.1492940298270412,-1.7624181081992475e-05,0.1492940298270412,-1.0910250443011328e-05
0.1500881470069723,-6.881571386029728e-06,0.1500881470069723,1.3928019391455888e-05,0.1500881470069723,-1.7120444624368775e-05,0.1500881470069723,-1.2253155375631224e-05
0.1508822641869034,-5.538806605683944e-06,0.1508822641869034,-4.872544664971373e-06,0.1508822641869034,-1.6281064908525913e-05,0.1508822641869034,-1.3091473985109271e-05
0.1516763813668344,-4.8677910375425566e-06,0.1516763813668344,-1.9641620702880465e-05,0.1516763813668344,-1.52743e-05,0.1516763813668344,-1.091116622525534e-05
0.1524704985467655,-5.203118254275723e-06,0.1524704985467655,-2.634806514859034e-05,0.1524704985467655,-1.52743e-05,0.1524704985467655,-1.2923129525654337e-05
0.1532646157266966,-6.377701362625823e-06,0.1532646157266966,-5.7221652881632e-05,0.1532646157266966,-1.7623062715572218e-05,0.1532646157266966,-1.3763193851188648e-05
0.1540587329066277,-9.90191428371346e-06,0.1540587329066277,-7.267350543757618e-05,0.1540587329066277,-1.896654829599454e-05,0.1540587329066277,-9.23323448083505e-06
0.1548528500865587,-1.0910009851603717e-05,0.1548528500865587,-5.824642544146594e-05,0.1548528500865587,-1.963827323440248e-05,0.1548528500865587,-9.23171e-06
0.1556469672664898,-8.224720716357184e-06,0.1556469672664898,-3.57528272488215e-05,0.1556469672664898,-1.8631341518788545e-05,0.1556469672664898,-1.2588561604450451e-05
0.1564410844464209,-3.860422890244288e-06,0.1564410844464209,-2.85386130042868e-05,0.1564410844464209,-1.6616921481967884e-05,0.1564410844464209,-1.2252928592787152e-05
0.157235201626352,-2.8539514783147173e-06,0.157235201626352,-6.814760983198876e-05,0.157235201626352,-1.493842950638197e-05,0.157235201626352,-1.1582196727663106e-05
0.158029318806283,-4.8666876607591804e-06,0.158029318806283,-7.131409160506772e-05,0.158029318806283,-1.426639227721346e-05,0.158029318806283,-1.3932173102322117e-05
0.1588234359862141,-2.5194071325223614e-06,0.1588234359862141,-1.6991382161155132e-05,0.1588234359862141,-1.2254428976814464e-05,0.1588234359862141,-1.5608809185987947e-05
0.1596175531661451,-4.866307568756758e-06,0.1596175531661451,2.766997381200602e-05,0.1596175531661451,-6.884842701592449e-06,0.1596175531661451,-1.6281022160894036e-05
0.1604116703460762,-1.224993373274712e-05,0.1604116703460762,3.742635808583904e-05,0.1604116703460762,-9.062954057874357e-06,0.1604116703460762,-1.9637006236496225e-05
0.1612057875260073,-1.6615932169078936e-05,0.1612057875260073,2.853678056503604e-05,0.1612057875260073,-1.1077560990409377e-05,0.1612057875260073,-1.9134934763101637e-05
0.1619999047059384,-1.4938801449725968e-05,0.1619999047059384,1.326193318650543e-05,0.1619999047059384,-9.56759130955408e-06,0.1619999047059384,-1.9638339559081327e-05
0.1627940218858694,-1.0910149107359884e-05,0.1627940218858694,-1.1582765904920872e-05,0.1627940218858694,-1.124591850651482e-05,0.1627940218858694,-1.7624070454396257e-05
0.1635881390658005,-9.063595417681449e-06,0.1635881390658005,-5.388030555752003e-05,0.1635881390658005,-1.191762337177272e-05,0.1635881390658005,-1.2924223610619992e-05
0.1643822562457316,-7.552786641349621e-06,0.1643822562457316,-5.790583320674811e-05,0.1643822562457316,-1.37632208273173e-05,0.1643822562457316,-1.1917408339662594e-05
0.1651763734256627,-6.208370113879164e-06,0.1651763734256627,-5.12218312502396e-05,0.1651763734256627,-1.2587911578648004e-05,0.1651763734256627,-1.22533153685408e-05
0.1659704906055937,-1.8491362741389967e-06,0.1659704906055937,-0.0001104070350591,0.1659704906055937,-1.0911275494982288e-05,0.1659704906055937,-1.2923969802007084e-05
0.1667646077855248,5.023872190319375e-07,0.1667646077855248,-9.685571605542126e-05,0.1667646077855248,-9.568073301857836e-06,0.1667646077855248,-1.3595468346601218e-05
0.1675587249654559,-4.194602038665421e-06,0.1675587249654559,2.261820328297428e-05,0.1675587249654559,-6.211582831504078e-06,0.1675587249654559,-1.2924632566993596e-05
0.1683528421453869,-3.0215235890416297e-06,0.1683528421453869,0.000119321778835,0.1683528421453869,-5.874786740294207e-06,0.1683528421453869,-1.4602566298528968e-05
0.169146959325318,-2.182082992729007e-06,0.169146959325318,0.0001361251401454,0.169146959325318,-6.546085605816794e-06,0.169146959325318,-1.4938582802908398e-05
0.1699410765052491,-3.860335924297606e-06,0.1699410765052491,9.919375698762351e-05,0.1699410765052491,-9.23174234611099e-06,0.1699410765052491,-1.460296469222198e-05
0.1707351936851801,-1.846503778627163e-06,0.1707351936851801,4.5813137114663295e-05,0.1707351936851801,-9.568802115891528e-06,0.1707351936851801,-1.527421811068642e-05
0.1715293108651112,-2.5189214008201382e-06,0.1715293108651112,6.200968793438893e-06,0.1715293108651112,-1.5276006473499455e-05,0.1715293108651112,-1.4937549862461874e-05
0.1723234280450423,-5.536856362523079e-06,0.1723234280450423,-1.794251090018463e-05,0.1723234280450423,-1.963526029103031e-05,0.1723234280450423,-1.2254932128596731e-05
0.1731175452249733,-4.532506831145212e-06,0.1731175452249733,-3.272213986714668e-05,0.1731175452249733,-2.2322361840889222e-05,0.1731175452249733,-9.568948210659586e-06
0.1739116624049044,-4.53193e-06,0.1739116624049044,-3.9106188056929575e-05,0.1739116624049044,-2.2995014532308377e-05,0.1739116624049044,-9.231852733845812e-06
0.1747057795848355,-2.182692331726528e-06,0.1747057795848355,-4.3807395330994926e-05,0.1747057795848355,-2.031054549738566e-05,0.1747057795848355,-8.56049638128644e-06
0.1754998967647666,-2.18204e-06,0.1754998967647666,-4.615819448091761e-05,0.1754998967647666,-2.03098e-05,0.1754998967647666,-1.0909894469215882e-05
0.1762940139446976,-2.853487165920185e-06,0.1762940139446976,-4.280164126857758e-05,0.1762940139446976,-1.8966988208476045e-05,0.1762940139446976,-1.2253029478809882e-05
0.1770881311246287,-5.539085437313125e-06,0.1770881311246287,-4.515173263378741e-05,0.1770881311246287,-1.8295544561035432e-05,0.1770881311246287,-1.393188807275198e-05
0.1778822483045598,-5.8749299643343215e-06,0.1778822483045598,-4.716329042359508e-05,0.1778822483045598,-1.795979501783284e-05,0.1778822483045598,-1.628119003566568e-05
0.1786763654844909,-6.5465829929946905e-06,0.1786763654844909,-3.977937401401062e-05,0.1786763654844909,-1.762389133800354e-05,0.1786763654844909,-1.560953700700531e-05
0.1794704826644219,-7.552564643194154e-06,0.1794704826644219,-3.7767410713611686e-05,0.1794704826644219,-1.6953236904537232e-05,0.1794704826644219,-1.4603555356805846e-05
0.180264599844353,-3.526860205298153e-06,0.180264599844353,-3.91082232632207e-05,0.180264599844353,-1.4268553473558598e-05,0.180264599844353,-1.1247591841948248e-05
0.181058717024284,-3.52483e-06,0.181058717024284,-3.2900613376175935e-05,0.181058717024284,-1.4938360718015536e-05,0.181058717024284,-1.0239158922976697e-05
0.1818528342042151,-8.398067789760566e-07,0.1818528342042151,-3.373752474508539e-05,0.1818528342042151,-1.6281119608841486e-05,0.1818528342042151,-1.0910059804420744e-05
0.1826469513841462,-8.39246e-07,0.1826469513841462,-3.6423135563303706e-05,0.1826469513841462,-1.5610041109174073e-05,0.1826469513841462,-1.4266994454129636e-05
0.1834410685640773,-2.03111914449114e-05,0.1834410685640773,-1.4434811578316523e-05,0.1834410685640773,-1.1581571011384445e-05,0.1834410685640773,-1.426731595446222e-05
0.1842351857440083,-3.641316943756715e-05,0.1842351857440083,-1.2265722107753037e-05,0.1842351857440083,-1.1246292659090738e-05,0.1842351857440083,-1.5609921468181854e-05
0.1850293029239394,6.883482873340528e-06,0.1850293029239394,-6.66448980703593e-05,0.1850293029239394,-1.29244e-05,0.1850293029239394,-1.5273660430399517e-05
0.1858234201038705,1.1242716713080848e-05,0.1858234201038705,-8.944694903030689e-05,0.1858234201038705,-1.29244e-05,0.1858234201038705,-1.3597024346733744e-05
0.1866175372838016,1.7430491139111057e-07,0.1866175372838016,-3.3770175159447266e-05,0.1866175372838016,-1.02403650763507e-05,0.1866175372838016,-1.5105519673691027e-05
0.1874116544637326,-1.5099095480807983e-06,0.1874116544637326,4.6459284343516e-05,0.1874116544637326,-1.2252123451952524e-05,0.1874116544637326,-1.493867302391141e-05
0.1882057716436637,-3.188657259306733e-06,0.1882057716436637,9.784132819230652e-05,0.1882057716436637,-1.1917396548138654e-05,0.1882057716436637,-1.8294634518613468e-05
0.1889998888235948,-5.53870096684786e-06,0.1889998888235948,9.38282640592326e-05,0.1889998888235948,-1.0239035024680248e-05,0.1889998888235948,-1.7624294009872098e-05
0.1897940060035258,-4.867621116067101e-06,0.1897940060035258,5.488620757855906e-05,0.1897940060035258,-1.1245902538266543e-05,0.1897940060035258,-1.527432792093197e-05
0.1905881231834569,-3.692549797878592e-06,0.1905881231834569,-1.02464038634651e-05,0.1905881231834569,-1.1581131268329216e-05,0.1905881231834569,-1.89668437555926e-05
0.191382240363388,-2.854252994346663e-06,0.191382240363388,-5.924734476116088e-05,0.191382240363388,-8.560208375328263e-06,0.191382240363388,-1.795964592318442e-05
0.192176357543319,-5.539935861858897e-06,0.192176357543319,-4.781073001058939e-05,0.192176357543319,-8.22461e-06,0.192176357543319,-1.7120071600445827e-05
0.1929704747232501,-7.55188917336255e-06,0.1929704747232501,1.0535906034121182e-05,0.1929704747232501,-8.22461e-06,0.1929704747232501,-1.594647628635647e-05
0.1937645919031812,-9.901892218447707e-06,0.1937645919031812,5.419286968306156e-05,0.1937645919031812,-9.734483562393836e-06,0.1937645919031812,-1.6616754916619483e-05
0.1945587090831123,-1.0574254003024669e-05,0.1945587090831123,5.0188375981852e-05,0.1945587090831123,-9.2318944977315e-06,0.1945587090831123,-1.5945945996975332e-05
0.1953528262630433,-1.0238873455285062e-05,0.1953528262630433,2.863797142678861e-06,0.1953528262630433,-8.224830365855187e-06,0.1953528262630433,-1.59457e-05
0.1961469434429744,-9.90312391208247e-06,0.1961469434429744,-2.2993458781046663e-05,0.1961469434429744,-9.567314351670118e-06,0.1961469434429744,-1.4938671736247411e-05
0.1969410606229055,-9.902971845162904e-06,0.1969410606229055,-3.340182058215915e-05,0.1969410606229055,-1.2924656311201216e-05,0.1969410606229055,-1.2588687180622376e-05
0.1977351778028366,-8.228970086085456e-06,0.1977351778028366,-3.104954409542063e-05,0.1977351778028366,-1.628207656890453e-05,0.1977351778028366,-1.2421063121326191e-05
0.1985292949827676,-2.7699584183324968e-05,0.1985292949827676,-1.963441406297717e-05,0.1985292949827676,-1.930232631805625e-05,0.1985292949827676,-1.3595052636112504e-05
0.1993234121626987,-3.977136398571896e-05,0.1993234121626987,-8.903953116411195e-06,0.1993234121626987,-1.8296344667856754e-05,0.1993234121626987,-1.1583089335713508e-05
0.2001175293426297,-8.623289900114482e-07,0.2001175293426297,-6.883013946307954e-06,0.2001175293426297,-1.6953595968157086e-05,0.2001175293426297,-1.1917101007960728e-05
0.2009116465225608,1.929373309383927e-05,0.2009116465225608,-1.7619417646129972e-05,0.2009116465225608,-2.097940661395985e-05,0.2009116465225608,-1.0910648346510037e-05
0.2017057637024919,3.026135411348504e-06,0.2017057637024919,-3.373290455932477e-05,0.2017057637024919,-2.232350040722409e-05,0.2017057637024919,-9.064409478011376e-06
0.202499880882423,2.182165906078737e-06,0.202499880882423,-3.742984601325356e-05,0.202499880882423,-1.796055469660722e-05,0.202499880882423,-8.560385543647242e-06
0.203293998062354,3.860525903879948e-06,0.203293998062354,-3.910889590385554e-05,0.203293998062354,-1.4602908192288912e-05,0.203293998062354,-1.0910194265422165e-05
0.2040881152422851,-2.5188606455897365e-06,0.2040881152422851,-2.7860636894532004e-05,0.2040881152422851,-1.594589489589485e-05,0.2040881152422851,-1.2253146171921138e-05
0.2048822324222162,-1.0239979206115518e-05,0.2048822324222162,-1.157924159655066e-05,0.2048822324222162,-1.7288991335881464e-05,0.2048822324222162,-1.3259903465647414e-05
0.2056763496021472,-1.425775207013099e-05,0.2056763496021472,-3.533982658973668e-06,0.2056763496021472,-1.896640950218443e-05,0.2056763496021472,-1.2587814253276648e-05
0.2064704667820783,7.203109889628888e-06,0.2064704667820783,-2.4324140240790487e-05,0.2064704667820783,-1.7625100635251768e-05,0.2064704667820783,-1.057585095287765e-05
0.2072645839620094,1.3760170002557411e-05,0.2072645839620094,-5.453516912568543e-05,0.2072645839620094,-1.6953151798371387e-05,0.2072645839620094,-1.225212050407154e-05
0.2080587011419405,3.193120179591688e-06,0.2080587011419405,-6.226919381238896e-05,0.2080587011419405,-1.5274931779915442e-05,0.2080587011419405,-1.4937589152135292e-05
0.2088528183218715,4.8672459383855975e-06,0.2088528183218715,-5.018966526009829e-05,0.2088528183218715,-1.359618406390254e-05,0.2088528183218715,-1.5609846374438985e-05
0.2096469355018026,-8.387824191251984e-07,0.2096469355018026,-2.60185634014859e-05,0.2096469355018026,-1.2253109078311616e-05,0.2096469355018026,-1.6952690921688385e-05
0.2104410526817337,-5.539085683398252e-06,0.2104410526817337,1.2757112527996734e-05,0.2104410526817337,-1.040659976603486e-05,0.2104410526817337,-1.7959744084627103e-05
0.2112351698616647,-6.378090460071115e-06,0.2112351698616647,2.19883e-05,0.2112351698616647,-8.896799982960766e-06,0.2112351698616647,-1.560985636634544e-05
0.2120292870415958,-5.538787585248484e-06,0.2120292870415958,2.1993390673675997e-05,0.2120292870415958,-1.2589790866381826e-05,0.2120292870415958,-1.4939084829503031e-05
0.2128234042215269,-4.868133151782175e-06,0.2128234042215269,3.607703388751504e-05,0.2128234042215269,-1.5607735816980217e-05,0.2128234042215269,-1.628039369643565e-05
0.2136175214014579,-6.8806059088194574e-06,0.2136175214014579,5.755934969005575e-05,0.2136175214014579,-1.829398120372236e-05,0.2136175214014579,-1.359741879627764e-05
0.214411638581389,-8.223998779223466e-06,0.214411638581389,6.428324387335797e-05,0.214411638581389,-1.594676964432471e-05,0.214411638581389,-1.29247056126642e-05
0.2152057557613201,-1.1580567371780843e-05,0.2152057557613201,3.3075903440284915e-05,0.2152057557613201,-1.4267716315647605e-05,0.2152057557613201,-1.325999673687048e-05
0.2159998729412512,-1.3595477680438496e-05,0.2159998729412512,-1.840753153204397e-06,0.2159998729412512,-1.3763680587891556e-05,0.2159998729412512,-1.3763519428110804e-05
0.2167939901211822,-1.2420814619157188e-05,0.2167939901211822,-1.8295395341006327e-05,0.2167939901211822,-1.2588714617913004e-05,0.2167939901211822,-1.3595802087740064e-05
0.2175881073011133,-1.1749558789430933e-05,0.2175881073011133,-3.1723636099434804e-05,0.2175881073011133,-1.3763395857604797e-05,0.2175881073011133,-1.4267290732956534e-05
0.2183822244810444,-1.2925064367766096e-05,0.2183822244810444,-3.2730220361276515e-05,0.2183822244810444,-1.2252715270957386e-05,0.2183822244810444,-1.4937935632233902e-05
0.2191763416609755,-1.52724244746376e-05,0.2191763416609755,-3.1385491661092425e-05,0.2191763416609755,-1.1246188542363446e-05,0.2191763416609755,-1.2588555728818277e-05
0.2199704588409065,-1.091317065710659e-05,0.2199704588409065,-2.602025619336196e-05,0.2199704588409065,-1.1916842975829756e-05,0.2199704588409065,-1.2253228512085122e-05
0.2207645760208376,-8.897085534746898e-06,0.2207645760208376,-3.07138904064644e-05,0.2207645760208376,-1.309157262831504e-05,0.2207645760208376,-1.3091751884996154e-05
0.2215586932007686,-6.882598277007233e-06,0.2215586932007686,-3.675666515738639e-05,0.2215586932007686,-1.2253324264376483e-05,0.2215586932007686,-1.1582183691333552e-05
0.2223528103806997,-8.224289321284432e-06,0.2223528103806997,-3.642338017027593e-05,0.2223528103806997,-1.426671897834442e-05,0.2223528103806997,-1.292407931889628e-05
0.2231469275606308,-6.210603761527693e-06,0.2231469275606308,-3.340227564366005e-05,0.2231469275606308,-1.2253183762440028e-05,0.2231469275606308,-1.6616763102193284e-05
0.2239410447405619,-5.203367831695025e-06,0.2239410447405619,-3.306648916129254e-05,0.2239410447405619,-1.0238818916129254e-05,0.2239410447405619,-1.42672e-05
0.2247351619204929,-5.874583083375585e-06,0.2247351619204929,-3.642323154066814e-05,0.2247351619204929,-1.0574705377995574e-05,0.2247351619204929,-1.4267336918663716e-05
0.225529279100424,-5.203565704696482e-06,0.225529279100424,-3.608441793920309e-05,0.225529279100424,-1.1581835708207178e-05,0.225529279100424,-1.4937716076669594e-05
0.2263233962803551,-5.8742101492674455e-06,0.2263233962803551,-2.703058308740792e-05,0.2263233962803551,-1.2252490141673488e-05,0.2263233962803551,-1.242271200669421e-05
0.2271175134602862,-6.881202878909618e-06,0.2271175134602862,-2.383655418614769e-05,0.2271175134602862,-1.2588494292969872e-05,0.2271175134602862,-1.4937057166635523e-05
0.2279116306402172,-4.868566978313395e-06,0.2279116306402172,-1.896926435224e-05,0.2279116306402172,-1.4266419180862264e-05,0.2279116306402172,-1.3931968491482642e-05
0.2287057478201483,-4.196443241249886e-06,0.2287057478201483,-1.5946659585624487e-05,0.2287057478201483,-1.3596013241249883e-05,0.2287057478201483,-1.2253533103124714e-05
0.2294998650000794,-6.210077537166146e-06,0.2294998650000794,-1.158234200649056e-05,0.2294998650000794,-1.2924514154844702e-05,0.2294998650000794,-1.174948562463478e-05
0.2302939821800104,-6.21042e-06,0.2302939821800104,-1.0910215068439515e-05,0.2302939821800104,-1.1581630136879032e-05,0.2302939821800104,-1.359575856066916e-05
0.2310880993599415,-5.538987991017155e-06,0.2310880993599415,-1.0573869869011476e-05,0.2310880993599415,-1.359596803593138e-05,0.2310880993599415,-1.62814209982345e-05
0.2318822165398726,-5.203970862570859e-06,0.2318822165398726,-5.53903e-06,0.2318822165398726,-1.49378675825165e-05,0.2318822165398726,-1.644933734191417e-05
0.2326763337198036,-7.555192842338289e-06,0.2326763337198036,-5.540791465473958e-06,0.2326763337198036,-1.2253281835819108e-05,0.2326763337198036,-1.6952518164180894e-05
0.2334704508997347,-1.224975389881176e-05,0.2334704508997347,-9.7323616968477e-06,0.2334704508997347,-1.2923936269285416e-05,0.2334704508997347,-1.628186373071458e-05
0.2342645680796658,-3.3726012747098945e-05,0.2342645680796658,-1.4600252099879854e-05,0.2342645680796658,-1.5776247806698355e-05,0.2342645680796658,-1.1248639212648224e-05
0.2350586852595969,-3.004646378071352e-05,0.2350586852595969,-1.4938466929026045e-05,0.2350586852595969,-1.695233423177123e-05,0.2350586852595969,-1.0910333070973956e-05
0.2358528024395279,2.264648621454089e-05,0.2358528024395279,-2.1147454748670604e-05,0.2358528024395279,-1.69528e-05,0.2358528024395279,-1.107805822367348e-05
0.236646919619459,2.0645703897289136e-05,0.236646919619459,-7.40161474557272e-05,0.236646919619459,-1.69528e-05,0.236646919619459,-1.0910216997346131e-05
0.2374410367993901,-5.035791168968662e-07,0.2374410367993901,-0.0001163178528946,0.2374410367993901,-1.6449254457535715e-05,0.2374410367993901,-1.3260240027704384e-05
0.2382351539793211,-1.1744842910236015e-06,0.2382351539793211,-6.997649910928324e-05,0.2382351539793211,-1.7624004694490726e-05,0.2382351539793211,-1.628094428714503e-05
0.2390292711592522,1.1737949985074138e-06,0.2390292711592522,1.5630953549825666e-05,0.2390292711592522,-1.66165274958429e-05,0.2390292711592522,-1.393127099833716e-05
0.2398233883391833,-2.179457191033441e-06,0.2398233883391833,7.699553454513258e-05,0.2398233883391833,-1.4939891412177126e-05,0.2398233883391833,-1.326061656487085e-05
0.2406175055191144,-1.5110581290511223e-06,0.2406175055191144,8.979135561030587e-05,0.2406175055191144,-1.1583690645255611e-05,0.2406175055191144,-1.3931081870948878e-05
0.2414116226990454,-2.852801914708124e-06,0.2414116226990454,6.597602596641178e-05,0.2414116226990454,-1.2923761914708123e-05,0.2414116226990454,-1.5105841699129117e-05
0.2422057398789765,-1.1754898906018842e-06,0.2422057398789765,4.61649886763414e-05,0.2422057398789765,-1.493794013127774e-05,0.2422057398789765,-1.560983501643902e-05
0.2429998570589076,-2.8531378254110767e-06,0.2429998570589076,3.273301737870873e-05,0.2429998570589076,-1.2924762609506708e-05,0.2429998570589076,-1.5777769791542435e-05
0.2437939742388386,-2.85344e-06,0.2437939742388386,1.9974513881932835e-05,0.2437939742388386,-8.896140700257862e-06,0.2437939742388386,-1.7624140093944203e-05
0.2445880914187697,-4.195611579655527e-06,0.2445880914187697,1.057419078925208e-05,0.2445880914187697,-9.903447863386705e-06,0.2445880914187697,-1.6616945394050355e-05
0.2453822085987008,1.1747636127217431e-06,0.2453822085987008,7.8873225034615e-06,0.2453822085987008,-1.292492916814002e-05,0.2453822085987008,-1.5273594442479972e-05
0.2461763257786318,5.03685563817816e-07,0.2461763257786318,1.841250133003825e-06,0.2461763257786318,-1.493915025854954e-05,0.2461763257786318,-1.2588562435362617e-05
0.2469704429585629,8.390107827719133e-07,0.2469704429585629,-1.0565796952751255e-05,0.2469704429585629,-1.6280459125482204e-05,0.2469704429585629,-1.2253235218629448e-05
0.247764560138494,5.037339705640302e-07,0.247764560138494,-2.09754348781682e-05,0.247764560138494,-1.7623456113312023e-05,0.247764560138494,-1.1581971943343987e-05
0.2485586773184251,1.679854280629898e-07,0.2485586773184251,-3.171913432961953e-05,0.2485586773184251,-1.8295327143061223e-05,0.2485586773184251,-1.15816e-05
0.2493527944983561,-2.5170449207126187e-06,0.2493527944983561,-3.6757696720998034e-05,0.2493527944983561,-1.695314754106719e-05,0.2493527944983561,-1.2252826229466404e-05
0.2501469116782872,-2.182077342064205e-06,0.2501469116782872,-3.608767468412841e-05,0.2501469116782872,-1.6617137342064205e-05,0.2501469116782872,-1.2756443992465512e-05
0.2509410288582183,-1.6794660877989134e-07,0.2509410288582183,-4.112375885783771e-05,0.2509410288582183,-1.4267090189754623e-05,0.2509410288582183,-1.376366710807833e-05
0.2517351460381494,-2.8581942885073783e-06,0.2517351460381494,-5.924950336883895e-05,0.2517351460381494,-1.1245961744341002e-05,0.2517351460381494,-1.561024697736401e-05
0.2525292632180804,-2.870453409874428e-05,0.2525292632180804,-5.2194208884435616e-05,0.2525292632180804,-1.15818222951185e-05,0.2525292632180804,-1.695179967196674e-05
0.2533233803980115,-3.574640565014052e-05,0.2533233803980115,-3.140402133593349e-05,0.2533233803980115,-1.2252476728584811e-05,0.2533233803980115,-1.3933854721368348e-05
0.2541174975779426,5.512902198989091e-06,0.2541174975779426,-1.226510799191937e-05,0.2541174975779426,-9.569109369840224e-06,0.2541174975779426,-1.4266987577979003e-05
0.2549116147578736,2.8547430256954e-06,0.2549116147578736,-7.891027419787474e-06,0.2549116147578736,-8.89633575763683e-06,0.2549116147578736,-1.6951496969452685e-05
0.2557057319378047,-5.703979955301223e-06,0.2557057319378047,-1.0573593318449611e-05,0.2557057319378047,-1.0238346660912855e-05,0.2557057319378047,-1.8966319986305137e-05
0.2564998491177358,-6.21032431138019e-06,0.2564998491177358,-1.6280315528975486e-05,0.2564998491177358,-7.721548439298488e-06,0.2564998491177358,-1.7624455169652826e-05
0.2572939662976669,-3.105104556350721e-05,0.2572939662976669,-1.8295514504736243e-05,0.2572939662976669,-1.0910064633347975e-05,0.2572939662976669,-1.493871399368501e-05
0.2580880834775979,-4.883954709921606e-05,0.2580880834775979,-1.560994705375526e-05,0.2580880834775979,-1.493874117596791e-05,0.2580880834775979,-1.35958e-05
0.258882200657529,-5.533006576874924e-06,0.258882200657529,-1.5106357594038574e-05,0.258882200657529,-1.628021227927586e-05,0.258882200657529,-1.359499405928734e-05
0.2596763178374601,1.8287815764805217e-05,0.2596763178374601,-1.4940344747747804e-05,0.2596763178374601,-1.1577976309130994e-05,0.2596763178374601,-1.0404217081747596e-05
0.2604704350173911,-1.1611028723456767e-06,0.2604704350173911,-1.9299598565278817e-05,0.2604704350173911,-2.524181412917203e-06,0.2604704350173911,-4.200643594393548e-06
0.2612645521973222,-5.536568726463123e-06,0.2612645521973222,-2.5006281460551854e-05,0.2612645521973222,-8.22139142107303e-06,0.2612645521973222,-5.873773359802637e-06
0.2620586693772533,-7.887931506574347e-06,0.2620586693772533,-4.2458631129829787e-05,0.2620586693772533,-2.1982568779606727e-05,0.2620586693772533,-1.2250344074996604e-05
0.2628527865571843,-9.231349028951074e-06,0.2628527865571843,-5.119165371506395e-05,0.2628527865571843,-3.541259031639271e-05,0.2628527865571843,-1.3595439028951071e-05
0.2636469037371154,-1.158131510429482e-05,0.2636469037371154,-3.105454196145527e-05,0.2636469037371154,-3.709449650220175e-05,0.2636469037371154,-1.2924481399119302e-05
0.2644410209170465,-1.8966982312714048e-05,0.2644410209170465,-2.8533780947099165e-06,0.2644410209170465,-3.0380470067917e-05,0.2644410209170465,-1.4938661905500834e-05
0.2652351380969776,-1.829308937085883e-05,0.2652351380969776,-5.06408947083851e-07,0.2652351380969776,-2.1651782584162204e-05,0.2652351380969776,-1.7288558386845555e-05
0.2660292552769086,-3.852876628095215e-06,0.2660292552769086,-1.69471947137697e-05,0.2660292552769086,-1.6950967497119805e-05,0.2660292552769086,-1.762441558857414e-05
0.2668233724568397,1.9955285837693004e-05,0.2668233724568397,4.897686140997634e-07,0.2668233724568397,-1.125040481265578e-05,0.2668233724568397,-1.8295070022040497e-05
0.2676174896367708,2.39998107100802e-05,0.2676174896367708,3.338085370251952e-05,0.2676174896367708,-8.226552009220215e-06,0.2676174896367708,-1.6953663118065763e-05
0.2684116068167018,1.2258818221464971e-05,0.2684116068167018,5.017858823382747e-05,0.2684116068167018,-6.882484940303416e-06,0.2684116068167018,-1.594619870894151e-05
0.2692057239966329,5.876937162161195e-06,0.2692057239966329,3.542133446213311e-05,0.2692057239966329,-4.868330155191284e-06,0.2692057239966329,-1.8126941512157556e-05
0.269999841176564,1.1758800947205405e-06,0.269999841176564,9.23694767087163e-06,0.269999841176564,-3.36604520166274e-07,0.269999841176564,-1.6449535749543265e-05
0.270793958356495,-1.006985556935163e-06,0.270793958356495,1.39312535066398e-05,0.270793958356495,-3.524662737236601e-06,0.270793958356495,-1.5945726407436685e-05
0.2715880755364261,-4.364447267807708e-06,0.2715880755364261,1.0234488591991808e-05,0.2715880755364261,-9.56747387204177e-06,0.2715880755364261,-1.57776562905222e-05
0.2723821927163572,-8.223510028915981e-06,0.2723821927163572,-3.508530727797744e-05,0.2723821927163572,-1.023920739849568e-05,0.2723821927163572,-1.4267240727713776e-05
0.2731763098962882,-3.690651711251794e-06,0.2731763098962882,-5.488944801995423e-05,0.2731763098962882,-1.1917954290465291e-05,0.2731763098962882,-1.4434672874257688e-05
0.2739704270762193,1.5068901814257029e-06,0.2739704270762193,-6.193131957134997e-05,0.2739704270762193,-1.3594590374130947e-05,0.2739704270762193,-1.3596404776901584e-05
0.2747645442561504,5.201210452448632e-06,0.2747645442561504,-7.267253408418767e-05,0.2747645442561504,-1.5608843880022976e-05,0.2747645442561504,-9.905219553291216e-06
0.2755586614360815,2.518885143418029e-06,0.2755586614360815,-6.865201772152308e-05,0.2755586614360815,-1.6281113713079486e-05,0.2755586614360815,-1.0909770569619228e-05
0.2763527786160125,-4.865570802695741e-06,0.2763527786160125,-7.402000239587717e-05,0.2763527786160125,-1.5274580800773032e-05,0.2763527786160125,-9.73558759811366e-06
0.2771468957959436,-7.552867544871997e-06,0.2771468957959436,-2.904380361912876e-05,0.2771468957959436,-1.2924708399385346e-05,0.2771468957959436,-1.2588325516344472e-05
0.2779410129758747,-1.0910268576027014e-05,0.2779410129758747,6.428693091023452e-05,0.2779410129758747,-1.2252972569262346e-05,0.2779410129758747,-1.4938572569262346e-05
0.2787351301558057,-1.5106977816372376e-05,0.2787351301558057,0.000102890844318,0.2787351301558057,-1.0575105322851224e-05,0.2787351301558057,-1.3260870410901558e-05
0.2795292473357368,-1.8629576707698223e-05,0.2795292473357368,9.583584245224648e-05,0.2795292473357368,-1.42672e-05,0.2795292473357368,-1.7959064471880697e-05
0.2803233645156679,-1.3096627687124451e-05,0.2803233645156679,7.638696377067695e-05,0.2803233645156679,-1.42672e-05,0.2803233645156679,-1.527644673801546e-05
0.2811174816955989,-4.872998804568524e-06,0.2811174816955989,5.42297629775053e-05,0.2811174816955989,-1.3596238274023725e-05,0.2811174816955989,-1.4603338274023726e-05
0.2819115988755301,-1.090714732658918e-05,0.2819115988755301,1.8481461664906863e-05,0.2819115988755301,-1.628004324952593e-05,0.2819115988755301,-1.46029e-05
0.2827057160554611,-1.6950639089079792e-05,0.2827057160554611,-1.9289194360390617e-05,0.2827057160554611,-1.6952559898786646e-05,0.2827057160554611,-1.3596160151820032e-05
0.2834998332353922,4.86304703343734e-06,0.2834998332353922,-3.876911059156678e-05,0.2834998332353922,-1.6281541014808147e-05,0.2834998332353922,-1.1749787801223955e-05
0.2842939504153233,9.90278553885142e-06,0.2842939504153233,-5.421433565297729e-05,0.2842939504153233,-1.7624116143194118e-05,0.2842939504153233,-1.2588647586373864e-05
0.2850880675952543,-6.882105788308449e-06,0.2850880675952543,-5.992231431600444e-05,0.2850880675952543,-1.8967e-05,0.2850880675952543,-1.023897147400666e-05
0.2858821847751854,-1.023895624440738e-05,0.2858821847751854,-6.126453126677786e-05,0.2858821847751854,-1.8967e-05,0.2858821847751854,-1.2253390611018453e-05
0.2866763019551165,-1.0909689984514572e-05,0.2866763019551165,-5.924850491322378e-05,0.2866763019551165,-1.8967e-05,0.2866763019551165,-1.39313724951791e-05
0.2874704191350475,-9.5683911064773e-06,0.2874704191350475,-5.3212615012027e-05,0.2874704191350475,-1.8967e-05,0.2874704191350475,-1.3596045278445943e-05
0.2882645363149786,-1.0909415829206728e-05,0.2882645363149786,-6.20990048590048e-05,0.2882645363149786,-1.829599208831657e-05,0.2882645363149786,-1.3931303955841715e-05
0.2890586534949096,-1.1581306998088592e-05,0.2890586534949096,-7.149969797324032e-05,0.2890586534949096,-1.2926744015291243e-05,0.2890586534949096,-1.2924839502867108e-05
0.2898527706748408,-1.2252806084493802e-05,0.2898527706748408,-5.690511764781868e-05,0.2898527706748408,-1.0239575662024791e-05,0.2898527706748408,-1.4266812168987604e-05
0.2906468878547718,-1.1917347414550497e-05,0.2906468878547718,-3.441227676075909e-05,0.2906468878547718,-1.158141034179802e-05,0.2906468878547718,-1.5106281470685803e-05
0.2914410050347029,-1.1581597871347912e-05,0.2914410050347029,-1.4938534011975585e-05,0.2914410050347029,-1.2253010643260424e-05,0.2914410050347029,-1.4434988292730575e-05
0.292235122214634,-1.1245744984435932e-05,0.292235122214634,-4.528416324655723e-06,0.292235122214634,-1.3931164125248385e-05,0.292235122214634,-1.2589165046692204e-05
0.293029239394565,-1.023859782752574e-05,0.293029239394565,1.8298228251199124e-05,0.293029239394565,-1.174854077225409e-05,0.293029239394565,-1.56090902103152e-05
0.2938233565744961,-9.567953382954777e-06,0.2938233565744961,2.701663599730769e-05,0.2938233565744961,-8.898319363394347e-06,0.2938233565744961,-1.2591145259716809e-05
0.2946174737544272,-4.870744909846428e-06,0.2946174737544272,4.546837045826952e-06,0.2946174737544272,-1.15798200505695e-05,0.2946174737544272,-9.233934938445068e-06
0.2954115909343582,-5.874201151237848e-06,0.2954115909343582,-2.849635086752389e-06,0.2954115909343582,-1.2923708194781182e-05,0.2954115909343582,-1.174810289612648e-05
0.2962057081142893,-5.035788516579167e-06,0.2962057081142893,1.8446122939225528e-06,0.2962057081142893,-1.5105597865716908e-05,0.2962057081142893,-1.17494e-05
0.2969998252942204,-3.8607885271482375e-06,0.2969998252942204,-5.030309483439152e-07,0.2969998252942204,-1.4267384651247115e-05,0.2969998252942204,-9.56789010864478e-06
0.2977939424741515,-3.189188642669325e-06,0.2977939424741515,-1.678733216244652e-07,0.2977939424741515,-1.3595848643393832e-05,0.2977939424741515,-1.225280542714918e-05
0.2985880596540825,-1.846264335933793e-06,0.2985880596540825,2.51651676523969e-06,0.2985880596540825,-1.5274375664516994e-05,0.2985880596540825,-1.2253025221505664e-05
0.2993821768340136,-8.39769351621766e-07,0.2993821768340136,-1.3766964411873134e-05,0.2993821768340136,-1.6281250470583417e-05,0.2993821768340136,-1.2588774764708291e-05
0.3001762940139447,-3.189388299399152e-06,0.3001762940139447,-2.887463151303685e-05,0.3001762940139447,-1.560925509070768e-05,0.3001762940139447,-1.2924462057282916e-05
0.3009704111938757,-3.860032743970116e-06,0.3009704111938757,-4.111402497932026e-05,0.3009704111938757,-1.3597291790308751e-05,0.3009704111938757,-1.3092075721172768e-05
0.3017645283738068,-5.034782094211949e-06,0.3017645283738068,-6.326603955025267e-05,0.3017645283738068,-1.0240794016537289e-05,0.3017645283738068,-1.7621508047975278e-05
0.3025586455537379,-4.532154787676688e-06,0.3025586455537379,-3.5596363299897506e-05,0.3025586455537379,-1.0909900283097747e-05,0.3025586455537379,-1.76242e-05
0.3033527627336689,-4.196330315248521e-06,0.3033527627336689,7.875919247034309e-06,0.3033527627336689,-1.2252598739005916e-05,0.3033527627336689,-1.7791949857316943e-05
0.3041468799136,-2.0145200167861907e-06,0.3041468799136,2.8027753693880216e-05,0.3041468799136,-1.1246052316137822e-05,0.3041468799136,-1.7624225378460855e-05
0.3049409970935311,-5.874705868374839e-06,0.3049409970935311,2.937359508462665e-05,0.3049409970935311,-1.0910201228843336e-05,0.3049409970935311,-1.5274308601903356e-05
0.3057351142734621,-7.55322e-06,0.3057351142734621,2.718862867697956e-05,0.3057351142734621,-1.158152753565716e-05,0.3057351142734621,-1.4938720778702106e-05
0.3065292314533932,-7.552633596087914e-06,0.3065292314533932,6.5206602956038826e-06,0.3065292314533932,-1.1079223931854791e-05,0.3065292314533932,-1.577833755414498e-05
0.3073233486333243,-5.540680284584192e-06,0.3073233486333243,-8.083165014088914e-05,0.3073233486333243,-1.4935436979809617e-05,0.3073233486333243,-1.762268719065418e-05
0.3081174658132554,-4.53260755600819e-06,0.3081174658132554,-0.0001277014939483,0.3081174658132554,-1.628049659198908e-05,0.3081174658132554,-1.6785464663645786e-05
0.3089115829931864,-2.183274156349072e-06,0.3089115829931864,-4.804677299865716e-05,0.3089115829931864,-1.5778064489460098e-05,0.3089115829931864,-1.3597474907341546e-05
0.3097057001731175,5.025338797512103e-07,0.3097057001731175,4.511622271661463e-05,0.3097057001731175,-1.3932197191905587e-05,0.3097057001731175,-1.35958e-05
0.3104998173530486,-1.0067524996828297e-06,0.3104998173530486,9.096375917759552e-05,0.3104998173530486,-1.39315e-05,0.3104998173530486,-1.35958e-05
0.3112939345329796,-2.853287765266534e-06,0.3112939345329796,9.114208616452642e-05,0.3112939345329796,-1.4267172320807638e-05,0.3112939345329796,-1.4434930806141703e-05
0.3120880517129107,-2.853396271979468e-06,0.3120880517129107,6.62979731078864e-05,0.3120880517129107,-1.3595712543958937e-05,0.3120880517129107,-1.4938512543958937e-05
0.3128821688928418,-2.183468137875585e-06,0.3128821688928418,2.9031116348813417e-05,0.3128821688928418,-1.2252714371148616e-05,0.3128821688928418,-1.3595942814425692e-05
0.3136762860727728,-8.895526810492242e-06,0.3136762860727728,-2.861895828980167e-06,0.3136762860727728,-1.0910924789659236e-05,0.3136762860727728,-1.4266716806893842e-05
0.314470403252704,-7.554227932454875e-06,0.314470403252704,-2.633466115576779e-05,0.314470403252704,-1.2922888090058305e-05,0.314470403252704,-1.292540793996113e-05
0.315264520432635,-2.030209516441205e-05,0.315264520432635,-4.178517307913906e-05,0.315264520432635,-1.695036689021019e-05,0.315264520432635,-1.5272880685955944e-05
0.3160586376125661,-3.7087039248313386e-05,0.3160586376125661,-4.850533572670979e-05,0.3160586376125661,-1.3932878943518924e-05,0.3160586376125661,-1.577757019890055e-05
0.3168527547924971,-2.864014576649009e-06,0.3168527547924971,-5.3542344908840505e-05,0.3168527547924971,-1.3595903672743966e-05,0.3168527547924971,-1.3932070184650538e-05
0.3176468719724282,2.8697111848910924e-05,0.3176468719724282,-4.985179542495499e-05,0.3176468719724282,-1.2924508259082725e-05,0.3176468719724282,-1.2924562388624087e-05
0.3184409891523593,3.860869387292087e-06,0.3184409891523593,-4.750133210437131e-05,0.3184409891523593,-1.4267181654644964e-05,0.3184409891523593,-1.3260095413661242e-05
0.3192351063322903,-9.231327867996714e-06,0.3192351063322903,-4.9179170603906495e-05,0.3192351063322903,-1.628122017254471e-05,0.3192351063322903,-1.3595710086272355e-05
0.3200292235122214,-6.378128428202374e-06,0.3200292235122214,-4.4476979829765385e-05,0.3200292235122214,-1.4938316856404748e-05,0.3200292235122214,-1.2924305618801584e-05
0.3208233406921525,-5.875137603102643e-06,0.3208233406921525,-3.3746608783257894e-05,0.3208233406921525,-1.3932335206205285e-05,0.3208233406921525,-1.2588978402068428e-05
0.3216174578720835,-6.377926185752737e-06,0.3216174578720835,-2.300263470394162e-05,0.3216174578720835,-1.5608853952509122e-05,0.3216174578720835,-1.0240404466487228e-05
0.3224115750520147,-3.5263571581601706e-06,0.3224115750520147,-3.171882867631575e-05,0.3224115750520147,-1.7958642335931162e-05,0.3224115750520147,-1.0406610140092275e-05
0.3232056922319457,-2.8537002423097635e-06,0.3232056922319457,-3.239463975381406e-05,0.3232056922319457,-1.493977110783671e-05,0.3232056922319457,-1.3594563849997668e-05
0.3239998094118768,-5.202765943167642e-06,0.3239998094118768,-1.360031244985815e-05,0.3239998094118768,-1.22536446391231e-05,0.3239998094118768,-1.4602658260328836e-05
0.3247939265918079,-6.378161372517294e-06,0.3247939265918079,5.872919879504851e-06,0.3247939265918079,-1.2253e-05,0.3247939265918079,-1.6281244816561082e-05
0.3255880437717389,-5.706916266287051e-06,0.3255880437717389,8.558718444686977e-06,0.3255880437717389,-1.3595809250501005e-05,0.3255880437717389,-1.4938451947881436e-05
0.32638216095167,-6.546256099434801e-06,0.32638216095167,-2.0311841471251035e-05,0.32638216095167,-1.3763634034994197e-05,0.32638216095167,-1.2253408298304405e-05
0.3271762781316011,-7.216580443463454e-06,0.3271762781316011,-3.037189167015198e-05,0.3271762781316011,-1.3931734890008763e-05,0.3271762781316011,-1.4267904670026292e-05
0.3279703953115321,-4.533972698493563e-06,0.3279703953115321,-5.222480270804881e-06,0.3279703953115321,-1.4602389323475072e-05,0.3279703953115321,-1.627986797042522e-05
0.3287645124914632,-7.215871072983322e-06,0.3287645124914632,2.2642492422878848e-05,0.3287645124914632,-1.258993669986744e-05,0.3287645124914632,-1.6113603089021817e-05
0.3295586296713942,-5.8753462937679705e-06,0.3295586296713942,2.4672860559348045e-05,0.3295586296713942,-1.4601960559348043e-05,0.3295586296713942,-1.7287951969632585e-05
0.3303527468513254,-4.867951087529895e-06,0.3303527468513254,6.216306624907129e-06,0.3303527468513254,-1.46029e-05,0.3303527468513254,-1.3596977332633277e-05
0.3311468640312564,-4.196344974073616e-06,0.3311468640312564,3.860932407545205e-06,0.3311468640312564,-1.5609827538889576e-05,0.3311468640312564,-1.35958e-05
0.3319409812111875,-4.531922056165796e-06,0.3319409812111875,1.1917109348689005e-05,0.3319409812111875,-1.661707616849739e-05,0.3319409812111875,-1.594564439316057e-05
0.3327350983911186,-5.874345608162769e-06,0.3327350983911186,2.51308089056617e-06,0.3327350983911186,-1.46027752018948e-05,0.3327350983911186,-1.7959276009474006e-05
0.3335292155710496,-2.85316691622129e-06,0.3335292155710496,-3.509251563203153e-05,0.3335292155710496,-1.359552691622129e-05,0.3335292155710496,-1.2924764111704949e-05
0.3343233327509807,-1.8471852660218263e-06,0.3343233327509807,-7.935550846290102e-05,0.3343233327509807,-1.2589545266021827e-05,0.3343233327509807,-1.4266072978637565e-05
0.3351174499309118,-3.5236671719598343e-06,0.3351174499309118,-9.549503685358554e-05,0.3351174499309118,-1.2924167433006402e-05,0.3351174499309118,-1.2589862834967988e-05
0.3359115671108428,-1.6967922755112918e-07,0.3359115671108428,-7.352998797653002e-05,0.3359115671108428,-1.4601984881045031e-05,0.3359115671108428,-9.90456419032795e-06
0.3367056842907739,-4.530194759905382e-06,0.3367056842907739,-2.100208961268201e-05,0.3367056842907739,-1.5274033038823172e-05,0.3367056842907739,-1.090979955823476e-05
0.337499801470705,-2.970300472856909e-05,0.337499801470705,2.600484881599406e-05,0.337499801470705,-1.4267451812157427e-05,0.337499801470705,-1.2923896375685142e-05
0.338293918650636,-4.112193059777101e-05,0.338293918650636,5.08557548406883e-05,0.338293918650636,-1.560986242326718e-05,0.338293918650636,-1.1078289162884876e-05
0.3390880358305671,4.532808637257279e-06,0.3390880358305671,5.421481523589268e-05,0.3390880358305671,-1.7288515149019374e-05,0.3390880358305671,-8.896176638761858e-06
0.3398821530104982,2.3998000955884622e-05,0.3398821530104982,4.3470282926676894e-05,0.3398821530104982,-1.7623941231112084e-05,0.3398821530104982,-1.258921753777583e-05
0.3406762701904293,1.173285680078607e-06,0.3406762701904293,2.936835181430388e-05,0.3406762701904293,-1.6281000661944104e-05,0.3406762701904293,-1.5274471120605228e-05
0.3414703873703603,-3.688928995865759e-06,0.3414703873703603,1.39433997335333e-05,0.3414703873703603,-1.510730545890142e-05,0.3414703873703603,-1.57774120012282e-05
0.3422645045502914,-2.518473153250061e-06,0.3422645045502914,3.866814205480088e-06,0.3422645045502914,-1.6951647861030425e-05,0.3422645045502914,-1.4939123654150384e-05
0.3430586217302225,-7.550821045466987e-06,0.3430586217302225,-8.218852514837693e-06,0.3430586217302225,-1.561063972374966e-05,0.3430586217302225,-1.2254279447499317e-05
0.3438527389101535,-7.55322e-06,0.3438527389101535,-2.33260325881036e-05,0.3438527389101535,-1.4938820775469668e-05,0.3438527389101535,-1.2588589612265164e-05
0.3446468560900846,-6.210663378128921e-06,0.3446468560900846,-3.1050700575758703e-05,0.3446468560900846,-1.49386e-05,0.3446468560900846,-1.4938174088274388e-05
0.3454409732700157,-4.867675204981856e-06,0.3454409732700157,-5.757140719832601e-05,0.3454409732700157,-1.560997739734075e-05,0.3454409732700157,-1.49386e-05
0.3462350904499467,-1.5113283514348374e-06,0.3462350904499467,-8.962865099755244e-05,0.3462350904499467,-1.4938447032508184e-05,0.3462350904499467,-1.376373385225118e-05
0.3470292076298778,-7.562075108721648e-06,0.3470292076298778,-6.460779675827309e-05,0.3470292076298778,-1.3595536976037762e-05,0.3470292076298778,-1.49386e-05
0.3478233248098089,-4.143000413202611e-05,0.3478233248098089,-1.028498742540896e-05,0.3478233248098089,-1.25895553258383e-05,0.3478233248098089,-1.49386e-05
0.34861744198974,-1.2944453511288304e-05,0.34861744198974,2.5991120295742608e-05,0.34861744198974,-1.0408233474039444e-05,0.34861744198974,-1.527406407551098e-05
0.349411559169671,1.1903507840323689e-05,0.349411559169671,3.7424063036261066e-05,0.349411559169671,-1.225197493068468e-05,0.349411559169671,-1.4938786381286438e-05
0.3502056763496021,1.8504451262102555e-06,0.3502056763496021,3.8437089485748494e-05,0.3502056763496021,-1.1917436838083836e-05,0.3502056763496021,-1.359634735233534e-05
0.3509997935295332,-3.5234332897014474e-06,0.3509997935295332,4.205134044080622e-06,0.3509997935295332,-9.064602003890084e-06,0.3509997935295332,-1.35958e-05
0.3517939107094642,-4.531816744964047e-06,0.3517939107094642,-2.970548709957386e-05,0.3517939107094642,-1.0574330118570637e-05,0.3517939107094642,-1.628109798657079e-05
0.3525880278893953,-6.210396417303347e-06,0.3525880278893953,-4.4647351695892455e-05,0.3525880278893953,-1.1581635374571856e-05,0.3525880278893953,-1.829555283390419e-05
0.3533821450693264,-5.539091332899488e-06,0.3533821450693264,-2.9032625240739454e-05,0.3533821450693264,-1.2588761334726555e-05,0.3533821450693264,-1.6952554661093774e-05
0.3541762622492574,-5.874609264838689e-06,0.3541762622492574,-1.607617553807269e-07,0.3541762622492574,-1.2925064430760265e-05,0.3541762622492574,-1.560933556923974e-05
0.3549703794291886,-5.539292037000857e-06,0.3549703794291886,2.13001291721764e-05,0.3549703794291886,-1.4937027731159331e-05,0.3549703794291886,-1.3597372268840668e-05
0.3557644966091196,-4.868055663270881e-06,0.3557644966091196,2.6684594757232305e-05,0.3557644966091196,-1.3932138494906322e-05,0.3557644966091196,-1.35958e-05
0.3565586137890507,-4.86763e-06,0.3565586137890507,8.904664233436288e-06,0.3565586137890507,-1.5105828514805578e-05,0.3565586137890507,-1.426687342313428e-05
0.3573527309689818,-6.377758149852253e-06,0.3573527309689818,-1.2917006590529577e-05,0.3573527309689818,-1.3764054980920931e-05,0.3573527309689818,-1.695189003815814e-05
0.3581468481489128,-6.210452101013827e-06,0.3581468481489128,-3.826475277559948e-05,0.3581468481489128,-1.292456049550672e-05,0.3581468481489128,-1.3596442020276524e-05
0.3589409653288439,-7.553161364699712e-06,0.3589409653288439,-8.543324044162738e-05,0.3589409653288439,-1.2253029317650142e-05,0.3589409653288439,-1.35958e-05
0.3597350825087749,-4.867420694774102e-06,0.3597350825087749,-8.912172549635558e-05,0.3597350825087749,-1.3931325578112458e-05,0.3597350825087749,-1.594566511562249e-05
0.360529199688706,-2.8543675301775257e-06,0.360529199688706,-2.9697157771239395e-05,0.360529199688706,-1.225308432138192e-05,0.360529199688706,-1.5609662714472315e-05
0.3613233168686371,-6.542946936451535e-06,0.3613233168686371,1.858976166042795e-05,0.3613233168686371,-1.2588411538115076e-05,0.3613233168686371,-1.4268353847539692e-05
0.3621174340485681,-6.54612e-06,0.3621174340485681,3.4062393099993115e-05,0.3621174340485681,-1.25887e-05,0.3621174340485681,-1.359627856396893e-05
0.3629115512284993,-5.204088949475411e-06,0.3629115512284993,1.7969007405009003e-05,0.3629115512284993,-1.3762935942523656e-05,0.3629115512284993,-1.35958e-05
0.3637056684084303,-2.854421364878586e-06,0.3637056684084303,-3.438722957316016e-05,0.3637056684084303,-1.527366909901226e-05,0.3637056684084303,-1.2924680391158514e-05
0.3644997855883614,-8.397899126398231e-07,0.3644997855883614,-6.998349090208021e-05,0.3644997855883614,-1.52743e-05,0.3644997855883614,-1.3595618695246644e-05
0.3652939027682925,-1.5105577823866023e-06,0.3652939027682925,-5.790947991802083e-05,0.3652939027682925,-1.8295230017433343e-05,0.3652939027682925,-1.0239211091740733e-05
0.3660880199482235,-1.846390603919807e-06,0.3660880199482235,-2.635113610909073e-05,0.3660880199482235,-1.8967e-05,0.3660880199482235,-1.0910250604171043e-05
0.3668821371281546,-3.86096482750628e-06,0.3668821371281546,1.9977752548289457e-05,0.3668821371281546,-1.8966362250457778e-05,0.3668821371281546,-1.292442897998028e-05
0.3676762543080857,-6.379290156086078e-06,0.3676762543080857,4.1121703992557474e-05,0.3676762543080857,-1.5273763074060568e-05,0.3676762543080857,-1.3092790634527596e-05
0.3684703714880167,-9.5648887261557e-06,0.3684703714880167,3.676245017502647e-05,0.3684703714880167,-1.3597126990394797e-05,0.3684703714880167,-1.493714027103667e-05
0.3692644886679478,-9.902883817309063e-06,0.3692644886679478,-8.150329165160008e-07,0.3692644886679478,-1.4937735243476456e-05,0.3692644886679478,-1.4267632378261771e-05
0.3700586058478789,-1.3593966894788896e-05,0.3700586058478789,-1.962906785085121e-05,0.3700586058478789,-1.5609666708143438e-05,0.3700586058478789,-1.2421716577426216e-05
0.3708527230278099,-1.2253468410902713e-05,0.3708527230278099,-1.7624902616354068e-05,0.3708527230278099,-1.2925336821805426e-05,0.3708527230278099,-1.3259807225744232e-05
0.371646840207741,-1.702811329702852e-07,0.371646840207741,-1.9805760873162348e-05,0.371646840207741,-1.3595664880953804e-05,0.371646840207741,-1.6952056845245924e-05
0.3724409573876721,8.391919513067876e-07,0.3724409573876721,-3.306558835802296e-05,0.3724409573876721,-1.2253072065282067e-05,0.3724409573876721,-1.661711801632052e-05
0.3732350745676032,-2.1821976334714118e-06,0.3732350745676032,-2.4336838934106987e-05,0.3732350745676032,-1.191745763441055e-05,0.3732350745676032,-1.493863152688211e-05
0.3740291917475342,-3.860813388384094e-06,0.3740291917475342,-1.0909916614027823e-05,0.3740291917475342,-1.359588096810974e-05,0.3740291917475342,-1.5273814191341552e-05
0.3748233089274653,-5.034458646950135e-06,0.3748233089274653,-9.73628134435713e-06,0.3748233089274653,-1.3931208184842896e-05,0.3748233089274653,-1.3261850890942626e-05
0.3756174261073964,1.8413659123459103e-06,0.3756174261073964,-4.46226656097376e-05,0.3756174261073964,-1.5608786802600564e-05,0.3756174261073964,-1.2924642639479888e-05
0.3764115432873274,6.207909759899109e-06,0.3764115432873274,-6.528152460770587e-05,0.3764115432873274,-1.561e-05,0.3764115432873274,-1.3595413807445386e-05
0.3772056604672585,5.203760654947878e-06,0.3772056604672585,-3.509341973396095e-05,0.3772056604672585,-1.4267774212298811e-05,0.3772056604672585,-1.4266912893850593e-05
0.3779997776471896,-8.375538290232099e-07,0.3779997776471896,2.163671238762352e-05,0.3779997776471896,-1.1582352078976793e-05,0.3779997776471896,-1.6280835940767406e-05
0.3787938948271206,-3.188828734108127e-06,0.3787938948271206,5.891016422617535e-05,0.3787938948271206,-1.15816e-05,0.3787938948271206,-1.661705553333048e-05
0.3795880120070517,-6.210430153066171e-06,0.3795880120070517,5.857914109832488e-05,0.3795880120070517,-1.2253005076533084e-05,0.3795880120070517,-1.560996192524575e-05
0.3803821291869828,-6.882393512105856e-06,0.3803821291869828,4.145516779571187e-05,0.3803821291869828,-1.2588781921468334e-05,0.3803821291869828,-1.309184497985322e-05
0.3811762463669139,-1.0408520543030076e-05,0.3811762463669139,1.9128506103188303e-05,0.3811762463669139,-1.3092356063368332e-05,0.3811762463669139,-1.0910095968084291e-05
0.3819703635468449,-1.6276696891383554e-05,0.3819703635468449,-1.1586806313187465e-06,0.3819703635468449,-1.359539683294479e-05,0.3819703635468449,-1.057476875135114e-05
0.382764480726776,-1.913293388637621e-05,0.382764480726776,-1.4929598614481229e-05,0.382764480726776,-1.4937721813494768e-05,0.382764480726776,-8.897107726591575e-06
0.3835585979067071,-1.460519502089927e-05,0.3835585979067071,-2.567545994108294e-05,0.3835585979067071,-1.49386e-05,0.3835585979067071,-8.224950006847407e-06
0.3843527150866381,-1.0575945522653484e-05,0.3843527150866381,-3.4741547574029656e-05,0.3843527150866381,-1.762323631823101e-05,0.3843527150866381,-6.882301837296165e-06
0.3851468322665692,-4.868835582977303e-06,0.3851468322665692,-4.4477943427588047e-05,0.3851468322665692,-1.5778190054164416e-05,0.3851468322665692,-7.55307816596296e-06
0.3859409494465003,-4.86763e-06,0.3859409494465003,-5.018653664512943e-05,0.3859409494465003,-1.3931617552804068e-05,0.3859409494465003,-1.1245664889298312e-05
0.3867350666264313,-7.888656477198268e-06,0.3867350666264313,-4.649400282268458e-05,0.3867350666264313,-1.4267509863253308e-05,0.3867350666264313,-1.4267115491840008e-05
0.3875291838063624,-4.867164313286668e-06,0.3875291838063624,-4.414377908129952e-05,0.3875291838063624,-1.795958954064976e-05,0.3875291838063624,-1.325986715548732e-05
0.3883233009862935,-2.8552110017829454e-06,0.3883233009862935,-4.146116134743409e-05,0.3883233009862935,-1.661828067371705e-05,0.3883233009862935,-1.2253885505287784e-05
0.3891174181662246,-4.866154025475885e-06,0.3891174181662246,-3.39110349685844e-05,0.3891174181662246,-1.6281645996975333e-05,0.3891174181662246,-1.2923908006049332e-05
0.3899115353461556,-5.538637092454543e-06,0.3899115353461556,-2.5853514832024856e-05,0.3899115353461556,-1.62814e-05,0.3899115353461556,-1.5943931916045437e-05
0.3907056525260867,-7.552338540955496e-06,0.3907056525260867,-2.299654876172729e-05,0.3907056525260867,-1.62814e-05,0.3907056525260867,-1.4939040731710374e-05
0.3914997697060178,-8.224415268165339e-06,0.3914997697060178,-1.628334731834661e-05,0.3914997697060178,-1.6617002632632455e-05,0.3914997697060178,-1.5609805265264913e-05
0.3922938868859488,-6.2107069435650345e-06,0.3922938868859488,-9.568366481874205e-06,0.3922938868859488,-1.3596230417484466e-05,0.3922938868859488,-1.8295217406680475e-05
0.3930880040658799,-7.888901404862892e-06,0.3930880040658799,-3.524802495551011e-06,0.3930880040658799,-1.0910203438075326e-05,0.3930880040658799,-1.6952797421187468e-05
0.393882121245811,-6.210266214806295e-06,0.393882121245811,1.8462374755195127e-06,0.393882121245811,-1.15816e-05,0.393882121245811,-1.6449123114274764e-05
0.394676238425742,-5.202826606782375e-06,0.394676238425742,1.1734801686660863e-06,0.394676238425742,-1.15816e-05,0.394676238425742,-1.59461027145741e-05
0.3954703556056732,-3.526190523116485e-06,0.3954703556056732,-3.688734507278959e-06,0.3954703556056732,-1.15816e-05,0.3954703556056732,-1.728741158150681e-05
0.3962644727856042,-8.410292223498733e-07,0.3962644727856042,-2.1830430619078054e-06,0.3962644727856042,-1.292350838351308e-05,0.3962644727856042,-1.594659161648692e-05
0.3970585899655353,-1.845819920341048e-06,0.3970585899655353,1.844259679298528e-06,0.3970585899655353,-1.0072473541991965e-05,0.3970585899655353,-1.4268066804595748e-05
0.3978527071454664,-4.195363279672524e-06,0.3978527071454664,8.893409839017571e-06,0.3978527071454664,-1.1581042838717264e-05,0.3978527071454664,-1.5273928546850362e-05
0.3986468243253974,-3.524978549027884e-06,0.3986468243253974,9.23163572548606e-06,0.3986468243253974,-1.2924102901944232e-05,0.3986468243253974,-1.3260545647083652e-05
0.3994409415053285,-2.853489461886014e-06,0.3994409415053285,4.532276236885644e-06,0.3994409415053285,-1.29244e-05,0.3994409415053285,-1.359577526868864e-05
0.4002350586852595,-2.853663305542752e-06,0.4002350586852595,2.853117446892372e-06,0.4002350586852595,-1.359582481189122e-05,0.4002350586852595,-1.5106164290728966e-05
0.4010291758651906,-5.875276959528382e-06,0.4010291758651906,-1.5109370462616118e-06,0.4010291758651906,-1.393098016904218e-05,0.4010291758651906,-1.1917225738434596e-05
0.4018232930451217,-8.390221096131696e-06,0.4018232930451217,-2.8522459131942297e-06,0.4018232930451217,-1.1583689651910098e-05,0.4018232930451217,-1.1581898521701442e-05
0.4026174102250527,-6.21204079663201e-06,0.4026174102250527,-5.5370351716618575e-06,0.4026174102250527,-1.091069870894151e-05,0.4026174102250527,-1.4936106455292453e-05
0.4034115274049838,-6.881420377463698e-06,0.4034115274049838,-1.6610506246007254e-05,0.4034115274049838,-1.3761901633981109e-05,0.4034115274049838,-1.6951601132391095e-05
0.4042056445849149,-8.727333530115621e-06,0.4042056445849149,-5.587621872585346e-05,0.4042056445849149,-1.5609173503258062e-05,0.4042056445849149,-1.628170053613114e-05
0.404999761764846,-9.06375927513701e-06,0.404999761764846,-5.790739565082206e-05,0.404999761764846,-1.661679782541103e-05,0.404999761764846,-1.762379710054804e-05
0.4057938789447771,-7.553450315947007e-06,0.4057938789447771,-2.165812758882668e-05,0.4057938789447771,-1.7791820871811855e-05,0.4057938789447771,-1.5106783870075844e-05
0.4065879961247081,-7.217521638457782e-06,0.4065879961247081,1.8462253082480808e-06,0.4065879961247081,-1.829559754206929e-05,0.4065879961247081,-1.2588712288189331e-05
0.4073821133046392,-8.22461e-06,0.4073821133046392,3.523440769535907e-06,0.4073821133046392,-1.4938456285765603e-05,0.4073821133046392,-1.426743952372399e-05
0.4081762304845703,-8.22461e-06,0.4081762304845703,-6.225116067298148e-06,0.4081762304845703,-1.3931889301485565e-05,0.4081762304845703,-1.5945018722400262e-05
0.4089703476645013,-8.22461e-06,0.4089703476645013,-5.685930603830689e-05,0.4089703476645013,-1.5273198168418183e-05,0.4089703476645013,-1.359772820526818e-05
0.4097644648444324,-1.2921232344099535e-05,0.4097644648444324,-0.0001169504993053,0.4097644648444324,-1.3596931308085878e-05,0.4097644648444324,-1.35958e-05
0.4105585820243635,-8.562607334125257e-06,0.4105585820243635,-0.0001069253015524,0.4105585820243635,-1.2589230155243716e-05,0.4105585820243635,-1.191818359207286e-05
0.4113526992042945,1.5600843418831855e-05,0.4113526992042945,-1.900031975400736e-05,0.4113526992042945,-9.904117401695931e-06,0.4113526992042945,-1.158172717521199e-05
0.4121468163842256,1.0575664480140812e-05,0.4121468163842256,7.131501708197642e-05,0.4121468163842256,-1.124558947196245e-05,0.4121468163842256,-1.1245977632009387e-05
0.4129409335641567,-3.1879883639422183e-06,0.4129409335641567,0.0001030563456537,0.4129409335641567,-1.4266947200738949e-05,0.4129409335641567,-1.2252915733579649e-05
0.4137350507440878,-3.860615817583187e-06,0.4137350507440878,6.948667148456014e-05,0.4137350507440878,-1.3595842908791593e-05,0.4137350507440878,-1.3595950180770578e-05
0.4145291679240188,-5.2036845393539765e-06,0.4145291679240188,2.366166554307457e-05,0.4145291679240188,-1.42672e-05,0.4145291679240188,-1.5945558183413506e-05
0.4153232851039499,-6.880310634124286e-06,0.4153232851039499,-1.4641601265802945e-07,0.4153232851039499,-1.42672e-05,0.4153232851039499,-1.5274903749947247e-05
0.416117402283881,-9.565388311798497e-06,0.416117402283881,5.030425783260195e-07,0.416117402283881,-1.1583621695729416e-05,0.416117402283881,-1.4938852711966175e-05
0.416911519463812,-8.896416337527192e-06,0.416911519463812,1.0400706520263486e-05,0.416911519463812,-1.15816e-05,0.416911519463812,-1.3261115843817985e-05
0.4177056366437431,-7.218288123228804e-06,0.4177056366437431,1.2587701456734772e-05,0.4177056366437431,-1.3594878246633904e-05,0.4177056366437431,-1.3931192748877968e-05
0.4184997538236742,-7.720913876462416e-06,0.4184997538236742,-2.3319863249661568e-05,0.4184997538236742,-1.2253416329433554e-05,0.4184997538236742,-1.3595904082358388e-05
0.4192938710036052,-4.364625389933442e-06,0.4192938710036052,-8.156523749708326e-05,0.4192938710036052,-1.0574772695779042e-05,0.4192938710036052,-1.2253218156623232e-05
0.4200879881835363,-5.539012514163703e-06,0.4200879881835363,-0.0001169904729276,0.4200879881835363,-1.0910195004046772e-05,0.4200879881835363,-1.6784832555375532e-05
0.4208821053634674,-4.867897282169402e-06,0.4208821053634674,-6.360443143620098e-05,0.4208821053634674,-1.35957109055012e-05,0.4208821053634674,-1.4938488625241522e-05
0.4216762225433985,-6.8816790418511845e-06,0.4216762225433985,1.528567056801867e-05,0.4216762225433985,-1.2924024111603158e-05,0.4216762225433985,-1.4099628916343676e-05
0.4224703397233295,-6.378688216751453e-06,0.4224703397233295,5.5860064014823455e-05,0.4224703397233295,-1.158271524467054e-05,0.4224703397233295,-1.5273324119386442e-05
0.4232644569032606,-5.707329238225196e-06,0.4232644569032606,7.031892644655839e-05,0.4232644569032606,-1.2923481523549608e-05,0.4232644569032606,-1.6280711142662207e-05
0.4240585740831917,-4.197040336230886e-06,0.4240585740831917,6.764464060728015e-05,0.4240585740831917,-1.3930959772269947e-05,0.4240585740831917,-1.7120149837045913e-05
0.4248526912631227,-4.19623e-06,0.4248526912631227,4.4824576185220375e-05,0.4248526912631227,-1.292479159812224e-05,0.4248526912631227,-1.8462877869170343e-05
0.4256468084430538,-4.867468020990381e-06,0.4256468084430538,-1.4924183940520592e-05,0.4256468084430538,-1.3931257031485572e-05,0.4256468084430538,-1.93024975141752e-05
0.4264409256229849,-2.182291569481094e-06,0.4264409256229849,-4.783391828111632e-05,0.4264409256229849,-1.5274174214791085e-05,0.4264409256229849,-1.5106793083461556e-05
0.4272350428029159,8.390469348505882e-07,0.4272350428029159,-3.843608844716156e-05,0.4272350428029159,-1.695276380619925e-05,0.4272350428029159,-1.4434972857344836e-05
0.428029159982847,-2.8539804381561557e-06,0.428029159982847,-1.2249622263033302e-05,0.428029159982847,-1.62814e-05,0.428029159982847,-1.3931297334936806e-05
0.4288232771627781,-5.536588183126234e-06,0.4288232771627781,4.516668651358178e-06,0.4288232771627781,-1.62814e-05,0.4288232771627781,-1.2925315684737271e-05
0.4296173943427092,-5.53903e-06,0.4296173943427092,-3.518684363432766e-06,0.4296173943427092,-1.5610512138923244e-05,0.4296173943427092,-9.9054046251546e-06
0.4304115115226402,-5.53903e-06,0.4304115115226402,-3.673855398033224e-05,0.4304115115226402,-1.6280986947481914e-05,0.4304115115226402,-1.0909580421222873e-05
0.4312056287025713,-6.881192072450631e-06,0.4312056287025713,-8.776133866895077e-05,0.4312056287025713,-1.8630201118605097e-05,0.4312056287025713,-1.09102e-05
0.4319997458825024,-6.210634879707669e-06,0.4319997458825024,-0.0001394664542625,0.4319997458825024,-1.6617744639123007e-05,0.4319997458825024,-1.0574607439853836e-05
0.4327938630624334,-6.21042e-06,0.4327938630624334,-0.0001438462473607,0.4327938630624334,-1.695274210334875e-05,0.4327938630624334,-1.0238857896651252e-05
0.4335879802423645,-7.217494939654121e-06,0.4335879802423645,-6.32812048226936e-05,0.4335879802423645,-1.6617108353448627e-05,0.4335879802423645,-1.2924333172410988e-05
0.4343820974222956,-9.56773951680465e-06,0.4343820974222956,7.893234910668382e-06,0.4343820974222956,-1.6281235240984182e-05,0.4343820974222956,-1.3763167513718388e-05
0.4351762146022266,-1.225195788618856e-05,0.4351762146022266,4.3137118762345936e-05,0.4351762146022266,-1.49386e-05,0.4351762146022266,-1.0239343712962177e-05
0.4359703317821577,-8.395704882652359e-06,0.4359703317821577,4.246646432887959e-05,0.4359703317821577,-1.49386e-05,0.4359703317821577,-1.2251307013361243e-05
0.4367644489620888,-6.88286838779617e-06,0.4367644489620888,1.4286769965675384e-05,0.4367644489620888,-1.3596731906432172e-05,0.4367644489620888,-1.0911131906432172e-05
0.4375585661420199,-9.901449110279458e-06,0.4375585661420199,9.234461495617385e-06,0.4375585661420199,-1.1582700600432635e-05,0.4375585661420199,-1.2252266266378242e-05
0.438352683321951,-1.007093303495664e-05,0.438352683321951,5.876058898039966e-06,0.438352683321951,-1.2420465294434854e-05,0.438352683321951,-1.6279793317565974e-05
0.439146800501882,-7.889458265551942e-06,0.439146800501882,3.861036079488959e-06,0.439146800501882,-1.258865781393702e-05,0.439146800501882,-1.3932090429001784e-05
0.4399409176818131,-6.88192441035627e-06,0.4399409176818131,1.7287107851203275e-05,0.4399409176818131,-1.4434808584296554e-05,0.4399409176818131,-1.326016960759535e-05
0.4407350348617442,-6.5460463034143e-06,0.4407350348617442,2.265929047688664e-05,0.4407350348617442,-1.728839682416533e-05,0.4407350348617442,-1.3595829478809906e-05
0.4415291520416752,-4.867951006832064e-06,0.4415291520416752,1.5607752944525666e-05,0.4415291520416752,-1.4938471596502186e-05,0.4415291520416752,-1.4267328403497814e-05
0.4423232692216063,-6.54457710160249e-06,0.4423232692216063,3.871330325551291e-06,0.4423232692216063,-1.4267817163035876e-05,0.4423232692216063,-1.4937982836964123e-05
0.4431173864015373,-6.210679426957069e-06,0.4431173864015373,-1.3917750425370982e-05,0.4431173864015373,-1.2254556561742407e-05,0.4431173864015373,-1.49386e-05
0.4439115035814684,-6.21042e-06,0.4439115035814684,-3.120919101790693e-05,0.4439115035814684,-1.2253e-05,0.4439115035814684,-1.49386e-05
0.4447056207613995,-5.539350676327416e-06,0.4447056207613995,-4.061501051231096e-05,0.4447056207613995,-1.292407931889628e-05,0.4447056207613995,-1.594521897834442e-05
0.4454997379413306,-1.5119695648908697e-06,0.4454997379413306,-4.246529059807653e-05,0.4454997379413306,-1.29244e-05,0.4454997379413306,-1.460334318939712e-05
0.4462938551212617,-1.6784593729266622e-06,0.4462938551212617,-4.078770627073338e-05,0.4462938551212617,-1.1917483762440029e-05,0.4462938551212617,-1.3931622508293353e-05
0.4470879723011927,-2.702281582860649e-05,0.4470879723011927,-3.2395192773601793e-05,0.4470879723011927,-1.0574546843776288e-05,0.4470879723011927,-1.7624071179615207e-05
0.4478820894811238,-3.910379266538675e-05,0.4478820894811238,-3.4077750687189154e-05,0.4478820894811238,-1.0910540490326576e-05,0.4478820894811238,-2.030949734193193e-05
0.4486762066610549,6.214695980994608e-06,0.4486762066610549,-7.268607384840383e-05,0.4486762066610549,-1.3931587265554871e-05,0.4486762066610549,-1.7623240078896407e-05
0.4494703238409859,2.2645609734175036e-05,0.4494703238409859,-0.000101020874051,0.4494703238409859,-1.4266914482288026e-05,0.4494703238409859,-1.3934640694831708e-05
0.450264441020917,3.873764618274866e-06,0.450264441020917,-6.196393260625469e-05,0.450264441020917,-1.2925345336413954e-05,0.450264441020917,-1.644742752942403e-05
0.4510585582008481,1.17643432164267e-06,0.4510585582008481,-6.912453585328407e-06,0.4510585582008481,-1.6950558509189667e-05,0.4510585582008481,-1.2255334858439665e-05
0.4518526753807791,-8.38422519534079e-07,0.4518526753807791,2.5332024294556283e-05,0.4518526753807791,-1.7959488256905158e-05,0.4518526753807791,-7.555141459599126e-06
0.4526467925607102,-2.852913774593348e-06,0.4526467925607102,4.061550945850856e-05,0.4526467925607102,-2.0309186068530092e-05,0.4526467925607102,-9.566883775638382e-06
0.4534409097406413,-4.196077355964475e-06,0.4534409097406413,4.750051769917584e-05,0.4534409097406413,-2.1652447354827707e-05,0.4534409097406413,-1.10779282696341e-05
0.4542350269205724,-2.182119673027501e-06,0.4542350269205724,4.179409025125774e-05,0.4542350269205724,-2.0981143090452466e-05,0.4542350269205724,-1.0238891055276055e-05
0.4550291441005034,-4.532142967855958e-06,0.4550291441005034,2.9707292018393877e-05,0.4550291441005034,-1.930245660609309e-05,0.4550291441005034,-1.2924825939337086e-05
0.4558232612804345,-5.705778237526654e-06,0.4558232612804345,1.8641593755153226e-05,0.4558232612804345,-1.7961147739160478e-05,0.4558232612804345,-1.527211645646917e-05
0.4566173784603656,-6.210025823321265e-06,0.4566173784603656,-2.1657474109133523e-06,0.4566173784603656,-1.46055278445249e-05,0.4566173784603656,-1.2926239491167428e-05
0.4574114956402966,-5.707189861874829e-06,0.4574114956402966,-1.0904655752911511e-05,0.4574114956402966,-1.3093159617385174e-05,0.4574114956402966,-1.4937320552500684e-05
0.4582056128202277,-6.042406301952694e-06,0.4582056128202277,-2.857368733630057e-06,0.4582056128202277,-1.4266627032452831e-05,0.4582056128202277,-1.594520890585808e-05
0.4589997300001588,-6.881534612888245e-06,0.4589997300001588,-7.551621838975178e-06,0.4589997300001588,-1.3596028309689404e-05,0.4589997300001588,-1.4938942464534104e-05
0.4597938471800898,-6.88182e-06,0.4597938471800898,-4.532511502854197e-06,0.4597938471800898,-1.1581987669852587e-05,0.4597938471800898,-1.5609870776715805e-05
0.4605879643600209,-9.902964384942076e-06,0.4605879643600209,7.216992606861221e-06,0.4605879643600209,-7.721243286156718e-06,0.4605879643600209,-1.7791902057387465e-05
0.461382081539952,-9.73493249077763e-06,0.461382081539952,1.1077393265302824e-05,0.461382081539952,-5.539305796050789e-06,0.461382081539952,-1.6952868949526174e-05
0.4621761987198831,-6.545784353368762e-06,0.4621761987198831,4.192957435971856e-06,0.4621761987198831,-8.224987605272215e-06,0.4621761987198831,-1.7623528701738284e-05
0.4629703158998141,-5.204485475331584e-06,0.4629703158998141,-8.884744083248184e-06,0.4629703158998141,-9.733960080571306e-06,0.4629703158998141,-1.4940910967873234e-05
0.4637644330797452,-5.538790308401113e-06,0.4637644330797452,-1.7785648215469806e-05,0.4637644330797452,-1.3593043553752847e-05,0.4637644330797452,-1.359675876639555e-05
0.4645585502596763,-4.8680102967926135e-06,0.4645585502596763,-2.4334392134593197e-05,0.4645585502596763,-1.5273349258018466e-05,0.4645585502596763,-1.460232955481108e-05
0.4653526674396073,-5.203189394806274e-06,0.4653526674396073,-2.6015896974031367e-05,0.4653526674396073,-1.426762181558118e-05,0.4653526674396073,-1.2253984236356083e-05
0.4661467846195384,-6.210146816739304e-06,0.4661467846195384,-2.63522089380089e-05,0.4661467846195384,-1.49384178760178e-05,0.4661467846195384,-1.4266653628053404e-05
0.4669409017994695,-5.874761518788519e-06,0.4669409017994695,-2.769493392484592e-05,0.4669409017994695,-1.3595966075154074e-05,0.4669409017994695,-1.5609833924845925e-05
0.4677350189794005,-7.217560121831273e-06,0.4677350189794005,-2.90377956826172e-05,0.4677350189794005,-1.2924424073242184e-05,0.4677350189794005,-1.6281391975585937e-05
0.4685291361593316,-8.895895009590814e-06,0.4685291361593316,-2.4673914990409187e-05,0.4685291361593316,-1.3931327514386225e-05,0.4685291361593316,-1.5945182543158666e-05
0.4693232533392627,-8.225240576124553e-06,0.4693232533392627,-2.534456942387545e-05,0.4693232533392627,-1.2925345864186828e-05,0.4693232533392627,-1.2927237592560486e-05
0.4701173705191938,-5.0380083326492245e-06,0.4701173705191938,-3.725305200048897e-05,0.4701173705191938,-1.460156929026044e-05,0.4701173705191938,-1.1582664567791648e-05
0.4709114876991248,-5.874178509588824e-06,0.4709114876991248,-4.514630996174547e-05,0.4709114876991248,-1.3931933197490665e-05,0.4709114876991248,-1.4936434012546684e-05
0.4717056048790559,-6.545785888914544e-06,0.4717056048790559,-3.391109633579971e-05,0.4717056048790559,-1.1582769388799092e-05,0.4717056048790559,-1.326093527771364e-05
0.472499722058987,-5.539382533519855e-06,0.472499722058987,-4.783212325538745e-05,0.472499722058987,-9.568115070540226e-06,0.472499722058987,-1.1917770049360495e-05
0.473293839238918,-5.53903e-06,0.473293839238918,-6.260480935794808e-05,0.473293839238918,-9.56741e-06,0.473293839238918,-1.3763226179867004e-05
0.4740879564188491,-4.196303703739758e-06,0.4740879564188491,-4.6662975229165227e-05,0.4740879564188491,-1.0238763148679002e-05,0.4740879564188491,-1.628126180274355e-05
0.4748820735987802,-3.189295585411268e-06,0.4748820735987802,-2.584834880425389e-05,0.4748820735987802,-8.224734469070564e-06,0.4748820735987802,-1.5610015553999137e-05
0.4756761907787112,-4.8674688819789326e-06,0.4756761907787112,-2.097753456982017e-05,0.4756761907787112,-9.567651674631869e-06,0.4756761907787112,-1.577808196853553e-05
0.4764703079586423,-4.196814448512577e-06,0.4764703079586423,-5.720166186251266e-06,0.4764703079586423,-1.0573623335936058e-05,0.4764703079586423,-1.6951777171578378e-05
0.4772644251385734,-1.8480413364202613e-06,0.4772644251385734,4.276647953619014e-05,0.4772644251385734,-1.3258155607245338e-05,0.4772644251385734,-1.460460134366033e-05
0.4780585423185045,-4.530381958630232e-06,0.4780585423185045,8.239116642005823e-05,0.4780585423185045,-1.4937632470541236e-05,0.4780585423185045,-1.4938406494108247e-05
0.4788526594984356,-6.880812265464557e-06,0.4788526594984356,2.5705229608693477e-05,0.4788526594984356,-1.7623048298487e-05,0.4788526594984356,-1.2254151701513e-05
0.4796467766783666,-7.888626744352981e-06,0.4796467766783666,-9.043803102641248e-05,0.4796467766783666,-2.131586138564801e-05,0.4796467766783666,-8.896954192052832e-06
0.4804408938582977,-4.700206322024065e-06,0.4804408938582977,-8.207942189373113e-05,0.4804408938582977,-1.8631659010271712e-05,0.4804408938582977,-9.567320247432072e-06
0.4812350110382288,-1.6784970003779597e-06,0.4812350110382288,3.0717464057449854e-05,0.4812350110382288,-1.728849066616272e-05,0.4812350110382288,-1.22530233345932e-05
0.4820291282181598,-2.1825002048126936e-06,0.4820291282181598,0.0001072585987159,0.4820291282181598,-1.6617262425797236e-05,0.4820291282181598,-1.393090443874347e-05
0.4828232453980909,-5.0327715581491615e-06,0.4828232453980909,0.0001233537057854,0.4828232453980909,-1.76232440759967e-05,0.4828232453980909,-1.0242305054678767e-05
0.483617362578022,-6.377192010254649e-06,0.483617362578022,0.0001019012481249,0.483617362578022,-1.6282477997773335e-05,0.483617362578022,-1.124509150167e-05
0.484411479757953,-7.216970109398115e-06,0.484411479757953,6.431093464031272e-05,0.484411479757953,-1.6952360087518495e-05,0.484411479757953,-1.292330021879623e-05
0.4852055969378841,-7.553049586961827e-06,0.4852055969378841,1.2950473093313515e-05,0.4852055969378841,-1.7623859173923654e-05,0.4852055969378841,-1.4266518347847306e-05
0.4859997141178152,-6.210903479342277e-06,0.4859997141178152,-2.0633413052448372e-05,0.4859997141178152,-1.661746260950671e-05,0.4859997141178152,-1.2253725219013416e-05
0.4867938312977463,-4.196657957673079e-06,0.4867938312977463,-4.330028548414554e-05,0.4867938312977463,-1.712049302067412e-05,0.4867938312977463,-1.3595514693468138e-05
0.4875879484776773,-2.1821706999334144e-06,0.4875879484776773,-5.807484153555202e-05,0.4875879484776773,-1.4938741589053024e-05,0.4875879484776773,-1.628122573255692e-05
0.4883820656576084,-4.196452077350829e-06,0.4883820656576084,-5.471880283666263e-05,0.4883820656576084,-1.4938488960911125e-05,0.4883820656576084,-1.7624061201138906e-05
0.4891761828375395,-6.883364110167843e-06,0.4891761828375395,-5.355231537948617e-05,0.4891761828375395,-1.35958e-05,0.4891761828375395,-1.5944619119662728e-05
0.4899703000174705,-1.3589888467040242e-05,0.4899703000174705,-9.010278222549312e-05,0.4899703000174705,-1.35958e-05,0.4899703000174705,-1.1250038085398566e-05
0.4907644171974016,-1.527306796705111e-05,0.4907644171974016,-0.0001414592998651,0.4907644171974016,-1.443438402022597e-05,0.4907644171974016,-9.568642025608808e-06
0.4915585343773327,-2.90298286597685e-05,0.4915585343773327,-0.0001102953082363,0.4915585343773327,-1.6280317222049213e-05,0.4915585343773327,-8.896403726774348e-06
0.4923526515572637,-3.239342679815429e-05,0.4923526515572637,-3.041576207227436e-05,0.4923526515572637,-1.8630268758708007e-05,0.4923526515572637,-8.224904640369142e-06
0.4931467687371948,1.526041572680999e-05,0.4931467687371948,2.130184240302612e-05,0.4931467687371948,-1.9638106669054036e-05,0.4931467687371948,-7.55341555105135e-06
0.4939408859171259,4.246199307823783e-05,0.4939408859171259,1.9974292935117544e-05,0.4939408859171259,-1.896709646755877e-05,0.4939408859171259,-1.1581021197520987e-05
0.494735003097057,-1.6952813748748757e-05,0.494735003097057,-2.1820583318470355e-06,0.494735003097057,-1.762418428692139e-05,0.494735003097057,-1.3595792143460694e-05
0.495529120276988,-2.047193708707801e-05,0.495529120276988,-6.882073941788237e-06,0.495529120276988,-1.3595749211339769e-05,0.495529120276988,-1.158170157732046e-05
0.4963232374569191,1.6916897745241158e-05,0.4963232374569191,-8.558700036558782e-06,0.4963232374569191,-1.3260421994606592e-05,0.4963232374569191,-1.2252356010786817e-05
0.4971173546368502,5.212879968473287e-06,0.4971173546368502,-8.22488285693878e-06,0.4971173546368502,-1.1582964284693898e-05,0.4971173546368502,-1.4936417144489765e-05
0.4979114718167812,-3.5190238694675475e-06,0.4979114718167812,-3.5279563790024253e-06,0.4979114718167812,-1.15816e-05,0.4979114718167812,-1.5609553372527603e-05
0.4987055889967123,-1.8472088474916125e-06,0.4987055889967123,-4.866934917865619e-06,0.4987055889967123,-1.091054754106719e-05,0.4987055889967123,-1.829420983573124e-05
0.4994997061766434,-2.853067318007026e-06,0.4994997061766434,-8.391155620425683e-06,0.4994997061766434,-1.2420240995513269e-05,0.4994997061766434,-1.8966751545338015e-05
0.5002938233565745,-1.846564052385233e-06,0.5002938233565745,-1.4937143661720716e-05,0.5002938233565745,-1.4266789226170098e-05,0.5002938233565745,-1.6953248104770468e-05
0.5010879405365055,-1.5106651409258072e-06,0.5010879405365055,-1.8966698308890317e-05,0.5010879405365055,-1.1749588560688103e-05,0.5010879405365055,-1.8295499436296773e-05
0.5018820577164366,-4.196596032697434e-06,0.5018820577164366,-2.098106578384334e-05,0.5018820577164366,-8.89601e-06,0.5018820577164366,-1.96383511954465e-05
0.5026761748963677,-9.231931555198704e-06,0.5026761748963677,-1.9133359887908497e-05,0.5026761748963677,-8.896157704932439e-06,0.5026761748963677,-1.896692614753378e-05
0.5034702920762988,-1.023790321650282e-05,0.5034702920762988,-1.259452910608871e-05,0.5034702920762988,-9.566812138398749e-06,0.5034702920762988,-1.8631598930800624e-05
0.5042644092562298,-1.2251501415488938e-05,0.5042644092562298,-1.158234929225553e-05,0.5042644092562298,-1.0573750715184568e-05,0.5042644092562298,-1.6283148348596238e-05
0.5050585264361609,-1.2253e-05,0.5050585264361609,-8.5621119819793e-06,0.5050585264361609,-1.359399801205642e-05,0.5050585264361609,-1.493940088353048e-05
0.505852643616092,-9.568615416951666e-06,0.505852643616092,-6.379249400431642e-06,0.505852643616092,-1.5776820617522207e-05,0.505852643616092,-1.3596402710720063e-05
0.506646760796023,-8.560613403432238e-06,0.506646760796023,-7.552866029329057e-06,0.506646760796023,-1.5610050552175484e-05,0.506646760796023,-1.4602596596567763e-05
0.507440877975954,-8.895958408725145e-06,0.507440877975954,-9.567100453887696e-06,0.507440877975954,-1.4603054773824566e-05,0.507440877975954,-1.5609845226175436e-05
0.5082349951558852,-7.721077168191705e-06,0.5082349951558852,-1.3931473375122352e-05,0.5082349951558852,-1.4435001024341148e-05,0.5082349951558852,-1.091022867301086e-05
0.5090291123358163,-6.546309740139359e-06,0.5090291123358163,-1.3595847435388096e-05,0.5090291123358163,-1.661662564611903e-05,0.5090291123358163,-1.0238705130636834e-05
0.5098232295157473,-7.887608618176447e-06,0.5098232295157473,-1.3931174652121203e-05,0.5098232295157473,-1.3263353478787952e-05,0.5098232295157473,-9.568060686065963e-06
0.5106173466956784,-8.450464734978774e-07,0.5106173466956784,-1.8292009212355075e-05,0.5106173466956784,-1.4434033290620282e-05,0.5106173466956784,-1.2921637863885762e-05
0.5114114638756094,3.521883290194196e-06,0.5114114638756094,-1.6618233356158106e-05,0.5114114638756094,-1.4435e-05,0.5114114638756094,-1.560818663014703e-05
0.5122055810555405,-2.179028839335044e-06,0.5122055810555405,-1.1584256920435962e-05,0.5122055810555405,-1.258967417777796e-05,0.5122055810555405,-1.2925817024232514e-05
0.5129996982354716,-5.20218174036284e-06,0.5129996982354716,-9.56817550515792e-06,0.5129996982354716,-1.2924272415173586e-05,0.5129996982354716,-1.1582110339305652e-05
0.5137938154154027,-6.881429794205695e-06,0.5137938154154027,-1.1581131752581884e-05,0.5137938154154027,-1.1581912166495237e-05,0.5137938154154027,-1.2924087833504762e-05
0.5145879325953338,-5.874805495263758e-06,0.5145879325953338,-1.15816e-05,0.5145879325953338,-1.2252943003157497e-05,0.5145879325953338,-1.29244e-05
0.5153820497752648,-7.553304178498513e-06,0.5153820497752648,-1.2252978955218647e-05,0.5153820497752648,-1.460284738491216e-05,0.5153820497752648,-1.4938515820874597e-05
0.5161761669551959,-8.895023015483595e-06,0.5161761669551959,-1.1917370499194038e-05,0.5161761669551959,-1.37636e-05,0.5161761669551959,-1.3595659001611924e-05
0.5169702841351269,-4.200461959010122e-06,0.5169702841351269,-1.2252697715927193e-05,0.5169702841351269,-1.37636e-05,0.5169702841351269,-1.2925004568145616e-05
0.5177644013150581,-5.873454399637001e-06,0.5177644013150581,-3.5398734686338176e-05,0.5177644013150581,-1.2254139009412235e-05,0.5177644013150581,-1.4937081270516265e-05
0.5185585184949891,-3.861751464203817e-06,0.5185585184949891,-5.420389967147391e-05,0.5185585184949891,-9.90452504864613e-06,0.5185585184949891,-1.762257137297585e-05
0.5193526356749202,-5.202713859298342e-06,0.5193526356749202,-4.180019925560557e-05,0.5193526356749202,-1.1580829824122926e-05,0.5193526356749202,-1.6617562105526245e-05
0.5201467528548512,-2.8541714406973443e-06,0.5201467528548512,-2.232996053442575e-05,0.5201467528548512,-1.0910408983945716e-05,0.5201467528548512,-1.8295077540135717e-05
0.5209408700347823,-7.216805669260383e-06,0.5209408700347823,-8.427626973983574e-07,0.5209408700347823,-1.191713515368924e-05,0.5209408700347823,-2.047724284117756e-05
0.5217349872147133,-8.224593783458075e-06,0.5217349872147133,1.7959597289081132e-05,0.5217349872147133,-1.359577297216175e-05,0.5217349872147133,-1.4938689191061103e-05
0.5225291043946444,-8.560265917884132e-06,0.5225291043946444,3.8437764492695214e-05,0.5225291043946444,-1.2252691425188914e-05,0.5225291043946444,-1.1917520410579348e-05
0.5233232215745756,-8.22493870115093e-06,0.5233232215745756,4.0449727793094425e-05,0.5233232215745756,-9.905400908056504e-06,0.5233232215745756,-1.3594156494245352e-05
0.5241173387545066,-6.8829382793904655e-06,0.5241173387545066,2.77057237333257e-05,0.5241173387545066,-1.3089544108308718e-05,0.5241173387545066,-1.2254118287718494e-05
0.5249114559344377,-6.88182e-06,0.5249114559344377,1.528281099437936e-05,0.5249114559344377,-1.5943744721558875e-05,0.5249114559344377,-9.904710201089466e-06
0.5257055731143687,-5.875261456573389e-06,0.5257055731143687,9.234958734063938e-06,0.5257055731143687,-1.5610180485524463e-05,0.5257055731143687,-1.0238619514475536e-05
0.5264996902942998,-5.87472e-06,0.5264996902942998,9.56727905767814e-06,0.5264996902942998,-1.7623414346068846e-05,0.5264996902942998,-1.359449057678141e-05
0.5272938074742308,-5.203492795813847e-06,0.5272938074742308,8.560554197357906e-06,0.5272938074742308,-1.6952962798238606e-05,0.5272938074742308,-1.4938274403522792e-05
0.528087924654162,-4.531993711833302e-06,0.528087924654162,-8.558685355842314e-06,0.528087924654162,-1.5610127423666607e-05,0.528087924654162,-1.56099362881667e-05
0.528882041834093,-2.85344e-06,0.528882041834093,-4.917969387628428e-05,0.528882041834093,-1.3595729250856189e-05,0.528882041834093,-1.5106329250856187e-05
0.5296761590140241,-2.8537085816872533e-06,0.5296761590140241,-4.715848257228663e-05,0.5296761590140241,-1.225326858368743e-05,0.5296761590140241,-1.3763835020727383e-05
0.5304702761939551,-4.195007459724527e-06,0.5304702761939551,-1.1613997376479156e-05,0.5304702761939551,-1.3594577450620048e-05,0.5304702761939551,-1.493753022377015e-05
0.5312643933738862,-6.544324654107651e-06,0.5312643933738862,1.558922527123977e-05,0.5312643933738862,-1.5608461125543593e-05,0.5312643933738862,-1.2925938874456406e-05
0.5320585105538173,-8.223575326796989e-06,0.5320585105538173,2.668117117781878e-05,0.5320585105538173,-1.2758258985745991e-05,0.5320585105538173,-1.4266372256506143e-05
0.5328526277337483,-7.553534780653322e-06,0.5328526277337483,1.9641705199204133e-05,0.5328526277337483,-1.1582150850905716e-05,0.5328526277337483,-1.42672e-05
0.5336467449136795,-8.89557860533965e-06,0.5336467449136795,-2.1750298038393844e-06,0.5336467449136795,-1.3930745053722206e-05,0.5336467449136795,-1.5609568602126977e-05
0.5344408620936105,-7.21781152959164e-06,0.5344408620936105,-1.896408469366246e-05,0.5344408620936105,-1.6280991856140104e-05,0.5344408620936105,-1.3763920693145628e-05
0.5352349792735416,-5.539073815054438e-06,0.5352349792735416,-3.50800793755818e-05,0.5352349792735416,-1.7791960567521262e-05,0.5352349792735416,-1.37636e-05
0.5360290964534726,-6.881494170463367e-06,0.5360290964534726,-8.27529175786551e-05,0.5360290964534726,-1.762405744298067e-05,0.5360290964534726,-1.225293890066814e-05
0.5368232136334037,-4.198886425493477e-06,0.5368232136334037,-0.0001092437677005,0.5368232136334037,-1.6450362239937905e-05,0.5368232136334037,-1.1749898131091685e-05
0.5376173308133347,-2.8545717092724205e-06,0.5376173308133347,-6.398879538811023e-05,0.5376173308133347,-1.527529021084769e-05,0.5376173308133347,-1.2252575563722107e-05
0.5384114479932659,-5.201696303394969e-06,0.5384114479932659,-5.455753481422903e-05,0.5384114479932659,-1.4435583500317293e-05,0.5384114479932659,-1.158206677244493e-05
0.539205565173197,-8.222955423774062e-06,0.539205565173197,-0.0001169568053078,0.539205565173197,-1.5609356522048445e-05,0.539205565173197,-1.0910567686039724e-05
0.539999682353128,-5.540104390537255e-06,0.539999682353128,-0.0001096089544359,0.539999682353128,-1.4603302899451912e-05,0.539999682353128,-1.09102e-05
0.5407937995330591,-4.196569026458802e-06,0.5407937995330591,-3.3756855020170056e-05,0.5407937995330591,-1.829466767723829e-05,0.5407937995330591,-9.73555664562668e-06
0.5415879167129901,-4.19623e-06,0.5415879167129901,6.628990645564293e-05,0.5415879167129901,-2.030958871952742e-05,0.5415879167129901,-1.2252735900458229e-05
0.5423820338929212,-3.5248013408459427e-06,0.5423820338929212,0.0001183321514527,0.5423820338929212,-1.628134268083816e-05,0.5423820338929212,-1.2420850156400924e-05
0.5431761510728523,-2.853089142326808e-06,0.5431761510728523,7.501322604362755e-05,0.5431761510728523,-1.4938472414700552e-05,0.5431761510728523,-1.3595544829401104e-05
0.5439702682527834,-1.008799439189803e-06,0.5439702682527834,-5.800253611039577e-06,0.5439702682527834,-1.4267817981234244e-05,0.5439702682527834,-1.2254235962468487e-05
0.5447643854327144,-1.6849859220279793e-07,0.5447643854327144,-5.518420419427065e-05,0.5447643854327144,-1.4938080326856972e-05,0.5447643854327144,-1.1917559836571511e-05
0.5455585026126455,8.386151230254335e-07,0.5455585026126455,-7.06548265676734e-05,0.5455585026126455,-1.2254682346951275e-05,0.5455585026126455,-1.3259258826524362e-05
0.5463526197925765,3.359391242917573e-07,0.5463526197925765,-6.630248975216198e-05,0.5463526197925765,-1.1749641149191991e-05,0.5463526197925765,-1.627995324850325e-05
0.5471467369725076,-1.6768219054818358e-07,0.5471467369725076,-2.5388692104808355e-06,0.5471467369725076,-1.393077713817219e-05,0.5471467369725076,-1.56102224139275e-05
0.5479408541524387,-4.1954900383563175e-06,0.5479408541524387,6.695913564920166e-05,0.5479408541524387,-1.124639331008916e-05,0.5479408541524387,-1.628127667247771e-05
0.5487349713323698,-8.392308493740932e-06,0.5487349713323698,0.0001092684728132,0.5487349713323698,-9.567470602431415e-06,0.5487349713323698,-1.7288463638324518e-05
0.5495290885123009,-9.9029878743987e-06,0.5495290885123009,9.885931296282556e-05,0.5495290885123009,-9.73546556453019e-06,0.5495290885123009,-1.493852524885689e-05
0.5503232056922319,-8.89701621309458e-06,0.5503232056922319,6.39854822004844e-05,0.5503232056922319,-1.1579755267667193e-05,0.5503232056922319,-1.426787081539058e-05
0.551117322872163,-7.554365139154001e-06,0.551117322872163,4.751532805910522e-05,0.551117322872163,-1.4935737130794851e-05,0.551117322872163,-1.3931786286920516e-05
0.551911440052094,-5.70817209044851e-06,0.551911440052094,3.6431112472168654e-05,0.551911440052094,-1.5609526512564178e-05,0.551911440052094,-1.5608816281410446e-05
0.5527055572320251,-4.532585196227315e-06,0.5527055572320251,2.031878556897276e-05,0.5527055572320251,-1.393243600257677e-05,0.5527055572320251,-1.6448732026593732e-05
0.5534996744119562,-5.874169374849793e-06,0.5534996744119562,-5.025086901595156e-06,0.5534996744119562,-1.3260375314625409e-05,0.5534996744119562,-1.6952593493527923e-05
0.5542937915918873,-5.7069140570550495e-06,0.5542937915918873,-2.9702823647029948e-05,0.5542937915918873,-1.2421020298399184e-05,0.5542937915918873,-1.5945964342330298e-05
0.5550879087718184,-4.364234282481199e-06,0.5550879087718184,-4.24644343055134e-05,0.5550879087718184,-1.0406931413955555e-05,0.5550879087718184,-1.7624007145462288e-05
0.5558820259517494,-3.524873889180247e-06,0.5558820259517494,-4.4815930418196295e-05,0.5558820259517494,-1.2924378055409876e-05,0.5558820259517494,-1.5274256110819753e-05
0.5566761431316805,-4.86763e-06,0.5566761431316805,-5.186691098443857e-05,0.5566761431316805,-1.2253060439377542e-05,0.5566761431316805,-1.3931681318132628e-05
0.5574702603116115,-4.86763e-06,0.5574702603116115,-6.025009140276626e-05,0.5574702603116115,-1.2588387656110653e-05,0.5574702603116115,-1.493766296833195e-05
0.5582643774915427,-5.538503611866176e-06,0.5582643774915427,-6.193508402966544e-05,0.5582643774915427,-1.3259573611866176e-05,0.5582643774915427,-1.695122083559853e-05
0.5590584946714737,-5.53903e-06,0.5590584946714737,-5.656861841382893e-05,0.5590584946714737,-1.2589127301728616e-05,0.5590584946714737,-1.6281827301728617e-05
0.5598526118514048,-1.2920789646107035e-05,0.5598526118514048,-5.9920558923382487e-05,0.5598526118514048,-1.309195386294998e-05,0.5598526118514048,-1.3597112861294007e-05
0.5606467290313358,-4.312698923280377e-05,0.5606467290313358,-5.958661456445915e-05,0.5606467290313358,-1.2588871829625204e-05,0.5606467290313358,-1.225345825783659e-05
0.5614408462112669,-4.414420493623037e-05,0.5614408462112669,-5.8243960085026174e-05,0.5614408462112669,-1.4938144851204195e-05,0.5614408462112669,-1.426680987246074e-05
0.5622349633911979,9.900608042529538e-06,0.5622349633911979,-5.690096191221595e-05,0.5622349633911979,-1.4602915478053987e-05,0.5622349633911979,-9.73546895326775e-06
0.563029080571129,1.3258671068899054e-05,0.563029080571129,-4.279979681813319e-05,0.563029080571129,-1.493870206689812e-05,0.563029080571129,-7.88908011149687e-06
0.5638231977510602,-8.250180938605432e-07,0.5638231977510602,-2.502745433127351e-05,0.5638231977510602,-1.5944683717097724e-05,0.5638231977510602,-9.565716195162875e-06
0.5646173149309912,8.37797784822892e-07,0.5646173149309912,-1.964303422437388e-05,0.5646173149309912,-1.493946893324774e-05,0.5646173149309912,-9.90281036421216e-06
0.5654114321109223,5.87111850039552e-06,0.5654114321109223,-1.4941961416986988e-05,0.5654114321109223,-1.6951359392719863e-05,0.5654114321109223,-1.1077259609991976e-05
0.5662055492908533,3.861673342388077e-06,0.5662055492908533,-5.544365607271759e-06,0.5662055492908533,-1.7959328325967744e-05,0.5662055492908533,-1.0239276423409068e-05
0.5669996664707844,5.0495814052037e-07,0.5669996664707844,-6.210137974584323e-06,0.5669996664707844,-1.8966576955575557e-05,0.5669996664707844,-1.02388e-05
0.5677937836507154,-4.866166460305099e-06,0.5677937836507154,-1.2251353516548956e-05,0.5677937836507154,-1.7624565886422366e-05,0.5677937836507154,-1.225245117036645e-05
