X [s].2,L DELTOID ANTERIOR: EMG 3 [V],X [s].3,L BICEPS BRACHII: EMG 4 [V],X [s].4,L DELTOID POSTERIOR: EMG 5 [V],X [s].7,L DELTOID MEDIUS: EMG 8 [V]
0.0,1.17494e-06,0.0,-1.76242e-05,0.0,5.20333e-06,0.0,-1.82956e-05
0.000794117179931,-1.846336879987791e-06,0.000794117179931,-1.8295599306659366e-05,0.000794117179931,-1.5106330666246206e-06,0.000794117179931,-1.82956e-05
0.0015882343598621,-5.706842581138152e-06,0.0015882343598621,-8.896076759242809e-06,0.0015882343598621,-8.224562314988905e-06,0.0015882343598621,-1.628141430556725e-05
0.0023823515397932,-7.04967e-06,0.0023823515397932,2.1988340356845382e-05,0.0023823515397932,-1.023880781103986e-05,0.0023823515397932,-1.29244e-05
0.0031764687197242,-7.04967e-06,0.0031764687197242,4.28015664449169e-05,0.0031764687197242,-1.4267193505436585e-05,0.0031764687197242,-1.29244e-05
0.0039705858996553,-9.56739699994745e-06,0.0039705858996553,4.6494180933696864e-05,0.0039705858996553,-1.493859653330555e-05,0.0039705858996553,-1.359579653330555e-05
0.0047647030795864,-1.393146196883634e-05,0.0047647030795864,4.145884388134101e-05,0.0047647030795864,-1.3931508776442494e-05,0.0047647030795864,-1.4267194149038335e-05
0.0055588202595174,1.846345046479965e-06,0.0055588202595174,2.836649374677284e-05,0.0055588202595174,-1.4938599670880887e-05,0.0055588202595174,-1.560999912234904e-05
0.0063529374394485,1.7288450208476115e-05,0.0063529374394485,9.231771697997774e-06,0.0063529374394485,-1.3931503247281708e-05,0.0063529374394485,-1.2924408659417888e-05
0.0071470546193796,5.203411883987077e-06,0.0071470546193796,-9.567282625134848e-06,0.0071470546193796,-1.1245918196486744e-05,0.0071470546193796,-1.4602888627195786e-05
0.0079411717993107,-3.524739866357386e-06,0.0079411717993107,-2.5009340533191276e-05,0.0079411717993107,-9.23173080006343e-06,0.0079411717993107,-1.7959865333055508e-05
0.0087352889792417,-6.88181568488604e-06,0.0087352889792417,-3.508048705461956e-05,0.0087352889792417,-1.1581596979424084e-05,0.0087352889792417,-1.8966998705461955e-05
0.0095294061591728,-8.224603505484949e-06,0.0095294061591728,-4.5151351291258034e-05,0.0095294061591728,-1.225299675271829e-05,0.0095294061591728,-1.6281412989126833e-05
0.0103235233391039,-1.0238780267421005e-05,0.0103235233391039,-5.270473453105804e-05,0.0103235233391039,-1.1581570400690647e-05,0.0103235233391039,-1.728852959930935e-05
0.0111176405190349,-9.56731580217192e-06,0.0111176405190349,-5.38796e-05,0.0111176405190349,-1.057463701576475e-05,0.0111176405190349,-1.8295531492117627e-05
0.011911757698966,-7.721168340582985e-06,0.011911757698966,-5.38796e-05,0.011911757698966,-1.3259956958377296e-05,0.011911757698966,-1.6952871520811352e-05
0.0127058748788971,-4.86772026767381e-06,0.0127058748788971,-5.723649380236452e-05,0.0127058748788971,-1.493854690118226e-05,0.0127058748788971,-1.191745929645322e-05
0.0134999920588282,-3.860540071217882e-06,0.0134999920588282,-4.4815824211687206e-05,0.0134999920588282,-1.3931510071217882e-05,0.0134999920588282,-1.1581603357072628e-05
0.0142941092387592,-4.86763e-06,0.0142941092387592,-2.4337953539895705e-05,0.0142941092387592,-1.510641367024574e-05,0.0142941092387592,-1.527428828314512e-05
0.0150882264186903,-4.867562998914759e-06,0.0150882264186903,-1.174901474514034e-05,0.0150882264186903,-1.628141116690298e-05,0.0150882264186903,-1.4267177666194035e-05
0.0158823435986214,-2.8535830409125395e-06,0.0158823435986214,-1.6867148229991265e-07,0.0158823435986214,-1.661707615972955e-05,0.0158823435986214,-1.35958476805409e-05
0.0166764607785524,-3.1891234194182954e-06,0.0166764607785524,1.2588069940414178e-05,0.0166764607785524,-1.7624150258254887e-05,0.0166764607785524,-1.1581699483490223e-05
0.0174705779584835,-7.720944209029562e-06,0.0174705779584835,2.333070183027061e-05,0.0174705779584835,-2.0309725456873737e-05,0.0174705779584835,-1.1078113975448343e-05
0.0182646951384146,-5.539043358737879e-06,0.0182646951384146,2.6687979448001382e-05,0.0182646951384146,-1.7288518496798754e-05,0.0182646951384146,-8.896023359043985e-06
0.0190588123183456,-6.88184082980911e-06,0.0190588123183456,2.601645939929265e-05,0.0190588123183456,-1.5609984377526827e-05,0.0190588123183456,-8.224646452282285e-06
0.0198529294982767,-8.224560125924127e-06,0.0198529294982767,1.695243841099996e-05,0.0198529294982767,-1.46029e-05,0.0198529294982767,-1.0574437657312303e-05
0.0206470466782078,-6.8819101535750464e-06,0.0206470466782078,7.218173616943887e-06,0.0206470466782078,-1.46029e-05,0.0206470466782078,-8.896122692136657e-06
0.0214411638581389,-7.21750472129106e-06,0.0214411638581389,-2.517296919261257e-06,0.0214411638581389,-1.6281323606455298e-05,0.0214411638581389,-1.0910108328201488e-05
0.0222352810380699,-8.224585952184728e-06,0.0222352810380699,-3.205849459375735e-05,0.0222352810380699,-1.5274324048054056e-05,0.0222352810380699,-1.4267119839819813e-05
0.023029398218001,-1.0238795480059855e-05,0.023029398218001,-5.925073898072953e-05,0.023029398218001,-1.52743e-05,0.023029398218001,-1.510639811679446e-05
0.0238235153979321,-1.0910226037455293e-05,0.0238235153979321,-6.999306094381707e-05,0.0238235153979321,-1.2252921887828033e-05,0.0238235153979321,-1.2252986981272354e-05
0.0246176325778631,-1.2252958689038004e-05,0.0246176325778631,-6.797742658389277e-05,0.0246176325778631,-8.224692621513794e-06,0.0246176325778631,-1.1581641310961997e-05
0.0254117497577942,-1.1245963710558298e-05,0.0254117497577942,-3.206147233059368e-05,0.0254117497577942,-1.0238672579516016e-05,0.0254117497577942,-1.2588636289441702e-05
0.0262058669377253,-9.735322895346444e-06,0.0262058669377253,1.5104436264926025e-05,0.0262058669377253,-1.0910172046327648e-05,0.0262058669377253,-1.25887e-05
0.0269999841176564,-5.8747972124704215e-06,0.0269999841176564,6.36139298090108e-05,0.0269999841176564,-1.3595746286837963e-05,0.0269999841176564,-1.1245926856581016e-05
0.0277941012975874,-1.0070912233020084e-06,0.0277941012975874,9.98703049375646e-05,0.0277941012975874,-1.5610003291274003e-05,0.0277941012975874,-9.567408902908666e-06
0.0285882184775185,4.364052664346974e-06,0.0285882184775185,0.000102891285356,0.0285882184775185,-1.7624176569240846e-05,0.0285882184775185,-8.896025620506104e-06
0.0293823356574496,3.1892351884111727e-06,0.0293823356574496,7.217768853846861e-05,0.0293823356574496,-1.661718159076114e-05,0.0293823356574496,-9.567355606159242e-06
0.0301764528373806,-7.552581997437042e-06,0.0301764528373806,3.239726260312959e-05,0.0301764528373806,-1.2924619314197646e-05,0.0301764528373806,-1.4266920873433272e-05
0.0309705700173117,-5.874783374817058e-06,0.0309705700173117,-9.901502962161502e-06,0.0309705700173117,-1.326008732503659e-05,0.0309705700173117,-2.11487401651379e-05
0.0317646871972428,7.217308922340282e-06,0.0317646871972428,-4.011551289708825e-05,0.0317646871972428,-7.721159302173614e-06,0.0317646871972428,-2.6352216110582545e-05
0.0325588043771738,5.874684842226194e-06,0.0325588043771738,-5.052261295292902e-05,0.0325588043771738,-1.6786380329784116e-07,0.0325588043771738,-2.937357964539725e-05
0.0333529215571049,-5.037393504398162e-07,0.0333529215571049,-5.287252733588569e-05,0.0333529215571049,-2.8536040144998405e-06,0.0333529215571049,-2.5680731430062078e-05
0.034147038737036,-7.5526762027175695e-06,0.034147038737036,-5.387952231436539e-05,0.034147038737036,-8.89554388850646e-06,0.034147038737036,-1.9470979057556552e-05
0.0349411559169671,-1.0238650914857736e-05,0.0349411559169671,-5.119414908625253e-05,0.0349411559169671,-1.2252813642739474e-05,0.0349411559169671,-1.8295665222459823e-05
0.0357352730968981,-5.53918922225268e-06,0.0357352730968981,-6.260741331491804e-05,0.0357352730968981,-1.4267131761456124e-05,0.0357352730968981,-1.2924581969450333e-05
0.0365293902768292,-6.210411779322997e-06,0.0365293902768292,-8.274945337724104e-05,0.0365293902768292,-2.232380135163108e-05,0.0365293902768292,-2.853563311501917e-06
0.0373235074567603,5.036047409785674e-07,0.0373235074567603,-8.761731103348869e-05,0.0373235074567603,-2.534519369541761e-05,0.0373235074567603,-6.8818641318889125e-06
0.0381176246366913,6.545942968404016e-06,0.0381176246366913,-8.879196676253642e-05,0.0381176246366913,-2.467374793164632e-05,0.0381176246366913,-1.158166248202442e-05
0.0389117418166224,8.396640876410884e-07,0.0389117418166224,-7.805068699208632e-05,0.0389117418166224,-2.2995422967513488e-05,0.0389117418166224,-1.3595652438983817e-05
0.0397058589965535,-2.8532493277260584e-06,0.0397058589965535,-5.723767469718227e-05,0.0397058589965535,-1.8967208001742125e-05,0.0397058589965535,-1.4267165332182394e-05
0.0404999761764846,-1.6792956947305913e-07,0.0404999761764846,-3.3067025124687514e-05,0.0404999761764846,-1.9638379857564237e-05,0.0404999761764846,-1.091030071217883e-05
0.0412940933564156,-4.196196297835436e-06,0.0412940933564156,3.86022106345663e-06,0.0412940933564156,-2.030979438294608e-05,0.0412940933564156,-1.124589719147304e-05
0.0420882105363467,-8.896094618326675e-06,0.0420882105363467,2.517741113334448e-05,0.0420882105363467,-1.6952746556762522e-05,0.0420882105363467,-1.393151336080937e-05
0.0428823277162778,-1.5273719483074295e-05,0.0428823277162778,2.601652362062496e-05,0.0428823277162778,-1.2924766642843696e-05,0.0428823277162778,-1.4938508339289075e-05
0.0436764448962088,-1.460294658945392e-05,0.0436764448962088,2.93733670527304e-05,0.0436764448962088,-1.0238986357815682e-05,0.0436764448962088,-1.426724658945392e-05
0.0444705620761399,-1.3595848096108111e-05,0.0444705620761399,3.121991182141395e-05,0.0444705620761399,-1.02388e-05,0.0444705620761399,-1.560993587185585e-05
0.045264679256071,-6.881995386379896e-06,0.045264679256071,3.122e-05,0.045264679256071,-1.2252947383929296e-05,0.045264679256071,-1.4938617538690236e-05
0.046058796436002,-5.874724519962584e-06,0.046058796436002,3.273059322028053e-05,0.046058796436002,-1.3763593220280527e-05,0.046058796436002,-1.6281393973383223e-05
0.0468529136159331,-5.539006978752146e-06,0.0468529136159331,3.138781151062393e-05,0.0468529136159331,-1.292436546812822e-05,0.0468529136159331,-1.6281425898046626e-05
0.0476470307958642,-4.196347007445859e-06,0.0476470307958642,3.205914149627707e-05,0.0476470307958642,-1.091037551116879e-05,0.0476470307958642,-1.7791868370980252e-05
0.0484411479757953,-1.007308930804579e-06,0.0484411479757953,3.0045131957125166e-05,0.0484411479757953,-1.2924268042874833e-05,0.0484411479757953,-1.913471202858322e-05
0.0492352651557263,-4.867460603999922e-06,0.0492352651557263,2.232423879375532e-05,0.0492352651557263,-1.4938511619020353e-05,0.0492352651557263,-1.7288581013704062e-05
0.0500293823356574,-8.895920390776635e-06,0.0500293823356574,8.896308696447291e-06,0.0500293823356574,-1.49386e-05,0.0500293823356574,-1.577783360473782e-05
0.0508234995155885,-1.1917298156973216e-05,0.0508234995155885,-6.881810375315411e-06,0.0508234995155885,-1.326010102390716e-05,0.0508234995155885,-1.5106400409562864e-05
0.0516176166955195,-1.1581589415519875e-05,0.0516176166955195,-2.265981876764509e-05,0.0516176166955195,-1.393152822808324e-05,0.0516176166955195,-1.1917264714895952e-05
0.0524117338754506,-1.1078141921065972e-05,0.0524117338754506,-3.306543354526864e-05,0.0524117338754506,-1.5274188199389503e-05,0.0524117338754506,-1.0238939750763122e-05
0.0532058510553817,-9.567503111881842e-06,0.0532058510553817,-3.9108527562334285e-05,0.0532058510553817,-1.4267262072944286e-05,0.0532058510553817,-1.1581517236074283e-05
0.0539999682353128,-6.881927425924061e-06,0.0539999682353128,-4.5990424722044615e-05,0.0539999682353128,-1.5609946286837967e-05,0.0539999682353128,-5.539271708029133e-06
0.0547940854152438,-8.895973006586149e-06,0.0547940854152438,-5.203318901920745e-05,0.0547940854152438,-1.3092246242915214e-05,0.0547940854152438,-8.22456067557064e-06
0.0555882025951749,-7.2175265816864996e-06,0.0555882025951749,-4.867627531871648e-05,0.0555882025951749,-1.2253e-05,0.0555882025951749,-1.258870329085959e-05
0.056382319775106,-9.231506539688724e-06,0.056382319775106,-4.1123862974904616e-05,0.056382319775106,-1.2253e-05,0.056382319775106,-1.3595698269339296e-05
0.057176436955037,-1.023872004539516e-05,0.057176436955037,-3.138857290218799e-05,0.057176436955037,-1.0238959910797516e-05,0.057176436955037,-1.023906651799586e-05
0.0579705541349681,-9.231768166748418e-06,0.0579705541349681,-2.0310439834810155e-05,0.0579705541349681,-8.560406944965743e-06,0.0579705541349681,-5.8749720572574746e-06
0.0587646713148992,-8.560334252835492e-06,0.0587646713148992,-1.4938794022683936e-05,0.0587646713148992,-1.124580298901926e-05,0.0587646713148992,-7.55315936791127e-06
0.0595587884948302,-8.224614863726822e-06,0.0595587884948302,-1.158164863726823e-05,0.0595587884948302,-1.4267156226458593e-05,0.0595587884948302,-9.231685681510769e-06
0.0603529056747613,-8.39244920609229e-06,0.0603529056747613,-1.02388e-05,0.0603529056747613,-1.561e-05,0.0603529056747613,-1.1917309594648144e-05
0.0611470228546924,-6.881966737329918e-06,0.0611470228546924,-1.02388e-05,0.0611470228546924,-1.561e-05,0.0611470228546924,-1.325996956595442e-05
0.0619411400346235,-3.5250834985130957e-06,0.0619411400346235,-1.4266895800878122e-05,0.0619411400346235,-1.762404790043906e-05,0.0619411400346235,-1.628117185065859e-05
0.0627352572145545,-1.0072356531916686e-06,0.0627352572145545,-1.7624019127641e-05,0.0627352572145545,-1.66171542617077e-05,0.0627352572145545,-1.9638219127641e-05
0.0635293743944856,1.846247991690139e-06,0.0635293743944856,-1.9302645877275117e-05,0.0635293743944856,-1.9973991754550225e-05,0.0635293743944856,-1.695288659635982e-05
0.0643234915744167,1.1749471237081207e-06,0.0643234915744167,-1.896700356185406e-05,0.0643234915744167,-2.299526794437448e-05,0.0643234915744167,-1.5777812467019723e-05
0.0651176087543477,-1.6783419863773314e-07,0.0651176087543477,-1.89670185018544e-05,0.0651176087543477,-2.198821674110407e-05,0.0651176087543477,-1.3931518501854398e-05
0.0659117259342788,1.1748147738156109e-06,0.0659117259342788,-2.064534346598721e-05,0.0659117259342788,-1.443570440772046e-05,0.0659117259342788,-1.5609843465987212e-05
0.0667058431142099,-1.84612356894622e-06,0.0667058431142099,-2.5177075354852044e-05,0.0667058431142099,-1.1581804404877684e-05,0.0667058431142099,-1.6952703807783784e-05
0.067499960294141,-2.1820232146368622e-06,0.067499960294141,-1.913510213653647e-05,0.067499960294141,-1.2252966429273724e-05,0.067499960294141,-1.527438392681569e-05
0.068294077474072,-2.8534209546555705e-06,0.068294077474072,-1.0910433304050926e-05,0.068294077474072,-1.2253e-05,0.068294077474072,-1.6281371431983354e-05
0.0690881946540031,-4.196220960142132e-06,0.0690881946540031,-5.874753899584821e-06,0.0690881946540031,-9.73527694979241e-06,0.0690881946540031,-1.359581807985038e-05
0.0698823118339342,-4.19623e-06,0.0698823118339342,9.90134846598337e-06,0.0698823118339342,-1.2924045965843582e-05,0.0698823118339342,-1.3260137266870164e-05
0.0706764290138652,-3.692725013308322e-06,0.0706764290138652,1.863051976932242e-05,0.0706764290138652,-1.0239040070977716e-05,0.0706764290138652,-1.762380988466121e-05
0.0714705461937963,-3.0213354916850085e-06,0.0714705461937963,1.86313e-05,0.0714705461937963,-9.903122746181292e-06,0.0714705461937963,-1.8631231761456125e-05
0.0722646633737274,-3.860491291735294e-06,0.0722646633737274,8.896459020759637e-06,0.0722646633737274,-1.3259945165096254e-05,0.0722646633737274,-1.6952877417451876e-05
0.0730587805536585,-2.1820811037523444e-06,0.0730587805536585,-4.195909390290918e-06,0.0730587805536585,-1.5274250675203326e-05,0.0730587805536585,-1.2924498649593353e-05
0.0738528977335895,-5.539020418943252e-06,0.0738528977335895,-2.7359333890882533e-05,0.0738528977335895,-1.6281397125674412e-05,0.0738528977335895,-1.2253001916217056e-05
0.0746470149135206,-1.2252280699987606e-05,0.0746470149135206,-6.059003945974261e-05,0.0746470149135206,-1.8631048243870743e-05,0.0746470149135206,-1.1246007895483968e-05
0.0754411320934517,-8.89629706913938e-06,0.0754411320934517,-8.744720344859524e-05,0.0754411320934517,-1.4603244483993425e-05,0.0754411320934517,-1.1749356943776516e-05
0.0762352492733827,-4.867887330424759e-06,0.0762352492733827,-9.919814945558945e-05,0.0762352492733827,-8.401252137112346e-07,0.0762352492733827,-1.0574575051885884e-05
0.0770293664533138,-3.8605725448528185e-06,0.0770293664533138,-9.047106872205776e-05,0.0770293664533138,8.559912916565808e-06,0.0770293664533138,-1.1245871636764788e-05
0.0778234836332449,-5.538995405366555e-06,0.0778234836332449,-6.764367048495382e-05,0.0778234836332449,-4.8673532441690665e-06,0.0778234836332449,-1.2252979243219933e-05
0.078617600813176,-4.196229656279045e-06,0.078617600813176,-3.575185428530747e-05,0.078617600813176,-2.836651581116395e-05,0.078617600813176,-1.4267202062325731e-05
0.079411717993107,-3.860564663452482e-06,0.079411717993107,8.891399780438802e-06,0.079411717993107,-4.380710548118584e-05,0.079411717993107,-1.6281192019285108e-05
0.0802058351730381,-5.538892974366585e-06,0.0802058351730381,6.797407672301085e-05,0.0802058351730381,-3.508121253329376e-05,0.0802058351730381,-1.963812594873317e-05
0.0809999523529692,-3.1892809964503503e-06,0.0809999523529692,0.0001148061901332,0.0809999523529692,-1.9975006403609343e-05,0.0809999523529692,-1.628160142435766e-05
0.0817940695329002,-2.182078639234512e-06,0.0817940695329002,0.0001279004977014,0.0817940695329002,-1.225329623413126e-05,0.0817940695329002,-1.89668969620413e-05
0.0825881867128313,-4.531890680789881e-06,0.0825881867128313,0.000108431325779,0.0825881867128313,-1.0238833702323522e-05,0.0825881867128313,-2.131686068062256e-05
0.0833823038927624,-3.860611247040185e-06,0.0833823038927624,7.234736705866275e-05,0.0833823038927624,-9.06400218111021e-06,0.0833823038927624,-1.561069059984157e-05
0.0841764210726934,-6.210186439380019e-06,0.0841764210726934,3.793731999443761e-05,0.0841764210726934,-6.882036877647559e-06,0.0841764210726934,-1.359600019566906e-05
0.0849705382526245,-5.539082205730252e-06,0.0849705382526245,1.4269040267737316e-05,0.0849705382526245,-2.853753237491821e-06,0.0849705382526245,-1.812734760996004e-05
0.0857646554325556,-5.203348840562997e-06,0.0857646554325556,-7.887666527893255e-06,0.0857646554325556,5.033595950435038e-07,0.0857646554325556,-1.930263405522335e-05
0.0865587726124866,-4.867641577872081e-06,0.0865587726124866,-2.970854744210853e-05,0.0865587726124866,-5.538821599061304e-06,0.0865587726124866,-1.4938750512337046e-05
0.0873528897924177,-7.553185478679282e-06,0.0873528897924177,-4.750107129668407e-05,0.0873528897924177,-1.1581522327124793e-05,0.0873528897924177,-1.2420832364501397e-05
0.0881470069723488,-1.0070705082901597e-05,0.0881470069723488,-5.455017424196371e-05,0.0881470069723488,-1.2588582034566245e-05,0.0881470069723488,-1.158169829867144e-05
0.0889411241522799,-7.217792547478056e-06,0.0889411241522799,-4.5823633665873935e-05,0.0889411241522799,-1.0239024448504522e-05,0.0889411241522799,-1.225293587185585e-05
0.0897352413322109,-7.21752e-06,0.0897352413322109,-3.6423994431284456e-05,0.0897352413322109,-1.292420158895074e-05,0.0897352413322109,-1.2588675198618843e-05
0.090529358512142,-8.224557384451748e-06,0.090529358512142,-2.5681461238087512e-05,0.090529358512142,-1.795963691964648e-05,0.090529358512142,-1.3595747383929296e-05
0.0913234756920731,-8.22461e-06,0.0913234756920731,-2.1317033584929985e-05,0.0913234756920731,-1.8295589724000688e-05,0.0913234756920731,-1.3260110275999312e-05
0.0921175928720041,-5.539054106287588e-06,0.0921175928720041,-1.6281445199625834e-05,0.0921175928720041,-1.7624206026616777e-05,0.0921175928720041,-1.3931493973383222e-05
0.0929117100519352,-8.224305841445829e-06,0.0929117100519352,-8.896846441120497e-06,0.0929117100519352,-1.8295523959795175e-05,0.0929117100519352,-1.2253190100512058e-05
0.0937058272318663,-5.035772239060743e-06,0.0937058272318663,-8.560340762199312e-06,0.0937058272318663,-1.6952923048797247e-05,0.0937058272318663,-9.903315335395182e-06
0.0944999444117974,-3.860612248279361e-06,0.0944999444117974,-1.2252741506107737e-05,0.0944999444117974,-1.661712349950839e-05,0.0944999444117974,-9.567433498808371e-06
0.0952940615917284,-4.867581289547585e-06,0.0952940615917284,-2.030941031638068e-05,0.0952940615917284,-2.0309621395007808e-05,0.0952940615917284,-1.0238767526848726e-05
0.0960881787716595,-2.853493844491968e-06,0.0960881787716595,-2.786279808348928e-05,0.0960881787716595,-1.7624271793012392e-05,0.0960881787716595,-1.1581564103493803e-05
0.0968822959515906,-2.85344e-06,0.0968822959515906,-3.642217851221495e-05,0.0968822959515906,-1.628157592068009e-05,0.0968822959515906,-1.15816e-05
0.0976764131315216,-4.69957802449786e-06,0.0976764131315216,-4.280090226266815e-05,0.0976764131315216,-1.5945736723017465e-05,0.0976764131315216,-1.0910273446034932e-05
0.0984705303114527,-4.867615269836725e-06,0.0984705303114527,-4.599042013128568e-05,0.0984705303114527,-1.3596006222285845e-05,0.0984705303114527,-9.567527840428618e-06
0.0992646474913838,-5.203307802364374e-06,0.0992646474913838,-5.119365593995396e-05,0.0992646474913838,-1.4267155604728747e-05,0.0992646474913838,-1.2252822419576225e-05
0.1000587646713148,-7.049122981537879e-06,0.1000587646713148,-5.354320379091384e-05,0.1000587646713148,-1.25891972922044e-05,0.1000587646713148,-1.426660324935472e-05
0.1008528818512459,-9.902675404031218e-06,0.1008528818512459,-5.62291003774637e-05,0.1008528818512459,-1.3260000094365925e-05,0.1008528818512459,-1.4602850047182964e-05
0.101646999031177,-7.049673481698383e-06,0.101646999031177,-5.1194006144216685e-05,0.101646999031177,-1.4267198771156663e-05,0.101646999031177,-1.628139795192777e-05
0.1024411162111081,-6.88182e-06,0.1024411162111081,-2.9034952000810977e-05,0.1024411162111081,-1.493845259923556e-05,0.1024411162111081,-1.7288450866411854e-05
0.1032352333910391,-6.88182e-06,0.1032352333910391,-8.894825884389862e-06,0.1032352333910391,-1.3931203969627749e-05,0.1032352333910391,-1.6951714555301746e-05
0.1040293505709702,-6.882856230461998e-06,0.1040293505709702,-4.870886724939094e-06,0.1040293505709702,-1.2923807865787602e-05,0.1040293505709702,-1.3260544100659298e-05
0.1048234677509013,-9.230136758698736e-06,0.1048234677509013,-1.2248055526382458e-05,0.1048234677509013,-1.1582498998854985e-05,0.1048234677509013,-1.426652575085876e-05
0.1056175849308323,-6.21199940091365e-06,0.1056175849308323,-2.5338355958997087e-05,0.1056175849308323,-1.2252649020857506e-05,0.1056175849308323,-1.42672e-05
0.1064117021107634,6.5413340605018686e-06,0.1064117021107634,-4.3130624842461614e-05,0.1064117021107634,-1.2924148107262704e-05,0.1064117021107634,-1.4938348107262705e-05
0.1072058192906945,7.217367193667898e-06,0.1072058192906945,-3.508233367598521e-05,0.1072058192906945,-9.56817402938457e-06,0.1072058192906945,-1.2253611225328403e-05
0.1079999364706256,-3.350936533825609e-07,0.1079999364706256,7.214135659006349e-06,0.1079999364706256,-6.378525168852738e-06,0.1079999364706256,-1.3092132854091944e-05
0.1087940536505566,-3.189208049041701e-06,0.1087940536505566,4.347422488815622e-05,0.1087940536505566,-9.567614148476503e-06,0.1087940536505566,-1.4267245366478269e-05
0.1095881708304877,-4.196555016836275e-06,0.1095881708304877,6.160023051737116e-05,0.1095881708304877,-1.2589097234671936e-05,0.1095881708304877,-1.493816664134961e-05
0.1103822880104188,-5.707296193755154e-06,0.1103822880104188,5.941111122128376e-05,0.1103822880104188,-1.443554798153616e-05,0.1103822880104188,-1.2924460866685487e-05
0.1111764051903498,-6.881477805281871e-06,0.1111764051903498,3.875917006752408e-05,0.1111764051903498,-1.5946555486795318e-05,0.1111764051903498,-1.3092456671522266e-05
0.1119705223702809,-6.210823371815563e-06,0.1119705223702809,1.1262438184358869e-05,0.1119705223702809,-1.7623191570461094e-05,0.1119705223702809,-1.3595497441098722e-05
0.112764639550212,-9.733659839004224e-06,0.112764639550212,-1.9624379547371824e-05,0.112764639550212,-1.6282009586870646e-05,0.112764639550212,-1.6615728429541047e-05
0.1135587567301431,-1.0909840015761128e-05,0.1135587567301431,-2.78604801042002e-05,0.1135587567301431,-1.6616997146484938e-05,0.1135587567301431,-1.4939114267575318e-05
0.1143528739100741,-4.868589580860385e-06,0.1143528739100741,-1.6283239197840097e-05,0.1143528739100741,-1.695274668968753e-05,0.1143528739100741,-1.2924719861874828e-05
0.1151469910900052,3.1890495896995447e-06,0.1151469910900052,-7.21762171174231e-06,0.1151469910900052,-1.3092243322324694e-05,0.1151469910900052,-1.5106375514346867e-05
0.1159411082699363,-1.684898627072191e-07,0.1159411082699363,-4.867858879099992e-06,0.1159411082699363,-1.0909833792621852e-05,0.1159411082699363,-1.6281445776092718e-05
0.1167352254498673,-4.868011274341824e-06,0.1167352254498673,-6.547645103046135e-06,0.1167352254498673,-8.225229586777197e-06,0.1167352254498673,-1.661719531929531e-05
0.1175293426297984,-6.211288077375773e-06,0.1175293426297984,-1.1919036163371164e-05,0.1175293426297984,-1.0409231883367235e-05,0.1175293426297984,-1.6950485115505115e-05
0.1183234598097295,-8.223241388879355e-06,0.1183234598097295,-1.5942962764169017e-05,0.1183234598097295,-1.6277408231720716e-05,0.1183234598097295,-1.1585249647774645e-05
0.1191175769896605,-8.560131152933326e-06,0.1191175769896605,-1.4939136541200024e-05,0.1191175769896605,-1.930109037639993e-05,0.1191175769896605,-1.0239515388266698e-05
0.1199116941695916,-1.0405988813340472e-05,0.1199116941695916,-9.569478857973552e-06,0.1199116941695916,-1.846372327891905e-05,0.1199116941695916,-9.567668603876396e-06
0.1207058113495227,-1.2923801806918618e-05,0.1207058113495227,-8.896169521322968e-06,0.1207058113495227,-1.6281918432419894e-05,0.1207058113495227,-1.0909880959730012e-05
0.1214999285294538,-1.1917390652376676e-05,0.1214999285294538,-1.091001869614678e-05,0.1214999285294538,-1.4267381304753354e-05,0.1214999285294538,-1.258854891270554e-05
0.1222940457093848,-6.378144383241598e-06,0.1222940457093848,-1.1581696628718528e-05,0.1222940457093848,-1.6281438651487413e-05,0.1222940457093848,-1.5106641574674744e-05
0.1230881628893159,-4.19623e-06,0.1230881628893159,-1.3261270772087065e-05,0.1230881628893159,-1.6952558948430444e-05,0.1230881628893159,-1.930235565526851e-05
0.123882280069247,-4.1952827063362e-06,0.123882280069247,-1.8968657734811256e-05,0.123882280069247,-1.577827364859556e-05,0.123882280069247,-1.762360793925555e-05
0.124676397249178,-1.51097548817379e-06,0.124676397249178,-2.366820969678205e-05,0.124676397249178,-1.7120180664766986e-05,0.124676397249178,-1.5945616102972327e-05
0.1254705144291091,-2.1816299216400986e-06,0.1254705144291091,-2.6686154647380444e-05,0.1254705144291091,-1.6281912567410827e-05,0.1254705144291091,-1.5777902550129026e-05
0.1262646316090402,-7.215183696083025e-06,0.1262646316090402,-2.568136726263927e-05,0.1262646316090402,-1.7959121228934554e-05,0.1262646316090402,-1.6281166345481943e-05
0.1270587487889713,-9.566666526090384e-06,0.1270587487889713,-2.5345306211010496e-05,0.1270587487889713,-1.4939555899094478e-05,0.1270587487889713,-1.4939024844041989e-05
0.1278528659689023,-5.539710010318766e-06,0.1278528659689023,-2.6352129996576283e-05,0.1278528659689023,-1.292474000684743e-05,0.1278528659689023,-1.6448945003304673e-05
0.1286469831488334,-4.867644249210626e-06,0.1286469831488334,-2.1317006866957384e-05,0.1286469831488334,-1.1245935623026566e-05,0.1286469831488334,-1.3931553433478693e-05
0.1294411003287645,-5.539199673125577e-06,0.1294411003287645,-1.6280975814027093e-05,0.1294411003287645,-1.091028483719458e-05,0.1294411003287645,-1.30922e-05
0.1302352175086955,-6.881176270140224e-06,0.1302352175086955,-1.2924216076400232e-05,0.1302352175086955,-1.158164596720292e-05,0.1302352175086955,-1.3092521879996611e-05
0.1310293346886266,-4.532071327008762e-06,0.1310293346886266,-1.2251021430297182e-05,0.1310293346886266,-1.1749965308035044e-05,0.1310293346886266,-1.4267553296472304e-05
0.1318234518685577,-4.867398543741916e-06,0.1318234518685577,-7.556460373823709e-06,0.1318234518685577,-1.3091274174967662e-05,0.1318234518685577,-1.5105821393828465e-05
0.1326175690484888,-7.887270169796173e-06,0.1326175690484888,-7.888727800865488e-06,0.1326175690484888,-1.225345548426728e-05,0.1326175690484888,-1.2590066507077851e-05
0.1334116862284198,-5.87551596420528e-06,0.1334116862284198,-1.2251275406278148e-05,0.1334116862284198,-1.091073064543804e-05,0.1334116862284198,-1.393096935456196e-05
0.1342058034083509,-6.210336881843082e-06,0.1342058034083509,-2.332825712558135e-05,0.1342058034083509,-8.896508706465545e-06,0.1342058034083509,-1.225341559078459e-05
0.134999920588282,-6.546086425045674e-06,0.134999920588282,-3.642199057678128e-05,0.134999920588282,-1.1581331401365536e-05,0.134999920588282,-1.0910334299817304e-05
0.135794037768213,-5.874735968248278e-06,0.135794037768213,-5.522388504233313e-05,0.135794037768213,-1.0238624350220285e-05,0.135794037768213,-1.2924519759483732e-05
0.1365881549481441,-6.210157956148009e-06,0.1365881549481441,-8.644272755725435e-05,0.1365881549481441,-6.546087244274565e-06,0.1365881549481441,-1.5441936231130264e-05
0.1373822721280752,-4.867399890693076e-06,0.1373822721280752,-8.811491715801997e-05,0.1373822721280752,-6.3794780670067405e-06,0.1373822721280752,-1.4603015054653464e-05
0.1381763893080062,-4.197051949176673e-06,0.1381763893080062,-7.06533214735682e-05,0.1381763893080062,-9.904908298961986e-06,0.1381763893080062,-1.4940243908147258e-05
0.1389705064879373,-5.873678043947101e-06,0.1389705064879373,-4.7851170624667146e-05,0.1389705064879373,-1.3593507683026684e-05,0.1389705064879373,-1.8293516075478805e-05
0.1397646236678684,-6.88134266487443e-06,0.1397646236678684,-2.971789198486327e-05,0.1397646236678684,-1.661566799462329e-05,0.1397646236678684,-1.6953436446834096e-05
0.1405587408477994,-8.895352592228294e-06,0.1405587408477994,-1.8467070528629287e-05,0.1405587408477994,-1.628150956850593e-05,0.1405587408477994,-1.15833530960949e-05
0.1413528580277305,-7.553460099425292e-06,0.1413528580277305,-1.5136712617260517e-06,0.1413528580277305,-1.6617039974696662e-05,0.1413528580277305,-1.3595439848179966e-05
0.1421469752076616,-2.182207712987271e-06,0.1421469752076616,3.172246227702316e-05,0.1421469752076616,-1.6952789517899266e-05,0.1421469752076616,-1.2924420964201467e-05
0.1429410923875927,-2.8537524876511903e-06,0.1429410923875927,6.12693357590334e-05,0.1429410923875927,-1.6281087511185238e-05,0.1429410923875927,-1.4267239061101844e-05
0.1437352095675237,-5.53854267632553e-06,0.1437352095675237,9.853822106805055e-05,0.1437352095675237,-1.3596331625826694e-05,0.1437352095675237,-1.4602634187086652e-05
0.1445293267474548,-3.689851550729953e-06,0.1445293267474548,0.0001391513463576,0.1445293267474548,-1.5610827842419555e-05,0.1445293267474548,-1.3595593018844957e-05
0.1453234439273859,3.184326425613679e-06,0.1453234439273859,0.000149714603185,0.1453234439273859,-1.762279114281848e-05,0.1453234439273859,-1.30925522492685e-05
0.146117561107317,3.524644443470079e-06,0.146117561107317,0.0001207000510903,0.146117561107317,-1.6449849494839457e-05,0.146117561107317,-1.225346387750576e-05
0.146911678287248,-5.019157826546253e-07,0.146911678287248,7.370484272072815e-05,0.146911678287248,-1.4939212064588258e-05,0.146911678287248,-1.2253e-05
0.1477057954671791,-1.510380575103728e-06,0.1477057954671791,1.9987936027096927e-05,0.1477057954671791,-1.49386e-05,0.1477057954671791,-1.2420756775053723e-05
0.1484999126471102,-4.195934541502178e-06,0.1484999126471102,-3.238913855984253e-05,0.1484999126471102,-1.6616915337751258e-05,0.1484999126471102,-1.4938323001126076e-05
0.1492940298270412,-5.539042610377177e-06,0.1492940298270412,-6.193700531237939e-05,0.1492940298270412,-1.7624124335483006e-05,0.1492940298270412,-1.3931462167741504e-05
0.1500881470069723,-5.875403691658325e-06,0.1500881470069723,-7.805151600284134e-05,0.1500881470069723,-1.5610155375631226e-05,0.1500881470069723,-1.2924275692089128e-05
0.1508822641869034,-9.56863866541102e-06,0.1508822641869034,-8.677854678863211e-05,0.1508822641869034,-1.6450484533953782e-05,0.1508822641869034,-1.22522181198938e-05
0.1516763813668344,-1.3260905187712785e-05,0.1516763813668344,-8.81183233993191e-05,0.1516763813668344,-2.0311088252369784e-05,0.1516763813668344,-9.90293896725451e-06
0.1524704985467655,-1.4937541271378615e-05,0.1524704985467655,-8.275308793158843e-05,0.1524704985467655,-2.2993606097281666e-05,0.1524704985467655,-9.567621739416688e-06
0.1532646157266966,1.05621523888955e-05,0.1532646157266966,-4.852497181040768e-05,0.1532646157266966,-2.0814356025627227e-05,0.1532646157266966,-6.883119748792037e-06
0.1540587329066277,1.5272719035980888e-05,0.1540587329066277,-5.8890615281676425e-06,0.1540587329066277,-2.030996937218257e-05,0.1540587329066277,-5.203894626642929e-06
0.1548528500865587,-1.1718342541891775e-06,0.1548528500865587,1.5270306898782677e-05,0.1548528500865587,-1.8967253531195044e-05,0.1548528500865587,-7.720594630897368e-06
0.1556469672664898,-3.189056962422916e-06,0.1556469672664898,1.863116160403819e-05,0.1556469672664898,-1.3931707593942713e-05,0.1556469672664898,-1.2252813166276082e-05
0.1564410844464209,-6.210812737543542e-06,0.1564410844464209,1.2923418154014032e-05,0.1564410844464209,-1.2253071407212846e-05,0.1564410844464209,-1.4434660821056764e-05
0.157235201626352,-9.904719689371292e-06,0.157235201626352,3.6891422752014864e-06,0.157235201626352,-1.2924059012763938e-05,0.157235201626352,-1.12459e-05
0.158029318806283,-1.6279986465072847e-05,0.158029318806283,-1.0243646296617811e-05,0.158029318806283,-1.1581734620464422e-05,0.158029318806283,-1.1246169240928846e-05
0.1588234359862141,-1.2759000744897878e-05,0.1588234359862141,-2.2315326210058347e-05,0.1588234359862141,-1.191706183719759e-05,0.1588234359862141,-1.1916823674395178e-05
0.1596175531661451,-1.0911239029403248e-05,0.1596175531661451,-3.238923241341054e-05,0.1596175531661451,-1.2923833241341054e-05,0.1596175531661451,-1.4265877563129129e-05
0.1604116703460762,-7.89016438300159e-06,0.1604116703460762,-4.111947621489017e-05,0.1604116703460762,-1.124659688175189e-05,0.1604116703460762,-1.628056374189773e-05
0.1612057875260073,-6.882089496767327e-06,0.1612057875260073,-4.917764403121337e-05,0.1612057875260073,-1.0910289833147773e-05,0.1612057875260073,-1.829506100111336e-05
0.1619999047059384,-8.560108551474209e-06,0.1619999047059384,-6.092788985191822e-05,0.1619999047059384,-1.2420618701247512e-05,0.1619999047059384,-1.7792060440918673e-05
0.1627940218858694,-1.091021850651482e-05,0.1627940218858694,-7.435737581189078e-05,0.1627940218858694,-1.1245876868234678e-05,0.1627940218858694,-1.6952841638280143e-05
0.1635881390658005,-1.158136481415999e-05,0.1635881390658005,-8.073485323893997e-05,0.1635881390658005,-1.0406670593012706e-05,0.1635881390658005,-1.8462959035307275e-05
0.1643822562457316,-1.0237716609828606e-05,0.1643822562457316,-7.703315780230184e-05,0.1643822562457316,-1.0238149965251708e-05,0.1643822562457316,-1.5945158301687026e-05
0.1651763734256627,-6.882450732384419e-06,0.1651763734256627,-4.714462810476915e-05,0.1651763734256627,-8.219327600427509e-06,0.1651763734256627,-1.4264677056370788e-05
0.1659704906055937,-8.223749610421645e-06,0.1659704906055937,-2.5463480127494427e-06,0.1659704906055937,3.0140842156560504e-06,0.1659704906055937,-8.899451577535847e-06
0.1667646077855248,-5.540356603715671e-06,0.1667646077855248,2.7344641502789868e-05,0.1667646077855248,-5.199267260684108e-06,0.1667646077855248,-4.534085737212625e-06
0.1675587249654559,-5.203446283496799e-06,0.1675587249654559,3.876924636110884e-05,0.1675587249654559,-2.567380675172612e-05,0.1675587249654559,-1.225032548996536e-05
0.1683528421453869,-6.881486300517059e-06,0.1683528421453869,3.87732e-05,0.1683528421453869,-4.212692972558387e-05,0.1683528421453869,-1.426679955823476e-05
0.169146959325318,-5.539098787854135e-06,0.169146959325318,3.138817833601526e-05,0.169146959325318,-4.112315159127481e-05,0.169146959325318,-1.4938565605816794e-05
0.1699410765052491,-6.881884692221979e-06,0.1699410765052491,1.7287012082748656e-05,0.1699410765052491,-2.9372241472973865e-05,0.1699410765052491,-1.9135204321569652e-05
0.1707351936851801,-7.553056221372837e-06,0.1707351936851801,1.842573106211408e-06,0.1707351936851801,-1.5272744105481312e-05,0.1707351936851801,-2.333140944656791e-05
0.1715293108651112,-6.88182e-06,0.1715293108651112,-1.3602954042427215e-05,0.1715293108651112,-8.895747465615468e-06,0.1715293108651112,-2.500739976402628e-05
0.1723234280450423,-6.88182e-06,0.1723234280450423,-3.187823740990677e-05,0.1723234280450423,-8.225093032149182e-06,0.1723234280450423,-1.9642264185249444e-05
0.1731175452249733,-8.559348620485626e-06,0.1731175452249733,-4.849888237201868e-05,0.1731175452249733,-9.566640891806384e-06,0.1731175452249733,-1.628332277048404e-05
0.1739116624049044,-9.566981798462563e-06,0.1739116624049044,-6.209841930050376e-05,0.1739116624049044,-5.540742797646087e-06,0.1739116624049044,-2.030808719385026e-05
0.1747057795848355,-9.23180319064322e-06,0.1747057795848355,-5.95871989159441e-05,0.1747057795848355,1.1730761954636351e-06,0.1747057795848355,-2.299455450261434e-05
0.1754998967647666,-9.90301270641896e-06,0.1754998967647666,-4.733509312508151e-05,0.1754998967647666,2.5175654102375368e-06,0.1754998967647666,-2.29953e-05
0.1762940139446976,-1.1581611791523952e-05,0.1762940139446976,-2.9037493194531137e-05,0.1762940139446976,-1.5106871659201856e-06,0.1762940139446976,-2.064543514661826e-05
0.1770881311246287,-1.2253055438964567e-05,0.1770881311246287,-5.8715599922311404e-06,0.1770881311246287,-4.1963408779291374e-06,0.1770881311246287,-1.6952578244141727e-05
0.1778822483045598,-1.258880498216716e-05,0.1778822483045598,1.3265454059252583e-05,0.1778822483045598,-4.8678924522906405e-06,0.1778822483045598,-1.56094750891642e-05
0.1786763654844909,-1.292470866199646e-05,0.1786763654844909,3.038455827495576e-05,0.1786763654844909,-5.706638508099944e-06,0.1786763654844909,-1.3932271654991152e-05
0.1794704826644219,-1.3595363095462769e-05,0.1794704826644219,3.876773869328462e-05,0.1794704826644219,-5.203657671895557e-06,0.1794704826644219,-1.5608907738656926e-05
0.180264599844353,-1.35958e-05,0.180264599844353,4.951008615616304e-05,0.180264599844353,-6.2099124524552695e-06,0.180264599844353,-1.896530815805175e-05
0.181058717024284,-9.568845688342863e-06,0.181058717024284,6.126081256527187e-05,0.181058717024284,-9.5662135936416e-06,0.181058717024284,-1.9302580359007768e-05
0.1818528342042151,-6.882380780228921e-06,0.1818528342042151,5.153173283589924e-05,0.1818528342042151,-1.0909919610929592e-05,0.1818528342042151,-1.8295810293368888e-05
0.1826469513841462,-4.196394436084003e-06,0.1826469513841462,2.585037241672394e-05,0.1826469513841462,-1.107808971964503e-05,0.1826469513841462,-1.4435236380812371e-05
0.1834410685640773,-8.388981378222711e-07,0.1834410685640773,-4.534220089403037e-06,0.1834410685640773,-1.2588613034153331e-05,0.1834410685640773,-1.359585797723111e-05
0.1842351857440083,3.1895719226604675e-06,0.1842351857440083,-3.10572830766043e-05,0.1842351857440083,-1.1582110445121234e-05,0.1842351857440083,-1.4266728809091113e-05
0.1850293029239394,5.033753168937351e-06,0.1850293029239394,-5.321082221631017e-05,0.1850293029239394,-1.3764559373452544e-05,0.1850293029239394,-1.2252744172159806e-05
0.1858234201038705,5.068537230513862e-07,0.1858234201038705,-6.0084980214863104e-05,0.1858234201038705,-1.627956344342793e-05,0.1858234201038705,-1.1582089738693497e-05
0.1866175372838016,3.187574928311426e-06,0.1866175372838016,-5.807697380726302e-05,0.1866175372838016,-1.5107084750041731e-05,0.1866175372838016,-1.0910591269087675e-05
0.1874116544637326,2.182478274023737e-06,0.1874116544637326,-4.935149833135397e-05,0.1874116544637326,-1.829421211049896e-05,0.1874116544637326,-8.225778726378123e-06
0.1882057716436637,2.5176434518613465e-06,0.1882057716436637,-2.837253424428572e-05,0.1882057716436637,-1.7624393096277306e-05,0.1882057716436637,-6.210999285955896e-06
0.1889998888235948,4.86730096684786e-06,0.1889998888235948,-1.0241338252544608e-05,0.1889998888235948,-1.3596364059232593e-05,0.1889998888235948,-8.22432797178391e-06
0.1897940060035258,8.392561530208039e-07,0.1897940060035258,-6.210407308742898e-06,0.1897940060035258,-1.4938591115689044e-05,0.1897940060035258,-1.1749406346044412e-05
0.1905881231834569,2.181987918530865e-06,0.1905881231834569,-4.532711218934164e-06,0.1905881231834569,-1.3763365641146038e-05,0.1905881231834569,-1.2588075023921812e-05
0.191382240363388,1.84634e-06,0.191382240363388,-9.569493287607164e-06,0.191382240363388,-1.2253304874015217e-05,0.191382240363388,-8.560411624671739e-06
0.192176357543319,1.846038044547901e-06,0.192176357543319,-1.6452144043170967e-05,0.192176357543319,-1.32604019554521e-05,0.192176357543319,-8.897821728215194e-06
0.1929704747232501,1.1753836110815686e-06,0.1929704747232501,-2.299097482499098e-05,0.1929704747232501,-1.3931056388918433e-05,0.1929704747232501,-1.2921738340117844e-05
0.1937645919031812,3.859149671617691e-06,0.1937645919031812,-2.7021629499716897e-05,0.1937645919031812,-1.4602554916619484e-05,0.1937645919031812,-1.5608619666477934e-05
0.1945587090831123,3.86053e-06,0.1945587090831123,-2.5010237990926e-05,0.1945587090831123,-1.7623093013611e-05,0.1945587090831123,-8.22731596306472e-06
0.1953528262630433,3.0214736360245333e-06,0.1953528262630433,-1.376606074110898e-05,0.1953528262630433,-1.896670617885975e-05,0.1953528262630433,-2.1833621885667563e-06
0.1961469434429744,1.8464236922886464e-06,0.1961469434429744,-3.8612354007344335e-06,0.1961469434429744,-1.963835217583506e-05,0.1961469434429744,-4.867438704052543e-06
0.1969410606229055,-8.393228929022579e-07,0.1969410606229055,-5.035223689562294e-07,0.1969410606229055,-1.896715378672073e-05,0.1969410606229055,-7.553322523716974e-06
0.1977351778028366,-1.847054153826564e-06,0.1977351778028366,-1.679993479736523e-07,0.1977351778028366,-2.098165102354305e-05,0.1977351778028366,-8.896310695051573e-06
0.1985292949827676,-5.0351685983802105e-06,0.1985292949827676,-8.417372033110814e-07,0.1985292949827676,-2.2993120207213847e-05,0.1985292949827676,-1.023992104583124e-05
0.1993234121626987,-4.196850556547295e-06,0.1993234121626987,-7.548255566846508e-06,0.1993234121626987,-1.7124943858860163e-05,0.1993234121626987,-1.3257865996429738e-05
0.2001175293426297,-2.1832339463079543e-06,0.2001175293426297,-1.2250214123305547e-05,0.2001175293426297,-1.3933390394734706e-05,0.2001175293426297,-1.493760503980364e-05
0.2009116465225608,-3.52423220910514e-06,0.2009116465225608,-1.4937404409306564e-05,0.2009116465225608,-1.359594944883668e-05,0.2009116465225608,-1.5609701102326642e-05
0.2017057637024919,-5.874020663537511e-06,0.2017057637024919,-2.2992902294542585e-05,0.2017057637024919,-1.3092349873331308e-05,0.2017057637024919,-1.8966000943659245e-05
0.202499880882423,-3.693007354304496e-06,0.202499880882423,-2.668744601325356e-05,0.202499880882423,-1.4602673361557168e-05,0.202499880882423,-1.7288751812157476e-05
0.203293998062354,-5.20332631346999e-06,0.203293998062354,-3.172348771156664e-05,0.203293998062354,-1.3595802457686672e-05,0.203293998062354,-1.762419918077111e-05
0.2040881152422851,-8.224829257881707e-06,0.2040881152422851,-3.843752435472979e-05,0.2040881152422851,-1.5106278197322787e-05,0.2040881152422851,-1.7959120416420598e-05
0.2048822324222162,-9.734817797706682e-06,0.2048822324222162,-3.860475954516655e-05,0.2048822324222162,-1.426862485942009e-05,0.2048822324222162,-1.2587815598340594e-05
0.2056763496021472,-8.223133764256101e-06,0.2056763496021472,-3.67551617641988e-05,0.2056763496021472,-1.913531670757618e-05,0.2056763496021472,-9.567705244510274e-06
0.2064704667820783,-4.869881574715129e-06,0.2064704667820783,-2.803665412913648e-05,0.2064704667820783,-2.0309011910618987e-05,0.2064704667820783,-1.023834968908126e-05
0.2072645839620094,8.362557264186863e-07,0.2072645839620094,-1.8300701023987348e-05,0.2072645839620094,-1.9638751798371387e-05,0.2072645839620094,-1.0909848201628615e-05
0.2080587011419405,-1.6746993393271253e-07,0.2080587011419405,-2.0309041864101468e-05,0.2080587011419405,-1.5611516271797062e-05,0.2080587011419405,-1.09102e-05
0.2088528183218715,-4.86655462542035e-06,0.2088528183218715,-2.316254710280637e-05,0.2088528183218715,-1.4938753625561016e-05,0.2088528183218715,-1.2252692748877968e-05
0.2096469355018026,-5.874638192078607e-06,0.2096469355018026,-2.1652722709038968e-05,0.2096469355018026,-1.49386e-05,0.2096469355018026,-1.393136365211048e-05
0.2104410526817337,-5.539119093835301e-06,0.2104410526817337,-1.6280464510416602e-05,0.2104410526817337,-1.22528218116659e-05,0.2104410526817337,-1.7624422736246998e-05
0.2112351698616647,-6.882143173583445e-06,0.2112351698616647,-2.180172771047977e-06,0.2112351698616647,-9.567481814687963e-06,0.2112351698616647,-2.098091273269088e-05
0.2120292870415958,-8.393066051321136e-06,0.2120292870415958,6.549756214051581e-06,0.2120292870415958,-9.903706036878792e-06,0.2120292870415958,-1.963706671886666e-05
0.2128234042215269,-1.006974209056829e-05,0.2128234042215269,1.6609552738255526e-05,0.2128234042215269,-1.1580342120544564e-05,0.2128234042215269,-1.5948467334801957e-05
0.2136175214014579,-1.1580689457232272e-05,0.2136175214014579,3.808884969005576e-05,0.2136175214014579,-1.091060469906941e-05,0.2136175214014579,-1.1751929399322264e-05
0.214411638581389,-8.226138058769143e-06,0.214411638581389,5.085249340489886e-05,0.214411638581389,-1.292348316200739e-05,0.214411638581389,-1.6279337091757273e-05
0.2152057557613201,-6.88223304944203e-06,0.2152057557613201,4.850912284190664e-05,0.2152057557613201,-1.3595593473740957e-05,0.2152057557613201,-1.661699673687048e-05
0.2159998729412512,-6.210527439853835e-06,0.2159998729412512,3.0719247140124245e-05,0.2159998729412512,-1.3092280587891556e-05,0.2159998729412512,-1.6952746280073084e-05
0.2167939901211822,-1.5106984738915476e-06,0.2167939901211822,7.049964457571061e-06,0.2167939901211822,-1.4938577027394186e-05,0.2167939901211822,-1.69528e-05
0.2175881073011133,-3.5261909902938187e-06,0.2175881073011133,-1.846469293787362e-05,0.2175881073011133,-1.5610090732956536e-05,0.2175881073011133,-1.7959627801130396e-05
0.2183822244810444,-1.359660671815132e-05,0.2183822244810444,-2.803004072255303e-05,0.2183822244810444,-1.62814e-05,0.2183822244810444,-1.5945225451595642e-05
0.2191763416609755,-1.6448262258806915e-05,0.2191763416609755,-2.53413047210697e-05,0.2191763416609755,-1.628053437290966e-05,0.2191763416609755,-1.426633437290966e-05
0.2199704588409065,-1.4268685294518131e-05,0.2199704588409065,-1.628756975822798e-05,0.2199704588409065,-1.4268571072510736e-05,0.2199704588409065,-1.2254371072510731e-05
0.2207645760208376,-1.3596158513362228e-05,0.2207645760208376,-2.1895687592476517e-06,0.2207645760208376,-1.309282742508284e-05,0.2207645760208376,-1.4266124459913313e-05
0.2215586932007686,-1.091123770782827e-05,0.2215586932007686,1.174401693314451e-05,0.2215586932007686,-1.3595605410462349e-05,0.2215586932007686,-1.4602770286521466e-05
0.2223528103806997,-2.184124417621572e-06,0.2223528103806997,9.232311262740562e-06,0.2223528103806997,-1.426703965944814e-05,0.2223528103806997,-1.3596040510827787e-05
0.2231469275606308,-3.0212134323166552e-06,0.2231469275606308,1.6867592742201746e-07,0.2231469275606308,-1.3595861254146676e-05,0.2231469275606308,-1.4602808118779986e-05
0.2239410447405619,-6.8816308392709405e-06,0.2239410447405619,-2.585085239157184e-05,0.2239410447405619,-1.2253189161292542e-05,0.2239410447405619,-1.3595781083870744e-05
0.2247351619204929,-3.5244877053800104e-06,0.2247351619204929,-6.227723442949635e-05,0.2247351619204929,-1.5610273837327435e-05,0.2247351619204929,-1.3259963081336283e-05
0.225529279100424,-1.8474006834216072e-06,0.225529279100424,-8.745256417158635e-05,0.225529279100424,-1.6952092875378466e-05,0.225529279100424,-1.2588346437689232e-05
0.2263233962803551,-4.865335645124653e-06,0.2263233962803551,-9.617097191769492e-05,0.2263233962803551,-1.4940129574979536e-05,0.2263233962803551,-1.1582364787489768e-05
0.2271175134602862,-9.564530113833624e-06,0.2271175134602862,-9.148067989842178e-05,0.2271175134602862,-1.1248162777331402e-05,0.2271175134602862,-1.2252588585939745e-05
0.2279116306402172,-6.883069305968489e-06,0.2279116306402172,-5.926579163440678e-05,0.2279116306402172,-1.2923619180862264e-05,0.2279116306402172,-1.3595175344689812e-05
0.2287057478201483,-1.090892055885282e-05,0.2287057478201483,1.6591384391506246e-06,0.2287057478201483,-1.44345202230681e-05,0.2287057478201483,-1.3092359946817758e-05
0.2294998650000794,-1.09102e-05,0.2294998650000794,6.427565510153758e-05,0.2294998650000794,-1.3763714154844702e-05,0.2294998650000794,-1.2253142685054625e-05
0.2302939821800104,-9.567440136654602e-06,0.2302939821800104,0.0001072550356176,0.2302939821800104,-1.292441883442723e-05,0.2302939821800104,-1.3595769863120964e-05
0.2310880993599415,-9.063544933880046e-06,0.2310880993599415,0.000114974353409,0.2310880993599415,-1.4602773973051465e-05,0.2310880993599415,-1.2923979911422933e-05
0.2318822165398726,-6.545708017892734e-06,0.2318822165398726,9.381863638818576e-05,0.2318822165398726,-1.3596257760927186e-05,0.2318822165398726,-9.567547339186966e-06
0.2326763337198036,-5.035832290576151e-06,0.2326763337198036,6.057704220859341e-05,0.2326763337198036,-1.5273172656723568e-05,0.2326763337198036,-1.007107043796611e-05
0.2334704508997347,-5.874140343513693e-06,0.2334704508997347,2.117624407587793e-05,0.2334704508997347,-1.2590554922858332e-05,0.2334704508997347,-1.023868410185596e-05
0.2342645680796658,-5.539212608736745e-06,0.2342645680796658,-1.0221725656089789e-05,0.2342645680796658,-1.1582147842529645e-05,0.2342645680796658,-1.225190431494071e-05
0.2350586852595969,-5.53903e-06,0.2350586852595969,-3.372838507146293e-05,0.2350586852595969,-1.3595001574156264e-05,0.2350586852595969,-1.4434135058489213e-05
0.2358528024395279,-4.532180583314092e-06,0.2358528024395279,-4.447732713619803e-05,0.2358528024395279,-1.4267032944457272e-05,0.2358528024395279,-1.124669350138712e-05
0.236646919619459,-4.867596015431228e-06,0.236646919619459,-5.320731640121194e-05,0.236646919619459,-1.42672e-05,0.236646919619459,-1.0910233984568771e-05
0.2374410367993901,-7.888894441829648e-06,0.2374410367993901,-5.858024016159162e-05,0.2374410367993901,-1.5610062234535282e-05,0.2374410367993901,-1.4267122206830897e-05
0.2382351539793211,-7.553024694490726e-06,0.2382351539793211,-7.671178723525826e-05,0.2382351539793211,-1.69528e-05,0.2382351539793211,-1.2588895305509274e-05
0.2390292711592522,-6.54612e-06,0.2390292711592522,-0.0001008846142882,0.2390292711592522,-1.695199849418006e-05,0.2390292711592522,-1.3596945008314204e-05
0.2398233883391833,-6.54612e-06,0.2398233883391833,-0.0001231838242565,0.2398233883391833,-1.4604707977047977e-05,0.2398233883391833,-1.695021717564575e-05
0.2406175055191144,-3.86220250997677e-06,0.2406175055191144,-0.0001399755467737,0.2406175055191144,-1.6615845612846634e-05,0.2406175055191144,-1.5275345322627805e-05
0.2414116226990454,-4.196070478677031e-06,0.2414116226990454,-0.0001263964606848,0.2414116226990454,-1.7623721436031093e-05,0.2414116226990454,-1.4267678563968906e-05
0.2422057398789765,-5.706375101734388e-06,0.2422057398789765,-8.158938186612487e-05,0.2422057398789765,-1.76242e-05,0.2422057398789765,-1.3931609978120378e-05
0.2429998570589076,-3.86086239024755e-06,0.2429998570589076,-3.307503280061324e-05,0.2429998570589076,-1.829547913016443e-05,0.2429998570589076,-1.3595860434917785e-05
0.2437939742388386,-1.5107162416818994e-06,0.2437939742388386,8.558959433480642e-06,0.2437939742388386,-1.4938708917151924e-05,0.2437939742388386,-1.35958e-05
0.2445880914187697,-3.5247913496639586e-06,0.2445880914187697,3.172477549908457e-05,0.2445880914187697,-9.567603256285688e-06,0.2445880914187697,-1.2252884045537766e-05
0.2453822085987008,-3.188743123894984e-06,0.2453822085987008,4.28016e-05,0.2453822085987008,-1.1245988194690004e-05,0.2453822085987008,-1.1246517362830024e-05
0.2461763257786318,-1.6802095497716225e-06,0.2461763257786318,4.279967409507661e-05,0.2461763257786318,-1.1581324870725227e-05,0.2461763257786318,-1.359586876182947e-05
0.2469704429585629,-5.871779781145511e-06,0.2469704429585629,3.8105093060812286e-05,0.2469704429585629,-1.0910670437258895e-05,0.2469704429585629,-1.3763482425719327e-05
0.247764560138494,-1.0907410435999727e-05,0.247764560138494,4.548300867861432e-05,0.247764560138494,-1.09102e-05,0.247764560138494,-1.4266921014792922e-05
0.2485586773184251,-8.22570142369112e-06,0.2485586773184251,5.7567388575101965e-05,0.2485586773184251,-1.09102e-05,0.2485586773184251,-1.7622835715306103e-05
0.2493527944983561,-4.53288573275841e-06,0.2493527944983561,5.975373525870672e-05,0.2493527944983561,-1.359510491786562e-05,0.2493527944983561,-1.896665245893281e-05
0.2501469116782872,-6.210233290791338e-06,0.2501469116782872,4.246782309962112e-05,0.2501469116782872,-1.2588812026192615e-05,0.2501469116782872,-1.913478133452972e-05
0.2509410288582183,-5.70676629105072e-06,0.2509410288582183,3.1387726793169745e-05,0.2509410288582183,-1.15815511954465e-05,0.2509410288582183,-2.03097511954465e-05
0.2517351460381494,-2.85374871986574e-06,0.2517351460381494,2.937248860186196e-05,0.2517351460381494,-1.0238923488682004e-05,0.2517351460381494,-1.8967123488682004e-05
0.2525292632180804,-4.531374265514664e-06,0.2525292632180804,2.3327221016094653e-05,0.2525292632180804,-1.09102e-05,0.2525292632180804,-1.9637788671869523e-05
0.2533233803980115,-2.854748170744236e-06,0.2533233803980115,1.1926195536120848e-05,0.2533233803980115,-1.09102e-05,0.2533233803980115,-1.7793439035360446e-05
0.2541174975779426,-2.1824648440419898e-06,0.2541174975779426,-2.844093469042624e-06,0.2541174975779426,-1.1077993757350834e-05,0.2541174975779426,-1.4940405555539788e-05
0.2549116147578736,-2.853114242363171e-06,0.2549116147578736,-2.768304703536415e-05,0.2549116147578736,-1.0910281463668786e-05,0.2549116147578736,-1.628074848472634e-05
0.2557057319378047,-3.524603332144477e-06,0.2557057319378047,-5.856897315710641e-05,0.2557057319378047,-1.2252546657536756e-05,0.2557057319378047,-1.8966093315073517e-05
0.2564998491177358,-5.874273455007834e-06,0.2564998491177358,-7.569674660592925e-05,0.2564998491177358,-1.4938089660694344e-05,0.2564998491177358,-1.3596820678611308e-05
0.2572939662976669,-7.049620127762808e-06,0.2572939662976669,-6.965765648579128e-05,0.2572939662976669,-1.3595856996842504e-05,0.2572939662976669,-1.460285725236812e-05
0.2580880834775979,-6.546014119075422e-06,0.2580880834775979,-4.917792942893874e-05,0.2580880834775979,-1.2588664706008025e-05,0.2580880834775979,-1.6281329412016045e-05
0.258882200657529,-5.53903e-06,0.258882200657529,-3.1383897514320975e-05,0.258882200657529,-1.225308483719458e-05,0.258882200657529,-1.560940613963793e-05
0.2596763178374601,-5.537956313076229e-06,0.2596763178374601,-1.5941539459672176e-05,0.2596763178374601,-1.2588834211365215e-05,0.2596763178374601,-1.3258959223385444e-05
0.2604704350173911,-2.855348568106338e-06,0.2604704350173911,-5.546425707630423e-06,0.2604704350173911,-1.292416142809837e-05,0.2604704350173911,-1.0408727825630354e-05
0.2612645521973222,-3.524451347304954e-06,0.2612645521973222,2.513196116900957e-06,0.2612645521973222,-1.4937464024995363e-05,0.2612645521973222,-1.0574405363615442e-05
0.2620586693772533,-4.36373053508797e-06,0.2620586693772533,3.859970860304768e-06,0.2620586693772533,-3.026252385094763e-06,0.2620586693772533,-5.205566562944946e-06
0.2628527865571843,-2.182626575266308e-06,0.2628527865571843,-6.5433224878118095e-06,0.2628527865571843,2.5162509997995747e-06,0.2628527865571843,-4.196500728286694e-06
0.2636469037371154,-3.860326503414124e-06,0.2636469037371154,-1.6951538316075578e-05,0.2636469037371154,-9.901594123567186e-06,0.2636469037371154,-6.88149440473517e-06
0.2644410209170465,-6.881749251119628e-06,0.2644410209170465,-2.232417415293227e-05,0.2644410209170465,-3.038096530928929e-05,0.2644410209170465,-1.2924506123715716e-05
0.2652351380969776,-4.195938067511472e-06,0.2652351380969776,-3.273135902899224e-05,0.2652351380969776,-4.045018194201552e-05,0.2652351380969776,-1.69528e-05
0.2660292552769086,-2.51774e-06,0.2660292552769086,-3.7095454560009496e-05,0.2660292552769086,-3.1719511643488704e-05,0.2660292552769086,-1.69528e-05
0.2668233724568397,-2.51774e-06,0.2668233724568397,-3.944274507714173e-05,0.2668233724568397,-1.931250451331457e-05,0.2668233724568397,-1.69528e-05
0.2676174896367708,-3.188708440967119e-06,0.2676174896367708,-3.77671788975822e-05,0.2676174896367708,-1.2257531369845248e-05,0.2676174896367708,-1.913339746528188e-05
0.2684116068167018,-4.195731296010421e-06,0.2684116068167018,-3.071989096259057e-05,0.2684116068167018,-6.884479771117523e-06,0.2684116068167018,-1.9302616857083428e-05
0.2692057239966329,-2.853906768968817e-06,0.2692057239966329,-1.947440920184573e-05,0.2692057239966329,-3.5259969276362142e-06,0.2692057239966329,-1.6282450238001095e-05
0.269999841176564,-2.85344e-06,0.269999841176564,-1.024064661248646e-05,0.269999841176564,-9.566201305644849e-06,0.269999841176564,-1.4267602899451912e-05
0.270793958356495,-5.87456154069452e-06,0.270793958356495,-4.867911705723341e-06,0.270793958356495,-9.23172760670605e-06,0.270793958356495,-1.42672e-05
0.2715880755364261,-3.524766127958229e-06,0.2715880755364261,-1.5107677459862225e-06,0.2715880755364261,-7.721213713283159e-06,0.2715880755364261,-1.4266944508027555e-05
0.2723821927163572,-2.8540918351659296e-06,0.2723821927163572,-2.85344e-06,0.2723821927163572,-9.23317663215729e-06,0.2723821927163572,-1.1580622248464685e-05
0.2731763098962882,-5.539160854194992e-06,0.2731763098962882,-2.8551411474136264e-06,0.2731763098962882,-1.5274823432372235e-05,0.2731763098962882,-7.55348171228805e-06
0.2739704270762193,-5.874478082032779e-06,0.2739704270762193,-7.21437498715364e-06,0.2739704270762193,-1.661613229930476e-05,0.2739704270762193,-8.224126156858968e-06
0.2747645442561504,-7.887753885762821e-06,0.2747645442561504,-9.901558518176992e-06,0.2747645442561504,-1.4939563433314187e-05,0.2747645442561504,-8.895624626674325e-06
0.2755586614360815,-1.0908911713121712e-05,0.2755586614360815,-1.0909770569619228e-05,0.2755586614360815,-1.6616384282698715e-05,0.2755586614360815,-8.89601e-06
0.2763527786160125,-9.567784398242496e-06,0.2763527786160125,-1.1581412799484646e-05,0.2763527786160125,-2.0308770397165552e-05,0.2763527786160125,-1.1580851200726795e-05
0.2771468957959436,-6.882172455128002e-06,0.2771468957959436,-1.15816e-05,0.2771468957959436,-2.1148889863924343e-05,0.2771468957959436,-1.3595535657669702e-05
0.2779410129758747,-6.881830972295061e-06,0.2779410129758747,-1.225301097229506e-05,0.2779410129758747,-1.997408902770494e-05,0.2779410129758747,-1.1749419202333476e-05
0.2787351301558057,-7.553164970649888e-06,0.2787351301558057,-1.2924620117400443e-05,0.2787351301558057,-1.9302534911949667e-05,0.2787351301558057,-1.2924565088050333e-05
0.2795292473357368,-7.216266714043327e-06,0.2795292473357368,-1.4267617764059652e-05,0.2795292473357368,-1.829486891289561e-05,0.2795292473357368,-1.3931604441014914e-05
0.2803233645156679,-3.1923600910361627e-06,0.2803233645156679,-1.560892663099227e-05,0.2803233645156679,-1.5947578395763527e-05,0.2803233645156679,-1.4266931657748069e-05
0.2811174816955989,-2.8536591370118625e-06,0.2811174816955989,-1.896480862988137e-05,0.2811174816955989,-1.628118086298814e-05,0.2811174816955989,-1.3260757411035588e-05
0.2819115988755301,-4.195551629814911e-06,0.2819115988755301,-1.9638060812381485e-05,0.2819115988755301,-1.191950471952036e-05,0.2819115988755301,-1.2924569593809258e-05
0.2827057160554611,-4.867389898786644e-06,0.2827057160554611,-2.0309559898786644e-05,0.2827057160554611,-1.0910560151820031e-05,0.2827057160554611,-1.1582080202426713e-05
0.2834998332353922,-5.874508479888088e-06,0.2834998332353922,-2.16523179703837e-05,0.2834998332353922,-1.2588347462979628e-05,0.2834998332353922,-9.567833042324136e-06
0.2842939504153233,-4.19633482038286e-06,0.2842939504153233,-1.9638525785208822e-05,0.2842939504153233,-9.735438195088007e-06,0.2842939504153233,-1.091011614381861e-05
0.2850880675952543,-3.6931229728145545e-06,0.2850880675952543,-1.560974278899001e-05,0.2850880675952543,-7.21749142099889e-06,0.2850880675952543,-1.577802863200888e-05
0.2858821847751854,-8.89601e-06,0.2858821847751854,-1.2586278220994169e-05,0.2858821847751854,-6.88182e-06,0.2858821847751854,-1.84639859281634e-05
0.2866763019551165,-8.896265009641802e-06,0.2866763019551165,-2.179489914976511e-06,0.2866763019551165,-6.883477555075358e-06,0.2866763019551165,-2.0983112534331743e-05
0.2874704191350475,-9.56691944310811e-06,0.2874704191350475,4.527024453000544e-06,0.2874704191350475,-1.1242711394815675e-05,0.2874704191350475,-2.601292089637561e-05
0.2882645363149786,-8.225394176633134e-06,0.2882645363149786,3.860922088316567e-06,0.2882645363149786,-1.2923419779208582e-05,0.2882645363149786,-2.4339080220791417e-05
0.2890586534949096,-9.063493747610744e-06,0.2890586534949096,4.196083499044297e-06,0.2890586534949096,-1.0911079005734215e-05,0.2890586534949096,-2.1653771964005185e-05
0.2898527706748408,-7.72145782812417e-06,0.2898527706748408,1.0237054769108896e-05,0.2898527706748408,-1.05745969577531e-05,0.2898527706748408,-1.8967775662024797e-05
0.2906468878547718,-5.53933819316581e-06,0.2906468878547718,8.560547071340068e-06,0.2906468878547718,-8.224941900441057e-06,0.2906468878547718,-1.628177931640396e-05
0.2914410050347029,-3.524838514608341e-06,0.2914410050347029,2.5176463396887016e-06,0.2914410050347029,-7.888934479118526e-06,0.2914410050347029,-1.1581591485391658e-05
0.292235122214634,-4.867423312581243e-06,0.292235122214634,-1.2254653483957785e-05,0.292235122214634,-1.174937417176879e-05,0.292235122214634,-1.0239213374837511e-05
0.293029239394565,-3.5250321754855117e-06,0.293029239394565,-2.2996614140655826e-05,0.293029239394565,-1.1582610877427556e-05,0.293029239394565,-1.2924298912257244e-05
0.2938233565744961,-4.19568660895182e-06,0.2938233565744961,-2.7355867958186834e-05,0.2938233565744961,-1.4935883044759102e-05,0.2938233565744961,-1.258897169552409e-05
0.2946174737544272,-4.699446258239073e-06,0.2946174737544272,-3.037869754943444e-05,0.2946174737544272,-1.49386e-05,0.2946174737544272,-1.3091866291377964e-05
0.2954115909343582,-3.0221547513715607e-06,0.2954115909343582,-2.635437541565645e-05,0.2954115909343582,-1.3596491805218817e-05,0.2954115909343582,-1.3260013498587847e-05
0.2962057081142893,-4.195798075318709e-06,0.2962057081142893,-2.047975962340645e-05,0.2962057081142893,-1.577699786571691e-05,0.2962057081142893,-1.242110853863602e-05
0.2969998252942204,-6.209976812803347e-06,0.2969998252942204,-1.5275444894940568e-05,0.2969998252942204,-1.4938784651247115e-05,0.2969998252942204,-1.0574906245945609e-05
0.2977939424741515,-4.196375929456989e-06,0.2977939424741515,-1.7624029748121588e-05,0.2977939424741515,-1.7624005426424673e-05,0.2977939424741515,-1.1245851356606168e-05
0.2985880596540825,-2.8535408852713477e-06,0.2985880596540825,-2.198812344946035e-05,0.2985880596540825,-1.5609873892471678e-05,0.2985880596540825,-8.896060443011328e-06
0.2993821768340136,-4.196678586022623e-06,0.2993821768340136,-1.9635932766853497e-05,0.2993821768340136,-1.3932023352958044e-05,0.2993821768340136,-9.567110941166832e-06
0.3001762940139447,-6.209923397503408e-06,0.3001762940139447,-8.555716414887082e-06,0.3001762940139447,-1.628239321238976e-05,0.3001762940139447,-8.225727360240194e-06
0.3009704111938757,-4.868624519466135e-06,0.3009704111938757,3.851330670867565e-06,0.3009704111938757,-1.8965010946255e-05,0.3009704111938757,-1.124366232194324e-05
0.3017645283738068,-5.538631196692543e-06,0.3017645283738068,1.4261018566554037e-05,0.3017645283738068,-2.098000359007763e-05,0.3017645283738068,-1.2923402991731356e-05
0.3025586455537379,-3.861279292255625e-06,0.3025586455537379,2.4669154432655717e-05,0.3025586455537379,-1.712232339450823e-05,0.3025586455537379,-1.376322537619248e-05
0.3033527627336689,-8.401488324555037e-07,0.3033527627336689,2.46738e-05,0.3033527627336689,-1.225445455616235e-05,0.3033527627336689,-1.896544509870672e-05
0.3041468799136,-2.85313536863181e-06,0.3041468799136,1.259052777852963e-05,0.3041468799136,-1.292429845590812e-05,0.3041468799136,-1.6617455404321584e-05
0.3049409970935311,-5.539020169289912e-06,0.3049409970935311,-1.25886078371158e-05,0.3049409970935311,-1.2253002457686672e-05,0.3049409970935311,-1.2924413517276704e-05
0.3057351142734621,-7.88917572897597e-06,0.3057351142734621,-2.970765732617704e-05,0.3057351142734621,-1.0910055056922196e-05,0.3057351142734621,-1.527502471538901e-05
0.3065292314533932,-9.7354065987945e-06,0.3065292314533932,-1.82912996920288e-05,0.3065292314533932,-9.902073793881692e-06,0.3065292314533932,-2.0310386377709816e-05
0.3073233486333243,-1.023838743499892e-05,0.3073233486333243,-3.5369321224550035e-06,0.3073233486333243,-6.381157995974013e-06,0.3073233486333243,-2.2322249789155432e-05
0.3081174658132554,-8.896913401283128e-06,0.3081174658132554,3.85556128285111e-06,0.3081174658132554,-3.023548506571715e-06,0.3081174658132554,-1.4272620380787593e-05
0.3089115829931864,-8.560486308800151e-06,0.3089115829931864,1.9630113502148893e-05,0.3089115829931864,-2.8535281544000746e-06,0.3089115829931864,-7.892259861950868e-06
0.3097057001731175,-8.56031e-06,0.3097057001731175,1.7289387359182656e-05,0.3097057001731175,-8.558154996170594e-06,0.3097057001731175,-6.211053824211455e-06
0.3104998173530486,-8.224687222394942e-06,0.3104998173530486,-1.023246778661816e-05,0.3104998173530486,-1.4937132776796444e-05,0.3104998173530486,-1.2587232779096784e-05
0.3112939345329796,-8.22461e-06,0.3112939345329796,-3.1721728539934086e-05,0.3112939345329796,-1.9302340170499305e-05,0.3112939345329796,-1.5945423208076386e-05
0.3120880517129107,-6.881907455389767e-06,0.3120880517129107,-4.011698387394901e-05,0.3120880517129107,-2.1988212543958935e-05,0.3120880517129107,-1.6449407711354008e-05
0.3128821688928418,-8.224110151637189e-06,0.3128821688928418,-5.5225720424761785e-05,0.3128821688928418,-2.064435748459446e-05,0.3128821688928418,-1.9638257185574307e-05
0.3136762860727728,-5.873632822707945e-06,0.3136762860727728,-7.083064840699818e-05,0.3136762860727728,-1.527248802585191e-05,0.3136762860727728,-1.896555042068153e-05
0.314470403252704,-2.8557078499000327e-06,0.314470403252704,-6.596835381989038e-05,0.314470403252704,-1.024257977485424e-05,0.314470403252704,-1.494162381988339e-05
0.315264520432635,-1.8469482774474527e-06,0.315264520432635,-3.543465096177491e-05,0.315264520432635,-9.56781551225841e-06,0.315264520432635,-1.6280588963403397e-05
0.3160586376125661,5.024754938510589e-07,0.3160586376125661,-8.237020441465495e-06,0.3160586376125661,-1.2419497691838792e-05,0.3160586376125661,-1.829468070432072e-05
0.3168527547924971,3.859493278119194e-06,0.3168527547924971,9.226319042019782e-06,0.3168527547924971,-1.4937822438978972e-05,0.3168527547924971,-1.4939636727439666e-05
0.3176468719724282,-2.85235741401006e-06,0.3176468719724282,1.997236785628883e-05,0.3176468719724282,-2.1651517409172747e-05,0.3176468719724282,-9.568276071049365e-06
0.3184409891523593,-4.531907068442826e-06,0.3184409891523593,2.7359299101913508e-05,0.3184409891523593,-2.6352235792623576e-05,0.3184409891523593,-5.539085035791865e-06
0.3192351063322903,-1.8467446104351971e-06,0.3192351063322903,3.592003718317465e-05,0.3192351063322903,-2.31628178733535e-05,0.3192351063322903,-5.874607609179644e-06
0.3200292235122214,-4.867818762396835e-06,0.3200292235122214,3.843740561880158e-05,0.3200292235122214,-2.031074378386943e-05,0.3200292235122214,-5.036565378158852e-06
0.3208233406921525,-5.538473195863144e-06,0.3208233406921525,3.810207840206843e-05,0.3208233406921525,-2.366391606224753e-05,0.3208233406921525,-8.89280839279944e-06
0.3216174578720835,-5.70675540207872e-06,0.3216174578720835,3.273426735197081e-05,0.3216174578720835,-1.9641150445700037e-05,0.3216174578720835,-1.225070791184605e-05
0.3224115750520147,-7.216711501670033e-06,0.3224115750520147,1.9980927265710933e-05,0.3224115750520147,-1.4941115328137676e-05,0.3224115750520147,-1.5272683003340068e-05
0.3232056922319457,-8.224219634597269e-06,0.3232056922319457,3.866775896833938e-06,0.3232056922319457,-1.49386e-05,0.3232056922319457,-1.577760483474141e-05
0.3239998094118768,-1.0909555363277254e-05,0.3239998094118768,-2.433133133001348e-05,0.3239998094118768,-1.3596122319561548e-05,0.3239998094118768,-1.6449038840219226e-05
0.3247939265918079,-1.1581537926624432e-05,0.3247939265918079,-5.488387567065706e-05,0.3247939265918079,-1.5274144816561083e-05,0.3247939265918079,-1.7624091366970077e-05
0.3255880437717389,-1.6281270454396256e-05,0.3255880437717389,-7.016113879610474e-05,0.3255880437717389,-1.628143701302964e-05,0.3255880437717389,-1.6281362986970358e-05
0.32638216095167,-1.3929526564276674e-05,0.32638216095167,-7.267733900565198e-05,0.32638216095167,-1.6952936099434804e-05,0.32638216095167,-1.560918340339119e-05
0.3271762781316011,-4.1955253334722185e-06,0.3271762781316011,-6.596047201482736e-05,0.3271762781316011,-1.7623965109991237e-05,0.3271762781316011,-1.1581365109991236e-05
0.3279703953115321,-2.183572021968636e-06,0.3279703953115321,-5.388879210138724e-05,0.3279703953115321,-1.6953310676524927e-05,0.3279703953115321,-1.0910710676524926e-05
0.3287645124914632,2.8503482626112177e-06,0.3287645124914632,-3.8446981304251295e-05,0.3287645124914632,-1.3597861166445727e-05,0.3287645124914632,-9.90371834993372e-06
0.3295586296713942,3.860060284338111e-06,0.3295586296713942,-3.0048914336049813e-05,0.3295586296713942,-1.1246996014093947e-05,0.3295586296713942,-5.876598871975734e-06
0.3303527468513254,-8.37747584300409e-07,0.3303527468513254,-1.6285788207932226e-05,0.3303527468513254,-1.0406967559657118e-05,0.3303527468513254,-7.04929539416214e-06
0.3311468640312564,-4.195655132371843e-06,0.3311468640312564,1.650321439299053e-07,0.3311468640312564,-9.23191121147864e-06,0.3311468640312564,-9.566978848936393e-06
0.3319409812111875,-3.5248458876684088e-06,0.3319409812111875,8.56011140506777e-06,0.3319409812111875,-1.0238776168734022e-05,0.3319409812111875,-1.3260012618060388e-05
0.3327350983911186,-2.518051994023814e-06,0.3327350983911186,3.859864413823155e-06,0.3327350983911186,-1.1917092003158004e-05,0.3327350983911186,-1.4267449596210395e-05
0.3335292155710496,-5.035616541889354e-06,0.3335292155710496,-1.5099117820132778e-06,0.3335292155710496,-1.0238344863080402e-05,0.3335292155710496,-1.6281764111704945e-05
0.3343233327509807,-5.538607366989087e-06,0.3343233327509807,1.1726859740612682e-06,0.3343233327509807,-8.561718768309975e-06,0.3343233327509807,-1.7623072978637565e-05
0.3351174499309118,-5.53903e-06,0.3351174499309118,1.8458748660128049e-06,0.3351174499309118,-6.882982828040165e-06,0.3351174499309118,-1.9972472031044817e-05
0.3359115671108428,-9.565213725412084e-06,0.3359115671108428,-6.700243286551523e-07,0.3359115671108428,-8.22387791028803e-06,0.3359115671108428,-2.098065092862702e-05
0.3367056842907739,-1.2587498678680469e-05,0.3367056842907739,-2.852572378958644e-06,0.3367056842907739,-1.0237999120445706e-05,0.3367056842907739,-1.6283268728237786e-05
0.337499801470705,-7.722287087093498e-06,0.337499801470705,-4.531510315571322e-06,0.337499801470705,-1.560865700182705e-05,0.337499801470705,-1.4938935749543235e-05
0.338293918650636,-2.8539387136073777e-06,0.338293918650636,-8.559897271850636e-06,0.338293918650636,-1.4938668788366413e-05,0.338293918650636,-1.560993121163359e-05
0.3390880358305671,-8.394580855492221e-07,0.3390880358305671,-1.829603174479585e-05,0.3390880358305671,-1.4267245447058124e-05,0.3390880358305671,-1.7288522721272728e-05
0.3398821530104982,-5.539968041072862e-06,0.3398821530104982,-2.786400271980525e-05,0.3398821530104982,-1.5274170615556042e-05,0.3398821530104982,-1.779138543352662e-05
0.3406762701904293,-1.040641475707495e-05,0.3406762701904293,-3.306607181653555e-05,0.3406762701904293,-1.4601644990945529e-05,0.3406762701904293,-1.46029e-05
0.3414703873703603,-9.568056759660744e-06,0.3414703873703603,-3.2395417383069286e-05,0.3414703873703603,-1.0913045606881084e-05,0.3414703873703603,-1.46029e-05
0.3422645045502914,-7.5544768386000495e-06,0.3422645045502914,-3.1052937896559984e-05,0.3422645045502914,-1.0239218948279987e-05,0.3422645045502914,-1.6280352629300024e-05
0.3430586217302225,-5.8755196546870736e-06,0.3430586217302225,-3.138764006906258e-05,0.3430586217302225,-1.1245420207187756e-05,0.3430586217302225,-1.4268159585624486e-05
0.3438527389101535,-7.552668061325829e-06,0.3438527389101535,-3.9274105904672825e-05,0.3438527389101535,-1.0910310387734834e-05,0.3438527389101535,-1.42672e-05
0.3446468560900846,-6.378482955862806e-06,0.3446468560900846,-4.733203973122648e-05,0.3446468560900846,-1.124583915546777e-05,0.3446468560900846,-1.359592168906446e-05
0.3454409732700157,-4.867680855646669e-06,0.3454409732700157,-5.857902140714076e-05,0.3454409732700157,-1.225296609601112e-05,0.3454409732700157,-1.4938554794681494e-05
0.3462350904499467,-4.86763e-06,0.3462350904499467,-6.193565428917324e-05,0.3462350904499467,-1.023891472561886e-05,0.3462350904499467,-1.6281323516254092e-05
0.3470292076298778,-4.867454650691841e-06,0.3470292076298778,-5.538639849095196e-05,0.3470292076298778,-1.1246075349308158e-05,0.3470292076298778,-1.561017534930816e-05
0.3478233248098089,-4.196800217225532e-06,0.3478233248098089,-4.04643872908033e-05,0.3478233248098089,-1.1916729782774468e-05,0.3478233248098089,-1.6280829782774468e-05
0.34861744198974,-4.867158151021961e-06,0.34861744198974,-2.5020352526494905e-05,0.34861744198974,-1.4265548528576862e-05,0.34861744198974,-1.561047184897804e-05
0.349411559169671,-6.880701717833383e-06,0.349411559169671,-1.2260082433364498e-05,0.349411559169671,-1.3260659143859318e-05,0.349411559169671,-1.3596918287718636e-05
0.3502056763496021,-5.875130514251506e-06,0.3502056763496021,6.874020261830996e-06,0.3502056763496021,-5.877730429691976e-06,0.3502056763496021,-1.35958e-05
0.3509997935295332,-6.210332705118769e-06,0.3509997935295332,2.8025300453687022e-05,0.3509997935295332,4.529223871683742e-06,0.3509997935295332,-1.1582123769287388e-05
0.3517939107094642,-6.042588875839326e-06,0.3517939107094642,5.152705739374009e-05,0.3517939107094642,-4.195248460853335e-06,0.3517939107094642,-1.1917262248321349e-05
0.3525880278893953,-3.5247592512075347e-06,0.3525880278893953,6.462184081267039e-05,0.3525880278893953,-2.6185012929535688e-05,0.3525880278893953,-1.2252976416952094e-05
0.3533821450693264,-1.5110080065322709e-06,0.3533821450693264,6.008791463756777e-05,0.3533821450693264,-4.078721599582033e-05,0.3533821450693264,-1.1582581355624909e-05
0.3541762622492574,-3.52483e-06,0.3541762622492574,4.867115067810162e-05,0.3541762622492574,-3.977642415389847e-05,0.3541762622492574,-1.6954350338440615e-05
0.3549703794291886,-3.52483e-06,0.3549703794291886,3.307848504448557e-05,0.3549703794291886,-2.8039971568237236e-05,0.3549703794291886,-2.1648931372705105e-05
0.3557644966091196,-4.195804336729119e-06,0.3557644966091196,2.4679120790886013e-05,0.3557644966091196,-1.662433621220562e-05,0.3557644966091196,-2.0310651326541763e-05
0.3565586137890507,-6.209440274266957e-06,0.3565586137890507,2.0647459412553143e-05,0.3565586137890507,-1.1248512614925762e-05,0.3565586137890507,-1.762550630746288e-05
0.3573527309689818,-3.693533085838445e-06,0.3573527309689818,1.2927016140295352e-05,0.3573527309689818,-1.12459e-05,0.3573527309689818,-1.493950996184186e-05
0.3581468481489128,-2.3501468061981264e-06,0.3581468481489128,-1.67569722327202e-06,0.3581468481489128,-1.3595350585806431e-05,0.3581468481489128,-1.0910970424331828e-05
0.3589409653288439,-2.34989e-06,0.3589409653288439,-1.7287818366380815e-05,0.3589409653288439,-1.2924429317650142e-05,0.3589409653288439,-1.0238829317650142e-05
0.3597350825087749,-4.196160231244983e-06,0.3597350825087749,-3.105302443080821e-05,0.3597350825087749,-5.539361399508025e-06,0.3597350825087749,-1.09099906947741e-05
0.360529199688706,-3.524998642763844e-06,0.360529199688706,-3.994831081601384e-05,0.360529199688706,-8.729466978907982e-06,0.360529199688706,-8.896262961633958e-06
0.3613233168686371,-4.195653076230153e-06,0.3613233168686371,-4.078667880232346e-05,0.3613233168686371,-1.3927028849376532e-05,0.3613233168686371,-9.902234622938077e-06
0.3621174340485681,-4.19623e-06,0.3621174340485681,-3.776825353786018e-05,0.3621174340485681,-1.527334287206214e-05,0.3621174340485681,-1.1580403590077673e-05
0.3629115512284993,-3.5252094775637226e-06,0.3629115512284993,-3.122369987798613e-05,0.3629115512284993,-1.728736156730883e-05,0.3629115512284993,-1.15816e-05
0.3637056684084303,-4.86706921768297e-06,0.3637056684084303,-3.105217011867071e-05,0.3637056684084303,-1.6281820586737773e-05,0.3637056684084303,-9.568251169299328e-06
0.3644997855883614,-3.525192609506708e-06,0.3644997855883614,-3.10521e-05,0.3644997855883614,-1.4938962609506708e-05,0.3644997855883614,-9.56741e-06
0.3652939027682925,-3.860488890825927e-06,0.3652939027682925,-2.5849437186075227e-05,0.3652939027682925,-1.628123556330371e-05,0.3652939027682925,-1.0574376673702362e-05
0.3660880199482235,-5.539076386905553e-06,0.3660880199482235,-2.232388313445536e-05,0.3660880199482235,-1.527432530208552e-05,0.3660880199482235,-1.0238816868057016e-05
0.3668821371281546,-7.385196068306666e-06,0.3668821371281546,-2.16526e-05,0.3668821371281546,-1.6280820227688887e-05,0.3668821371281546,-1.0910779772311112e-05
0.3676762543080857,-6.37843107778183e-06,0.3676762543080857,-2.1652385229624227e-05,0.3676762543080857,-1.2923970459248452e-05,0.3676762543080857,-1.4267629540751546e-05
0.3684703714880167,-6.881421902881561e-06,0.3684703714880167,-2.098173079615792e-05,0.3684703714880167,-1.1582661592315835e-05,0.3684703714880167,-1.5608938407684167e-05
0.3692644886679478,-8.223745249916406e-06,0.3692644886679478,-1.980695669415785e-05,0.3692644886679478,-1.0910632378261773e-05,0.3692644886679478,-1.6280967621738228e-05
0.3700586058478789,-7.553553286892431e-06,0.3700586058478789,-1.913513329185656e-05,0.3700586058478789,-1.124573335407172e-05,0.3700586058478789,-1.4268199875569691e-05
0.3708527230278099,-6.210888410902714e-06,0.3708527230278099,-1.8967058533921264e-05,0.3708527230278099,-1.2252648691822964e-05,0.3708527230278099,-1.4938365794548645e-05
0.371646840207741,-8.22420464487391e-06,0.371646840207741,-1.82957351190462e-05,0.371646840207741,-1.0239205357138586e-05,0.371646840207741,-1.5274232440476903e-05
0.3724409573876721,-8.22461e-06,0.3724409573876721,-1.8966963967358967e-05,0.3724409573876721,-1.158152793471793e-05,0.3724409573876721,-1.393157206528207e-05
0.3732350745676032,-6.88182e-06,0.3732350745676032,-1.863139458064633e-05,0.3732350745676032,-1.292424236558945e-05,0.3732350745676032,-1.493869458064633e-05
0.3740291917475342,-6.881698547835388e-06,0.3740291917475342,-1.96384e-05,0.3740291917475342,-1.12459e-05,0.3740291917475342,-1.594578096810974e-05
0.3748233089274653,-6.378707722735657e-06,0.3748233089274653,-1.96384e-05,0.3748233089274653,-1.12459e-05,0.3748233089274653,-1.6281108184842895e-05
0.3756174261073964,-6.881456040780169e-06,0.3756174261073964,-1.8632027918439666e-05,0.3756174261073964,-9.904070557919549e-06,0.3756174261073964,-1.5610485278959776e-05
0.3764115432873274,-5.539802379357179e-06,0.3764115432873274,-1.7960286192554614e-05,0.3764115432873274,-1.0406410326823797e-05,0.3764115432873274,-1.4267972385109226e-05
0.3772056604672585,-4.196804212298812e-06,0.3772056604672585,-2.1986577363103564e-05,0.3772056604672585,-1.460110560794737e-05,0.3772056604672585,-1.3596087106149406e-05
0.3779997776471896,-6.209855943567819e-06,0.3779997776471896,-3.709046958375968e-05,0.3779997776471896,-1.5274111980255804e-05,0.3779997776471896,-1.4099158999193918e-05
0.3787938948271206,-6.21042e-06,0.3787938948271206,-5.25347545464481e-05,0.3787938948271206,-1.6281266599991444e-05,0.3787938948271206,-1.628111096002515e-05
0.3795880120070517,-2.1821009180945784e-06,0.3795880120070517,-5.790795938773532e-05,0.3795880120070517,-1.628138984693383e-05,0.3795880120070517,-1.644916700329106e-05
0.3803821291869828,-6.210228832552128e-06,0.3803821291869828,-5.521852201503648e-05,0.3803821291869828,-1.5609890760528624e-05,0.3803821291869828,-1.4267309239471375e-05
0.3811762463669139,-5.035323952126441e-06,0.3811762463669139,-3.137614848122214e-05,0.3811762463669139,-1.4938704031915706e-05,0.3811762463669139,-1.4938391936168589e-05
0.3819703635468449,-4.53233312702671e-06,0.3819703635468449,6.180319992774945e-06,0.3819703635468449,-1.527403124864886e-05,0.3819703635468449,-1.426773750270228e-05
0.382764480726776,-4.53193e-06,0.382764480726776,2.935845136126433e-05,0.382764480726776,-1.024209319939462e-05,0.382764480726776,-1.3931719546626308e-05
0.3835585979067071,-1.5121700257491902e-06,0.3835585979067071,4.7492119865761446e-05,0.3835585979067071,-9.73551500007141e-06,0.3835585979067071,-1.225385001711852e-05
0.3843527150866381,-1.683308376549986e-07,0.3843527150866381,5.756868619336628e-05,0.3843527150866381,-1.3929994250824285e-05,0.3843527150866381,-1.0910681840884494e-05
0.3851468322665692,-2.1816144997901413e-06,0.3851468322665692,4.951720200844447e-05,0.3851468322665692,-1.8294678078759244e-05,0.3851468322665692,-1.225271633192592e-05
0.3859409494465003,-3.5247445053730302e-06,0.3859409494465003,3.709549082482195e-05,0.3859409494465003,-2.299500077294412e-05,0.3859409494465003,-1.1581642747631833e-05
0.3867350666264313,-5.874917184867528e-06,0.3867350666264313,3.5752040846933325e-05,0.3867350666264313,-2.2995243661226672e-05,0.3867350666264313,-1.2924456338773329e-05
0.3875291838063624,-8.22461e-06,0.3875291838063624,3.742869247357368e-05,0.3875291838063624,-2.2322891030232013e-05,0.3875291838063624,-1.359626568902536e-05
0.3883233009862935,-8.22461e-06,0.3883233009862935,3.005149370544376e-05,0.3883233009862935,-1.7963737101654152e-05,0.3883233009862935,-1.560822898942443e-05
0.3891174181662246,-7.218257983598117e-06,0.3891174181662246,1.3272399775487824e-05,0.3891174181662246,-1.6282629984876665e-05,0.3891174181662246,-1.6280908006049334e-05
0.3899115353461556,-8.559524190761148e-06,0.3899115353461556,-3.8505108985552735e-06,0.3899115353461556,-1.326186808395456e-05,0.3899115353461556,-1.846212307973758e-05
0.3907056525260867,-5.540352186378633e-06,0.3907056525260867,-1.8289282858613363e-05,0.3907056525260867,-1.2924546910570124e-05,0.3907056525260867,-1.376565674798175e-05
0.3914997697060178,-5.53903e-06,0.3914997697060178,-2.634996321218321e-05,0.3914997697060178,-1.2588797367367544e-05,0.3914997697060178,-1.2589040771284268e-05
0.3922938868859488,-6.545976528929787e-06,0.3922938868859488,-3.5414908747546604e-05,0.3922938868859488,-1.326000435167012e-05,0.3922938868859488,-1.3595656527505178e-05
0.3930880040658799,-4.196243752250098e-06,0.3930880040658799,-3.508049312384935e-05,0.3930880040658799,-1.3595806876150653e-05,0.3930880040658799,-1.3931487966736358e-05
0.393882121245811,-6.881871262240243e-06,0.393882121245811,-3.3739340376417546e-05,0.393882121245811,-1.4938138639837806e-05,0.393882121245811,-1.1581805048960974e-05
0.394676238425742,-7.2171172854259e-06,0.394676238425742,-4.44852352894633e-05,0.394676238425742,-1.1917199321356476e-05,0.394676238425742,-1.2925054396187584e-05
0.3954703556056732,-5.875808418493189e-06,0.3954703556056732,-6.192225055958855e-05,0.3954703556056732,-1.1581872104623296e-05,0.3954703556056732,-1.5104631360476512e-05
0.3962644727856042,-8.22304967778787e-06,0.3962644727856042,-8.642612806551349e-05,0.3962644727856042,-1.0407480131226156e-05,0.3962644727856042,-1.7622528185887126e-05
0.3970585899655353,-5.540416877024874e-06,0.3970585899655353,-8.342266024827236e-05,0.3970585899655353,-9.567843422954524e-06,0.3970585899655353,-1.728867336091915e-05
0.3978527071454664,-4.196725270866183e-06,0.3978527071454664,-3.946082004710062e-05,0.3978527071454664,-1.1916433279672524e-05,0.3978527071454664,-1.510720483359927e-05
0.3986468243253974,-4.531855725486058e-06,0.3986468243253974,2.8440814466437428e-06,0.3986468243253974,-1.2588551450972116e-05,0.3986468243253974,-1.2589257047791932e-05
0.3994409415053285,-4.196254731311362e-06,0.3994409415053285,3.84348784913096e-05,0.3994409415053285,-1.4267076343443192e-05,0.3994409415053285,-1.3595725806065915e-05
0.4002350586852595,-2.8536384943906425e-06,0.4002350586852595,6.1600240983708e-05,0.4002350586852595,-1.4267051128652684e-05,0.4002350586852595,-1.2924313154685189e-05
0.4010291758651906,-5.538658692172986e-06,0.4010291758651906,5.538595570948463e-05,0.4010291758651906,-1.2253371307827014e-05,0.4010291758651906,-1.174906583401639e-05
0.4018232930451217,-3.862022608507213e-06,0.4018232930451217,3.576936347507182e-05,0.4018232930451217,-1.3930007391492788e-05,0.4018232930451217,-1.024014330319392e-05
0.4026174102250527,-5.537783227646226e-06,0.4026174102250527,3.884218578159064e-06,0.4026174102250527,-1.4266950645529244e-05,0.4026174102250527,-1.0909701291058487e-05
0.4034115274049838,-5.53903e-06,0.4034115274049838,-2.230831482226956e-05,0.4034115274049838,-1.3931699811268151e-05,0.4034115274049838,-1.09102e-05
0.4042056445849149,-6.881218932213978e-06,0.4042056445849149,-3.675253847318046e-05,0.4042056445849149,-1.2253751340327852e-05,0.4042056445849149,-1.09102e-05
0.404999761764846,-5.707222537020465e-06,0.404999761764846,-4.1121790576781125e-05,0.404999761764846,-1.393099637568505e-05,0.404999761764846,-1.292379565082206e-05
0.4057938789447771,-7.552938500868004e-06,0.4057938789447771,-4.397606496351004e-05,0.4057938789447771,-1.2924553544981088e-05,0.4057938789447771,-1.4938292910037825e-05
0.4065879961247081,-4.196246384529016e-06,0.4065879961247081,-5.052256805031728e-05,0.4065879961247081,-1.376359590409958e-05,0.4065879961247081,-1.7624186892337743e-05
0.4073821133046392,-5.539269522296981e-06,0.4073821133046392,-4.5485471252946966e-05,0.4073821133046392,-1.5609616762041615e-05,0.4073821133046392,-1.829512095255202e-05
0.4081762304845703,-7.2178119732149955e-06,0.4081762304845703,-3.4065127381121066e-05,0.4081762304845703,-1.2924205349257218e-05,0.4081762304845703,-1.493879465074278e-05
0.4089703476645013,-8.223783634519114e-06,0.4089703476645013,-5.56244381444242e-06,0.4089703476645013,-1.2253550915790908e-05,0.4089703476645013,-1.5609449084209092e-05
0.4097644648444324,-8.895557476765648e-06,0.4097644648444324,3.723365179208999e-05,0.4097644648444324,-1.2253e-05,0.4097644648444324,-1.7622842430296947e-05
0.4105585820243635,-7.889440155243716e-06,0.4105585820243635,6.158788794126443e-05,0.4105585820243635,-1.3595093126341712e-05,0.4105585820243635,-1.6282106873658287e-05
0.4113526992042945,-8.560055649576018e-06,0.4113526992042945,5.925169022648394e-05,0.4113526992042945,-1.4099109256123808e-05,0.4113526992042945,-1.4267963051271948e-05
0.4121468163842256,-9.567177103971838e-06,0.4121468163842256,4.3812271049306406e-05,0.4121468163842256,-1.6280895380376274e-05,0.4121468163842256,-1.3595955264018774e-05
0.4129409335641567,-7.889050444033918e-06,0.4129409335641567,1.863340665214153e-05,0.4129409335641567,-1.527438426642035e-05,0.4129409335641567,-1.2588784266420353e-05
0.4137350507440878,1.1751545433188746e-06,0.4137350507440878,-4.197141806708614e-06,0.4137350507440878,-1.4938707271978983e-05,0.4137350507440878,-9.902971274264314e-06
0.4145291679240188,4.530795472377476e-06,0.4145291679240188,-1.846506633433001e-05,0.4145291679240188,-1.66171e-05,0.4145291679240188,-7.89032816375266e-06
0.4153232851039499,-8.344160220037946e-07,0.4153232851039499,-2.6345205983081868e-05,0.4153232851039499,-1.66171e-05,0.4153232851039499,-1.4596862509519935e-05
0.416117402283881,-2.851923732719685e-06,0.416117402283881,-3.239035118460881e-05,0.416117402283881,-1.4939863559830885e-05,0.416117402283881,-1.661558372820294e-05
0.416911519463812,-2.182446337527193e-06,0.416911519463812,-3.709185563730965e-05,0.416911519463812,-1.544179527711507e-05,0.416911519463812,-1.3597628518872368e-05
0.4177056366437431,-2.853132748877968e-06,0.4177056366437431,-4.380562748877968e-05,0.4177056366437431,-1.6952108662094052e-05,0.4177056366437431,-1.2421337712344933e-05
0.4184997538236742,-6.88057101790025e-06,0.4184997538236742,-5.0856114301478414e-05,0.4184997538236742,-1.493922449415033e-05,0.4184997538236742,-8.561506928518725e-06
0.4192938710036052,-8.224391845001407e-06,0.4192938710036052,-5.421475460844192e-05,0.4192938710036052,-1.49386e-05,0.4192938710036052,-8.224664539155808e-06
0.4200879881835363,-8.22461e-06,0.4200879881835363,-5.522238501214032e-05,0.4200879881835363,-1.5609990008093546e-05,0.4200879881835363,-8.896000008093545e-06
0.4208821053634674,-8.560176359578797e-06,0.4208821053634674,-4.8171942710030166e-05,0.4208821053634674,-1.4267467283496396e-05,0.4208821053634674,-7.553665469840004e-06
0.4216762225433985,-7.553032055801579e-06,0.4216762225433985,-4.246420850221422e-05,0.4216762225433985,-1.6282151776793683e-05,0.4216762225433985,-1.091104574889289e-05
0.4224703397233295,-6.88237762233527e-06,0.4224703397233295,-3.642831860101743e-05,0.4224703397233295,-1.896476951065892e-05,0.4224703397233295,-1.3928990699491284e-05
0.4232644569032606,-6.210879238225196e-06,0.4232644569032606,-3.172671466757637e-05,0.4232644569032606,-1.6283236952900782e-05,0.4232644569032606,-1.527338152354961e-05
0.4240585740831917,-7.55249969635993e-06,0.4240585740831917,-2.8032780835010188e-05,0.4240585740831917,-1.62814e-05,0.4240585740831917,-1.309337052023607e-05
0.4248526912631227,-6.882081065414827e-06,0.4248526912631227,-2.702409159812224e-05,0.4248526912631227,-1.661696946729259e-05,0.4248526912631227,-1.359560418149701e-05
0.4256468084430538,-3.525639892635539e-06,0.4256468084430538,-2.500998593702885e-05,0.4256468084430538,-1.4939004947524046e-05,0.4256468084430538,-1.4938276041980762e-05
0.4264409256229849,-4.196167107395542e-06,0.4264409256229849,-2.50095e-05,0.4264409256229849,-1.1917583016720062e-05,0.4264409256229849,-1.6281274214791084e-05
0.4272350428029159,-4.1963023876015e-06,0.4272350428029159,-2.1820571917858163e-05,0.4272350428029159,-8.392414758288143e-06,0.4272350428029159,-1.5945772387601496e-05
0.428029159982847,-5.53903e-06,0.428029159982847,-2.501152665063194e-05,0.428029159982847,-7.553760436143792e-06,0.428029159982847,-1.7288837775105322e-05
0.4288232771627781,-5.53903e-06,0.4288232771627781,-3.5071343152627275e-05,0.4288232771627781,-1.0236358192218526e-05,0.4288232771627781,-1.896547385877121e-05
0.4296173943427092,-4.532698208384867e-06,0.4296173943427092,-4.11184907496908e-05,0.4296173943427092,-1.158057572215351e-05,0.4296173943427092,-1.628344855569298e-05
0.4304115115226402,-6.880374322338813e-06,0.4304115115226402,-4.81683630100812e-05,0.4304115115226402,-1.1917093473740956e-05,0.4304115115226402,-1.5274919578777125e-05
0.4312056287025713,-6.88182e-06,0.4312056287025713,-4.313965469908332e-05,0.4312056287025713,-9.904041898338488e-06,0.4312056287025713,-1.1918869830564147e-05
0.4319997458825024,-6.88182e-06,0.4319997458825024,-2.6022079432545545e-05,0.4319997458825024,-1.0238692560146163e-05,0.4319997458825024,-1.19173e-05
0.4327938630624334,-6.5461778966512535e-06,0.4327938630624334,1.17025039884292e-06,0.4327938630624334,-1.292393682678997e-05,0.4327938630624334,-1.4938078930138716e-05
0.4335879802423645,-9.5673348192112e-06,0.4335879802423645,3.272981477931283e-05,0.4335879802423645,-1.0238866827589013e-05,0.4335879802423645,-1.409932088486575e-05
0.4343820974222956,-1.3931994277047448e-05,0.4343820974222956,5.22016354668014e-05,0.4343820974222956,-8.392521784630931e-06,0.4343820974222956,-1.628131762049209e-05
0.4351762146022266,-1.7958903192902677e-05,0.4351762146022266,5.656492814351891e-05,0.4351762146022266,-8.896916185570895e-06,0.4351762146022266,-1.560990938117297e-05
0.4359703317821577,-1.427030380883772e-05,0.4359703317821577,5.5558946493319375e-05,0.4359703317821577,-1.2250178364007328e-05,0.4359703317821577,-1.5274582164439793e-05
0.4367644489620888,-1.0912529766080432e-05,0.4367644489620888,4.951969357894478e-05,0.4367644489620888,-8.898339759140408e-06,0.4367644489620888,-1.628070107017587e-05
0.4375585661420199,-7.219537756531419e-06,0.4375585661420199,3.4752871015197267e-05,0.4375585661420199,2.5115032915360937e-06,0.4375585661420199,-1.62814e-05
0.438352683321951,-4.868567227431459e-06,0.438352683321951,1.863772668985221e-05,0.438352683321951,-6.206938870679832e-06,0.438352683321951,-1.5610267780405673e-05
0.439146800501882,8.378121070258352e-07,0.439146800501882,2.52178864596196e-06,0.439146800501882,-2.869654878113376e-05,0.439146800501882,-1.426753738800102e-05
0.4399409176818131,8.559509516385796e-06,0.4399409176818131,-1.0908807854313536e-05,0.4399409176818131,-4.514969462428148e-05,0.4399409176818131,-1.2924539215190695e-05
0.4407350348617442,1.19173e-05,0.4407350348617442,-1.9303333790022323e-05,0.4407350348617442,-4.263313253510464e-05,0.4407350348617442,-1.4603121091074292e-05
0.4415291520416752,1.1916914789506557e-05,0.4415291520416752,-3.3741038471818444e-05,0.4415291520416752,-2.970705295791298e-05,0.4415291520416752,-1.963820739475328e-05
0.4423232692216063,9.904951489107629e-06,0.4423232692216063,-5.117795385298903e-05,0.4423232692216063,-1.7970700261206022e-05,0.4423232692216063,-1.863222574455381e-05
0.4431173864015373,3.865199662043402e-06,0.4431173864015373,-6.226353891041675e-05,0.4431173864015373,-1.1921969685227222e-05,0.4431173864015373,-1.896674057304293e-05
0.4439115035814684,-1.6533040807617125e-07,0.4439115035814684,-4.851700523393206e-05,0.4439115035814684,-1.091082965126332e-05,0.4439115035814684,-1.4941118605053287e-05
0.4447056207613995,-3.187696939331933e-06,0.4447056207613995,-1.7638951235245035e-05,0.4447056207613995,-9.568051357431136e-06,0.4447056207613995,-1.359644136220744e-05
0.4454997379413306,-1.511193986746399e-06,0.4454997379413306,7.544910225207921e-06,0.4454997379413306,-4.5335919536382216e-06,0.4454997379413306,-1.5777079833732115e-05
0.4462938551212617,-2.3497368646333105e-06,0.4462938551212617,1.9300556108515687e-05,0.4462938551212617,6.704475649232648e-07,0.4462938551212617,-1.460311438039002e-05
0.4470879723011927,-8.224405059525295e-06,0.4470879723011927,2.2323794604991868e-05,0.4470879723011927,-8.391933009958725e-07,0.4470879723011927,-1.1078222963168498e-05
0.4478820894811238,-7.5531443354829826e-06,0.4478820894811238,1.4266329860308236e-05,0.4478820894811238,-7.553617242095237e-06,0.4478820894811238,-1.2924059509673424e-05
0.4486762066610549,-6.882518121839465e-06,0.4486762066610549,6.543458413573954e-06,0.4486762066610549,-1.1078056354225014e-05,0.4486762066610549,-9.90353632777436e-06
0.4494703238409859,-9.565125866809357e-06,0.4494703238409859,-3.683971752310533e-06,0.4494703238409859,-1.091034280138171e-05,0.4494703238409859,-1.1580172411440132e-05
0.450264441020917,-1.1580182002419106e-05,0.450264441020917,-1.1911509835584642e-05,0.450264441020917,-1.2587518329482556e-05,0.450264441020917,-9.904281670517445e-06
0.4510585582008481,-8.226477903444393e-06,0.4510585582008481,-1.6278971718288803e-05,0.4510585582008481,-1.3259726418198278e-05,0.4510585582008481,-1.225169246369397e-05
0.4518526753807791,-5.875680729799564e-06,0.4518526753807791,-1.7288088256905156e-05,0.4518526753807791,-1.1582286238491404e-05,0.4518526753807791,-1.3259688256905156e-05
0.4526467925607102,-5.539117701883116e-06,0.4526467925607102,-2.3329421345203248e-05,0.4526467925607102,-1.3763029933840874e-05,0.4526467925607102,-1.0910813931469904e-05
0.4534409097406413,-5.874681839843695e-06,0.4534409097406413,-3.507916435474244e-05,0.4534409097406413,-1.527412826849733e-05,0.4534409097406413,-1.292417103224156e-05
0.4542350269205724,-7.217679346055001e-06,0.4542350269205724,-4.448054633165635e-05,0.4542350269205724,-1.3595765854271478e-05,0.4542350269205724,-1.4938577236180983e-05
0.4550291441005034,-1.1917421696953454e-05,0.4550291441005034,-6.05973725874312e-05,0.4550291441005034,-1.25887e-05,0.4550291441005034,-1.426701745456982e-05
0.4558232612804345,-1.2588076130419762e-05,0.4558232612804345,-8.138756013593332e-05,0.4558232612804345,-1.25887e-05,0.4558232612804345,-1.3261035804370355e-05
0.4566173784603656,-1.0911513922262447e-05,0.4566173784603656,-9.7675554993194e-05,0.4566173784603656,-1.6949383802117634e-05,0.4566173784603656,-9.570300621149435e-06
0.4574114956402966,-9.568262958647408e-06,0.4574114956402966,-0.0001075847096689,0.4574114956402966,-1.963669407000091e-05,0.4574114956402966,-1.2251294076353048e-05
0.4582056128202277,-7.21866588145482e-06,0.4582056128202277,-8.628489460656953e-05,0.4582056128202277,-1.896732739609461e-05,0.4582056128202277,-1.3595145207810776e-05
0.4589997300001588,-8.559853384021696e-06,0.4589997300001588,-2.167457468858754e-05,0.4589997300001588,-1.7960242464534105e-05,0.4589997300001588,-1.8294001832174177e-05
0.4597938471800898,-8.224674611642098e-06,0.4597938471800898,4.614544850603675e-05,0.4597938471800898,-1.6952993834926294e-05,0.4597938471800898,-2.3162263140813e-05
0.4605879643600209,-5.539150546618407e-06,0.4605879643600209,8.509785206550463e-05,0.4605879643600209,-1.69528e-05,0.4605879643600209,-1.3931914379842396e-05
0.461382081539952,-4.867561050473827e-06,0.461382081539952,0.0001038981381001,0.461382081539952,-1.5610068949526174e-05,0.461382081539952,-4.196402372788481e-06
0.4621761987198831,-4.196397824565429e-06,0.4621761987198831,9.549881574411731e-05,0.4621761987198831,-1.628123217543457e-05,0.4621761987198831,-5.876398240655051e-06
0.4629703158998141,-4.867052258031692e-06,0.4629703158998141,6.599012056055524e-05,0.4629703158998141,-1.5610577741968308e-05,0.4629703158998141,-1.2582922597526983e-05
0.4637644330797452,-4.532169691598888e-06,0.4637644330797452,3.208340870868655e-05,0.4637644330797452,-1.2590857224389986e-05,0.4637644330797452,-1.4936922158807788e-05
0.4645585502596763,-5.202949703207386e-06,0.4645585502596763,1.024688641694852e-06,0.4645585502596763,-1.6279308367640624e-05,0.4645585502596763,-1.560961970320739e-05
0.4653526674396073,-6.209998188607239e-06,0.4653526674396073,-2.701195952915011e-05,0.4653526674396073,-1.8965875158450187e-05,0.4653526674396073,-1.5274440605193728e-05
0.4661467846195384,-6.21042e-06,0.4661467846195384,-3.709196814026703e-05,0.4661467846195384,-1.7960173185973298e-05,0.4661467846195384,-1.49386910619911e-05
0.4669409017994695,-5.539113036340255e-06,0.4669409017994695,-3.9108650887268886e-05,0.4669409017994695,-1.980597165284706e-05,0.4669409017994695,-1.2253332150308147e-05
0.4677350189794005,-6.881888207280489e-06,0.4677350189794005,-2.92054910612538e-05,0.4677350189794005,-1.8295519755859385e-05,0.4677350189794005,-1.7959867902343755e-05
0.4685291361593316,-9.735058766783926e-06,0.4685291361593316,-1.6279473915784235e-05,0.4685291361593316,-1.4937910057544888e-05,0.4685291361593316,-1.6616352562340296e-05
0.4693232533392627,-8.561413508217967e-06,0.4693232533392627,-5.046042121910378e-06,0.4693232533392627,-1.0913983456747315e-05,0.4693232533392627,-1.225709874480959e-05
0.4701173705191938,-1.4598109452865552e-05,0.4701173705191938,8.884965156729469e-06,0.4701173705191938,-1.1581067716104176e-05,0.4701173705191938,-1.6278206296625055e-05
0.4709114876991248,-1.225451619121732e-05,0.4709114876991248,1.7618568439073528e-05,0.4709114876991248,-9.23322618476517e-06,0.4709114876991248,-1.62814e-05
0.4717056048790559,-8.449258655616026e-07,0.4717056048790559,1.6953134111085456e-05,0.4717056048790559,-8.225111166628183e-06,0.4717056048790559,-1.4268202333256364e-05
0.472499722058987,4.865632298619135e-06,0.472499722058987,8.227665317342701e-06,0.472499722058987,-1.0909259904779524e-05,0.472499722058987,-1.3596035024680249e-05
0.473293839238918,3.692917891981402e-06,0.473293839238918,-8.221279528457965e-06,0.473293839238918,-8.560785781938106e-06,0.473293839238918,-1.4267064061724911e-05
0.4740879564188491,-2.1817175477852017e-06,0.4740879564188491,-2.1148290604798117e-05,0.4740879564188491,-6.881912129125816e-06,0.4740879564188491,-1.5609926296260245e-05
0.4748820735987802,-5.5389055309294365e-06,0.4748820735987802,-2.2324522345352825e-05,0.4748820735987802,-9.567472233608346e-06,0.4748820735987802,-1.6616882179126514e-05
0.4756761907787112,-4.19659251314767e-06,0.4756761907787112,-2.903951118021068e-05,0.4756761907787112,-1.02388e-05,0.4756761907787112,-1.4268005590105338e-05
0.4764703079586423,-5.705554999551626e-06,0.4764703079586423,-3.574605551487424e-05,0.4764703079586423,-1.02388e-05,0.4764703079586423,-1.762127775743712e-05
0.4772644251385734,-6.880969328169835e-06,0.4772644251385734,-3.608735695090567e-05,0.4772644251385734,-9.064710664590096e-06,0.4772644251385734,-1.6953286098188667e-05
0.4780585423185045,-2.1847490709560325e-06,0.4780585423185045,-3.306804155302577e-05,0.4780585423185045,-1.0238122735143117e-05,0.4780585423185045,-1.7288306494108245e-05
0.4788526594984356,-6.376470474962802e-06,0.4788526594984356,-2.736184736571513e-05,0.4788526594984356,-1.15810241492435e-05,0.4788526594984356,-1.4939607738823876e-05
0.4796467766783666,-7.888485115123165e-06,0.4796467766783666,-2.366773861435199e-05,0.4796467766783666,-1.3595233483080732e-05,0.4796467766783666,-1.2924966516919269e-05
0.4804408938582977,-6.5462995037990594e-06,0.4804408938582977,-2.36667e-05,0.4804408938582977,-1.6281040989728287e-05,0.4804408938582977,-9.06437607592879e-06
0.4812350110382288,-8.224642668291457e-06,0.4812350110382288,-2.702361132993605e-05,0.4812350110382288,-1.795993266843048e-05,0.4812350110382288,-7.049691000994858e-06
0.4820291282181598,-1.0574391716135176e-05,0.4820291282181598,-2.0643929883960057e-05,0.4820291282181598,-2.030982706290217e-05,0.4820291282181598,-8.56082433868107e-06
0.4828232453980909,-9.903737282668868e-06,0.4828232453980909,-1.0919440598698574e-05,0.4828232453980909,-2.047744072679202e-05,0.4828232453980909,-1.1746372964273967e-05
0.483617362578022,-7.555106480047369e-06,0.483617362578022,-7.555914978377371e-06,0.483617362578022,-2.0309934709581743e-05,0.483617362578022,-1.2923456711808408e-05
0.484411479757953,-6.546779868722261e-06,0.484411479757953,-2.856519374266217e-06,0.484411479757953,-1.5277599343611304e-05,0.484411479757953,-1.393084013127774e-05
0.4852055969378841,-7.217179173923653e-06,0.4852055969378841,-1.175792065190866e-06,0.4852055969378841,-1.661641834784731e-05,0.4852055969378841,-1.493808876088548e-05
0.4859997141178152,-7.888668263929393e-06,0.4859997141178152,-4.195142175080407e-06,0.4859997141178152,-1.7623837390493292e-05,0.4859997141178152,-9.233764783604148e-06
0.4867938312977463,-4.197014588713193e-06,0.4867938312977463,-1.8468392843060445e-06,0.4867938312977463,-1.7120707000573017e-05,0.4867938312977463,-1.124547204232692e-05
0.4875879484776773,5.202720066544803e-06,0.4875879484776773,-3.860399300066586e-06,0.4875879484776773,-1.6281454455331482e-05,0.4875879484776773,-1.2252934649708844e-05
0.4883820656576084,3.860252403766271e-06,0.4883820656576084,-8.896509675073018e-06,0.4883820656576084,-1.6952688960911125e-05,0.4883820656576084,-1.2253e-05
0.4891761828375395,5.031619740679295e-07,0.4891761828375395,-1.4941224972106368e-05,0.4891761828375395,-1.560938235409299e-05,0.4891761828375395,-1.2253772057383764e-05
0.4899703000174705,-1.173462122923429e-06,0.4899703000174705,-2.634225045208017e-05,0.4899703000174705,-1.292676462022775e-05,0.4899703000174705,-1.5607044224715312e-05
0.4907644171974016,-5.5358267216729646e-06,0.4907644171974016,-4.17831652968702e-05,0.4907644171974016,-1.3595307186820444e-05,0.4907644171974016,-1.6280907186820443e-05
0.4915585343773327,-6.545529415702742e-06,0.4915585343773327,-5.387251297670437e-05,0.4915585343773327,-1.2253787453548697e-05,0.4915585343773327,-1.62814e-05
0.4923526515572637,-6.881672679815429e-06,0.4923526515572637,-6.327507503483203e-05,0.4923526515572637,-1.158189464036914e-05,0.4923526515572637,-1.896582143852344e-05
0.4931467687371948,-8.55982111800268e-06,0.4931467687371948,-6.361480222301801e-05,0.4931467687371948,-1.1078246650909837e-05,0.4931467687371948,-1.594657999283791e-05
0.4939408859171259,-7.217712933680733e-06,0.4939408859171259,-5.723751644180834e-05,0.4939408859171259,-1.057457235785314e-05,0.4939408859171259,-1.3092609994308845e-05
0.494735003097057,-6.881813452922917e-06,0.494735003097057,-4.213013060056946e-05,0.494735003097057,-1.1078094107439496e-05,0.494735003097057,-1.2924382977537175e-05
0.495529120276988,-5.203279211339769e-06,0.495529120276988,-2.4334849546926067e-05,0.495529120276988,-9.56741e-06,0.495529120276988,-8.560106846871995e-06
0.4963232374569191,-4.867951994606592e-06,0.4963232374569191,-2.874047520537513e-06,0.4963232374569191,-9.56741e-06,0.4963232374569191,-7.218807968834627e-06
0.4971173546368502,-5.873901437311661e-06,0.4971173546368502,-4.195138580372881e-06,0.4971173546368502,-8.89655571387756e-06,0.4971173546368502,-1.1913480019113084e-05
0.4979114718167812,-1.0571373620997577e-05,0.4979114718167812,-1.7615267470508578e-05,0.4979114718167812,-8.225056627472398e-06,0.4979114718167812,-1.5104278552767017e-05
0.4987055889967123,-8.225826388558803e-06,0.4987055889967123,-3.372935906615107e-05,0.4987055889967123,-8.22461e-06,0.4987055889967123,-1.6280791777250596e-05
0.4994997061766434,-1.225150927572865e-05,0.4994997061766434,-4.716063094376581e-05,0.4994997061766434,-1.225150927572865e-05,0.4994997061766434,-1.661697577266901e-05
0.5002938233565745,-1.3595501263486356e-05,0.5002938233565745,-4.71656e-05,0.5002938233565745,-1.2924250631743177e-05,0.5002938233565745,-1.6281474684128412e-05
0.5010879405365055,-9.903376550183878e-06,0.5010879405365055,-3.340303077046898e-05,0.5010879405365055,-7.721459682852187e-06,0.5010879405365055,-1.62814e-05
0.5018820577164366,-6.21042e-06,0.5018820577164366,1.2592701951579766e-05,0.5018820577164366,-9.903466034151248e-06,0.5018820577164366,-1.86313488045535e-05
0.5026761748963677,-6.2107154098648765e-06,0.5026761748963677,6.764984669996017e-05,0.5026761748963677,-1.4938009180270247e-05,0.5026761748963677,-1.930281076769956e-05
0.5034702920762988,-7.5520242767974945e-06,0.5034702920762988,9.782919631699065e-05,0.5034702920762988,-1.2255391446405011e-05,0.5034702920762988,-1.9805751648322564e-05
0.5042644092562298,-7.55322e-06,0.5042644092562298,0.0001082552571645,0.5042644092562298,-1.5775177514306132e-05,0.5042644092562298,-1.4942221542034575e-05
0.5050585264361609,-6.546720662647859e-06,0.5050585264361609,0.000107256600603,0.5050585264361609,-1.6281099638854668e-05,0.5050585264361609,-9.738363417716333e-06
0.505852643616092,-8.418075088902721e-07,0.505852643616092,8.762611475649251e-05,0.505852643616092,-1.963689322319984e-05,0.505852643616092,-1.0238573987968437e-05
0.506646760796023,-4.1952186600461095e-06,0.506646760796023,5.691015375949355e-05,0.506646760796023,-2.433668414744268e-05,0.506646760796023,-1.2923590924180702e-05
0.507440877975954,-8.89528772522568e-06,0.507440877975954,2.4007455929567547e-05,0.507440877975954,-2.568069363490058e-05,0.507440877975954,-1.4434767846947286e-05
0.5082349951558852,3.5247542216944937e-06,0.5082349951558852,-3.3568130831524963e-06,0.5082349951558852,-2.198832252818416e-05,0.5082349951558852,-1.5777791807711183e-05
0.5090291123358163,2.1651034632192798e-05,0.5090291123358163,-2.7025929463240565e-05,0.5090291123358163,-2.064602177513878e-05,0.5090291123358163,-1.5609644227524126e-05
0.5098232295157473,1.0585236480000242e-05,0.5098232295157473,-4.278630864969663e-05,0.5098232295157473,-2.433452127024951e-05,0.5098232295157473,-1.3094640157549091e-05
0.5106173466956784,1.1826739712462471e-06,0.5106173466956784,-5.051624715029296e-05,0.5106173466956784,-2.6518404565037466e-05,0.5106173466956784,-1.0241147781550842e-05
0.5114114638756094,-1.5088266436514232e-06,0.5114114638756094,-5.924490654797784e-05,0.5114114638756094,-2.1655886699097527e-05,0.5114114638756094,-7.219560027580197e-06
0.5122055810555405,-5.536904468927608e-06,0.5122055810555405,-6.629668036415343e-05,0.5122055810555405,-1.5948711176494092e-05,0.5122055810555405,-1.0237205858291178e-05
0.5129996982354716,-8.223589328989814e-06,0.5129996982354716,-6.86494069062151e-05,0.5129996982354716,-1.292554826343772e-05,0.5129996982354716,-1.0909944830347171e-05
0.5137938154154027,-8.22461e-06,0.5137938154154027,-7.066403175025714e-05,0.5137938154154027,-1.4266887833504762e-05,0.5137938154154027,-1.2923931750257142e-05
0.5145879325953338,-6.881933992836085e-06,0.5145879325953338,-6.26084839536208e-05,0.5145879325953338,-1.0574813482633778e-05,0.5145879325953338,-1.4602757507893738e-05
0.5153820497752648,-4.196061642376082e-06,0.5153820497752648,-5.320723194632677e-05,0.5153820497752648,-1.0238863134344054e-05,0.5153820497752648,-1.2924526268688108e-05
0.5161761669551959,-1.5112744906462792e-06,0.5161761669551959,-3.7765747504029807e-05,0.5161761669551959,-1.1245618003223849e-05,0.5161761669551959,-1.493895249597019e-05
0.5169702841351269,-4.5292094523493255e-06,0.5169702841351269,-3.608911142036404e-05,0.5169702841351269,-9.904309136291227e-06,0.5169702841351269,-1.6615588579635963e-05
0.5177644013150581,-1.0234496955749756e-05,0.5177644013150581,-3.60876e-05,0.5177644013150581,-9.56766311404051e-06,0.5177644013150581,-1.66171e-05
0.5185585184949891,-1.2251778529731888e-05,0.5185585184949891,-3.508111073513405e-05,0.5185585184949891,-7.554441464203816e-06,0.5185585184949891,-1.7623589264865944e-05
0.5193526356749202,-1.3259637894473755e-05,0.5193526356749202,-4.548232495544692e-05,0.5193526356749202,-6.882128070350829e-06,0.5193526356749202,-1.76242e-05
0.5201467528548512,-1.2924504491972855e-05,0.5201467528548512,-5.991770684516712e-05,0.5201467528548512,8.368426952073153e-07,0.5201467528548512,-1.2925862887620009e-05
0.5209408700347823,-1.309217253379908e-05,0.5209408700347823,-6.344642304609654e-05,0.5209408700347823,1.1244196595651602e-05,0.5209408700347823,-1.124617474385127e-05
0.5217349872147133,-1.4267181079708109e-05,0.5217349872147133,-4.51516946026318e-05,0.5217349872147133,-1.510434589395445e-06,0.5217349872147133,-1.158159459443235e-05
0.5225291043946444,-1.5608192638501915e-05,0.5225291043946444,-1.6614631409390153e-05,0.5225291043946444,-2.3836120826431797e-05,0.5225291043946444,-1.3092222047623636e-05
0.5233232215745756,-1.8598167080220377e-06,0.5233232215745756,2.1636327942970537e-06,0.5233232215745756,-3.540485985925052e-05,0.5233232215745756,-1.325993560046696e-05
0.5241173387545066,3.855777302180484e-06,0.5241173387545066,-2.17840558157095e-06,0.5241173387545066,-3.508077957192962e-05,0.5241173387545066,-1.3595520428070375e-05
0.5249114559344377,-8.360256142663733e-07,0.5249114559344377,8.371757510494951e-07,0.5249114559344377,-2.3339051005447337e-05,0.5249114559344377,-1.2924860057454132e-05
0.5257055731143687,-3.5233861244065268e-06,0.5257055731143687,1.1575824487948595e-05,0.5257055731143687,-1.5614151113298713e-05,0.5257055731143687,-1.3595439028951071e-05
0.5264996902942998,3.186521165264548e-06,0.5264996902942998,-3.18337856124166e-06,0.5264996902942998,-1.4267723769287435e-05,0.5264996902942998,-1.5776948894410796e-05
0.5272938074742308,9.565863424007536e-06,0.5272938074742308,-2.164812305813742e-05,0.5272938074742308,-9.56854958524547e-06,0.5272938074742308,-1.2925091880390278e-05
0.528087924654162,1.0910072577282336e-05,0.528087924654162,-1.0911219389332836e-05,0.528087924654162,-5.203744125018585e-06,0.528087924654162,-1.1917395567749954e-05
0.528882041834093,7.217396189525208e-06,0.528882041834093,1.6282770756758172e-05,0.528882041834093,-4.531859251383067e-06,0.528882041834093,-1.7960059185573574e-05
0.5296761590140241,4.86736141631257e-06,0.5296761590140241,4.23040095300036e-05,0.5296761590140241,-3.189643590413578e-06,0.5296761590140241,-2.0981065708156287e-05
0.5304702761939551,3.526052549379952e-06,0.5304702761939551,7.231564559419075e-05,0.5304702761939551,-5.7045777381215474e-06,0.5304702761939551,-2.0310411274689977e-05
0.5312643933738862,-2.345401639089192e-06,0.5312643933738862,8.94505196435218e-05,0.5312643933738862,-9.73218225872731e-06,0.5312643933738862,-1.963891295815214e-05
0.5320585105538173,-2.231158740182922e-05,0.5320585105538173,7.336003286028318e-05,0.5320585105538173,-9.567513467936731e-06,0.5320585105538173,-1.6618962422861176e-05
0.5328526277337483,-4.9838293847870535e-05,0.5328526277337483,4.382255046126999e-05,0.5328526277337483,-1.2251740863321234e-05,0.5328526277337483,-1.2590588712050886e-05
0.5336467449136795,-1.864132993629435e-05,0.5336467449136795,2.0988533731714688e-05,0.5336467449136795,-1.3595368602126977e-05,0.5336467449136795,-9.23278849146989e-06
0.5344408620936105,-1.5136136126032442e-06,0.5344408620936105,5.2060703892773e-06,0.5344408620936105,-1.5777421017957234e-05,0.5344408620936105,-1.090990847040836e-05
0.5352349792735416,8.391846589237862e-07,0.5352349792735416,1.0238668554836684e-05,0.5352349792735416,-1.6281386854100165e-05,0.5352349792735416,-1.2588656184684524e-05
0.5360290964534726,-1.3092301828175594e-05,0.5360290964534726,1.7960022186531208e-05,0.5360290964534726,-1.8967590562167907e-05,0.5360290964534726,-1.0910240728843737e-05
0.5368232136334037,-1.3930669814485209e-05,0.5368232136334037,1.896600383673067e-05,0.5368232136334037,-2.3829785260321925e-05,0.5368232136334037,-1.124556794557689e-05
0.5376173308133347,5.019494546477247e-06,0.5376173308133347,1.292949272965209e-05,0.5376173308133347,-2.6350178071451844e-05,0.5376173308133347,-1.2587568282299536e-05
0.5384114479932659,4.867746693111233e-06,0.5384114479932659,-6.868050268492352e-06,0.5384114479932659,-2.2326700634669584e-05,0.5384114479932659,-1.2924166613777534e-05
0.539205565173197,-1.8953947183924694e-05,0.539205565173197,-3.053563910543463e-05,0.539205565173197,-1.829780606147426e-05,0.539205565173197,-1.4937496941880832e-05
0.539999682353128,-1.5611342998173047e-05,0.539999682353128,-4.850121501978307e-05,0.539999682353128,-1.594664009872113e-05,0.539999682353128,-9.905114497259568e-06
0.5407937995330591,-3.5278812305549027e-06,0.5407937995330591,-5.08577067036971e-05,0.5407937995330591,-1.3596393296302904e-05,0.5407937995330591,-9.9031e-06
0.5415879167129901,1.0573021044034623e-05,0.5415879167129901,-3.373949587352738e-05,0.5415879167129901,-1.258880564023629e-05,0.5415879167129901,-1.493807179881855e-05
0.5423820338929212,5.035028613307953e-06,0.5423820338929212,-2.500968628727598e-05,0.5423820338929212,-1.359574268083816e-05,0.5423820338929212,-2.064554298937138e-05
0.5431761510728523,-5.539285168698607e-06,0.5431761510728523,-2.93757689500906e-05,0.5431761510728523,-1.2253e-05,0.5431761510728523,-2.1652344829401102e-05
0.5439702682527834,-6.880584046735879e-06,0.5439702682527834,-4.077689431901785e-05,0.5439702682527834,-1.2253e-05,0.5439702682527834,-2.031103596246849e-05
0.5447643854327144,-8.223570661454088e-06,0.5447643854327144,-5.990738939282516e-05,0.5447643854327144,-1.2253e-05,0.5447643854327144,-1.628451803885816e-05
0.5455585026126455,-9.566568826524362e-06,0.5455585026126455,-7.938050304724648e-05,0.5455585026126455,-1.124653088010673e-05,0.5455585026126455,-1.4603951466844549e-05
0.5463526197925765,-1.1580635503790672e-05,0.5463526197925765,-8.47613279973391e-05,0.5463526197925765,-1.0239282250498916e-05,0.5463526197925765,-1.1247507501663055e-05
0.5471467369725076,-1.2588366379108754e-05,0.5471467369725076,-8.291811165486406e-05,0.5471467369725076,-9.90321120696375e-06,0.5471467369725076,-1.0574722413927496e-05
0.5479408541524387,1.2919713572521698e-05,0.5479408541524387,-7.83864324515911e-05,0.5479408541524387,-1.3595121698627409e-05,0.5479408541524387,-8.225041644491143e-06
0.5487349713323698,1.8295406071064097e-05,0.5487349713323698,-6.344753936304772e-05,0.5487349713323698,-1.426717575888301e-05,0.5487349713323698,-5.539126963745846e-06
0.5495290885123009,-1.2256176912448523e-05,0.5495290885123009,-3.5749208969981685e-05,0.5495290885123009,-1.493845049771378e-05,0.5495290885123009,-1.05749111312871e-05
0.5503232056922319,-4.075889044581321e-05,0.5503232056922319,-1.1605749254148011e-05,0.5503232056922319,-1.3597141630781165e-05,0.5503232056922319,-1.42635105153518e-05
0.551117322872163,-1.3954402868360598e-05,0.551117322872163,1.541905403081944e-05,0.551117322872163,-1.493745485231794e-05,0.551117322872163,-1.3931786286920516e-05
0.551911440052094,1.8608335929885053e-05,0.551911440052094,3.741489332173804e-05,0.551911440052094,-1.2422575613145534e-05,0.551911440052094,-1.5608816281410446e-05
0.5527055572320251,-9.551685206898078e-06,0.5527055572320251,4.380514319020828e-05,0.5527055572320251,-1.1749774401030708e-05,0.5527055572320251,-1.2422578432777976e-05
0.5534996744119562,-1.560752217247195e-05,0.5534996744119562,3.508407909013028e-05,0.5534996744119562,-1.3930605206964403e-05,0.5534996744119562,-1.2253068808153326e-05
0.5542937915918873,-1.1582657369321187e-05,0.5542937915918873,2.501214342330297e-05,0.5542937915918873,-1.39315e-05,0.5542937915918873,-1.3595447543559605e-05
0.5550879087718184,-6.378867846768965e-06,0.5550879087718184,1.4604095686644114e-05,0.5550879087718184,-1.258885428363017e-05,0.5550879087718184,-1.6281091432739664e-05
0.5558820259517494,8.38752248487204e-07,0.5558820259517494,5.538931249671293e-06,0.5558820259517494,-1.3595695764831157e-05,0.5558820259517494,-1.7288412221639504e-05
0.5566761431316805,-1.4272639507970876e-05,0.5566761431316805,2.517014731070284e-06,0.5566761431316805,-1.0406851089441864e-05,0.5566761431316805,-1.46029e-05
0.5574702603116115,-4.4451889236043664e-05,0.5574702603116115,-1.5068918919363173e-06,0.5574702603116115,-1.124511918679791e-05,0.5574702603116115,-1.46029e-05
0.5582643774915427,-7.917597988650126e-06,0.5582643774915427,-9.56109336591458e-06,0.5582643774915427,-1.2587647223732352e-05,0.5582643774915427,-1.4938336805933088e-05
0.5590584946714737,1.2575667354556252e-05,0.5590584946714737,-1.9631990480435096e-05,0.5590584946714737,-1.3595159047407076e-05,0.5590584946714737,-1.5609572698271384e-05
0.5598526118514048,1.2924235892338247e-05,0.5598526118514048,-2.9704376819032675e-05,0.5598526118514048,-1.4937943569352996e-05,0.5598526118514048,-1.4603392322985257e-05
0.5606467290313358,1.8501206135010484e-06,0.5606467290313358,-3.0380470871081703e-05,0.5606467290313358,-1.359625825783659e-05,0.5606467290313358,-1.309271555712968e-05
0.5614408462112669,-5.201964559423247e-06,0.5614408462112669,-3.306577982994765e-05,0.5614408462112669,-1.3260165021256544e-05,0.5614408462112669,-1.2588797522200388e-05
0.5622349633911979,-8.560155220382272e-06,0.5622349633911979,-3.6423145219460135e-05,0.5622349633911979,-1.6281260697514122e-05,0.5622349633911979,-1.2253015478053986e-05
0.563029080571129,-1.3595834022299371e-05,0.563029080571129,-3.5415247375617534e-05,0.563029080571129,-1.7624438156095617e-05,0.563029080571129,-1.2420578860121437e-05
0.5638231977510602,-1.3931161239032575e-05,0.5638231977510602,-2.6026085307087896e-05,0.5638231977510602,-1.9971728673228025e-05,0.5638231977510602,-1.0241001895832352e-05
0.5646173149309912,-1.191903786649548e-05,0.5646173149309912,-1.3606516757108062e-05,0.5646173149309912,-1.963868964441592e-05,0.5646173149309912,-1.0574210355584088e-05
0.5654114321109223,-1.2588219797573289e-05,0.5654114321109223,7.202633781989949e-06,0.5654114321109223,-1.96384e-05,0.5654114321109223,-9.064940448307849e-06
0.5662055492908533,-8.89810613244184e-06,0.5662055492908533,1.1579122757213092e-05,0.5662055492908533,-1.6283305580107523e-05,0.5662055492908533,-1.1580170820595791e-05
0.5669996664707844,9.559654219156789e-06,0.5669996664707844,6.88379419891284e-06,0.5669996664707844,-1.62814e-05,0.5669996664707844,-1.0910482029616296e-05
0.5677937836507154,1.2587876758274478e-05,0.5677937836507154,-8.371421623357209e-07,0.5677937836507154,-1.6617008528394408e-05,0.5677937836507154,-1.2252634113577631e-05
