X [s],R BICEPS BRACHII: EMG 1 [V],X [s].1,R DELTOID ANTERIOR: EMG 2 [V],X [s].5,R DELTOID MEDIUS: EMG 6 [V],X [s].6,R DELTOID POSTERIOR: EMG 7 [V]
0.0,-1.35958e-05,0.0,-2.63523e-05,0.0,7.38537e-06,0.0,-1.2253e-05
0.000794117179931,1.6291230796236718e-06,0.000794117179931,-2.1573563471021668e-05,0.000794117179931,4.6899037290313725e-06,0.000794117179931,-1.29244e-05
0.0015882343598621,1.1245901640431464e-05,0.0015882343598621,-2.1099681973688614e-05,0.0015882343598621,8.98484969632749e-07,0.0015882343598621,-1.2253e-05
0.0023823515397932,2.4930444053680152e-05,0.0023823515397932,-2.339024392815739e-05,0.0023823515397932,5.62810744691819e-07,0.0023823515397932,-1.2272739611130375e-05
0.0031764687197242,3.61764628530275e-05,0.0031764687197242,-2.003333365981032e-05,0.0031764687197242,-4.828131658468169e-06,0.0031764687197242,-1.3111986987593636e-05
0.0039705858996553,4.7738210258964776e-05,0.0039705858996553,-1.774268652521175e-05,0.0039705858996553,-6.48690949427132e-06,0.0039705858996553,-1.30922e-05
0.0047647030795864,5.99814247078054e-05,0.0047647030795864,-1.8196849851257923e-05,0.0047647030795864,-6.615324050613409e-07,0.0047647030795864,-1.2144355561079891e-05
0.0055588202595174,7.826694437140178e-05,0.0055588202595174,-1.8117892745796443e-05,0.0055588202595174,7.612390235806266e-06,0.0055588202595174,-1.0929951537807134e-05
0.0063529374394485,9.358087365642952e-05,0.0063529374394485,-1.0633779439312426e-05,0.0063529374394485,1.1739557326229372e-05,0.0063529374394485,-8.431966576811082e-06
0.0071470546193796,0.0001022986893318,0.0071470546193796,-6.526382292427298e-06,0.0071470546193796,1.0771989502270635e-05,0.0071470546193796,-4.828164253405953e-06
0.0079411717993107,9.556554339869416e-05,0.0079411717993107,-1.004130828267063e-05,0.0079411717993107,6.862085381823025e-06,0.0079411717993107,-4.156738377605242e-06
0.0087352889792417,7.07635507088581e-05,0.0087352889792417,-2.0783610124068625e-05,0.0087352889792417,2.320296926879628e-06,0.0087352889792417,-3.0114240735669e-06
0.0095294061591728,4.29595983865348e-05,0.0095294061591728,-4.05108645179594e-05,0.0095294061591728,6.81271967730696e-07,0.0095294061591728,-3.485335187909665e-06
0.0103235233391039,8.531859974156296e-06,0.0103235233391039,-5.755268817912794e-05,0.0103235233391039,2.666527754914996e-07,0.0103235233391039,-5.262554070756575e-06
0.0111176405190349,-2.8623461142180312e-05,0.0111176405190349,-5.518271201524893e-05,0.0111176405190349,-2.6164986079423377e-06,0.0111176405190349,-5.53903e-06
0.011911757698966,-5.674390919810148e-05,0.011911757698966,-3.168408886736853e-05,0.011911757698966,-5.855100266675704e-06,0.011911757698966,-7.39538549662824e-06
0.0127058748788971,-7.781200427411777e-05,0.0127058748788971,-3.653737980337729e-07,0.0127058748788971,-5.815588166199192e-06,0.0127058748788971,-1.0949583112583824e-05
0.0134999920588282,-9.349187401087844e-05,0.0134999920588282,2.165241002230085e-05,0.0134999920588282,-3.524852907423186e-06,0.0134999920588282,-1.309218568371348e-05
0.0142941092387592,-9.779691941096874e-05,0.0142941092387592,2.3607514252438047e-05,0.0142941092387592,-1.70808029451563e-06,0.0142941092387592,-1.217392088354689e-05
0.0150882264186903,-0.0001015681724102,0.0150882264186903,1.7940488085759276e-05,0.0150882264186903,-1.0091865185341657e-08,0.0150882264186903,-1.166047994900761e-05
0.0158823435986214,-0.0001015883611854,0.0158823435986214,-4.5704151161759725e-06,0.0158823435986214,4.008509991453659e-06,0.0158823435986214,-1.3753715583735408e-05
0.0166764607785524,-8.800221913760611e-05,0.0166764607785524,-3.146628605732374e-05,0.0166764607785524,7.622351904430774e-06,0.0166764607785524,-1.604445790212734e-05
0.0174705779584835,-6.805824409484468e-05,0.0174705779584835,-4.7126513207726345e-05,0.0174705779584835,9.9031e-06,0.0174705779584835,-1.748593563571475e-05
0.0182646951384146,-5.6052567400847984e-05,0.0182646951384146,-5.494592281965676e-05,0.0182646951384146,1.04756905561705e-05,0.0182646951384146,-1.8492997035784217e-05
0.0190588123183456,-3.3619384692035684e-05,0.0190588123183456,-5.09568234691146e-05,0.0190588123183456,1.2509696393285924e-05,0.0190588123183456,-1.9608770705733387e-05
0.0198529294982767,-1.1817964537090438e-05,0.0198529294982767,-3.318571568676441e-05,0.0198529294982767,1.4049965322080536e-05,0.0198529294982767,-1.99741e-05
0.0206470466782078,4.511706924398769e-06,0.0206470466782078,-1.598497921404892e-05,0.0206470466782078,1.2371448141513149e-05,0.0206470466782078,-1.8493207433947403e-05
0.0214411638581389,9.586916392162348e-06,0.0214411638581389,-1.0614274234001015e-05,0.0214411638581389,1.2490031394444352e-05,0.0214411638581389,-1.766366744222226e-05
0.0222352810380699,2.28474811345022e-05,0.0222352810380699,1.5107409966502636e-06,0.0222352810380699,7.059425783929967e-06,0.0222352810380699,-1.7397044211101566e-05
0.023029398218001,3.9790011670088544e-05,0.023029398218001,1.448444922614994e-05,0.023029398218001,-3.959231906139356e-06,0.023029398218001,-1.339833627638072e-05
0.0238235153979321,5.0759085221916336e-05,0.0238235153979321,4.492489165608849e-06,0.0238235153979321,6.902243517480405e-08,0.0238235153979321,-1.2865181656099222e-05
0.0246176325778631,6.426650201096772e-05,0.0246176325778631,-1.6735602577320206e-05,0.0246176325778631,-2.527591396792362e-06,0.0246176325778631,-1.229249607650124e-05
0.0254117497577942,7.814912708051526e-05,0.0254117497577942,-2.329149415905829e-05,0.0254117497577942,-1.114732014185754e-05,0.0254117497577942,-1.3714358012386965e-05
0.0262058669377253,9.030258991793604e-05,0.0262058669377253,-1.4119135293483065e-05,0.0262058669377253,-1.2351702966690428e-05,0.0262058669377253,-1.3200988133238294e-05
0.0269999841176564,9.433123127773044e-05,0.0269999841176564,-1.795972542575753e-05,0.0269999841176564,-1.5609896916595664e-05,0.0269999841176564,-1.1581622907423186e-05
0.0277941012975874,9.738215174822722e-05,0.0277941012975874,-4.483473242186839e-05,0.0277941012975874,-2.421983778160471e-05,0.0277941012975874,-1.3872296503545553e-05
0.0285882184775185,8.034260811547646e-05,0.0285882184775185,-6.110714094140255e-05,0.0285882184775185,-2.501025214285113e-05,0.0285882184775185,-1.249029928415942e-05
0.0293823356574496,4.556748259931396e-05,0.0293823356574496,-5.621002391205466e-05,0.0293823356574496,-1.4543868309219444e-05,0.0293823356574496,-9.64635516230955e-06
0.0301764528373806,1.1917294405732926e-05,0.0301764528373806,-5.39388184300942e-05,0.0301764528373806,-8.817020748531527e-06,0.0301764528373806,-1.02388e-05
0.0309705700173117,-1.932133017656513e-05,0.0309705700173117,-5.188503773337105e-05,0.0309705700173117,-3.6534036753778135e-06,0.0309705700173117,-6.486988375925351e-06
0.0317646871972428,-5.49442128242483e-05,0.0317646871972428,-4.098545787199461e-05,0.0317646871972428,2.912526607304207e-06,0.0317646871972428,-4.3740144162645925e-06
0.0325588043771738,-7.943188788690184e-05,0.0325588043771738,-2.886003053316625e-05,0.0325588043771738,1.3527490682884995e-06,0.0325588043771738,-3.228652668548274e-06
0.0333529215571049,-9.149774060564172e-05,0.0333529215571049,-1.952019663482015e-05,0.0333529215571049,-1.0318047510625812e-05,0.0333529215571049,-1.3131280783003047e-06
0.034147038737036,-9.49133089758882e-05,0.034147038737036,-1.54125160552042e-05,0.034147038737036,-1.868033575104044e-05,0.034147038737036,-3.238204581708061e-06
0.0349411559169671,-0.0001017265343182,0.0349411559169671,-1.1660782072505488e-05,0.0349411559169671,-1.7269096103404006e-05,0.0349411559169671,-4.986160014361668e-06
0.0357352730968981,-0.0001030298714991,0.0357352730968981,-3.880330170384024e-06,0.0357352730968981,-7.474198112572451e-06,0.0357352730968981,-4.709657147706623e-06
0.0365293902768292,-9.638511123569892e-05,0.0365293902768292,9.527508504130576e-06,0.0365293902768292,-1.4317582057749798e-06,0.0365293902768292,-8.501006608004097e-06
0.0373235074567603,-8.433032148865063e-05,0.0373235074567603,-2.268180973894293e-07,0.0373235074567603,7.473699887621831e-06,0.0373235074567603,-9.448984765910042e-06
0.0381176246366913,-6.596504954714394e-05,0.0381176246366913,-3.776584891983952e-05,0.0381176246366913,1.4365889179857774e-05,0.0381176246366913,-1.008079396327138e-05
0.0389117418166224,-4.451897267285655e-05,0.0389117418166224,-5.498530333991122e-05,0.0389117418166224,1.033743567281827e-05,0.0389117418166224,-1.5639725288017894e-05
0.0397058589965535,-2.0942814965555375e-05,0.0397058589965535,-1.8020336437498825e-05,0.0397058589965535,7.88891e-06,0.0397058589965535,-1.93027e-05
0.0404999761764846,-5.539442332082057e-06,0.0404999761764846,3.877147480214512e-05,0.0404999761764846,9.902996917107431e-06,0.0404999761764846,-1.829565154170218e-05
0.0412940933564156,8.264176803811196e-06,0.0412940933564156,6.053447585501166e-05,0.0412940933564156,1.1443363201938818e-05,0.0412940933564156,-1.7594536798061183e-05
0.0420882105363467,1.7919223540676206e-05,0.0420882105363467,3.060006722884915e-05,0.0420882105363467,1.0850863725248553e-05,0.0420882105363467,-1.96384e-05
0.0428823277162778,3.352974645606551e-05,0.0428823277162778,-2.1492055054213108e-05,0.0428823277162778,1.3101997611620329e-05,0.0428823277162778,-1.926323255777774e-05
0.0436764448962088,4.576347204155133e-05,0.0436764448962088,-5.0127289316127285e-05,0.0436764448962088,1.6508438839258245e-05,0.0436764448962088,-1.8967e-05
0.0444705620761399,5.577480940103954e-05,0.0444705620761399,-5.591359719024884e-05,0.0444705620761399,1.7347775398847403e-05,0.0444705620761399,-1.865100085463996e-05
0.045264679256071,6.926148636670807e-05,0.045264679256071,-5.476855939960566e-05,0.045264679256071,1.5037443804964284e-05,0.045264679256071,-1.82956e-05
0.046058796436002,8.74489799167362e-05,0.046058796436002,-4.854787313189014e-05,0.046058796436002,1.3951262355390113e-05,0.046058796436002,-1.845352176575972e-05
0.0468529136159331,9.901146413970602e-05,0.0468529136159331,-3.944516156631559e-05,0.0468529136159331,1.1956760654752803e-05,0.0468529136159331,-1.940144644841573e-05
0.0476470307958642,0.0001018058655879,0.0476470307958642,-3.302682914989792e-05,0.0476470307958642,9.074050241492046e-06,0.0476470307958642,-1.8493253248793776e-05
0.0484411479757953,8.537739756042517e-05,0.0484411479757953,-3.026251717296636e-05,0.0484411479757953,3.3473306508984243e-06,0.0484411479757953,-1.7584755465200932e-05
0.0492352651557263,5.342562134356521e-05,0.0492352651557263,-2.4219727385092127e-05,0.0492352651557263,-2.063521293644627e-06,0.0492352651557263,-1.4899137224019864e-05
0.0500293823356574,2.214707238879592e-05,0.0500293823356574,-1.588683545700725e-05,0.0500293823356574,-5.854944281222188e-06,0.0500293823356574,-1.0791802533502966e-05
0.0508234995155885,-8.53843426383038e-06,0.0508234995155885,-1.0080984755422407e-05,0.0508234995155885,-5.558854538211583e-06,0.0508234995155885,-9.054089329432443e-06
0.0516176166955195,-4.123096054817697e-05,0.0516176166955195,-4.53193e-06,0.0516176166955195,-4.275245060425664e-06,0.0516176166955195,-7.039848943981199e-06
0.0524117338754506,-6.88679094953499e-05,0.0524117338754506,-9.428931739500556e-06,0.0524117338754506,-4.986142197540585e-06,0.0524117338754506,-6.309159024692573e-06
0.0532058510553817,-8.760648388681143e-05,0.0532058510553817,-1.705142028700468e-05,0.0532058510553817,-6.487056887956952e-06,0.0532058510553817,-8.145366138000719e-06
0.0539999682353128,-9.78557563886522e-05,0.0539999682353128,-1.6281523228877036e-05,0.0539999682353128,-1.5109148883958532e-06,0.0539999682353128,-1.0910108370989634e-05
0.0547940854152438,-0.0001000282572267,0.0547940854152438,-2.39919963531962e-05,0.0547940854152438,3.129883629936241e-06,0.0547940854152438,-1.2154262672174795e-05
0.0555882025951749,-9.75204e-05,0.0555882025951749,-3.603786770468708e-05,0.0555882025951749,1.9650354569260727e-06,0.0555882025951749,-1.29244e-05
0.056382319775106,-9.568460397730425e-05,0.056382319775106,-4.377850384373084e-05,0.056382319775106,-2.862330881445596e-07,0.056382319775106,-1.343795313853414e-05
0.057176436955037,-8.034092161568037e-05,0.057176436955037,-4.5398983908721005e-05,0.057176436955037,-3.6629574197292896e-06,0.057176436955037,-1.059431623021334e-05
0.0579705541349681,-6.107812216970461e-05,0.0579705541349681,-3.105207375635682e-05,0.0579705541349681,-4.117477679705473e-06,0.0579705541349681,-8.98485735084709e-06
0.0587646713148992,-4.45209094302359e-05,0.0587646713148992,-1.6183103591387334e-05,0.0587646713148992,2.6358010298679865e-06,0.0587646713148992,-9.56741e-06
0.0595587884948302,-2.5020095893176003e-05,0.0595587884948302,-1.4721349632956029e-05,0.0595587884948302,7.098912095386115e-06,0.0595587884948302,-9.56741e-06
0.0603529056747613,-3.426105036477787e-06,0.0603529056747613,-1.7308399730220418e-05,0.0603529056747613,6.03270398911927e-06,0.0603529056747613,-1.132488748676036e-05
0.0611470228546924,1.0810913922645257e-05,0.0611470228546924,-1.2944251617559211e-05,0.0611470228546924,-1.6086080056365932e-06,0.0611470228546924,-1.15816e-05
0.0619411400346235,1.764308538777811e-05,0.0619411400346235,-4.295644730260433e-06,0.0619411400346235,-7.88891e-06,0.0619411400346235,-1.314128194598114e-05
0.0627352572145545,3.474447208481829e-05,0.0627352572145545,7.404590320732425e-07,0.0627352572145545,-5.578606212267623e-06,0.0627352572145545,-1.8414014840992e-05
0.0635293743944856,4.651365946304351e-05,0.0635293743944856,-3.642469608303322e-06,0.0635293743944856,1.0561926247948558e-06,0.0635293743944856,-1.967798492930555e-05
0.0643234915744167,5.7502316194098064e-05,0.0643234915744167,-1.377317186890226e-05,0.0643234915744167,4.413527673333226e-06,0.0643234915744167,-1.5630187203332745e-05
0.0651176087543477,7.129590457288478e-05,0.0651176087543477,-2.2086887290200245e-05,0.0651176087543477,3.86053e-06,0.0651176087543477,-1.0515392799480446e-05
0.0659117259342788,8.608693227159955e-05,0.0659117259342788,-2.208713573171488e-05,0.0659117259342788,2.1227953549413112e-06,0.0659117259342788,-1.1423633935176064e-05
0.0667058431142099,9.441981471673824e-05,0.0667058431142099,-1.803906074037705e-05,0.0667058431142099,2.1917402514306342e-06,0.0667058431142099,-1.3891857358369115e-05
0.067499960294141,9.58419e-05,0.067499960294141,-1.426737970877903e-05,0.067499960294141,5.20314387803957e-06,0.067499960294141,-1.4938571365721015e-05
0.068294077474072,8.687697624200842e-05,0.068294077474072,-2.204680348028196e-05,0.068294077474072,6.54612e-06,0.068294077474072,-1.3062644562464764e-05
0.0690881946540031,5.8543505056326525e-05,0.0690881946540031,-3.974969887154278e-05,0.0690881946540031,7.3751383375866275e-06,0.0690881946540031,-1.029815918217464e-05
0.0698823118339342,2.447847757208523e-05,0.0698823118339342,-5.031521950392043e-05,0.0698823118339342,9.863645186824112e-06,0.0698823118339342,-1.0831288022978669e-05
0.0706764290138652,-8.69750997349776e-06,0.0706764290138652,-4.143994961706665e-05,0.0706764290138652,9.290968431891356e-06,0.0706764290138652,-9.685925098562814e-06
0.0714705461937963,-3.997585177680874e-05,0.0714705461937963,-2.8959007743329105e-05,0.0714705461937963,8.441948583760685e-06,0.0714705461937963,-9.23171e-06
0.0722646633737274,-6.785854154808735e-05,0.0722646633737274,-2.5008838785679844e-05,0.0722646633737274,5.006377978741668e-06,0.0722646633737274,-5.499959201342285e-06
0.0730587805536585,-8.754745953605056e-05,0.0730587805536585,-3.3026683101086694e-05,0.0730587805536585,-6.612825427296616e-07,0.0730587805536585,-1.609509045508523e-06
0.0738528977335895,-9.596035592665616e-05,0.0738528977335895,-3.095397093928304e-05,0.0738528977335895,-2.18204e-06,0.0738528977335895,-3.050880611571919e-06
0.0746470149135206,-9.842865046817992e-05,0.0746470149135206,-2.774448611411593e-05,0.0746470149135206,-2.8730121745595997e-06,0.0746470149135206,-6.367999583209158e-06
0.0754411320934517,-9.992940895483955e-05,0.0754411320934517,-3.3579151011673406e-05,0.0754411320934517,-4.8774854068439685e-06,0.0754411320934517,-9.685674294972012e-06
0.0762352492733827,-9.882373471774988e-05,0.0762352492733827,-4.00170361016367e-05,0.0762352492733827,-3.110264696956491e-06,0.0762352492733827,-1.26083855731437e-05
0.0770293664533138,-8.438950578892085e-05,0.0770293664533138,-5.044246518548549e-05,0.0770293664533138,8.194403200672092e-07,0.0770293664533138,-1.622198825228685e-05
0.0778234836332449,-7.003404800415035e-05,0.0778234836332449,-6.025752612974847e-05,0.0778234836332449,1.589306291999759e-06,0.0778234836332449,-1.66171e-05
0.078617600813176,-4.768019224444794e-05,0.078617600813176,-5.139247310794495e-05,0.078617600813176,6.78281235404265e-06,0.078617600813176,-1.809800508037788e-05
0.079411717993107,-2.6865835321140448e-05,0.079411717993107,-1.0952218818686752e-05,0.079411717993107,7.108933010355899e-06,0.079411717993107,-1.7446500425958666e-05
0.0802058351730381,-1.0279841827132531e-05,0.0802058351730381,3.545393847905291e-05,0.0802058351730381,-1.3713637195780065e-06,0.0802058351730381,-1.561e-05
0.0809999523529692,3.859774059129022e-06,0.0809999523529692,5.387895304839545e-05,0.0809999523529692,-1.1245350223890592e-05,0.0809999523529692,-1.4938668722269569e-05
0.0817940695329002,1.7209134116969762e-05,0.0817940695329002,3.741245588414844e-05,0.0817940695329002,-1.1739643907683972e-05,0.0817940695329002,-1.0357397310716112e-05
0.0825881867128313,2.945129364113782e-05,0.0825881867128313,-3.639510950670931e-06,0.0825881867128313,-6.230942046755024e-06,0.0825881867128313,-8.836639364113783e-06
0.0833823038927624,3.865410366316815e-05,0.0833823038927624,-5.237567420149448e-05,0.0833823038927624,-2.2609405233097358e-06,0.0833823038927624,-9.833884478972983e-06
0.0841764210726934,4.722449111395044e-05,0.0841764210726934,-6.288532861944077e-05,0.0841764210726934,-6.419606811257903e-07,0.0841764210726934,-1.195667920626423e-05
0.0849705382526245,6.353444567568008e-05,0.0849705382526245,-4.902207995384493e-05,0.0849705382526245,7.0194849203605495e-06,0.0849705382526245,-1.6439050842908347e-05
0.0857646554325556,8.221530234222394e-05,0.0857646554325556,-3.5160677031700846e-05,0.0857646554325556,1.681351848990845e-05,0.0857646554325556,-1.904593488444452e-05
0.0865587726124866,9.285961285266484e-05,0.0865587726124866,-1.9875794142666404e-05,0.0865587726124866,2.482159735441741e-05,0.0865587726124866,-1.8986779535957504e-05
0.0873528897924177,9.846815439276429e-05,0.0873528897924177,-1.0139919395115425e-05,0.0873528897924177,2.6451012087280952e-05,0.0873528897924177,-1.729835858332635e-05
0.0881470069723488,9.42644330149667e-05,0.0881470069723488,-1.1166893452653129e-05,0.0881470069723488,2.299640365241595e-05,0.0881470069723488,-1.6715960985531658e-05
0.0889411241522799,6.819851592041772e-05,0.0889411241522799,-5.158768689409249e-08,0.0889411241522799,1.27473650893325e-05,0.0889411241522799,-1.5382984739503556e-05
0.0897352413322109,3.478553647849579e-05,0.0897352413322109,1.570825818506875e-05,0.0897352413322109,6.190757334279494e-06,0.0897352413322109,-1.250985823392574e-05
0.090529358512142,-1.0741289579573991e-06,0.090529358512142,8.81315141413929e-07,0.090529358512142,3.939796173488956e-06,0.090529358512142,-9.9031e-06
0.0913234756920731,-3.401156784936233e-05,0.0913234756920731,-1.0080716199073328e-05,0.0913234756920731,-5.439208612539492e-06,0.0913234756920731,-1.14632205807564e-05
0.0921175928720041,-5.968401156879108e-05,0.0921175928720041,-5.440077999725698e-06,0.0921175928720041,-1.568852933829665e-05,0.0921175928720041,-8.540806508859874e-06
0.0929117100519352,-7.947138693335046e-05,0.0929117100519352,-2.2065713191877835e-05,0.0929117100519352,-1.839430102409181e-05,0.0929117100519352,-9.202014752006345e-06
0.0937058272318663,-9.305658931858304e-05,0.0937058272318663,-4.349168144209045e-05,0.0937058272318663,-1.76242e-05,0.0937058272318663,-1.288472299723432e-05
0.0944999444117974,-9.819163964803773e-05,0.0944999444117974,-5.15294484077094e-05,0.0944999444117974,-1.5610240527943437e-05,0.0944999444117974,-1.3260140087990572e-05
0.0952940615917284,-9.487443508741508e-05,0.0952940615917284,-5.336589971017673e-05,0.0952940615917284,-8.46188625078382e-06,0.0952940615917284,-1.4741090983214813e-05
0.0960881787716595,-9.649390522399456e-05,0.0960881787716595,-6.019809393498752e-05,0.0960881787716595,-1.175543819448669e-06,0.0960881787716595,-1.3990882089597825e-05
0.0968822959515906,-8.581213035163073e-05,0.0968822959515906,-6.32400436228716e-05,0.0968822959515906,1.964673604397206e-06,0.0968822959515906,-1.531374453479907e-05
0.0976764131315216,-6.774279656808828e-05,0.0976764131315216,-5.241998539290351e-05,0.0976764131315216,3.9591522231493134e-06,0.0976764131315216,-1.3122128970426489e-05
0.0984705303114527,-5.087951920586329e-05,0.0984705303114527,-2.88610898129029e-05,0.0984705303114527,2.967815252848268e-07,0.0984705303114527,-6.526856574918371e-06
0.0992646474913838,-3.156765032680616e-05,0.0992646474913838,3.976414548277093e-06,0.0992646474913838,-7.12809464591148e-06,0.0992646474913838,-2.695581684822564e-06
0.1000587646713148,-1.2842478340113592e-05,0.1000587646713148,2.0761759325464075e-05,0.1000587646713148,-1.019950163910188e-05,0.1000587646713148,-1.8659894731132403e-06
0.1008528818512459,3.554444021274144e-06,0.1008528818512459,7.934813948851076e-06,0.1008528818512459,-9.488420046241187e-06,0.1008528818512459,-3.781544026457935e-06
0.101646999031177,1.64777573590531e-05,0.101646999031177,-9.016303033575888e-06,0.101646999031177,-9.448299506897256e-06,0.101646999031177,-4.413533280072839e-06
0.1024411162111081,2.2933666169819e-05,0.1024411162111081,-6.503125890335812e-06,0.1024411162111081,-1.4009804619948286e-05,0.1024411162111081,-5.971146926036816e-06
0.1032352333910391,3.2491912848577345e-05,0.1032352333910391,9.267724448506915e-06,0.1032352333910391,-1.60441769272866e-05,0.1032352333910391,-1.3446582307893991e-05
0.1040293505709702,4.345397856601388e-05,0.1040293505709702,2.0227778549540667e-07,0.1040293505709702,-1.385214575091754e-05,0.1040293505709702,-1.7002283521223278e-05
0.1048234677509013,5.77369145428143e-05,0.1048234677509013,-1.8446687182018465e-05,0.1048234677509013,-2.134845171189365e-06,0.1048234677509013,-2.0785051384217785e-05
0.1056175849308323,8.109976488984537e-05,0.1056175849308323,-2.7091466188158168e-05,0.1056175849308323,2.361670825343199e-05,0.1056175849308323,-2.4180963322842417e-05
0.1064117021107634,9.266337159462316e-05,0.1064117021107634,-3.608035007726812e-05,0.1064117021107634,3.1802114202688415e-05,0.1064117021107634,-2.194789200027529e-05
0.1072058192906945,9.24849e-05,0.1072058192906945,-3.9602307390917446e-05,0.1072058192906945,2.762570445552339e-05,0.1072058192906945,-2.021102529916956e-05
0.1079999364706256,9.28205542343112e-05,0.1079999364706256,-3.373843965818449e-05,0.1079999364706256,2.1317517829982496e-05,0.1079999364706256,-2.0309754234311188e-05
0.1087940536505566,7.83118571619895e-05,0.1087940536505566,-2.252725236436852e-05,0.1087940536505566,1.010306920686223e-05,0.1087940536505566,-1.8217398574298425e-05
0.1095881708304877,4.368534369730357e-05,0.1095881708304877,-1.083608420315118e-05,0.1095881708304877,2.7564300631191503e-06,0.1095881708304877,-1.288706993989812e-05
0.1103822880104188,6.583666484220895e-06,0.1103822880104188,-3.4063693304233484e-06,0.1103822880104188,1.4492859200066122e-06,0.1103822880104188,-8.185417558929899e-06
0.1111764051903498,-2.6653508232418323e-05,0.1111764051903498,-6.688637898956613e-06,0.1111764051903498,4.905829167386864e-06,0.1111764051903498,-8.165109833477373e-06
0.1119705223702809,-5.345922718292381e-05,0.1119705223702809,-2.7644537862913e-05,0.1119705223702809,3.5855306619898075e-06,0.1119705223702809,-1.0366592144977947e-05
0.112764639550212,-7.445580182545379e-05,0.112764639550212,-6.361681606915252e-05,0.112764639550212,-4.05794638256854e-06,0.112764639550212,-1.1068165652387023e-05
0.1135587567301431,-8.576250911450457e-05,0.1135587567301431,-8.290533617636243e-05,0.1135587567301431,-8.145939053051267e-06,0.1135587567301431,-1.2845728467174496e-05
0.1143528739100741,-9.254409241482835e-05,0.1143528739100741,-6.798831564581636e-05,0.1143528739100741,-7.1187968962929126e-06,0.1143528739100741,-1.3793246207414174e-05
0.1151469910900052,-9.3492e-05,0.1151469910900052,-3.216220864340753e-05,0.1151469910900052,-2.3019847894550718e-06,0.1151469910900052,-1.561e-05
0.1159411082699363,-9.373963601598756e-05,0.1159411082699363,4.378921610555247e-06,0.1159411082699363,6.031282792813438e-06,0.1159411082699363,-1.561e-05
0.1167352254498673,-8.910938920014275e-05,0.1167352254498673,1.5550638311214796e-05,0.1167352254498673,1.0869881651136912e-05,0.1167352254498673,-1.5353380078282236e-05
0.1175293426297984,-7.56791346215734e-05,0.1175293426297984,-4.8539464331970194e-06,0.1175293426297984,1.4543868508454988e-05,0.1175293426297984,-1.2015685819241688e-05
0.1183234598097295,-5.600710673811518e-05,0.1183234598097295,-2.9995297606728917e-05,0.1183234598097295,1.703150447596822e-05,0.1183234598097295,-8.89601e-06
0.1191175769896605,-3.664308567982326e-05,0.1191175769896605,-4.516937175672522e-05,0.1191175769896605,1.4838639413818569e-05,0.1191175769896605,-8.006779706909283e-06
0.1199116941695916,-1.694871474522938e-05,0.1199116941695916,-5.583745116500664e-05,0.1199116941695916,1.086987327070227e-05,0.1199116941695916,-1.008154131064479e-05
0.1207058113495227,-1.5100734314746883e-06,0.1207058113495227,-6.564468683889542e-05,0.1207058113495227,5.044894818833248e-06,0.1207058113495227,-1.0752058103095904e-05
0.1214999285294538,8.559383249402634e-06,0.1214999285294538,-6.797894622863653e-05,0.1214999285294538,-2.852719193468592e-06,0.1214999285294538,-7.72135317366583e-06
0.1222940457093848,2.5736064590632538e-05,0.1222940457093848,-6.473957355837666e-05,0.1222940457093848,-8.85459856687258e-06,0.1222940457093848,-6.052922567222026e-06
0.1230881628893159,3.660787763030301e-05,0.1230881628893159,-5.1666917038079774e-05,0.1230881628893159,-1.7109443637978843e-05,0.1230881628893159,-2.4207783936760137e-06
0.123882280069247,4.627083416112785e-05,0.123882280069247,-5.954654108593513e-06,0.123882280069247,-1.8967e-05,0.123882280069247,-1.286625254062709e-07
0.124676397249178,5.938214693192299e-05,0.124676397249178,4.59012944886581e-05,0.124676397249178,-1.9243194112766268e-05,0.124676397249178,4.4404229002539065e-07
0.1254705144291091,8.013849145561913e-05,0.1254705144291091,6.963368964469351e-05,0.1254705144291091,-1.5986987081383663e-05,0.1254705144291091,-3.3752836057962942e-06
0.1262646316090402,9.247494784451716e-05,0.1262646316090402,6.760338687727031e-05,0.1262646316090402,-3.801540737215808e-06,0.1262646316090402,-8.046864210964829e-06
0.1270587487889713,9.833076383779923e-05,0.1270587487889713,6.227376602051994e-05,0.1270587487889713,5.796650969344161e-06,0.1270587487889713,-8.876336383779925e-06
0.1278528659689023,9.894221198524005e-05,0.1278528659689023,5.0825829362032e-05,0.1278528659689023,8.75773327535934e-06,0.1278528659689023,-1.0653432623963285e-05
0.1286469831488334,8.311058605245438e-05,0.1286469831488334,2.5144089679579696e-05,0.1286469831488334,8.758168984401021e-06,0.1286469831488334,-1.3753096777298212e-05
0.1294411003287645,4.557776573460851e-05,0.1294411003287645,-3.52832790487778e-06,0.1294411003287645,5.718203653928141e-06,0.1294411003287645,-1.766332937791935e-05
0.1302352175086955,1.1359817774967202e-05,0.1302352175086955,-1.2686932698798486e-05,0.1302352175086955,1.6494547939599967e-06,0.1302352175086955,-1.880882840201333e-05
0.1310293346886266,-2.3273477682259977e-05,0.1310293346886266,-2.017549296664037e-05,0.1310293346886266,2.4586694774354173e-06,0.1310293346886266,-2.0625811394729464e-05
0.1318234518685577,-4.70521101991295e-05,0.1318234518685577,-4.37765140084096e-05,0.1318234518685577,3.741737381907809e-06,0.1318234518685577,-2.1119310249905616e-05
0.1326175690484888,-6.656426883417575e-05,0.1326175690484888,-5.86180090477396e-05,0.1326175690484888,1.7071181765840589e-06,0.1326175690484888,-1.9795582541267248e-05
0.1334116862284198,-8.772952273452628e-05,0.1334116862284198,-5.932923031305936e-05,0.1334116862284198,1.728369567408816e-06,0.1334116862284198,-2.0033567599486237e-05
0.1342058034083509,-9.688841029559092e-05,0.1342058034083509,-5.812661441056448e-05,0.1342058034083509,5.322032936415424e-06,0.1342058034083509,-2.283745661176668e-05
0.134999920588282,-9.047167252088732e-05,0.134999920588282,-5.018797866818581e-05,0.134999920588282,9.063545362593507e-06,0.134999920588282,-2.165294322562497e-05
0.135794037768213,-9.277910946892012e-05,0.135794037768213,-4.001549848190495e-05,0.135794037768213,8.698254209845732e-06,0.135794037768213,-1.7723077895077134e-05
0.1365881549481441,-9.26957966845626e-05,0.1365881549481441,-4.139204447660239e-05,0.1365881549481441,1.1954515399827672e-05,0.1365881549481441,-1.8808424404252417e-05
0.1373822721280752,-7.829563269880481e-05,0.1373822721280752,-6.0276992786441466e-05,0.1373822721280752,1.4821057074871944e-05,0.1373822721280752,-1.8692733174701204e-05
0.1381763893080062,-6.225990729483907e-05,0.1381763893080062,-8.279399141440189e-05,0.1381763893080062,1.3102934823834505e-05,0.1381763893080062,-1.5236158039724177e-05
0.1389705064879373,-4.066450074528428e-05,0.1389705064879373,-9.706252640464396e-05,0.1389705064879373,1.2391660334760285e-05,0.1389705064879373,-1.410907988841324e-05
0.1397646236678684,-2.1939441757128404e-05,0.1397646236678684,-8.49790590430343e-05,0.1397646236678684,7.869386702851361e-06,0.1397646236678684,-1.2894783300267836e-05
0.1405587408477994,-4.747250019890957e-06,0.1405587408477994,-3.3938795724939e-05,0.1405587408477994,2.319794858418157e-06,0.1405587408477994,-1.0988917396935134e-05
0.1413528580277305,6.447121877196559e-06,0.1413528580277305,1.119936059268623e-05,0.1413528580277305,-3.0112365061570845e-06,0.1413528580277305,-7.849466255499796e-06
0.1421469752076616,1.4383831375949017e-05,0.1421469752076616,2.1474756349857363e-05,0.1421469752076616,-3.920597359260101e-06,0.1421469752076616,-8.372153838524758e-06
0.1429410923875927,2.6665243295135137e-05,0.1429410923875927,1.861086961229982e-05,0.1429410923875927,-1.67849e-07,0.1429410923875927,-1.11661123885968e-05
0.1437352095675237,3.557262720443345e-05,0.1437352095675237,6.728687281369913e-06,0.1437352095675237,-4.244567158973497e-07,0.1437352095675237,-1.3871742401477816e-05
0.1445293267474548,4.809435235051507e-05,0.1445293267474548,-2.454185620624833e-05,0.1445293267474548,-1.0860952817442506e-06,0.1445293267474548,-1.6419699929960883e-05
0.1453234439273859,6.88362218508015e-05,0.1453234439273859,-4.879604053928503e-05,0.1453234439273859,-7.798548808249054e-07,0.1453234439273859,-1.7386634107953228e-05
0.146117561107317,9.353786655238216e-05,0.146117561107317,-5.332705692696482e-05,0.146117561107317,2.374450474652938e-07,0.146117561107317,-1.391021094664402e-05
0.146911678287248,8.750708785460471e-05,0.146911678287248,-5.0008101718240106e-05,0.146911678287248,7.797885749848603e-07,0.146911678287248,-8.777097733082418e-06
0.1477057954671791,8.914787309414518e-05,0.1477057954671791,-4.566999130938371e-05,0.1477057954671791,-1.806912505367952e-06,0.1477057954671791,-8.61964000715727e-06
0.1484999126471102,8.308684732116311e-05,0.1484999126471102,-3.00470905616738e-05,0.1484999126471102,8.386167244033046e-07,0.1484999126471102,-1.0574311218408216e-05
0.1492940298270412,5.444138822950025e-05,0.1492940298270412,-9.16562058513122e-06,0.1492940298270412,7.769243920868261e-06,0.1492940298270412,-1.3525558061342985e-05
0.1500881470069723,1.7479488331023045e-05,0.1500881470069723,4.153024509959767e-06,0.1500881470069723,6.477122096515466e-06,0.1500881470069723,-1.4524612579092798e-05
0.1508822641869034,-1.4802095339778254e-05,0.1508822641869034,1.1067967630705794e-05,0.1508822641869034,7.514044757971025e-06,0.1508822641869034,-1.35958e-05
0.1516763813668344,-4.467425348282352e-05,0.1516763813668344,6.2642361115306775e-06,0.1516763813668344,6.388971985967818e-06,0.1516763813668344,-1.373385020033224e-05
0.1524704985467655,-6.461686880518909e-05,0.1524704985467655,-1.2818945200006464e-05,0.1524704985467655,2.4399419480512195e-06,0.1524704985467655,-8.779320566911022e-06
0.1532646157266966,-8.377584639911757e-05,0.1532646157266966,-1.5056516859053694e-05,0.1532646157266966,1.2340729089396648e-06,0.1532646157266966,-4.917031503909714e-06
0.1540587329066277,-9.779809835505017e-05,0.1540587329066277,1.8391909865806684e-06,0.1540587329066277,1.885710164494984e-06,0.1540587329066277,-4.215915082247492e-06
0.1548528500865587,-9.84684451775005e-05,0.1548528500865587,1.2115808970430305e-05,0.1548528500865587,-1.2054841174690138e-05,0.1548528500865587,-4.512113058437314e-06
0.1556469672664898,-9.412455727276604e-05,0.1556469672664898,4.412130069432292e-06,0.1556469672664898,-2.303414272723397e-05,0.1556469672664898,-3.3676170110714787e-06
0.1564410844464209,-8.86554274394742e-05,0.1564410844464209,-9.767428224148491e-06,0.1564410844464209,-2.5097492415501224e-05,0.1564410844464209,-1.885446445864516e-06
0.157235201626352,-8.079713928914179e-05,0.157235201626352,-1.9873597721700837e-05,0.157235201626352,-2.6905065920318077e-05,0.157235201626352,-3.287540634941668e-06
0.158029318806283,-6.126439529795418e-05,0.158029318806283,-1.5638437427890308e-05,0.158029318806283,-2.0348867689328515e-05,0.158029318806283,-7.563222213156779e-06
0.1588234359862141,-4.204520184580083e-05,0.1588234359862141,-1.7659691094525582e-05,0.1588234359862141,-1.1106515750607708e-05,0.1588234359862141,-1.0357571504601218e-05
0.1596175531661451,-2.00463439393957e-05,0.1596175531661451,-4.50258643384948e-05,0.1596175531661451,-6.524875639854176e-06,0.1596175531661451,-1.0317414202688456e-05
0.1604116703460762,-2.4950417491636637e-06,0.1604116703460762,-7.884779906356248e-05,0.1604116703460762,-5.813640476532485e-07,0.1604116703460762,-8.500865332568602e-06
0.1612057875260073,8.046975902210889e-06,0.1612057875260073,-9.19508605345703e-05,0.1612057875260073,5.815697110748648e-06,0.1612057875260073,-9.616785884387812e-06
0.1619999047059384,1.527306432844685e-05,0.1619999047059384,-7.1675421548926e-05,0.1619999047059384,1.0909788110845576e-05,0.1619999047059384,-7.721481889154424e-06
0.1627940218858694,3.173908725017712e-05,0.1627940218858694,-8.992470547855405e-06,0.1627940218858694,1.2193142555581795e-05,0.1627940218858694,-3.920387444418205e-06
0.1635881390658005,4.165240007811048e-05,0.1635881390658005,4.543952639779532e-05,0.1635881390658005,1.1316904071462302e-05,0.1635881390658005,-5.893276259259308e-06
0.1643822562457316,5.172002919833591e-05,0.1643822562457316,5.0424501610800304e-05,0.1643822562457316,7.225931623767724e-06,0.1643822562457316,-9.623403923351702e-06
0.1651763734256627,6.763363405254576e-05,0.1651763734256627,3.272627691186797e-05,0.1651763734256627,1.1322071279432224e-05,0.1651763734256627,-1.61790003582287e-05
0.1659704906055937,8.720829517377784e-05,0.1659704906055937,1.2677571539832376e-05,0.1659704906055937,1.722755291690124e-05,0.1659704906055937,-2.2559826233957413e-05
0.1667646077855248,9.44991e-05,0.1667646077855248,-1.772357829373557e-05,0.1667646077855248,2.26596e-05,0.1667646077855248,-2.410122016995268e-05
0.1675587249654559,9.63951551084328e-05,0.1675587249654559,-3.51970425733306e-05,0.1675587249654559,2.23435908152612e-05,0.1675587249654559,-2.1751048210707167e-05
0.1683528421453869,9.029373782206654e-05,0.1683528421453869,-2.0415052178377e-05,0.1683528421453869,2.1790910218040727e-05,0.1683528421453869,-1.799956828120774e-05
0.169146959325318,6.476747974911703e-05,0.169146959325318,-1.1423723104081938e-05,0.169146959325318,1.6934349739090665e-05,0.169146959325318,-1.6972204164575917e-05
0.1699410765052491,2.8101369731054137e-05,0.1699410765052491,-2.3550559702817083e-05,0.1699410765052491,1.045721564277914e-05,0.1699410765052491,-1.90451899596742e-05
0.1707351936851801,-4.387162423009445e-06,0.1707351936851801,-3.302511318184929e-05,0.1707351936851801,7.790526527021246e-06,0.1707351936851801,-2.1079591116620065e-05
0.1715293108651112,-3.7924656769617e-05,0.1715293108651112,-3.5239084974807206e-05,0.1715293108651112,6.230142929537138e-06,0.1715293108651112,-2.650055608872132e-05
0.1723234280450423,-6.261250338562081e-05,0.1723234280450423,-3.823875283385287e-05,0.1723234280450423,6.961778452284226e-06,0.1723234280450423,-2.673591851252125e-05
0.1731175452249733,-7.912059197540994e-05,0.1731175452249733,-4.943329035208196e-05,0.1731175452249733,1.215625999313332e-05,0.1731175452249733,-2.012980457412184e-05
0.1739116624049044,-9.112450636331389e-05,0.1739116624049044,-6.093140920722395e-05,0.1739116624049044,1.1679567194384013e-05,0.1739116624049044,-1.1382407072577033e-05
0.1747057795848355,-9.77968158569524e-05,0.1747057795848355,-5.583780120824256e-05,0.1747057795848355,5.440097239278689e-06,0.1747057795848355,-4.551572583877444e-06
0.1754998967647666,-9.483524621546586e-05,0.1754998967647666,-5.253706709878882e-05,0.1754998967647666,-8.558153302991726e-06,0.1754998967647666,-1.6829521347205238e-07
0.1762940139446976,-9.455898037647304e-05,0.1762940139446976,-4.40211954635437e-05,0.1762940139446976,-2.792650116522764e-05,0.1762940139446976,4.076472192990595e-06
0.1770881311246287,-8.625090419866341e-05,0.1770881311246287,-1.9899538490160544e-05,0.1770881311246287,-4.382506805097845e-05,0.1770881311246287,5.7964710875218165e-06
0.1778822483045598,-6.964625349026149e-05,0.1778822483045598,1.1811017927360049e-07,0.1778822483045598,-4.359610713597816e-05,0.1778822483045598,1.8211813572393512e-06
0.1786763654844909,-5.309892064250006e-05,0.1786763654844909,-1.82756794518061e-06,0.1786763654844909,-3.4473517861406284e-05,0.1786763654844909,-3.97714476776504e-06
0.1794704826644219,-2.793919293695836e-05,0.1794704826644219,-2.026268657530161e-06,0.1794704826644219,-2.4340886546516684e-05,0.1794704826644219,-2.9727216579278734e-06
0.180264599844353,-8.817631048299923e-06,0.180264599844353,1.3122175825117545e-05,0.180264599844353,-1.310277212180594e-05,0.180264599844353,-2.6557629839000256e-06
0.181058717024284,7.01804675200236e-07,0.181058717024284,2.9034148819013075e-05,0.181058717024284,-5.064594309287766e-06,0.181058717024284,-6.72424820053139e-06
0.1818528342042151,1.6418586603550244e-05,0.1818528342042151,1.6542055980650696e-05,0.1818528342042151,-3.161418861457896e-07,0.1818528342042151,-1.0742025720355895e-05
0.1826469513841462,2.913483482767397e-05,0.1826469513841462,-2.7501948813033573e-05,0.1826469513841462,3.918693844931943e-06,0.1826469513841462,-1.7503797149518898e-05
0.1834410685640773,3.957789634451961e-05,0.1834410685640773,-5.798789285878504e-05,0.1834410685640773,9.704201716214228e-06,0.1834410685640773,-2.718003405523873e-05
0.1842351857440083,5.165598628519399e-05,0.1842351857440083,-5.396209691266519e-05,0.1842351857440083,1.3456847908973538e-05,0.1842351857440083,-2.97093e-05
0.1850293029239394,6.134410611681545e-05,0.1850293029239394,-3.744761148639558e-05,0.1850293029239394,1.59457e-05,0.1850293029239394,-2.9077368741918652e-05
0.1858234201038705,8.141140888314794e-05,0.1858234201038705,-2.1542179513579e-05,0.1858234201038705,1.4445322932635192e-05,0.1858234201038705,-2.3783203023541605e-05
0.1866175372838016,9.569673778216208e-05,0.1866175372838016,-7.595327848475201e-06,0.1866175372838016,1.868264233143232e-05,0.1866175372838016,-1.6081822808459534e-05
0.1874116544637326,9.599933479387032e-05,0.1874116544637326,3.0726745837559973e-07,0.1874116544637326,2.1099246670191576e-05,0.1874116544637326,-1.3476956529246871e-05
0.1882057716436637,9.037189668380088e-05,0.1882057716436637,-1.3127832910117816e-05,0.1882057716436637,1.4760816367021526e-05,0.1882057716436637,-1.0515241730332843e-05
0.1889998888235948,6.630464476763698e-05,0.1889998888235948,-3.30637831289881e-05,0.1889998888235948,9.23235071725756e-06,0.1889998888235948,-1.09098796425641e-05
0.1897940060035258,3.127922016684358e-05,0.1897940060035258,-3.4092109056467394e-05,0.1897940060035258,1.0652497983315644e-05,0.1897940060035258,-1.1631035683028727e-05
0.1905881231834569,-2.601679096516639e-06,0.1905881231834569,-3.304681569809924e-05,0.1905881231834569,1.1365385568288232e-05,0.1905881231834569,-1.12459e-05
0.191382240363388,-3.861613874272653e-05,0.191382240363388,-3.095367763024228e-05,0.191382240363388,7.396587828048514e-06,0.191382240363388,-1.1956458042987872e-05
0.192176357543319,-6.640706199025187e-05,0.192176357543319,-2.773471101402348e-05,0.192176357543319,5.381931698924466e-06,0.192176357543319,-1.1148337963156988e-05
0.1929704747232501,-7.990312610023901e-05,0.1929704747232501,-2.8247792031975103e-05,0.1929704747232501,4.215644011137668e-06,0.1929704747232501,-9.054152994431169e-06
0.1937645919031812,-9.372817003853796e-05,0.1937645919031812,-3.1763022587235346e-05,0.1937645919031812,1.4127858053953164e-05,0.1937645919031812,-1.0041098659803811e-05
0.1945587090831123,-0.0001007588097883,0.1945587090831123,-4.0525495195419855e-05,0.1945587090831123,2.4792780774839607e-05,0.1945587090831123,-1.4109581749691071e-05
0.1953528262630433,-9.996895430754262e-05,0.1953528262630433,-5.422939286148338e-05,0.1953528262630433,1.6637656924573746e-05,0.1953528262630433,-1.78807523851096e-05
0.1961469434429744,-0.0001003253784687,0.1961469434429744,-6.912535932993854e-05,0.1961469434429744,7.357381396525078e-06,0.1961469434429744,-1.7150773644675138e-05
0.1969410606229055,-9.166080522221048e-05,0.1969410606229055,-8.144747368371406e-05,0.1969410606229055,-3.3320731672816258e-06,0.1969410606229055,-1.5727216143346795e-05
0.1977351778028366,-7.682898886881849e-05,0.1977351778028366,-8.2277132570886e-05,0.1977351778028366,-1.5311724141441814e-05,0.1977351778028366,-1.967688477960934e-05
0.1985292949827676,-5.435349949715729e-05,0.1985292949827676,-5.861350751798578e-05,0.1985292949827676,-1.584696034333544e-05,0.1985292949827676,-2.1415610829781576e-05
0.1993234121626987,-2.891484843899076e-05,0.1993234121626987,-1.770639511686718e-05,0.1993234121626987,-1.1106653047162969e-05,0.1993234121626987,-2.015108159658659e-05
0.2001175293426297,-8.297492471048132e-06,0.2001175293426297,2.249460263382733e-05,0.2001175293426297,-7.710516030129359e-06,0.2001175293426297,-1.670481380956462e-05
0.2009116465225608,5.757344981026552e-06,0.2009116465225608,4.722938912101943e-05,0.2009116465225608,-4.906274538125716e-06,0.2009116465225608,-1.1047632105463003e-05
0.2017057637024919,1.1018791759619194e-05,0.2017057637024919,4.938337129377482e-05,0.2017057637024919,1.0959530654831074e-06,0.2017057637024919,-6.960815522747871e-06
0.202499880882423,2.2657411840784115e-05,0.202499880882423,2.4678653983885333e-05,0.202499880882423,1.8465116213330776e-06,0.202499880882423,-3.021933577442869e-06
0.203293998062354,4.032893599635808e-05,0.203293998062354,-1.6251527148972257e-05,0.203293998062354,-1.1150164110676994e-06,0.203293998062354,7.793170003233451e-07
0.2040881152422851,4.944217298611123e-05,0.2040881152422851,-2.6876980856356143e-05,0.2040881152422851,-2.85344e-06,0.2040881152422851,-4.8341033653886794e-08
0.2048822324222162,6.211214886266469e-05,0.2048822324222162,-2.5397229567298047e-06,0.2048822324222162,-3.0100480736079225e-06,0.2048822324222162,-2.260344619948286e-06
0.2056763496021472,8.145627302048896e-05,0.2056763496021472,1.871051177477248e-05,0.2056763496021472,-5.300869153998661e-06,0.2056763496021472,-3.681911139112684e-06
0.2064704667820783,9.661852360979222e-05,0.2064704667820783,1.4528988299881488e-05,0.2064704667820783,-5.982902923157609e-06,0.2064704667820783,-6.071678565586479e-06
0.2072645839620094,0.0001011635199932,0.2072645839620094,6.644841091271516e-06,0.2072645839620094,-7.454345992060216e-06,0.2072645839620094,-7.394945726315499e-06
0.2080587011419405,9.933686784156048e-05,0.2080587011419405,7.88891e-06,0.2080587011419405,-8.856593971395389e-06,0.2080587011419405,-1.0801806508409534e-05
0.2088528183218715,7.763776512968712e-05,0.2088528183218715,-2.619088252230828e-06,0.2088528183218715,-7.06000226163531e-06,0.2088528183218715,-1.539241800173805e-05
0.2096469355018026,4.18227296268082e-05,0.2096469355018026,-1.7901415134900045e-05,0.2096469355018026,3.442576224826141e-07,0.2096469355018026,-1.6262047432547457e-05
0.2104410526817337,4.732205546784913e-06,0.2104410526817337,-2.9909362056323616e-05,0.2104410526817337,3.958181454387215e-06,0.2104410526817337,-1.5707651454387214e-05
0.2112351698616647,-2.8132073097442447e-05,0.2112351698616647,-4.94895119180125e-05,0.2112351698616647,6.693631802200118e-06,0.2112351698616647,-1.805823963022013e-05
0.2120292870415958,-5.78287976701214e-05,0.2120292870415958,-6.019923098055838e-05,0.2120292870415958,9.192190786662008e-06,0.2120292870415958,-1.7328014507607488e-05
0.2128234042215269,-7.783607006839064e-05,0.2128234042215269,-5.897704813141167e-05,0.2128234042215269,1.05745e-05,0.2128234042215269,-1.6676462869456194e-05
0.2136175214014579,-9.136261104784676e-05,0.2136175214014579,-5.0327038629073066e-05,0.2136175214014579,1.05745e-05,0.2136175214014579,-1.69528e-05
0.214411638581389,-9.882449401660884e-05,0.214411638581389,-4.337295491828596e-05,0.214411638581389,1.0870853525994703e-05,0.214411638581389,-1.7999945811626198e-05
0.2152057557613201,-0.0001013612255993,0.2152057557613201,-3.828510662167059e-05,0.2152057557613201,1.3141559530486976e-05,0.2152057557613201,-2.308417302032465e-05
0.2159998729412512,-0.0001008772290329,0.2159998729412512,-2.501196552728163e-05,0.2159998729412512,1.930160162346853e-05,0.2159998729412512,-2.4338145779321723e-05
0.2167939901211822,-8.694141020911603e-05,0.2167939901211822,-2.605915598708808e-05,0.2167939901211822,2.218609512182869e-05,0.2167939901211822,-1.9758298345275032e-05
0.2175881073011133,-7.071028859438741e-05,0.2175881073011133,-4.000934103622061e-05,0.2175881073011133,1.5494927155293178e-05,0.2175881073011133,-1.82956e-05
0.2183822244810444,-5.755323523329549e-05,0.2183822244810444,-5.33257364624639e-05,0.2183822244810444,8.761953408710288e-06,0.2183822244810444,-1.8482979119069588e-05
0.2191763416609755,-3.635770327946215e-05,0.2191763416609755,-6.32017996147615e-05,0.2191763416609755,2.441797548330252e-06,0.2191763416609755,-1.8907454067788564e-05
0.2199704588409065,-1.41135601224893e-05,0.2199704588409065,-6.699231935878055e-05,0.2199704588409065,4.050797115433265e-07,0.2199704588409065,-1.82956e-05
0.2207645760208376,-3.3383402533990843e-06,0.2207645760208376,-4.811415591679346e-05,0.2207645760208376,-4.835951257437444e-07,0.2207645760208376,-1.967785677316857e-05
0.2215586932007686,9.765672413387158e-06,0.2215586932007686,4.069199156010745e-06,0.2215586932007686,-3.722534356030756e-06,0.2215586932007686,-2.1070145010735865e-05
0.2223528103806997,2.5146205941912425e-05,0.2223528103806997,5.7086024848975215e-05,0.2223528103806997,-1.0396260408398512e-05,0.2223528103806997,-2.279803724902442e-05
0.2231469275606308,3.877086708766492e-05,0.2231469275606308,7.506832804784238e-05,0.2231469275606308,-1.25887e-05,0.2231469275606308,-1.6875458526354178e-05
0.2239410447405619,4.791131571513803e-05,0.2239410447405619,5.20775658260964e-05,0.2239410447405619,-1.3299149115727432e-05,0.2239410447405619,-9.965457934729952e-06
0.2247351619204929,5.942590896455024e-05,0.2247351619204929,1.5285271406448165e-05,0.2247351619204929,-1.418807415602896e-05,0.2247351619204929,-3.4864443947279893e-06
0.225529279100424,7.7239819741487e-05,0.225529279100424,-1.1603816171243146e-05,0.225529279100424,-1.6281284517489232e-05,0.225529279100424,-8.787816254559872e-07
0.2263233962803551,9.424320004121565e-05,0.2263233962803551,-2.822028359329429e-05,0.2263233962803551,-2.042851429749018e-05,0.2263233962803551,-1.67849e-07
0.2271175134602862,9.8548513868698e-05,0.2271175134602862,-4.350909248813499e-05,0.2271175134602862,-1.742482919695301e-05,0.2271175134602862,-1.3532979889271849e-06
0.2279116306402172,0.0001007780481368,0.2279116306402172,-5.1846683502467865e-05,0.2279116306402172,-8.420913070705286e-06,0.2279116306402172,-2.655896331352843e-06
0.2287057478201483,8.371789102205983e-05,0.2287057478201483,-3.789903349997585e-05,0.2287057478201483,-2.864379482628929e-07,0.2287057478201483,6.219325947620233e-07
0.2294998650000794,5.3381594699558136e-05,0.2294998650000794,-1.6284892804304183e-05,0.2294998650000794,3.1887509916450936e-06,0.2294998650000794,1.1753290083549064e-06
0.2302939821800104,1.6431660261226328e-05,0.2302939821800104,-1.2697633998968747e-05,0.2302939821800104,3.86053e-06,0.2302939821800104,-4.0463026848888493e-07
0.2310880993599415,-1.966150484545997e-05,0.2310880993599415,-1.4656577847104842e-05,0.2310880993599415,-2.7606456987556222e-08,0.2310880993599415,-2.733881525883658e-06
0.2318822165398726,-5.270623597405102e-05,0.2318822165398726,-2.818701553575958e-05,0.2318822165398726,-3.7596750636804775e-06,0.2318822165398726,-6.523545585626876e-06
0.2326763337198036,-7.90248338830983e-05,0.2326763337198036,-4.017453056121793e-05,0.2326763337198036,-6.919763509341797e-06,0.2326763337198036,-1.0552891856419255e-05
0.2334704508997347,-9.127780492163828e-05,0.2334704508997347,-3.5498080530844943e-05,0.2334704508997347,-6.89306646287943e-06,0.2334704508997347,-1.0674526384597196e-05
0.2342645680796658,-9.773721937855526e-05,0.2342645680796658,-3.9483698399157775e-05,0.2342645680796658,-1.7084540773600682e-06,0.2342645680796658,-6.88182e-06
0.2350586852595969,-9.858665844098916e-05,0.2350586852595969,-5.389283562396189e-05,0.2350586852595969,2.044004283847092e-06,0.2350586852595969,-8.777693705435437e-06
0.2358528024395279,-9.894189977365092e-05,0.2358528024395279,-6.080939046752753e-05,0.2358528024395279,7.809236519022915e-06,0.2358528024395279,-1.1877459728381125e-05
0.236646919619459,-9.764116976335844e-05,0.236646919619459,-6.106738478320933e-05,0.236646919619459,1.3298736338740583e-05,0.236646919619459,-1.4148860610209904e-05
0.2374410367993901,-8.354597290419927e-05,0.2374410367993901,-4.751836028317028e-05,0.2374410367993901,1.4880043525449922e-05,0.2374410367993901,-1.3289375330092307e-05
0.2382351539793211,-6.699592336835689e-05,0.2382351539793211,-2.328017817435833e-05,0.2382351539793211,1.39315e-05,0.2382351539793211,-1.5687901478830197e-05
0.2390292711592522,-4.540886999183225e-05,0.2390292711592522,-7.316132800921093e-06,0.2390292711592522,1.5076779795027762e-05,0.2390292711592522,-1.9598839726703683e-05
0.2398233883391833,-2.2596517698711623e-05,0.2398233883391833,-1.1024751439859682e-05,0.2398233883391833,1.7368259996237898e-05,0.2398233883391833,-1.9341642859830076e-05
0.2406175055191144,-3.737321794522405e-06,0.2406175055191144,-1.548142915004643e-05,0.2406175055191144,1.93027e-05,0.2406175055191144,-1.7218959608187705e-05
0.2414116226990454,7.83068138142449e-06,0.2414116226990454,-1.1195102794077665e-05,0.2414116226990454,1.7564824128733088e-05,0.2414116226990454,-1.79798533529215e-05
0.2422057398789765,1.807790486090887e-05,0.2422057398789765,2.5134968046826294e-08,0.2422057398789765,1.839431737069338e-05,0.2422057398789765,-2.1376040076347927e-05
0.2429998570589076,3.339911676160475e-05,0.2429998570589076,-5.027158878474065e-07,0.2429998570589076,1.829570297279983e-05,0.2429998570589076,-2.299509405440034e-05
0.2437939742388386,4.681617767062349e-05,0.2437939742388386,-1.595030802939631e-05,0.2437939742388386,1.614354751837359e-05,0.2437939742388386,-2.4574876240813203e-05
0.2445880914187697,5.6105269193335685e-05,0.2445880914187697,-3.334370540998215e-05,0.2445880914187697,1.324172162063436e-05,0.2445880914187697,-2.311487729650749e-05
0.2453822085987008,7.268605549830814e-05,0.2453822085987008,-4.4390854596881095e-05,0.2453822085987008,1.0597120278312031e-05,0.2453822085987008,-2.0153259556267855e-05
0.2461763257786318,8.913066796386756e-05,0.2461763257786318,-2.88762725093892e-05,0.2461763257786318,4.63477230898756e-06,0.2461763257786318,-1.813857212090094e-05
0.2469704429585629,9.789325009167796e-05,0.2469704429585629,-1.3501741767625986e-05,0.2469704429585629,-3.4247735705955627e-06,0.2469704429585629,-1.8986368245448875e-05
0.247764560138494,9.785716447559752e-05,0.247764560138494,-6.783324490946135e-06,0.247764560138494,-4.19623e-06,0.247764560138494,-1.675601819009252e-05
0.2485586773184251,8.243297659117459e-05,0.2485586773184251,2.255362390331805e-06,0.2485586773184251,-6.8820062741653874e-06,0.2485586773184251,-9.191887612566913e-06
0.2493527944983561,5.564000580104197e-05,0.2493527944983561,4.820092678348819e-06,0.2493527944983561,-1.1344508443432956e-05,0.2493527944983561,-2.2418484732505784e-06
0.2501469116782872,2.481196310605817e-05,0.2501469116782872,-4.191532175159136e-05,0.2501469116782872,-1.0002136211429551e-05,0.2501469116782872,2.121605729228782e-06
0.2509410288582183,-1.1370553513846482e-05,0.2509410288582183,-8.68576814651093e-05,0.2509410288582183,-1.3630848744889296e-05,0.2509410288582183,6.663197969751903e-06
0.2517351460381494,-4.52313060206152e-05,0.2517351460381494,-7.50967611064605e-05,0.2517351460381494,-2.374332700751983e-05,0.2517351460381494,7.790629498798543e-06
0.2525292632180804,-7.212507990833088e-05,0.2525292632180804,-4.2047612140302287e-05,0.2525292632180804,-2.501961146973778e-05,0.2525292632180804,1.965089349382543e-06
0.2533233803980115,-8.634584217558344e-05,0.2533233803980115,-8.244067722701912e-06,0.2533233803980115,-1.7375732697396894e-05,0.2533233803980115,-4.2861353054090805e-06
0.2541174975779426,-9.68908442809576e-05,0.2541174975779426,2.437172461371225e-05,0.2541174975779426,-9.387843372931286e-06,0.2541174975779426,-1.1643120241367873e-05
0.2549116147578736,-0.0001039976132979,0.2549116147578736,3.006390823827575e-05,0.2549116147578736,-2.6947816553710213e-06,0.2549116147578736,-1.6005064405239514e-05
0.2557057319378047,-0.0001050835888351,0.2557057319378047,1.3417926528283563e-06,0.2557057319378047,3.061256067821947e-07,0.2557057319378047,-1.4780741811601652e-05
0.2564998491177358,-9.819364788682004e-05,0.2564998491177358,-9.56721481242356e-06,0.2564998491177358,3.355349607049735e-07,0.2564998491177358,-1.3260208693510916e-05
0.2572939662976669,-7.959716171921837e-05,0.2572939662976669,4.809822558898932e-06,0.2572939662976669,6.413878996873814e-07,0.2572939662976669,-1.49386e-05
0.2580880834775979,-6.533954246459492e-05,0.2580880834775979,-5.538947729564056e-06,0.2580880834775979,4.154785490693838e-06,0.2580880834775979,-1.73068497142971e-05
0.258882200657529,-4.832516591720076e-05,0.258882200657529,-1.398160269918427e-05,0.258882200657529,3.5083674636947165e-06,0.258882200657529,-1.944275311040325e-05
0.2596763178374601,-2.3780647691249767e-05,0.2596763178374601,6.1549270767586735e-06,0.2596763178374601,-1.3698377292554922e-06,0.2596763178374601,-1.6026941660413228e-05
0.2604704350173911,-3.963948976070068e-06,0.2604704350173911,1.9814364445794703e-05,0.2604704350173911,-5.873066128808168e-06,0.2604704350173911,-1.396216734740124e-05
0.2612645521973222,5.794641321225256e-06,0.2612645521973222,1.2569492601733002e-05,0.2612645521973222,-8.866560254071591e-06,0.2612645521973222,-8.620375921354677e-06
0.2620586693772533,1.6854419180143374e-05,0.2620586693772533,7.660425732010527e-07,0.2620586693772533,-5.064938288060537e-06,0.2620586693772533,-3.959184731785597e-06
0.2628527865571843,3.198815109668563e-05,0.2628527865571843,-1.1971829748418951e-05,0.2628527865571843,5.103554393485334e-06,0.2628527865571843,-3.18914e-06
0.2636469037371154,4.578037688931412e-05,0.2636469037371154,-2.134668291095008e-05,0.2636469037371154,7.53392975352357e-06,0.2636469037371154,-7.077282434479933e-06
0.2644410209170465,5.487286851509845e-05,0.2644410209170465,-3.198139577424576e-05,0.2644410209170465,7.791373786981839e-06,0.2644410209170465,-1.4462273588226304e-05
0.2652351380969776,6.894117807715785e-05,0.2652351380969776,-4.488992655758287e-05,0.2652351380969776,4.671085679074517e-06,0.2652351380969776,-1.8906984969478265e-05
0.2660292552769086,8.975905693723995e-05,0.2660292552769086,-5.427499993858182e-05,0.2660292552769086,6.28915700218561e-06,0.2660292552769086,-2.03098e-05
0.2668233724568397,0.0001000880303687,0.2668233724568397,-5.918864680309815e-05,0.2668233724568397,1.219445873783495e-05,0.2668233724568397,-1.8610960080329192e-05
0.2676174896367708,0.0001030695646928,0.2676174896367708,-6.856941241990694e-05,0.2676174896367708,1.6934323310915133e-05,0.2676174896367708,-1.5174717792723242e-05
0.2684116068167018,9.083378093143668e-05,0.2684116068167018,-7.165194105658343e-05,0.2684116068167018,1.811754118236369e-05,0.2684116068167018,-1.3319452939212104e-05
0.2692057239966329,5.8837963313719184e-05,0.2692057239966329,-6.83758254835875e-05,0.2692057239966329,1.1937343893641189e-05,0.2692057239966329,-1.537300590466598e-05
0.269999841176564,2.4680436024878225e-05,0.269999841176564,-6.898548634848296e-05,0.269999841176564,7.889482071110192e-06,0.269999841176564,-1.4435400466818276e-05
0.270793958356495,-5.933477130258015e-06,0.270793958356495,-7.734063422655116e-05,0.270793958356495,8.362439549571603e-06,0.270793958356495,-1.1404876126070994e-05
0.2715880755364261,-3.6744413610619074e-05,0.2715880755364261,-8.217582515456309e-05,0.2715880755364261,1.0928521049228657e-05,0.2715880755364261,-1.02388e-05
0.2723821927163572,-6.251694498263227e-05,0.2723821927163572,-5.53763457262596e-05,0.2723821927163572,1.1455979655816406e-05,0.2723821927163572,-1.1226344004720992e-05
0.2731763098962882,-7.808218606877156e-05,0.2731763098962882,8.01936703691762e-06,0.2731763098962882,5.918152231738565e-06,0.2731763098962882,-1.1216124464800803e-05
0.2739704270762193,-8.902439146990599e-05,0.2739704270762193,7.065889544602679e-05,0.2739704270762193,1.807649274791196e-06,0.2739704270762193,-1.3920093669093094e-05
0.2747645442561504,-9.83991453351546e-05,0.2747645442561504,8.360069019864173e-05,0.2747645442561504,1.0465547380950447e-06,0.2747645442561504,-1.8354470888301554e-05
0.2755586614360815,-9.694768339685423e-05,0.2755586614360815,4.456214411905077e-05,0.2755586614360815,5.43020888400811e-07,0.2755586614360815,-2.0270326641258303e-05
0.2763527786160125,-9.24662014203534e-05,0.2763527786160125,1.4137749320890417e-05,0.2763527786160125,-7.206894620175753e-07,0.2763527786160125,-1.8098428977243832e-05
0.2771468957959436,-7.94559452312747e-05,0.2771468957959436,-7.948557625077946e-06,0.2771468957959436,2.319628762996048e-06,0.2771468957959436,-1.4209400283258892e-05
0.2779410129758747,-6.407595447735075e-05,0.2779410129758747,-3.346300255392963e-05,0.2779410129758747,2.85344e-06,0.2779410129758747,-1.0199797329306408e-05
0.2787351301558057,-4.803896435083319e-05,0.2787351301558057,-4.633369112377715e-05,0.2787351301558057,2.981715636592264e-06,0.2787351301558057,-1.0337056177275564e-05
0.2795292473357368,-2.659069349753709e-05,0.2795292473357368,-4.993073827992767e-05,0.2795292473357368,2.083543436128733e-06,0.2795292473357368,-1.2253e-05
0.2803233645156679,-7.225296087150271e-06,0.2803233645156679,-5.519998598305288e-05,0.2803233645156679,-3.090775296123832e-06,0.2803233645156679,-1.0554196172074811e-05
0.2811174816955989,6.845909180356095e-06,0.2811174816955989,-5.652469082174963e-05,0.2811174816955989,-3.0108736214336133e-06,0.2811174816955989,-9.488692603064866e-06
0.2819115988755301,1.803959031229308e-05,0.2819115988755301,-5.917214368027313e-05,0.2819115988755301,-1.5008959576341225e-06,0.2819115988755301,-1.02388e-05
0.2827057160554611,3.050804019143808e-05,0.2827057160554611,-5.052830952425586e-05,0.2827057160554611,-2.7053897425216205e-06,0.2827057160554611,-1.2223136415088518e-05
0.2834998332353922,4.3806357350910914e-05,0.2834998332353922,-4.213192583696512e-05,0.2834998332353922,-1.8465202023996835e-06,0.2834998332353922,-1.527375937490775e-05
0.2842939504153233,4.907914616032058e-05,0.2842939504153233,-3.295537531069807e-05,0.2842939504153233,-1.7085219164557746e-06,0.2842939504153233,-1.3567501491966786e-05
0.2850880675952543,6.0307831258624086e-05,0.2850880675952543,-2.556420992223248e-05,0.2850880675952543,-3.057870659339483e-07,0.2850880675952543,-1.2253e-05
0.2858821847751854,7.877038362108109e-05,0.2858821847751854,-2.0113561263858085e-05,0.2858821847751854,-6.045401600182208e-07,0.2858821847751854,-1.1268657870128842e-05
0.2866763019551165,9.188637996149274e-05,0.2866763019551165,-6.478364311617975e-08,0.2866763019551165,3.383935488500782e-06,0.2866763019551165,-7.515390904198452e-06
0.2874704191350475,9.803361696059114e-05,0.2874704191350475,2.4998400931696548e-05,0.2874704191350475,6.229753921182272e-06,0.2874704191350475,-8.579643921182272e-06
0.2882645363149786,9.031561905547628e-05,0.2882645363149786,3.286970257341764e-05,0.2882645363149786,7.089124228474593e-06,0.2882645363149786,-1.0159891543050811e-05
0.2890586534949096,6.527341473825997e-05,0.2890586534949096,1.3609122772278488e-05,0.2890586534949096,7.21752e-06,0.2890586534949096,-9.587151824287691e-06
0.2898527706748408,3.3998891412044964e-05,0.2898527706748408,-9.974248533001992e-06,0.2898527706748408,6.111845954649264e-06,0.2898527706748408,-1.0120237022675368e-05
0.2906468878547718,1.983719674365262e-07,0.2906468878547718,-2.512809129005816e-05,0.2906468878547718,2.8053100914553686e-06,0.2906468878547718,-9.784787066734711e-06
0.2914410050347029,-3.557884776017606e-05,0.2914410050347029,-3.2474341714706425e-05,0.2914410050347029,1.0936161199119704e-07,0.2914410050347029,-9.803495044029672e-06
0.292235122214634,-6.686511009764925e-05,0.292235122214634,-3.950084458428144e-05,0.292235122214634,-8.39246e-07,0.292235122214634,-1.0525419881827885e-05
0.293029239394565,-8.255144097663028e-05,0.293029239394565,-5.133308412305443e-05,0.293029239394565,1.3130543236697203e-06,0.293029239394565,-9.56741e-06
0.2938233565744961,-9.173538545189584e-05,0.2938233565744961,-5.796513098924686e-05,0.2938233565744961,1.6683554248163209e-06,0.2938233565744961,-1.1028857090379172e-05
0.2946174737544272,-9.672166090085342e-05,0.2946174737544272,-5.623205246793709e-05,0.2946174737544272,5.429121969597689e-07,0.2946174737544272,-1.2174271137037488e-05
0.2954115909343582,-9.872501500357863e-05,0.2954115909343582,-3.7861084851644e-05,0.2954115909343582,8.294808020057805e-07,0.2954115909343582,-1.3121915003578634e-05
0.2962057081142893,-9.677046117497624e-05,0.2962057081142893,-1.6523626585947953e-05,0.2962057081142893,2.320351122722951e-06,0.2962057081142893,-1.4661977754554098e-05
0.2969998252942204,-8.543857220925886e-05,0.2969998252942204,-2.1985531401492888e-05,0.2969998252942204,2.181914144355793e-06,0.2969998252942204,-1.6952296577423176e-05
0.2977939424741515,-6.968222058979878e-05,0.2977939424741515,-2.9668392091942547e-05,0.2977939424741515,1.0213988252622243e-05,0.2977939424741515,-1.8670159926275157e-05
0.2985880596540825,-5.4266957503450766e-05,0.2985880596540825,-1.159446995540051e-05,0.2985880596540825,2.4038927438182742e-05,0.2985880596540825,-2.2480155374811997e-05
0.2993821768340136,-2.9722297569071747e-05,0.2993821768340136,9.347316095771254e-06,0.2993821768340136,2.1994704610001896e-05,0.2993821768340136,-2.3213663463365267e-05
0.3001762940139447,-1.1907047181385082e-05,0.3001762940139447,2.8506930026837634e-05,0.3001762940139447,1.281100384717058e-05,0.3001762940139447,-2.23239e-05
0.3009704111938757,3.204848165559264e-06,0.3009704111938757,3.90472584586837e-05,0.3009704111938757,3.4897992971219405e-06,0.3009704111938757,-2.1120066280359965e-05
0.3017645283738068,1.1896472451004462e-05,0.3017645283738068,3.213990953566919e-05,0.3017645283738068,-9.644126057548898e-06,0.3017645283738068,-2.1060102736238077e-05
0.3025586455537379,1.9687748950386887e-05,0.3025586455537379,3.878684531203181e-06,0.3025586455537379,-2.182038152822954e-05,0.3025586455537379,-2.1000948145398263e-05
0.3033527627336689,3.545327611052662e-05,0.3033527627336689,-2.302890195710244e-05,0.3033527627336689,-2.104118307320279e-05,0.3033527627336689,-1.7891314277120287e-05
0.3041468799136,4.77956179719371e-05,0.3041468799136,-3.201969168200322e-05,0.3041468799136,-1.6025546376392226e-05,0.3041468799136,-1.399211420222756e-05
0.3049409970935311,5.614280479344455e-05,0.3049409970935311,-3.907012785763052e-05,0.3049409970935311,-1.0846353466227529e-05,0.3049409970935311,-1.0555009840218516e-05
0.3057351142734621,7.486445752407266e-05,0.3057351142734621,-5.18203433044485e-05,0.3057351142734621,2.1776551421911707e-06,0.3057351142734621,-1.02388e-05
0.3065292314533932,8.892998675069636e-05,0.3065292314533932,-6.410882541874514e-05,0.3065292314533932,1.0712593984361171e-05,0.3065292314533932,-8.619826735815283e-06
0.3073233486333243,9.268310542030652e-05,0.3073233486333243,-6.148650979442765e-05,0.3073233486333243,6.663381167098573e-06,0.3073233486333243,-4.116671995788538e-06
0.3081174658132554,9.576315967101004e-05,0.3081174658132554,-5.17394715489177e-05,0.3081174658132554,-1.0530091264895302e-09,0.3081174658132554,-7.003978842523509e-07
0.3089115829931864,7.763335501288451e-05,0.3089115829931864,-4.883426575386645e-05,0.3089115829931864,-8.42277921965262e-06,0.3089115829931864,4.2467586994210346e-07
0.3097057001731175,4.6378495766019e-05,0.3097057001731175,-6.178447507814232e-05,0.3097057001731175,-1.6596887056248762e-05,0.3097057001731175,5.828118819548802e-07
0.3104998173530486,1.0583052423901832e-05,0.3104998173530486,-8.00601423326576e-05,0.3104998173530486,-2.181928162057701e-05,0.3104998173530486,-2.8526505442196966e-06
0.3112939345329796,-2.598428886963456e-05,0.3112939345329796,-7.654454133678947e-05,0.3112939345329796,-2.371619095034993e-05,0.3112939345329796,-2.0442448485106883e-06
0.3120880517129107,-5.576128545922016e-05,0.3120880517129107,-3.697072004736822e-05,0.3120880517129107,-2.4494262064827754e-05,0.3120880517129107,-6.323563055208588e-07
0.3128821688928418,-7.70524675924774e-05,0.3128821688928418,1.9925500026206784e-05,0.3128821688928418,-3.2013503133832245e-05,0.3128821688928418,8.963645774769676e-08
0.3136762860727728,-9.083832625160822e-05,0.3136762860727728,7.3020402528713e-05,0.3136762860727728,-3.648288597718916e-05,0.3136762860727728,3.247907784233041e-07
0.314470403252704,-9.929524368675134e-05,0.314470403252704,0.0001083884466316,0.314470403252704,-2.615918961662144e-05,0.314470403252704,2.5370510383378563e-06
0.315264520432635,-0.0001008478162167,0.315264520432635,0.0001030728550034,0.315264520432635,-1.9619838798149157e-05,0.315264520432635,5.437685762318469e-07
0.3160586376125661,-9.957410775682392e-05,0.3160586376125661,5.389034945234106e-05,0.3160586376125661,-7.434927418657807e-06,0.3160586376125661,-4.196172621936838e-06
0.3168527547924971,-9.110524909230778e-05,0.3168527547924971,4.0336316139190257e-07,0.3168527547924971,4.214684857381115e-06,0.3168527547924971,-9.507337074141432e-06
0.3176468719724282,-7.25249801990112e-05,0.3176468719724282,-3.041993564712408e-05,0.3176468719724282,1.1795979867325867e-05,0.3176468719724282,-1.3742895075035464e-05
0.3184409891523593,-6.040322047726956e-05,0.3184409891523593,-4.2782133241451765e-05,0.3184409891523593,2.230004502416592e-05,0.3184409891523593,-1.675349098737456e-05
0.3192351063322903,-4.211718019772122e-05,0.3192351063322903,-4.2388869659218846e-05,0.3192351063322903,2.992474111051228e-05,0.3192351063322903,-1.999313644420491e-05
0.3200292235122214,-1.8494899569527022e-05,0.3200292235122214,-3.0992343993743115e-05,0.3200292235122214,3.2375051214818655e-05,0.3200292235122214,-2.0704590496687243e-05
0.3208233406921525,-2.353293368719353e-07,0.3208233406921525,-2.881897388446389e-05,0.3208233406921525,3.20592e-05,0.3208233406921525,-2.0862565792465245e-05
0.3216174578720835,1.237414465195195e-05,0.3216174578720835,-3.728960389698488e-05,0.3216174578720835,3.265184820498258e-05,0.3216174578720835,-1.9717151795017427e-05
0.3224115750520147,2.6056926067885668e-05,0.3224115750520147,-4.582395454111236e-05,0.3224115750520147,3.0874178774692454e-05,0.3224115750520147,-1.9757014150205036e-05
0.3232056922319457,3.630434675350033e-05,0.3232056922319457,-5.541495289344592e-05,0.3232056922319457,2.435839967006744e-05,0.3232056922319457,-2.1415582972611148e-05
0.3239998094118768,4.414206594987028e-05,0.3239998094118768,-5.69012698290923e-05,0.3239998094118768,2.0981611891199365e-05,0.3239998094118768,-2.16526e-05
0.3247939265918079,5.912674606827448e-05,0.3247939265918079,-5.332615879701436e-05,0.3247939265918079,1.926387447180706e-05,0.3247939265918079,-1.9797490786345104e-05
0.3255880437717389,7.521590216709962e-05,0.3255880437717389,-4.870806944275662e-05,0.3255880437717389,1.627227626318171e-05,0.3255880437717389,-1.653903616662731e-05
0.32638216095167,9.314961211846338e-05,0.32638216095167,-4.64942e-05,0.32638216095167,1.4883292871492128e-05,0.32638216095167,-1.5551343106965576e-05
0.3271762781316011,9.957234151049876e-05,0.3271762781316011,-4.5704120757047145e-05,0.3271762781316011,9.432333505954827e-06,0.3271762781316011,-1.4416170369013663e-05
0.3279703953115321,9.791780221696392e-05,0.3279703953115321,-4.763592866870419e-05,0.3279703953115321,2.89584107997313e-06,0.3279703953115321,-1.1188001209253048e-05
0.3287645124914632,8.135311099084453e-05,0.3287645124914632,-6.979273884329092e-05,0.3287645124914632,-2.616766115552315e-06,0.3287645124914632,-9.725190239578325e-06
0.3295586296713942,4.611983435409498e-05,0.3295586296713942,-9.178713321831188e-05,0.3295586296713942,1.6289854515359377e-06,0.3295586296713942,-1.1186621165722956e-05
0.3303527468513254,1.271224678310975e-05,0.3303527468513254,-8.368193051046565e-05,0.3303527468513254,4.413349823634249e-06,0.3303527468513254,-1.3240059470902744e-05
0.3311468640312564,-1.8797819540765813e-05,0.3311468640312564,-4.837115973926002e-05,0.3311468640312564,2.834242223917585e-06,0.3311468640312564,-1.3359201482611725e-05
0.3319409812111875,-5.112187149778426e-05,0.3319409812111875,-9.17062442581451e-06,0.3319409812111875,1.9242547750162727e-06,0.3319409812111875,-1.1936778693754067e-05
0.3327350983911186,-7.476583688122505e-05,0.3327350983911186,2.6121723858341e-05,0.3327350983911186,5.754408620208779e-06,0.3327350983911186,-1.1739943219319692e-05
0.3335292155710496,-8.638231483613993e-05,0.3335292155710496,5.47298363330639e-05,0.3335292155710496,7.178275214054887e-06,0.3335292155710496,-9.113505270705784e-06
0.3343233327509807,-9.491427968139384e-05,0.3343233327509807,6.872454756593891e-05,0.3343233327509807,2.477405876840985e-06,0.3343233327509807,-9.113682223068467e-06
0.3351174499309118,-9.596004489156718e-05,0.3351174499309118,4.27371217070692e-05,0.3351174499309118,-4.395052310722874e-06,0.3351174499309118,-1.1650951789292836e-05
0.3359115671108428,-0.0001020427758499,0.3359115671108428,-2.463992881051912e-06,0.3359115671108428,-1.047598655313656e-05,0.3359115671108428,-1.1640895609075058e-05
0.3367056842907739,-9.637695772735372e-05,0.3367056842907739,-2.5242900701595546e-05,0.3367056842907739,-1.0752516741460016e-05,0.3367056842907739,-1.4326208958389676e-05
0.337499801470705,-7.671224863999137e-05,0.337499801470705,-2.517810625170976e-05,0.337499801470705,-7.5540781024049425e-06,0.337499801470705,-1.3932072071110152e-05
0.338293918650636,-6.000758892791619e-05,0.338293918650636,-3.5142031393884586e-05,0.338293918650636,-7.355292219434558e-06,0.338293918650636,-1.3634608329151836e-05
0.3390880358305671,-4.239846592621907e-05,0.3390880358305671,-4.192077780789482e-05,0.3390880358305671,-9.171841089554337e-06,0.3390880358305671,-1.5885831089554338e-05
0.3398821530104982,-2.0854545584724135e-05,0.3398821530104982,-4.743060865274354e-05,0.3398821530104982,-1.1933454818533888e-05,0.3398821530104982,-1.6066371787991603e-05
0.3406762701904293,-6.178767883496018e-06,0.3406762701904293,-5.755303696810939e-05,0.3406762701904293,-1.6535618069720638e-05,0.3406762701904293,-1.22261793488907e-05
0.3414703873703603,7.074695693086152e-06,0.3414703873703603,-5.862058681815074e-05,0.3414703873703603,-1.2434394756052775e-05,0.3414703873703603,-1.10876940777467e-05
0.3422645045502914,1.7009759131475308e-05,0.3422645045502914,-5.355500025190493e-05,0.3422645045502914,-3.198119512156166e-08,0.3422645045502914,-9.60772010692762e-06
0.3430586217302225,3.197971939513861e-05,0.3430586217302225,-3.8221257903677776e-05,0.3430586217302225,8.718122488825666e-06,0.3430586217302225,-6.6054160333181095e-06
0.3438527389101535,4.755798759047856e-05,0.3438527389101535,-2.157794476955142e-05,0.3438527389101535,6.04345316473247e-06,0.3438527389101535,-6.42753409062052e-06
0.3446468560900846,5.8793596410887193e-05,0.3446468560900846,-1.515593655859377e-05,0.3446468560900846,2.2811529486391e-06,0.3446468560900846,-7.5723970532544656e-06
0.3454409732700157,7.170122658665368e-05,0.3454409732700157,-1.0949285624191944e-05,0.3454409732700157,-9.658198967702745e-07,0.3454409732700157,-1.1065983685923038e-05
0.3462350904499467,8.821577697832094e-05,0.3462350904499467,3.182072530019213e-06,0.3462350904499467,-4.432157041533697e-06,0.3462350904499467,-1.5134936017774176e-05
0.3470292076298778,9.586071248980649e-05,0.3470292076298778,2.5188175026274727e-05,0.3470292076298778,-5.065287502038704e-06,0.3470292076298778,-1.719958060312551e-05
0.3478233248098089,0.0001005903170447,0.3478233248098089,3.947894272778029e-05,0.3478233248098089,-2.4282354965004075e-06,0.3478233248098089,-1.7802116987035534e-05
0.34861744198974,8.776187081200626e-05,0.34861744198974,2.074497520498376e-05,0.34861744198974,5.521144423331964e-06,0.34861744198974,-1.9668350094076405e-05
0.349411559169671,5.490504963160829e-05,0.349411559169671,-1.2464083885900269e-05,0.349411559169671,1.04362920715238e-05,0.349411559169671,-2.1672392835368823e-05
0.3502056763496021,1.8891904802401052e-05,0.3502056763496021,-3.3255612531435444e-05,0.3502056763496021,9.271395480248808e-06,0.3502056763496021,-2.188962849341627e-05
0.3509997935295332,-1.5265673198674808e-05,0.3509997935295332,-3.9443731909045166e-05,0.3509997935295332,7.21811494952379e-06,0.3509997935295332,-2.16526e-05
0.3517939107094642,-4.3047696433227625e-05,0.3517939107094642,-3.524752079102855e-05,0.3517939107094642,4.680384434944674e-06,0.3517939107094642,-2.094240886988935e-05
0.3525880278893953,-6.851973176574572e-05,0.3525880278893953,-3.648156799115624e-05,0.3525880278893953,3.52483e-06,0.3525880278893953,-1.82593018823652e-05
0.3533821450693264,-8.479609479872038e-05,0.3533821450693264,-3.407503892844142e-05,0.3533821450693264,4.15369818676545e-06,0.3533821450693264,-1.2846221506353189e-05
0.3541762622492574,-9.469063932373832e-05,0.3541762622492574,-2.257957138805015e-05,0.3541762622492574,9.691457001665823e-06,0.3541762622492574,-1.1424709417967383e-05
0.3549703794291886,-9.760917061407887e-05,0.3549703794291886,-1.304805291172478e-05,0.3549703794291886,1.3101888357035635e-05,0.3549703794291886,-1.0751988357035636e-05
0.3557644966091196,-9.761946043981894e-05,0.3557644966091196,-9.369463523093533e-06,0.3557644966091196,1.1365143375956832e-05,0.3557644966091196,-1.0495620146606312e-05
0.3565586137890507,-9.384772229105058e-05,0.3565586137890507,-1.4185051420822143e-05,0.3565586137890507,7.355916953220916e-06,0.3565586137890507,-8.027306953220918e-06
0.3573527309689818,-8.156749941743509e-05,0.3573527309689818,-2.172706277470589e-05,0.3573527309689818,7.024368727090688e-07,0.3573527309689818,-1.4723503542564792e-06
0.3581468481489128,-7.007640379749231e-05,0.3581468481489128,-3.020264461242889e-05,0.3581468481489128,-3.090012061717417e-06,0.3581468481489128,7.017927053106707e-07
0.3589409653288439,-5.156344441266289e-05,0.3589409653288439,-3.278963847767761e-05,0.3589409653288439,-4.176762772273349e-06,0.3589409653288439,-4.785002800647376e-06
0.3597350825087749,-2.44652306601677e-05,0.3597350825087749,-2.252699008701626e-05,0.3597350825087749,-3.86053e-06,0.3597350825087749,-1.1974205745759311e-05
0.360529199688706,-5.501569690613862e-06,0.360529199688706,-2.501007531210864e-05,0.360529199688706,-8.105311935600215e-06,0.360529199688706,-1.5185377741917913e-05
0.3613233168686371,8.699515504049611e-06,0.3613233168686371,-4.24547789908657e-05,0.3613233168686371,-1.5748699533072695e-05,0.3613233168686371,-1.476070017509774e-05
0.3621174340485681,1.977885187590401e-05,0.3621174340485681,-4.88441e-05,0.3621174340485681,-1.7367286193099633e-05,0.3621174340485681,-1.39315e-05
0.3629115512284993,3.012420873914157e-05,0.3629115512284993,-4.726407449511358e-05,0.3629115512284993,-1.3891895630429212e-05,0.3629115512284993,-1.32601e-05
0.3637056684084303,4.011481815069052e-05,0.3637056684084303,-3.947131385454502e-05,0.3637056684084303,-9.2124454632209e-06,0.3637056684084303,-1.4701565773570031e-05
0.3644997855883614,5.085521086201617e-05,0.3644997855883614,-2.4342954006835944e-05,0.3644997855883614,-6.882128918399491e-06,0.3644997855883614,-1.4267508918399492e-05
0.3652939027682925,7.039821523087011e-05,0.3652939027682925,-8.36105926930083e-06,0.3652939027682925,-3.5462645458434016e-06,0.3652939027682925,-1.0595927494170965e-05
0.3660880199482235,8.685054049543675e-05,0.3660880199482235,-1.0763073234495984e-05,0.3660880199482235,-1.5705318425004488e-06,0.3660880199482235,-8.56031e-06
0.3668821371281546,9.529582053237604e-05,0.3668821371281546,-2.265791495751975e-05,0.3668821371281546,2.768290378666597e-06,0.3668821371281546,-9.368506955291147e-06
0.3676762543080857,9.876285125155597e-05,0.3676762543080857,-2.315263499906554e-05,0.3676762543080857,9.702323811015404e-06,0.3676762543080857,-9.440348112751884e-06
0.3684703714880167,9.208794075416236e-05,0.3684703714880167,-1.583189588355359e-05,0.3684703714880167,1.0219534727350975e-05,0.3684703714880167,-7.0207720910264624e-06
0.3692644886679478,5.9801531287059816e-05,0.3692644886679478,-5.974812853062746e-06,0.3692644886679478,8.303484132682572e-06,0.3692644886679478,-5.124455867317428e-06
0.3700586058478789,2.3826431817540288e-05,0.3700586058478789,3.145548048343377e-06,0.3700586058478789,9.823993347254411e-06,0.3700586058478789,-5.815390157721198e-06
0.3708527230278099,-9.857070798837823e-06,0.3708527230278099,9.91953649024137e-06,0.3708527230278099,1.118661897648713e-05,0.3708527230278099,-9.961424529583255e-06
0.371646840207741,-4.1467695986810496e-05,0.371646840207741,9.923209090172542e-06,0.371646840207741,9.52911116552713e-06,0.371646840207741,-1.2361676587400122e-05
0.3724409573876721,-6.899575231495229e-05,0.3724409573876721,-1.3280438764464406e-05,0.3724409573876721,6.940203904410001e-06,0.3724409573876721,-1.306063046299046e-05
0.3732350745676032,-8.493781333593018e-05,0.3732350745676032,-3.9178291566768745e-05,0.3732350745676032,8.914954912827408e-06,0.3732350745676032,-1.6556856141034262e-05
0.3740291917475342,-9.451774086847368e-05,0.3740291917475342,-5.2141937875101984e-05,0.3740291917475342,7.612898356296097e-06,0.3740291917475342,-1.5787797275435087e-05
0.3748233089274653,-9.823102889538518e-05,0.3748233089274653,-4.766625298855399e-05,0.3748233089274653,4.502282889538519e-06,0.3748233089274653,-1.7683494220922962e-05
0.3756174261073964,-9.566379531825404e-05,0.3756174261073964,-2.6734954775027074e-05,0.3756174261073964,5.104832926091236e-06,0.3756174261073964,-1.7663598829563505e-05
0.3764115432873274,-9.50618466510167e-05,0.3764115432873274,-7.571320070157629e-06,0.3764115432873274,8.402397750327063e-06,0.3764115432873274,-1.58271775780144e-05
0.3772056604672585,-8.227817870219796e-05,0.3772056604672585,5.35776958102649e-06,0.3772056604672585,1.072250475550837e-05,0.3772056604672585,-1.5175639959443688e-05
0.3779997776471896,-6.731102395803826e-05,0.3779997776471896,3.861896308750896e-06,0.3779997776471896,1.1581359753991352e-05,0.3779997776471896,-1.49386e-05
0.3787938948271206,-5.0530957037011454e-05,0.3787938948271206,-1.379777664884534e-05,0.3787938948271206,1.39702567320284e-05,0.3787938948271206,-1.5846718910676134e-05
0.3795880120070517,-2.755040724840844e-05,0.3795880120070517,-4.6141431925106606e-05,0.3795880120070517,1.4207296691472129e-05,0.3795880120070517,-1.4920508271319684e-05
0.3803821291869828,-8.473236677579479e-06,0.3803821291869828,-7.036396142188244e-05,0.3803821291869828,1.4641977780795994e-05,0.3803821291869828,-1.2174844438408012e-05
0.3811762463669139,7.010338181537833e-06,0.3811762463669139,-8.223492276694253e-05,0.3811762463669139,1.4386429161489324e-05,0.3811762463669139,-1.2133770838510676e-05
0.3819703635468449,2.074927342060453e-05,0.3819703635468449,-5.5562714714711474e-05,0.3819703635468449,7.53815446365939e-06,0.3819703635468449,-1.154309233754636e-05
0.382764480726776,3.162236823942977e-05,0.382764480726776,-1.1408829585310206e-05,0.382764480726776,-8.477372896315487e-06,0.382764480726776,-9.56741e-06
0.3835585979067071,4.149776184779287e-05,0.3835585979067071,2.218789421892933e-05,0.3835585979067071,-2.421880739287236e-05,0.3835585979067071,-1.0199235502331378e-05
0.3843527150866381,5.030345026527063e-05,0.3843527150866381,4.2602567105022335e-05,0.3843527150866381,-2.682671243368234e-05,0.3843527150866381,-1.0693103108420586e-05
0.3851468322665692,6.356960191315615e-05,0.3851468322665692,3.695737770164804e-05,0.3851468322665692,-1.808341238096331e-05,0.3851468322665692,-1.0692776326639343e-05
0.3859409494465003,8.06112902509258e-05,0.3859409494465003,1.4410355621690088e-06,0.3859409494465003,-3.923850611237735e-06,0.3859409494465003,-1.0555044238300726e-05
0.3867350666264313,8.947136962413159e-05,0.3867350666264313,-3.8018518244653735e-05,0.3867350666264313,3.0685893213108605e-06,0.3867350666264313,-9.21278561093178e-06
0.3875291838063624,9.556456704239167e-05,0.3875291838063624,-4.819246129361768e-05,0.3875291838063624,7.671300315753783e-06,0.3875291838063624,-5.26304268039243e-06
0.3883233009862935,9.418183965522324e-05,0.3883233009862935,-4.973170562172352e-05,0.3883233009862935,6.782473029476747e-06,0.3883233009862935,-4.858014985049748e-06
0.3891174181662246,7.281280987855279e-05,0.3891174181662246,-5.060102993295713e-05,0.3891174181662246,-2.1441602212155358e-06,0.3891174181662246,-1.0526432602510087e-05
0.3899115353461556,3.4171768516120766e-05,0.3899115353461556,-5.1194e-05,0.3899115353461556,-6.605369744965391e-06,0.3899115353461556,-1.4326449744965392e-05
0.3907056525260867,-4.349683589803014e-06,0.3907056525260867,-3.486012093964911e-05,0.3907056525260867,-1.591492681575622e-06,0.3907056525260867,-1.590596292262788e-05
0.3914997697060178,-3.641400961458991e-05,0.3914997697060178,-1.5615064559585426e-05,0.3914997697060178,1.4933125294301324e-05,0.3914997697060178,-1.6281565900621955e-05
0.3922938868859488,-6.443263565916367e-05,0.3922938868859488,-1.6301953341582074e-05,0.3922938868859488,2.162459960184851e-05,0.3922938868859488,-1.480087364467511e-05
0.3930880040658799,-8.49321520800833e-05,0.3930880040658799,-2.03098e-05,0.3930880040658799,6.695463907471788e-06,0.3930880040658799,-1.30442295491105e-05
0.393882121245811,-9.75363484300404e-05,0.393882121245811,-2.1296593855672012e-05,0.393882121245811,-1.1293745290121154e-05,0.393882121245811,-1.1097630204402336e-05
0.394676238425742,-0.0001013104832741,0.394676238425742,-2.463426588553536e-05,0.394676238425742,-2.5376371127967184e-05,0.394676238425742,-1.0969820301455786e-05
0.3954703556056732,-9.95346e-05,0.3954703556056732,-1.869837502528718e-05,0.3954703556056732,-3.0025757610195348e-05,0.3954703556056732,-8.27486610444284e-06
0.3962644727856042,-0.0001021615690836,0.3962644727856042,-6.092088760063922e-06,0.3962644727856042,-2.631393577865644e-05,0.3962644727856042,-1.0020334563402546e-05
0.3970585899655353,-9.234775988681924e-05,0.3970585899655353,-1.500548972982448e-05,0.3970585899655353,-2.2738753105976813e-05,0.3970585899655353,-1.511599378804637e-05
0.3978527071454664,-7.499264756015967e-05,0.3978527071454664,-3.748379971508184e-05,0.3978527071454664,-2.169281771680897e-05,0.3978527071454664,-1.9104642547647432e-05
0.3986468243253974,-5.858659981672817e-05,0.3986468243253974,-3.749046691177193e-05,0.3986468243253974,-1.5041358721112802e-05,0.3986468243253974,-1.940185881274872e-05
0.3994409415053285,-3.790767662042926e-05,0.3994409415053285,-7.928405514773029e-06,0.3994409415053285,-3.96283075660915e-06,0.3994409415053285,-1.8514599827886724e-05
0.4002350586852595,-1.2163905545765995e-05,0.4002350586852595,2.022136770684317e-05,0.4002350586852595,2.140640676242771e-06,0.4002350586852595,-1.5591100852861548e-05
0.4010291758651906,5.971411982045915e-06,0.4010291758651906,4.907160346764272e-06,0.4010291758651906,7.769405991022959e-06,0.4010291758651906,-1.3793526150571887e-05
0.4018232930451217,1.856307092954051e-05,0.4018232930451217,-3.65137118095749e-05,0.4018232930451217,1.4494677575531368e-05,0.4018232930451217,-1.2529417220499238e-05
0.4026174102250527,3.220953231463601e-05,0.4026174102250527,-5.384201825529443e-05,0.4026174102250527,1.845394779997257e-05,0.4026174102250527,-1.2845579408818154e-05
0.4034115274049838,4.01357125765926e-05,0.4034115274049838,-3.6697988939870334e-05,0.4034115274049838,2.0250561721061983e-05,0.4034115274049838,-1.3200861721061985e-05
0.4042056445849149,4.514999638105901e-05,0.4042056445849149,-1.7514123473158373e-05,0.4042056445849149,1.7841338980230568e-05,0.4042056445849149,-1.2973709594298328e-05
0.404999761764846,5.6225895952005374e-05,0.404999761764846,-1.6280167236358933e-05,0.404999761764846,2.198624054400307e-05,0.404999761764846,-1.225342902777098e-05
0.4057938789447771,7.892771267524778e-05,0.4057938789447771,-3.944831553362303e-05,0.4057938789447771,2.877964466789254e-05,0.4057938789447771,-9.963377272565076e-06
0.4065879961247081,9.048873439854324e-05,0.4065879961247081,-6.0432519058922485e-05,0.4065879961247081,2.0021755961427903e-05,0.4065879961247081,-8.89601e-06
0.4073821133046392,9.429649577722244e-05,0.4073821133046392,-5.775329823066205e-05,0.4073821133046392,8.458334448541647e-06,0.4073821133046392,-1.0215630518148292e-05
0.4081762304845703,9.771810413023411e-05,0.4081762304845703,-3.778468479532872e-05,0.4081762304845703,5.476595360453409e-07,0.4081762304845703,-1.5901587733997957e-05
0.4089703476645013,7.954481725797977e-05,0.4089703476645013,-2.493468474851629e-05,0.4089703476645013,-2.85344e-06,0.4089703476645013,-2.137453998084164e-05
0.4097644648444324,4.3698148286804406e-05,0.4097644648444324,-2.564100682346779e-05,0.4097644648444324,2.5740908955723835e-06,0.4097644648444324,-2.133717211780292e-05
0.4105585820243635,8.444741513882698e-06,0.4105585820243635,-2.371050346518542e-05,0.4105585820243635,1.3437002380923087e-05,0.4105585820243635,-1.9046176038031568e-05
0.4113526992042945,-2.290022538047279e-05,0.4113526992042945,-1.6911140622453692e-05,0.4113526992042945,1.11093959344734e-05,0.4113526992042945,-1.6360833343815733e-05
0.4121468163842256,-5.189249705487987e-05,0.4121468163842256,-2.4613643627016385e-05,0.4121468163842256,3.112758013936258e-06,0.4121468163842256,-1.4465540557552289e-05
0.4129409335641567,-7.985936309612457e-05,0.4129409335641567,-2.8721996202165063e-05,0.4129409335641567,-2.692738081830284e-06,0.4129409335641567,-1.0202533157796197e-05
0.4137350507440878,-9.129683458536389e-05,0.4137350507440878,-1.917052427847288e-05,0.4137350507440878,-1.015590026760181e-05,0.4137350507440878,-6.3688318678529406e-06
0.4145291679240188,-9.68091422497264e-05,0.4145291679240188,-4.275341147061205e-06,0.4145291679240188,-1.304397325082081e-05,0.4145291679240188,-4.04908100081688e-06
0.4153232851039499,-9.620724735826864e-05,0.4153232851039499,-6.798798612947831e-07,0.4153232851039499,-3.484908649496393e-06,0.4153232851039499,5.03548e-07
0.416117402283881,-9.678988182781523e-05,0.416117402283881,-3.252105436598956e-06,0.416117402283881,7.209985012583828e-07,0.416117402283881,-6.815825900682149e-07
0.416911519463812,-8.834813935899598e-05,0.416911519463812,2.0094545223838016e-05,0.416911519463812,1.17494e-06,0.416911519463812,-4.136946259820304e-06
0.4177056366437431,-7.327372982179974e-05,0.4177056366437431,3.190119756949105e-05,0.4177056366437431,1.6681542075758426e-06,0.4177056366437431,-6.111777158484832e-06
0.4184997538236742,-5.757708823519128e-05,0.4184997538236742,3.871676176254952e-06,0.4184997538236742,3.85999797915039e-06,0.4184997538236742,-6.881287973867635e-06
0.4192938710036052,-3.436219006304692e-05,0.4192938710036052,-2.6917891399636867e-05,0.4192938710036052,3.387133627719268e-06,0.4192938710036052,-6.221214009277401e-06
0.4200879881835363,-1.607149591940672e-05,0.4200879881835363,-3.857327886800006e-05,0.4200879881835363,2.793502293389836e-06,0.4200879881835363,-7.136612199549286e-06
0.4208821053634674,-3.778889468892611e-07,0.4208821053634674,-4.098474849810407e-05,0.4208821053634674,1.9086172076276066e-06,0.4208821053634674,-1.0395042327019552e-05
0.4216762225433985,1.31938304045371e-05,0.4216762225433985,-3.774608524928886e-05,0.4216762225433985,-2.928515946266975e-06,0.4216762225433985,-1.2685873028488184e-05
0.4224703397233295,2.470780196048046e-05,0.4224703397233295,-3.3345262310262304e-05,0.4224703397233295,-7.414193974180133e-06,0.4224703397233295,-1.5648439013920388e-05
0.4232644569032606,3.569101499805825e-05,0.4232644569032606,-3.1801893597248825e-05,0.4232644569032606,-5.619037975074179e-06,0.4232644569032606,-1.6123697500323623e-05
0.4240585740831917,4.177420539506792e-05,0.4240585740831917,-3.657752122447977e-05,0.4240585740831917,-2.902938766499389e-06,0.4240585740831917,-1.5136102562805744e-05
0.4248526912631227,5.51192501612259e-05,0.4248526912631227,-4.104438755870848e-05,0.4248526912631227,-2.873597388863849e-06,0.4248526912631227,-1.835373754030648e-05
0.4256468084430538,7.496377818995598e-05,0.4256468084430538,-3.565412083494501e-05,0.4256468084430538,1.8692662141360954e-07,0.4256468084430538,-2.0054204362008803e-05
0.4264409256229849,8.655903137594878e-05,0.4264409256229849,-1.928319392449079e-05,0.4264409256229849,1.055695827599667e-06,0.4264409256229849,-1.5729206488582954e-05
0.4272350428029159,9.204736043103916e-05,0.4272350428029159,-1.5943630315684734e-05,0.4272350428029159,2.3593166907248724e-06,0.4272350428029159,-1.49386e-05
0.428029159982847,0.0001010549790681,0.428029159982847,-1.9282984935018824e-05,0.428029159982847,9.970098880309524e-09,0.428029159982847,-1.22928806331181e-05
0.4288232771627781,8.237262335709254e-05,0.4288232771627781,-1.4489355750721968e-05,0.4288232771627781,3.228992525734342e-06,0.4288232771627781,-1.2608628028471522e-05
0.4296173943427092,4.895867512739034e-05,0.4296173943427092,-1.1048227901440212e-05,0.4296173943427092,1.0693997685973666e-05,0.4296173943427092,-1.604486943028996e-05
0.4304115115226402,1.7131288948274408e-05,0.4304115115226402,-1.4405694184014047e-05,0.4304115115226402,1.5985103714090854e-05,0.4304115115226402,-1.647885767344155e-05
0.4312056287025713,-2.284072364157607e-05,0.4312056287025713,-1.8925936458213464e-05,0.4312056287025713,1.709122578299696e-05,0.4312056287025713,-1.69528e-05
0.4319997458825024,-5.2864719860167895e-05,0.4319997458825024,-1.762518621091265e-05,0.4319997458825024,1.577825768415394e-05,0.4319997458825024,-1.7959350811734265e-05
0.4327938630624334,-6.957091689321092e-05,0.4327938630624334,-8.874495785018972e-06,0.4327938630624334,1.57778e-05,0.4327938630624334,-2.03098e-05
0.4335879802423645,-8.692789344364897e-05,0.4335879802423645,6.669143625837703e-06,0.4335879802423645,1.086526143608632e-05,0.4335879802423645,-2.03098e-05
0.4343820974222956,-9.485059363867044e-05,0.4343820974222956,8.74960576849115e-06,0.4343820974222956,1.549269090962503e-06,0.4343820974222956,-1.959934515125884e-05
0.4351762146022266,-9.807252507282184e-05,0.4351762146022266,-2.261915028765868e-06,0.4351762146022266,-7.292538917130587e-06,0.4351762146022266,-1.9578762536410925e-05
0.4359703317821577,-9.824942419661407e-05,0.4359703317821577,-2.637210902039417e-05,0.4359703317821577,-7.198311934461974e-06,0.4359703317821577,-1.7547367737847897e-05
0.4367644489620888,-9.84713983592044e-05,0.4367644489620888,-6.244494132959122e-05,0.4367644489620888,-5.421969406109618e-06,0.4367644489620888,-1.2273317883491708e-05
0.4375585661420199,-8.144849121951672e-05,0.4375585661420199,-7.73785e-05,0.4375585661420199,2.200853571385936e-06,0.4375585661420199,-1.0930005475535309e-05
0.438352683321951,-6.387597656603906e-05,0.438352683321951,-5.2241097501825776e-05,0.438352683321951,4.986256040475379e-06,0.438352683321951,-8.383595215943652e-06
0.439146800501882,-4.348071981004102e-05,0.439146800501882,-2.064817654620137e-05,0.439146800501882,1.590775845150597e-06,0.439146800501882,-6.555650091876766e-06
0.4399409176818131,-2.5156219388349963e-05,0.4399409176818131,-1.4320782206479669e-06,0.4399409176818131,-1.0141405405998008e-06,0.4399409176818131,-8.22461e-06
0.4407350348617442,-9.435601790228303e-06,0.4407350348617442,1.100382104776904e-05,0.4407350348617442,-6.168865981629087e-06,0.4407350348617442,-8.737575249302705e-06
0.4415291520416752,4.164568311687712e-06,0.4415291520416752,1.6952916664893446e-05,0.4415291520416752,-8.698232363028238e-06,0.4415291520416752,-9.024826455457644e-06
0.4423232692216063,1.4011074816819115e-05,0.4423232692216063,3.420481971820684e-06,0.4423232692216063,-8.67863525254543e-06,0.4423232692216063,-4.5120380612291614e-06
0.4431173864015373,2.8941041895161974e-05,0.4431173864015373,-1.7027655298500445e-05,0.4431173864015373,-7.178092505367932e-06,0.4431173864015373,-1.6683499785282726e-06
0.4439115035814684,3.691677134470666e-05,0.4439115035814684,-2.0507191515168557e-05,0.4439115035814684,-5.697114239230182e-06,0.4439115035814684,-4.245038803849094e-07
0.4447056207613995,4.941333539109713e-05,0.4447056207613995,-1.9597315912152705e-05,0.4447056207613995,-1.7875162608973674e-06,0.4447056207613995,-2.477934126463375e-06
0.4454997379413306,6.897939263491284e-05,0.4454997379413306,-2.534265747548352e-05,0.4454997379413306,-1.1747512199077766e-06,0.4454997379413306,-4.5311748717581e-06
0.4462938551212617,8.584367564897534e-05,0.4462938551212617,-3.1763228047842384e-05,0.4462938551212617,-4.548935405428463e-06,0.4462938551212617,-5.084984877196189e-06
0.4470879723011927,9.651622037698518e-05,0.4470879723011927,-3.003173925397462e-05,0.4470879723011927,-1.2435720154355766e-05,0.4470879723011927,-6.0815245210013125e-06
0.4478820894811238,0.000102914676867,0.4478820894811238,-2.394342354985257e-05,0.4478820894811238,-1.3564317080120883e-05,0.4478820894811238,-8.576050878332233e-06
0.4486762066610549,9.115582156663828e-05,0.4486762066610549,-3.237564019789104e-05,0.4486762066610549,-2.1513896585516216e-06,0.4486762066610549,-1.3730411341298545e-05
0.4494703238409859,5.980181257542919e-05,0.4494703238409859,-4.151545550549493e-05,0.4494703238409859,9.778572293435354e-06,0.4494703238409859,-1.732689324823164e-05
0.450264441020917,2.2550199868864256e-05,0.450264441020917,-3.9968126302782944e-05,0.450264441020917,2.159155421579377e-05,0.450264441020917,-1.8256168353193216e-05
0.4510585582008481,-1.20714322082299e-05,0.4510585582008481,-3.833013393827144e-05,0.4510585582008481,2.4989688791451e-05,0.4510585582008481,-1.8917469027896412e-05
0.4518526753807791,-4.255665134370509e-05,0.4518526753807791,-2.884846273288273e-05,0.4518526753807791,2.104175062277418e-05,0.4518526753807791,-1.6993190640934647e-05
0.4526467925607102,-7.153387123862468e-05,0.4526467925607102,-1.2413074977322151e-05,0.4526467925607102,1.748690935371687e-05,0.4526467925607102,-1.5579390646283128e-05
0.4534409097406413,-8.705007356578953e-05,0.4534409097406413,1.2141548230028844e-06,0.4534409097406413,1.651996451684624e-05,0.4534409097406413,-1.6991654193261507e-05
0.4542350269205724,-9.583790736698404e-05,0.4542350269205724,5.912971263798782e-06,0.4542350269205724,9.296123393440113e-06,0.4542350269205724,-1.7111246192119526e-05
0.4550291441005034,-9.81137843973154e-05,0.4550291441005034,6.1907392828978505e-06,0.4550291441005034,-4.825862298274757e-06,0.4550291441005034,-1.4327089598210268e-05
0.4558232612804345,-9.432132031003096e-05,0.4558232612804345,-2.004937700248185e-06,0.4558232612804345,-1.1848260708635914e-05,0.4558232612804345,-1.0001762178638145e-05
0.4566173784603656,-8.934435344047286e-05,0.4566173784603656,-1.992765236662964e-05,0.4566173784603656,-1.531424491937303e-05,0.4566173784603656,-8.89601e-06
0.4574114956402966,-7.868239102205984e-05,0.4574114956402966,-3.0775868035194846e-05,0.4574114956402966,-2.37453880875317e-05,0.4574114956402966,-8.185292429727459e-06
0.4582056128202277,-6.257170508330403e-05,0.4582056128202277,-4.382922361269484e-05,0.4582056128202277,-2.107211466130633e-05,0.4582056128202277,-5.736278347038014e-06
0.4589997300001588,-4.180228010915825e-05,0.4589997300001588,-7.535224978743383e-05,0.4589997300001588,-1.1584420281603132e-05,0.4589997300001588,-8.558948476551817e-06
0.4597938471800898,-1.783172805138868e-05,0.4597938471800898,-0.0001021823062633,0.4597938471800898,-6.765856437131684e-06,0.4597938471800898,-1.0357177508681916e-05
0.4605879643600209,-4.676005051059855e-06,0.4605879643600209,-0.0001001922842147,0.4605879643600209,-1.4748054515743877e-06,0.4605879643600209,-1.4281983827128628e-05
0.461382081539952,5.351837547856989e-06,0.461382081539952,-5.575137855802346e-05,0.461382081539952,1.8853833827137428e-06,0.461382081539952,-2.1828289406992493e-05
0.4621761987198831,1.8758928469707427e-05,0.4621761987198831,4.375110506969144e-06,0.4621761987198831,2.458091094988747e-06,0.4621761987198831,-2.136890899831562e-05
0.4629703158998141,3.801550737501644e-05,0.4629703158998141,3.075228231838844e-05,0.4629703158998141,4.570300365387145e-06,0.4629703158998141,-1.561236440229693e-05
0.4637644330797452,4.368911513044076e-05,0.4637644330797452,1.322694075814161e-05,0.4637644330797452,5.598803041382216e-06,0.4637644330797452,-1.2895126522484514e-05
0.4645585502596763,5.148887811030821e-05,0.4645585502596763,-1.4608209959843671e-05,0.4645585502596763,3.594189295469541e-06,0.4645585502596763,-1.1621233883125452e-05
0.4653526674396073,7.097474759973063e-05,0.4653526674396073,-2.1744189919746085e-05,0.4653526674396073,5.044260988513705e-06,0.4653526674396073,-1.2351424986994328e-05
0.4661467846195384,8.888739370585819e-05,0.4661467846195384,-1.5196323220683994e-05,0.4661467846195384,1.0305396727600025e-05,0.4661467846195384,-1.25887e-05
0.4669409017994695,9.295654954531916e-05,0.4669409017994695,-9.409553574246924e-06,0.4669409017994695,2.038194285062428e-05,0.4669409017994695,-1.3237863119794289e-05
0.4677350189794005,9.747874064906202e-05,0.4677350189794005,-5.4625788372483215e-06,0.4677350189794005,2.753664236645823e-05,0.4677350189794005,-1.573819739215325e-05
0.4685291361593316,8.895397859854915e-05,0.4685291361593316,-2.5767429803993103e-06,0.4685291361593316,2.013384415153162e-05,0.4685291361593316,-1.395147464082559e-05
0.4693232533392627,6.128395874232491e-05,0.4693232533392627,-1.1336172519579404e-05,0.4693232533392627,1.1522128363171511e-05,0.4693232533392627,-1.4681979231616836e-05
0.4701173705191938,2.755378179692892e-05,0.4701173705191938,-2.061379811707308e-05,0.4701173705191938,2.1022220602365856e-06,0.4701173705191938,-1.898718831472444e-05
0.4709114876991248,-6.425723309981312e-06,0.4709114876991248,-2.233377093510009e-05,0.4709114876991248,-6.012469946039432e-06,0.4709114876991248,-2.2244862608642386e-05
0.4717056048790559,-4.107734573346689e-05,0.4717056048790559,-2.638649316510227e-05,0.4717056048790559,-1.122601517549389e-05,0.4717056048790559,-2.169244027161888e-05
0.472499722058987,-6.729949106410252e-05,0.472499722058987,-3.910332688104083e-05,0.472499722058987,-1.0910600449777074e-05,0.472499722058987,-1.9303701124442688e-05
0.473293839238918,-8.286074826908507e-05,0.473293839238918,-4.975280217251151e-05,0.473293839238918,-1.1146878779580197e-05,0.473293839238918,-1.4112654645037663e-05
0.4740879564188491,-9.89527785636927e-05,0.4740879564188491,-4.531901845981221e-05,0.4740879564188491,-1.0005180174828533e-05,0.4740879564188491,-8.344581248029154e-06
0.4748820735987802,-0.0001060146810719,0.4748820735987802,-3.156951734278567e-05,0.4748820735987802,-6.288495299400099e-06,0.4748820735987802,-6.7451882260498255e-06
0.4756761907787112,-0.0001020261303844,0.4756761907787112,-2.0438024014638337e-05,0.4756761907787112,-6.467751938583565e-06,0.4756761907787112,-5.016764787284026e-06
0.4764703079586423,-9.77602312936428e-05,0.4764703079586423,-1.816637810961979e-05,0.4764703079586423,-3.3098218529255454e-07,0.4764703079586423,-6.0905090676000935e-06
0.4772644251385734,-8.68215908251557e-05,0.4772644251385734,-2.206653215919037e-05,0.4772644251385734,1.049296152372141e-05,0.4772644251385734,-1.0790598568956402e-05
0.4780585423185045,-7.187111221356428e-05,0.4780585423185045,-2.4712293786472763e-05,0.4780585423185045,1.586640930169418e-05,0.4780585423185045,-1.3852209301694183e-05
0.4788526594984356,-5.056852958066041e-05,0.4788526594984356,-2.28956756856926e-05,0.4788526594984356,1.1425232395165105e-05,0.4788526594984356,-1.5806827041933958e-05
0.4796467766783666,-2.7032104572315266e-05,0.4796467766783666,-3.059607212918562e-05,0.4796467766783666,6.943027479810966e-06,0.4796467766783666,-1.5789446631196163e-05
0.4804408938582977,-1.0483057861815136e-05,0.4804408938582977,-3.4488790828264784e-05,0.4804408938582977,4.619299759352285e-06,0.4804408938582977,-1.2214168738793409e-05
0.4812350110382288,3.0150087353223646e-06,0.4812350110382288,-1.6885198762300515e-05,0.4812350110382288,7.453122404127315e-06,0.4812350110382288,-1.132513453748197e-05
0.4820291282181598,1.5311201104224747e-05,0.4820291282181598,1.0256881096939778e-05,0.4820291282181598,7.119615990189581e-06,0.4820291282181598,-9.627362949065682e-06
0.4828232453980909,2.6826411380854285e-05,0.4828232453980909,3.027152619106809e-05,0.4828232453980909,8.687457834042897e-07,0.4828232453980909,-5.420533089531657e-06
0.483617362578022,4.114408265817167e-05,0.483617362578022,2.7788452892408816e-05,0.483617362578022,-6.803351891430421e-06,0.483617362578022,-4.719502346836566e-06
0.484411479757953,4.9771828932373285e-05,0.484411479757953,1.5145778070336267e-05,0.484411479757953,-1.2805451638027834e-05,0.484411479757953,-2.044081202169561e-06
0.4852055969378841,6.062931009416135e-05,0.4852055969378841,-4.141047441226001e-06,0.4852055969378841,-1.72885e-05,0.4852055969378841,1.0763275860944593e-06
0.4859997141178152,7.905020379521119e-05,0.4859997141178152,-1.795601679453125e-05,0.4859997141178152,-1.5275535673597966e-05,0.4859997141178152,-8.382162769095435e-07
0.4867938312977463,9.51546622039362e-05,0.4867938312977463,-2.6155432433811093e-05,0.4867938312977463,-9.43224006118712e-06,0.4867938312977463,-2.2013495698497597e-06
0.4875879484776773,9.840750992650558e-05,0.4875879484776773,-3.4186386714431623e-05,0.4875879484776773,-6.468262555120812e-06,0.4875879484776773,-7.468952423512919e-06
0.4883820656576084,9.534235412643336e-05,0.4883820656576084,-4.01544597086975e-05,0.4883820656576084,-3.0642424851762583e-06,0.4883820656576084,-1.5328919166863258e-05
0.4891761828375395,7.319249662880576e-05,0.4891761828375395,-4.159700885998074e-05,0.4891761828375395,1.3690597166016307e-06,0.4891761828375395,-1.9675798267832733e-05
0.4899703000174705,3.950275925890678e-05,0.4899703000174705,-3.773033068494496e-05,0.4899703000174705,6.366208339026378e-06,0.4899703000174705,-1.901736454822341e-05
0.4907644171974016,4.502372355117316e-06,0.4907644171974016,-3.247499454397476e-05,0.4907644171974016,9.783466175970074e-06,0.4907644171974016,-1.6322218829738744e-05
0.4915585343773327,-3.12838706637287e-05,0.4915585343773327,-2.6869786373755527e-05,0.4915585343773327,1.31609579620493e-05,0.4915585343773327,-1.2687842037950702e-05
0.4923526515572637,-6.133742541507282e-05,0.4923526515572637,-2.1259166206421477e-05,0.4923526515572637,1.1523691780241704e-05,0.4923526515572637,-1.1462951027469786e-05
0.4931467687371948,-7.758740526347934e-05,0.4931467687371948,-2.100065310270748e-05,0.4931467687371948,8.323849074940646e-06,0.4931467687371948,-1.3219958546782558e-05
0.4939408859171259,-9.45515748241215e-05,0.4939408859171259,-2.5996496199599424e-05,0.4939408859171259,7.256339216987447e-06,0.4939408859171259,-1.2175360409641572e-05
0.494735003097057,-0.0001026722945881,0.494735003097057,-2.947127795516009e-05,0.494735003097057,8.914748967227748e-06,0.494735003097057,-1.014082077457919e-05
0.495529120276988,-0.0001002457831334,0.495529120276988,-2.9985468046009724e-05,0.495529120276988,9.74525346398687e-06,0.495529120276988,-8.589247107755616e-06
0.4963232374569191,-9.859661651840758e-05,0.4963232374569191,-3.586508538467019e-05,0.4963232374569191,1.2509727345230875e-05,0.4963232374569191,-1.5461910826823296e-05
0.4971173546368502,-9.039069090298677e-05,0.4971173546368502,-3.39578711547632e-05,0.4971173546368502,1.7940546159818246e-05,0.4971173546368502,-2.258107639563345e-05
0.4979114718167812,-7.262063167531343e-05,0.4979114718167812,-2.5384679019314334e-05,0.4979114718167812,1.936185801674606e-05,0.4979114718167812,-2.633234504186514e-05
0.4987055889967123,-5.7083570706114645e-05,0.4987055889967123,-1.750780784011257e-05,0.4987055889967123,2.2264123308459417e-05,0.4987055889967123,-2.90379e-05
0.4994997061766434,-3.2404636587242043e-05,0.4994997061766434,-2.2320669188571516e-05,0.4994997061766434,2.131816993481225e-05,0.4994997061766434,-2.635399333048596e-05
0.5002938233565745,-1.153128764338048e-05,0.5002938233565745,-4.517320474021688e-05,0.5002938233565745,1.3254226516860408e-05,0.5002938233565745,-2.0826762737012903e-05
0.5010879405365055,2.213530166940657e-07,0.5010879405365055,-7.30595479959177e-05,0.5010879405365055,6.234757229143986e-06,0.5010879405365055,-1.6401413005549266e-05
0.5018820577164366,7.326641348388168e-06,0.5018820577164366,-8.318535856789593e-05,0.5018820577164366,1.7959349781605916e-07,0.5018820577164366,-1.5254781095506038e-05
0.5026761748963677,2.264517149071424e-05,0.5026761748963677,-5.678253612090892e-05,0.5026761748963677,-2.525278408067964e-06,0.5026761748963677,-1.3864288415336576e-05
0.5034702920762988,3.653820515056241e-05,0.5034702920762988,3.43837848177024e-07,0.5034702920762988,-9.454451726932429e-06,0.5034702920762988,-1.0003927280742948e-05
0.5042644092562298,4.5700282735336594e-05,0.5042644092562298,4.420153975099973e-05,0.5042644092562298,-1.801534888419345e-05,0.5042644092562298,-4.041514048951586e-06
0.5050585264361609,6.10255099224878e-05,0.5050585264361609,4.598545162300476e-05,0.5050585264361609,-2.8404687890941967e-05,0.5050585264361609,6.524807005286617e-06
0.505852643616092,8.297970209819879e-05,0.505852643616092,4.008447782278711e-05,0.505852643616092,-2.364943053215664e-05,0.505852643616092,1.1876771766736198e-05
0.506646760796023,9.564339891806386e-05,0.506646760796023,8.765325666511551e-06,0.506646760796023,-1.83569021638723e-05,0.506646760796023,1.1997576352420188e-05
0.507440877975954,9.6849e-05,0.507440877975954,-5.265215209291106e-05,0.507440877975954,-9.970105719022598e-06,0.507440877975954,7.300967016556048e-06
0.5082349951558852,9.505382185232918e-05,0.5082349951558852,-5.9617008181673785e-05,0.5082349951558852,2.019163482677719e-06,0.5082349951558852,-6.576550376754198e-07
0.5090291123358163,7.819441516221128e-05,0.5090291123358163,-1.9313495512271963e-07,0.5090291123358163,6.861811034907863e-06,0.5090291123358163,-7.926702322938201e-06
0.5098232295157473,4.38681377204168e-05,0.5098232295157473,5.29595487477512e-05,0.5098232295157473,8.244330318289942e-06,0.5098232295157473,-1.7722786974047954e-05
0.5106173466956784,6.978196622017899e-06,0.5106173466956784,5.105657531919995e-05,0.5106173466956784,1.2273050722395316e-05,0.5106173466956784,-2.8702845285090045e-05
0.5114114638756094,-2.9528684262841978e-05,0.5114114638756094,1.8740219125215772e-05,0.5114114638756094,1.1335001390241569e-05,0.5114114638756094,-3.259232327535932e-05
0.5122055810555405,-6.060788175491791e-05,0.5122055810555405,-2.4857216704219032e-05,0.5122055810555405,7.870093964292477e-06,0.5122055810555405,-3.13490704065593e-05
0.5129996982354716,-8.2070691454236e-05,0.5129996982354716,-5.252899255508587e-05,0.5129996982354716,3.1910964702451927e-06,0.5129996982354716,-2.669017387021829e-05
0.5137938154154027,-9.105980688799132e-05,0.5137938154154027,-4.866578607107415e-05,0.5137938154154027,-3.4405626286040174e-07,0.5137938154154027,-2.015543153146958e-05
0.5145879325953338,-9.86921102237513e-05,0.5145879325953338,-4.282096102553671e-05,0.5145879325953338,-1.234960432448386e-06,0.5145879325953338,-1.6685999977412907e-05
0.5153820497752648,-9.979225909868218e-05,0.5153820497752648,-4.747811715850272e-05,0.5153820497752648,-1.1123884571959408e-06,0.5153820497752648,-1.6343956845387604e-05
0.5161761669551959,-9.726670251498984e-05,0.5161761669551959,-6.80970506353841e-05,0.5161761669551959,-5.121329262543291e-06,0.5161761669551959,-1.040281325244657e-05
0.5169702841351269,-8.948795722313725e-05,0.5169702841351269,-8.908041677710018e-05,0.5169702841351269,-7.908054131937459e-06,0.5169702841351269,-3.527417762797147e-06
0.5177644013150581,-7.837116385418468e-05,0.5177644013150581,-8.250885531319671e-05,0.5177644013150581,-9.468141266913828e-06,0.5177644013150581,-5.240025891585806e-07
0.5185585184949891,-5.866190928746476e-05,0.5185585184949891,-5.355651083730297e-05,0.5185585184949891,-1.3081541137442302e-05,0.5185585184949891,5.03548e-07
0.5193526356749202,-3.512711754230462e-05,0.5193526356749202,-2.113338392435963e-05,0.5193526356749202,-1.604407912288477e-05,0.5193526356749202,-5.891980929626717e-06
0.5201467528548512,-1.4018527649813818e-05,0.5201467528548512,-5.461377246782511e-06,0.5201467528548512,-1.1288294560041624e-05,0.5201467528548512,-1.1737732975516002e-05
0.5209408700347823,7.557265701780612e-07,0.5209408700347823,-8.30270677074858e-06,0.5209408700347823,-5.855322146288023e-06,0.5209408700347823,-1.396059475809223e-05
0.5217349872147133,8.714331588138484e-06,0.5217349872147133,-1.6790979020635086e-05,0.5217349872147133,-6.5648155623281394e-06,0.5217349872147133,-1.635840044893825e-05
0.5225291043946444,2.3326406071142308e-05,0.5225291043946444,-2.0329407198162573e-05,0.5225291043946444,-5.10554612461195e-06,0.5225291043946444,-2.0269759186970917e-05
0.5233232215745756,4.110310139341044e-05,0.5233232215745756,-2.1572834548403917e-05,0.5233232215745756,-3.653981253687597e-07,0.5233232215745756,-2.034934353449544e-05
0.5241173387545066,5.004905728742908e-05,0.5241173387545066,-2.5266924162497883e-05,0.5241173387545066,3.919997926510952e-06,0.5241173387545066,-1.7782047570856973e-05
0.5249114559344377,5.913114775656723e-05,0.5249114559344377,-1.772313793332878e-05,0.5249114559344377,4.936771228827183e-06,0.5249114559344377,-1.521516491530873e-05
0.5257055731143687,7.650520327697822e-05,0.5257055731143687,-1.3732744476841482e-05,0.5257055731143687,5.084778488702785e-06,0.5257055731143687,-1.474140604518886e-05
0.5264996902942998,9.348575304993776e-05,0.5264996902942998,-1.695119740726696e-05,0.5264996902942998,3.5259455386647644e-06,0.5264996902942998,-1.3596246215465905e-05
0.5272938074742308,9.942461606574856e-05,0.5272938074742308,-2.119855596434773e-05,0.5272938074742308,4.036712188003644e-06,0.5272938074742308,-1.155397223920074e-05
0.528087924654162,9.60464649134636e-05,0.528087924654162,-2.2801746875614063e-05,0.528087924654162,1.4150622558143597e-06,0.528087924654162,-9.705241176678811e-06
0.528882041834093,7.976828185889924e-05,0.528882041834093,-1.5494944474362662e-05,0.528882041834093,6.849660883934465e-06,0.528882041834093,-1.1214645700808492e-05
0.5296761590140241,5.254042004276783e-05,0.5296761590140241,-7.829597584375085e-06,0.5296761590140241,3.334245238296501e-05,0.5296761590140241,-1.335708996573299e-05
0.5304702761939551,1.888710487859704e-05,0.5304702761939551,-9.686242840946416e-06,0.5304702761939551,4.371040544279741e-05,0.5304702761939551,-1.5787413987791286e-05
0.5312643933738862,-1.6911147474294354e-05,0.5312643933738862,4.233004235237299e-07,0.5312643933738862,3.789761576487328e-05,0.5312643933738862,-1.4623378063402696e-05
0.5320585105538173,-5.363643269394007e-05,0.5320585105538173,-3.081016830506879e-06,0.5320585105538173,2.6611177586717456e-05,0.5320585105538173,-1.1384819246418752e-05
0.5328526277337483,-7.567657656857256e-05,0.5328526277337483,-2.1020207130522463e-05,0.5328526277337483,9.45500305719295e-06,0.5328526277337483,-1.1008567656857255e-05
0.5336467449136795,-8.473808082151322e-05,0.5336467449136795,-3.399281159036483e-05,0.5336467449136795,-5.851208646048215e-06,0.5336467449136795,-1.3742390556167186e-05
0.5344408620936105,-9.57001269854854e-05,0.5344408620936105,-4.001644784077113e-05,0.5344408620936105,-9.644980216514724e-06,0.5344408620936105,-1.5128851872488792e-05
0.5352349792735416,-9.911964257967365e-05,0.5352349792735416,-4.877984115679201e-05,0.5352349792735416,-1.501328127477832e-05,0.5352349792735416,-1.1346104006995976e-05
0.5360290964534726,-9.805399777190497e-05,0.5360290964534726,-5.612978132790817e-05,0.5360290964534726,-2.5856345216506946e-05,0.5360290964534726,-8.798270871059479e-06
0.5368232136334037,-9.186330558048791e-05,0.5368232136334037,-6.17369607378234e-05,0.5368232136334037,-2.7655793131323325e-05,0.5368232136334037,-5.697045047071892e-06
0.5376173308133347,-7.522525670629813e-05,0.5376173308133347,-4.721920616371144e-05,0.5376173308133347,-2.1672096874738048e-05,0.5376173308133347,-4.275165251456085e-06
0.5384114479932659,-6.217485176338964e-05,0.5384114479932659,-6.685696329512715e-06,0.5384114479932659,-1.9125329144008365e-05,0.5384114479932659,-6.964547721655842e-08
0.539205565173197,-4.035919555338113e-05,0.539205565173197,2.631035267445921e-05,0.539205565173197,-1.709131751121627e-05,0.539205565173197,4.886365773857605e-06
0.539999682353128,-1.8974551270489965e-05,0.539999682353128,2.5348898290922765e-05,0.539999682353128,-1.460427297066446e-05,0.539999682353128,6.54612e-06
0.5407937995330591,-3.2164326297489058e-06,0.5407937995330591,6.1108668883483656e-06,0.5407937995330591,-1.0161706362382458e-05,0.5407937995330591,2.1654359043358823e-06
0.5415879167129901,8.751384581673732e-06,0.5415879167129901,-6.604172257518992e-06,0.5415879167129901,-7.673295907449449e-06,0.5415879167129901,-6.875020025509548e-06
0.5423820338929212,1.9387839949488763e-05,0.5423820338929212,-4.199093173730275e-06,0.5423820338929212,-4.633577254230462e-06,0.5423820338929212,-1.2963408984631456e-05
0.5431761510728523,3.611357039639507e-05,0.5431761510728523,6.190540595656663e-06,0.5431761510728523,4.587448044136018e-07,0.5431761510728523,-1.4088150312166412e-05
0.5439702682527834,5.026070998319173e-05,0.5439702682527834,4.6568766932153466e-06,0.5439702682527834,6.939164317755002e-06,0.5439702682527834,-1.4583783465839514e-05
0.5447643854327144,5.666129668813594e-05,0.5447643854327144,-6.484784710275454e-06,0.5447643854327144,9.211206706426244e-06,0.5447643854327144,-1.5351486016029264e-05
0.5455585026126455,6.846987108264731e-05,0.5455585026126455,-1.2566439402799371e-05,0.5455585026126455,1.1186345981065076e-05,0.5455585026126455,-2.0318789282840204e-05
0.5463526197925765,8.625949392678528e-05,0.5463526197925765,-1.796996294616386e-05,0.5463526197925765,9.055309797037284e-06,0.5463526197925765,-1.97671974367538e-05
0.5471467369725076,9.554404518284896e-05,0.5471467369725076,-3.5945609184647566e-05,0.5471467369725076,5.87472e-06,0.5471467369725076,-1.884879246952517e-05
0.5479408541524387,9.722959551697898e-05,0.5479408541524387,-4.811368354635661e-05,0.5479408541524387,8.637857284630287e-06,0.5479408541524387,-1.825682606893053e-05
0.5487349713323698,8.274037574812142e-05,0.5487349713323698,-3.888046398619747e-05,0.5487349713323698,1.041597371792508e-05,0.5487349713323698,-1.685488942311238e-05
0.5495290885123009,5.179534569546607e-05,0.5495290885123009,-2.6273994483713404e-05,0.5495290885123009,7.722323681245101e-06,0.5495290885123009,-1.52743e-05
0.5503232056922319,1.7428017014004253e-05,0.5503232056922319,-1.9525489823495624e-05,0.5503232056922319,7.4936340987175635e-06,0.5503232056922319,-1.809795881342943e-05
0.551117322872163,-1.574939826006725e-05,0.551117322872163,-1.4246556406149384e-05,0.551117322872163,1.606447297761633e-05,0.551117322872163,-2.090225328251662e-05
0.551911440052094,-5.042009969846216e-05,0.551911440052094,-1.5254533189764838e-05,0.551911440052094,1.6814506076318213e-05,0.551911440052094,-1.924358784736358e-05
0.5527055572320251,-7.780769289823393e-05,0.5527055572320251,-1.4541027315500885e-05,0.5527055572320251,2.062422574663445e-05,0.5527055572320251,-1.872988551137811e-05
0.5534996744119562,-9.298369177725438e-05,0.5534996744119562,-2.1145525178854877e-05,0.5534996744119562,2.46726272542244e-05,0.5534996744119562,-1.863153454915512e-05
0.5542937915918873,-0.0001002612179451,0.5542937915918873,-4.400705672496196e-05,0.5542937915918873,2.4772855618502003e-05,0.5542937915918873,-1.817724256284327e-05
0.5550879087718184,-0.00010457,0.5550879087718184,-7.120617724775205e-05,0.5550879087718184,2.393350861954598e-05,0.5550879087718184,-1.652160946753682e-05
0.5558820259517494,-0.0001020684535455,0.5558820259517494,-8.20370713295235e-05,0.5558820259517494,2.32919967483822e-05,0.5558820259517494,-1.5766013006471196e-05
0.5566761431316805,-9.159738816495243e-05,0.5566761431316805,-8.298690145700675e-05,0.5566761431316805,2.051128276945716e-05,0.5566761431316805,-1.8884877350077e-05
0.5574702603116115,-7.856845925809538e-05,0.5574702603116115,-7.25722395798393e-05,0.5574702603116115,1.0294758368546792e-05,0.5574702603116115,-2.046809745363096e-05
0.5582643774915427,-6.997920218974814e-05,0.5582643774915427,-4.563584315339542e-05,0.5582643774915427,2.401202154599929e-06,0.5582643774915427,-1.7565929786363907e-05
0.5590584946714737,-4.6795796560272734e-05,0.5590584946714737,-2.570980648804444e-06,0.5590584946714737,-2.22081956008012e-06,0.5590584946714737,-1.3754656581269017e-05
0.5598526118514048,-2.1699870151659948e-05,0.5598526118514048,3.7576575309079057e-05,0.5598526118514048,-8.597653056871763e-06,0.5598526118514048,-1.1364577637598749e-05
0.5606467290313358,-2.957506411400878e-06,0.5606467290313358,4.4777075696238064e-05,0.5606467290313358,-1.213479820253882e-05,0.5606467290313358,-1.0200992736287353e-05
0.5614408462112669,4.9389341509291e-06,0.5614408462112669,3.5141023981117765e-05,0.5614408462112669,-1.194636896209224e-05,0.5614408462112669,-7.09812250396483e-06
0.5622349633911979,1.7992378456284926e-05,0.5622349633911979,1.55461788070318e-05,0.5622349633911979,-1.3061916039125402e-05,0.5622349633911979,-9.427489190809002e-06
0.563029080571129,3.094051786838495e-05,0.563029080571129,-1.9140904438057006e-05,0.563029080571129,-1.6083467903828308e-05,0.563029080571129,-1.0594554730781129e-05
0.5638231977510602,4.1181836718413614e-05,0.5638231977510602,-3.9198343568674575e-05,0.5638231977510602,-1.434645869032445e-05,0.5638231977510602,-8.688762305513795e-06
0.5646173149309912,5.4748906339094885e-05,0.5646173149309912,-4.153702960886562e-05,0.5646173149309912,-8.619399741530497e-06,0.5646173149309912,-7.572959545877674e-06
0.5654114321109223,6.961605046661779e-05,0.5654114321109223,-4.434160226251472e-05,0.5654114321109223,-4.216328283477353e-06,0.5654114321109223,-9.409006179566728e-06
0.5662055492908533,8.469996398549334e-05,0.5662055492908533,-4.721996024341828e-05,0.5662055492908533,1.2122617303595368e-06,0.5662055492908533,-1.3417298891822038e-05
0.5669996664707844,0.0001005357527687,0.5669996664707844,-5.622496959362029e-05,0.5669996664707844,8.221967045785868e-06,0.5669996664707844,-1.4938359730133754e-05
0.5677937836507154,0.0001027540046674,0.5677937836507154,-7.212618477156951e-05,0.5677937836507154,1.313900918787395e-05,0.5677937836507154,-1.3793922703031512e-05
0.5685879008306466,8.823726346154139e-05,0.5685879008306466,-7.87088713694316e-05,0.5685879008306466,1.4189445749367394e-05,0.5685879008306466,-1.3457981916455798e-05
0.5693820180105776,5.922186298192328e-05,0.5693820180105776,-6.29525669520323e-05,0.5693820180105776,1.1722312406979249e-05,0.5693820180105776,-1.3907780148833206e-05
0.5701761351905087,2.6494817547102337e-05,0.5701761351905087,-1.977963681709372e-05,0.5701761351905087,7.754768479870804e-06,0.5701761351905087,-1.821343730509969e-05
0.5709702523704397,-3.781040915710627e-06,0.5709702523704397,3.926402309976191e-05,0.5709702523704397,1.060385490243946e-06,0.5709702523704397,-1.928360634868401e-05
