X [s],R BICEPS BRACHII: EMG 1 [V],X [s].1,R DELTOID ANTERIOR: EMG 2 [V],X [s].5,R DELTOID MEDIUS: EMG 6 [V],X [s].6,R DELTOID POSTERIOR: EMG 7 [V]
0.0,-3.52483e-06,0.0,-2.43381e-05,0.0,-2.18204e-06,0.0,-1.52743e-05
0.000794117179931,-3.8012916050104345e-06,0.000794117179931,-2.1257610838571863e-05,0.000794117179931,1.0860842853937013e-07,0.000794117179931,-1.6004941336167226e-05
0.0015882343598621,-3.979017468681722e-06,0.0015882343598621,-1.8937375094608214e-05,0.0015882343598621,-1.0860808918706385e-07,0.0015882343598621,-1.1976541675521047e-05
0.0023823515397932,-2.4189847398253297e-06,0.0023823515397932,-1.954952521440245e-05,0.0023823515397932,2.6657658272216026e-07,0.0023823515397932,-1.2549209013966228e-05
0.0031764687197242,-5.302063297915808e-06,0.0031764687197242,-2.315328076582268e-05,0.0031764687197242,5.924108662257221e-07,0.0031764687197242,-1.1976541675521047e-05
0.0039705858996553,-5.697005994038268e-06,0.0039705858996553,-2.43381e-05,0.0039705858996553,2.7546698056820717e-06,0.0039705858996553,-1.122616140009322e-05
0.0047647030795864,-4.719530053126289e-06,0.0047647030795864,-2.224495540625122e-05,0.0047647030795864,3.8012949193267394e-06,0.0047647030795864,-1.055474994687371e-05
0.0055588202595174,-4.324576924385731e-06,0.0055588202595174,-2.03098e-05,0.0055588202595174,1.0959813317633894e-06,0.0055588202595174,-1.2845393848771462e-05
0.0063529374394485,-7.2964967742310146e-06,0.0063529374394485,-1.987536832194244e-05,0.0063529374394485,2.6559649203105658e-06,0.0063529374394485,-1.2055533404168385e-05
0.0071470546193796,-8.659054751135317e-06,0.0071470546193796,-1.884850237528568e-05,0.0071470546193796,2.952184751135317e-06,0.0071470546193796,-1.069297762443234e-05
0.0079411717993107,-6.763345721013853e-06,0.0079411717993107,-1.857206634032237e-05,0.0079411717993107,1.8858316223947588e-06,0.0079411717993107,-1.2963891622394758e-05
0.0087352889792417,-5.381043573343636e-06,0.0087352889792417,-1.7071285194108722e-05,0.0087352889792417,2.51774e-06,0.0087352889792417,-1.2568972853312729e-05
0.0095294061591728,-6.052445026563145e-06,0.0095294061591728,-1.876952556388749e-05,0.0095294061591728,2.3400149734368547e-06,0.0095294061591728,-8.46158989177977e-06
0.0103235233391039,-4.53193e-06,0.0103235233391039,-1.96384e-05,0.0103235233391039,1.7278918584868512e-06,0.0103235233391039,-9.369800801856268e-06
0.0111176405190349,-4.235720349645445e-06,0.0111176405190349,-1.7564882741123928e-05,0.0111176405190349,2.3597786014182204e-06,0.0111176405190349,-1.15816e-05
0.011911757698966,-3.840910266675704e-06,0.011911757698966,-1.5175520192054852e-05,0.011911757698966,1.6290173483005646e-06,0.011911757698966,-1.1048404770047464e-05
0.0127058748788971,-6.684402612907556e-06,0.0127058748788971,-1.720950353315257e-05,0.0127058748788971,7.405378945305939e-07,0.0127058748788971,-1.0041385553291636e-05
0.0134999920588282,-3.5248758146757773e-06,0.0134999920588282,-2.047757176081376e-05,0.0134999920588282,1.8463170927132896e-06,0.0134999920588282,-9.56741e-06
0.0142941092387592,-1.98459970548437e-06,0.0142941092387592,-2.2185689935356413e-05,0.0142941092387592,2.6658202208867224e-06,0.0142941092387592,-1.2095099263710926e-05
0.0150882264186903,-7.157895704954806e-06,0.0150882264186903,-2.224495581206564e-05,0.0150882264186903,3.6535509532131293e-07,0.0150882264186903,-1.041674421855661e-05
0.0158823435986214,-9.113273312198444e-06,0.0158823435986214,-1.99939342956171e-05,0.0158823435986214,6.614626429216829e-07,0.0158823435986214,-9.804282199585956e-06
0.0166764607785524,-8.501074475531835e-06,0.0166764607785524,-2.050720084129496e-05,0.0166764607785524,3.505118617728526e-06,0.0166764607785524,-1.268745790212734e-05
0.0174705779584835,-1.09102e-05,0.0174705779584835,-2.177106617745969e-05,0.0174705779584835,3.998794364285249e-06,0.0174705779584835,-1.2302381956146526e-05
0.0182646951384146,-8.866451203191249e-06,0.0182646951384146,-2.042824563931352e-05,0.0182646951384146,1.17494e-06,0.0182646951384146,-1.09102e-05
0.0190588123183456,-7.27677211668579e-06,0.0190588123183456,-2.0507247052123844e-05,0.0190588123183456,1.17494e-06,0.0190588123183456,-1.0278301803357036e-05
0.0198529294982767,-5.973492884743368e-06,0.0198529294982767,-2.046773094210905e-05,0.0198529294982767,3.041124257461489e-06,0.0198529294982767,-1.1779138711677852e-05
0.0206470466782078,-7.612444070756574e-06,0.0206470466782078,-2.149463825067169e-05,0.0206470466782078,3.3670965378006155e-06,0.0206470466782078,-1.34969962830263e-05
0.0214411638581389,-7.17805255777774e-06,0.0214411638581389,-2.258051933104309e-05,0.0214411638581389,-2.6663032881383696e-07,0.0214411638581389,-1.428693372111113e-05
0.0222352810380699,-6.417760349645445e-06,0.0222352810380699,-2.4831785330200837e-05,0.0222352810380699,2.1228379151755648e-06,0.0222352810380699,-1.434618069929089e-05
0.023029398218001,-6.032690944551015e-06,0.023029398218001,-2.40815461307497e-05,0.023029398218001,-8.881814497262938e-08,0.023029398218001,-1.312188716634696e-05
0.0238235153979321,-6.427683312198444e-06,0.0238235153979321,-2.29953e-05,0.0238235153979321,-1.4910318770236402e-06,0.0238235153979321,-1.2766355031702336e-05
0.0246176325778631,-5.134219014724164e-06,0.0246176325778631,-2.204747826012024e-05,0.0246176325778631,2.833676370364873e-06,0.0246176325778631,-1.300339215300248e-05
0.0254117497577942,-4.86763e-06,0.0254117497577942,-2.291629420221562e-05,0.0254117497577942,2.280619858142461e-06,0.0254117497577942,-1.0989131490709776e-05
0.0262058669377253,-4.393635933380853e-06,0.0262058669377253,-2.2521436132699003e-05,0.0262058669377253,-1.1353531359431882e-06,0.0262058669377253,-1.0248575084483915e-05
0.0269999841176564,-4.86763e-06,0.0269999841176564,-2.3330958926766655e-05,0.0269999841176564,-8.392803609300658e-07,0.0269999841176564,-1.225295991371537e-05
0.0277941012975874,-5.341578251772776e-06,0.0277941012975874,-2.5562345788562616e-05,0.0277941012975874,1.2539879903037753e-06,0.0277941012975874,-1.0436251748227224e-05
0.0285882184775185,-5.934048937441091e-06,0.0285882184775185,-2.8405964764649364e-05,0.0285882184775185,2.51774e-06,0.0285882184775185,-1.201570071584058e-05
0.0293823356574496,-4.986048331387605e-06,0.0293823356574496,-2.943279601465756e-05,0.0293823356574496,2.024148029195715e-06,0.0293823356574496,-1.545210732368778e-05
0.0301764528373806,-7.809923005440365e-06,0.0301764528373806,-3.389560013488979e-05,0.0301764528373806,9.873871617835554e-09,0.0301764528373806,-1.1502612513239638e-05
0.0309705700173117,-8.678879235271102e-06,0.0309705700173117,-3.4211585247984937e-05,0.0309705700173117,5.03548e-07,0.0309705700173117,-1.02388e-05
0.0317646871972428,-5.460072208132296e-06,0.0317646871972428,-2.477344560549291e-05,0.0317646871972428,1.4797958023307206e-07,0.0317646871972428,-1.0396715583735408e-05
0.0325588043771738,-5.835207331451726e-06,0.0325588043771738,-6.413973975597186e-07,0.0325588043771738,2.438713485862728e-06,0.0325588043771738,-1.2173973485862729e-05
0.0333529215571049,-7.55322e-06,0.0333529215571049,2.2402860336517983e-05,0.0333529215571049,2.320224195745326e-06,0.0333529215571049,-1.4030257902127335e-05
0.034147038737036,-7.55322e-06,0.034147038737036,8.283715927865967e-06,0.034147038737036,2.666642291519192e-07,0.034147038737036,-1.347735758534265e-05
0.0349411559169671,-7.474308022978667e-06,0.0349411559169671,-2.370471401781492e-05,0.0349411559169671,1.0958753864816094e-06,0.0349411559169671,-1.3832650918230612e-05
0.0357352730968981,-5.183573351699471e-06,0.0357352730968981,-4.08860894861384e-05,0.0357352730968981,2.51774e-06,0.0357352730968981,-1.49386e-05
0.0365293902768292,-6.0129209512284574e-06,0.0365293902768292,-4.404555599544583e-05,0.0365293902768292,8.590133265873193e-07,0.0365293902768292,-1.49386e-05
0.0373235074567603,-5.73647630852249e-06,0.0373235074567603,-4.388768964614175e-05,0.0373235074567603,-3.4548526366531106e-07,0.0373235074567603,-1.2351849531820083e-05
0.0381176246366913,-7.059512786571848e-06,0.0381176246366913,-3.41524282768007e-05,0.0381176246366913,-2.9521291798577726e-06,0.0381176246366913,-1.154209819664296e-05
0.0389117418166224,-6.358476783156709e-06,0.0389117418166224,-2.87614741650222e-05,0.0389117418166224,-8.786092968855477e-07,0.0389117418166224,-1.438573510496376e-05
0.0397058589965535,-5.163718779460999e-06,0.0397058589965535,-3.504084115412659e-05,0.0397058589965535,3.3865315396263693e-06,0.0397058589965535,-1.324061932115759e-05
0.0404999761764846,-6.378244229148912e-06,0.0404999761764846,-3.675902310312019e-05,0.0404999761764846,3.86053e-06,0.0404999761764846,-1.0910234361134785e-05
0.0412940933564156,-4.828124802908226e-06,0.0412940933564156,-2.285791751317646e-05,0.0412940933564156,3.1101266647499954e-06,0.0412940933564156,-1.505711559127532e-05
0.0420882105363467,-6.901325196890739e-06,0.0420882105363467,4.313584896891488e-06,0.0420882105363467,7.010649606218524e-07,0.0420882105363467,-1.5175945099005791e-05
0.0428823277162778,-6.872067685675802e-06,0.0428823277162778,2.962928632989615e-05,0.0428823277162778,1.6884711716517378e-06,0.0428823277162778,-1.2707102326666777e-05
0.0436764448962088,-6.091927808519181e-06,0.0436764448962088,2.878279958697108e-05,0.0436764448962088,-8.787072269556337e-07,0.0436764448962088,-1.35958e-05
0.0444705620761399,-7.908615561210487e-06,0.0444705620761399,-4.236092078090198e-06,0.0444705620761399,-7.998430548066069e-07,0.0444705620761399,-1.1858197436080123e-05
0.045264679256071,-8.066708221839908e-06,0.045264679256071,-2.054665020233468e-05,0.045264679256071,8.983064435685502e-07,0.045264679256071,-9.56741e-06
0.046058796436002,-7.711188822304944e-06,0.046058796436002,-2.16526e-05,0.046058796436002,2.497977644609888e-06,0.046058796436002,-9.251472355390111e-06
0.0468529136159331,-7.21752e-06,0.0468529136159331,-2.45352072217958e-05,0.0468529136159331,1.7871016121039332e-06,0.0468529136159331,-8.56031e-06
0.0476470307958642,-8.767768280496111e-06,0.0476470307958642,-2.979817236935714e-05,0.0476470307958642,2.51774e-06,0.0476470307958642,-1.1294957518254326e-05
0.0484411479757953,-6.170976052697727e-06,0.0484411479757953,-3.300692563990059e-05,0.0484411479757953,2.300584331501165e-06,0.0484411479757953,-1.4326366802198602e-05
0.0492352651557263,-5.53903e-06,0.0492352651557263,-3.462630301532105e-05,0.0492352651557263,9.972288941702383e-07,0.0492352651557263,-1.5787715693995035e-05
0.0500293823356574,-6.21042e-06,0.0500293823356574,-3.450791899044605e-05,0.0500293823356574,7.799027838821524e-07,0.0500293823356574,-1.4909046313736387e-05
0.0508234995155885,-6.21042e-06,0.0508234995155885,-3.1703846727533667e-05,0.0508234995155885,2.28091243924326e-06,0.0508234995155885,-1.2411079329432445e-05
0.0516176166955195,-5.025658943981199e-06,0.0516176166955195,-2.5088603320618183e-05,0.0516176166955195,-9.820173705814036e-09,0.0516176166955195,-1.2173984939574336e-05
0.0524117338754506,-4.66029707407772e-06,0.0524117338754506,-1.7269005145544984e-05,0.0524117338754506,-5.82511146162239e-07,0.0524117338754506,-1.3279843759972023e-05
0.0532058510553817,-5.065013025957672e-06,0.0532058510553817,-1.1818679712995325e-05,0.0532058510553817,1.17494e-06,0.0532058510553817,-1.5215233948084655e-05
0.0539999682353128,-4.531998722269557e-06,0.0539999682353128,-1.1917217847415308e-05,0.0539999682353128,8.392689070137593e-07,0.0539999682353128,-1.2420925994239411e-05
0.0547940854152438,-6.723836302111038e-06,0.0547940854152438,-1.84137866874031e-05,0.0547940854152438,1.8858280165243915e-06,0.0547940854152438,-1.6044384747496237e-05
0.0555882025951749,-6.950908067884241e-06,0.0555882025951749,-2.279765479276115e-05,0.0555882025951749,6.222399845921239e-07,0.0555882025951749,-1.355683864231518e-05
0.056382319775106,-6.566127452573652e-06,0.056382319775106,-2.599668870116589e-05,0.056382319775106,-3.159672598673048e-07,0.056382319775106,-1.1008848410889298e-05
0.057176436955037,-3.7815590575533352e-06,0.057176436955037,-3.0459629529298724e-05,0.057176436955037,2.468194719614552e-07,0.057176436955037,-1.2717006707129046e-05
0.0579705541349681,-5.775787618600347e-06,0.0579705541349681,-3.0183226324277277e-05,0.0579705541349681,9.379353472600312e-07,0.0579705541349681,-1.3319389712059113e-05
0.0587646713148992,-7.1385736618438885e-06,0.0587646713148992,-2.856424067162297e-05,0.0587646713148992,-1.67849e-07,0.0587646713148992,-1.233194633815611e-05
0.0595587884948302,-6.88182e-06,0.0595587884948302,-2.4930533578029315e-05,0.0595587884948302,1.7277321542722702e-06,0.0595587884948302,-1.416835958877047e-05
0.0603529056747613,-5.223073978527559e-06,0.0603529056747613,-2.2580649932555105e-05,0.0603529056747613,2.0833050052958558e-06,0.0603529056747613,-1.3299595015887568e-05
0.0611470228546924,-5.677050315902174e-06,0.0611470228546924,-2.347910498186414e-05,0.0611470228546924,1.17494e-06,0.0611470228546924,-1.0120369039054235e-05
0.0619411400346235,-7.5729359532175395e-06,0.0619411400346235,-2.43381e-05,0.0619411400346235,8.7867872869176e-07,0.0619411400346235,-1.13444827027187e-05
0.0627352572145545,-7.88891e-06,0.0627352572145545,-2.6549670984991804e-05,0.0627352572145545,2.2807463604251437e-06,0.0627352572145545,-1.3437804240283428e-05
0.0635293743944856,-7.730960937532454e-06,0.0635293743944856,-2.6313087778557413e-05,0.0635293743944856,1.2145286934704038e-06,0.0635293743944856,-1.2568907535347223e-05
0.0643234915744167,-6.21042e-06,0.0643234915744167,-2.56018780490435e-05,0.0643234915744167,4.443470130180082e-07,0.0643234915744167,-1.4662101163333388e-05
0.0651176087543477,-7.098980228794094e-06,0.0651176087543477,-2.7082967884326776e-05,0.0651176087543477,4.640348606354371e-07,0.0651176087543477,-1.4050039771205908e-05
0.0659117259342788,-6.32889454861795e-06,0.0659117259342788,-2.6688e-05,0.0659117259342788,1.17494e-06,0.0659117259342788,-1.1739566064823932e-05
0.0667058431142099,-5.53903e-06,0.0667058431142099,-2.508866074037705e-05,0.0667058431142099,2.0437115722460767e-06,0.0667058431142099,-1.2608100502861267e-05
0.067499960294141,-6.210362732295003e-06,0.067499960294141,-2.299535134536544e-05,0.067499960294141,2.182068634278985e-06,0.067499960294141,-1.5274214097163046e-05
0.068294077474072,-4.117288328086032e-06,0.068294077474072,-2.29953e-05,0.068294077474072,1.7775139724275392e-07,0.068294077474072,-1.3418115273405026e-05
0.0690881946540031,-3.129776701935908e-06,0.0690881946540031,-2.2600454937247383e-05,0.0690881946540031,1.056226342939158e-06,0.0690881946540031,-1.252934081782536e-05
0.0698823118339342,-5.578484813175889e-06,0.0698823118339342,-2.185003260668538e-05,0.0698823118339342,1.0960289632464894e-06,0.0698823118339342,-1.4662078106092108e-05
0.0706764290138652,-5.321845098562815e-06,0.0706764290138652,-2.224499249420692e-05,0.0706764290138652,1.3328661165018517e-06,0.0706764290138652,-1.3586012549302977e-05
0.0714705461937963,-5.9337585633219e-06,0.0714705461937963,-2.1435386715605868e-05,0.0714705461937963,1.84634e-06,0.0714705461937963,-1.2233322047863249e-05
0.0722646633737274,-6.566059906321296e-06,0.0722646633737274,-1.943118319697668e-05,0.0722646633737274,1.6485836678018492e-06,0.0722646633737274,-1.1166959388699692e-05
0.0730587805536585,-5.223103809101705e-06,0.0730587805536585,-1.7278620321040468e-05,0.0730587805536585,4.452835352625327e-06,0.0730587805536585,-9.962421427305114e-06
0.0738528977335895,-5.163847044172494e-06,0.0738528977335895,-1.4780710134183291e-05,0.0738528977335895,2.1228423064429806e-06,0.0738528977335895,-1.26478941639702e-05
0.0746470149135206,-4.30486738295502e-06,0.0746470149135206,-1.6192401170591118e-05,0.0746470149135206,-4.9424471452096246e-08,0.0746470149135206,-1.5481754553326498e-05
0.0754411320934517,-4.275073254751746e-06,0.0754411320934517,-1.9953846445508503e-05,0.0754411320934517,9.18088902458382e-07,0.0754411320934517,-1.3556378372624126e-05
0.0762352492733827,-6.052415139970919e-06,0.0762352492733827,-2.287678247717488e-05,0.0762352492733827,1.925343606714074e-06,0.0762352492733827,-1.29244e-05
0.0770293664533138,-6.8620160840956165e-06,0.0770293664533138,-1.950037905718445e-05,0.0770293664533138,-6.218860346999811e-07,0.0770293664533138,-1.2766451957952193e-05
0.0778234836332449,-8.441919127044825e-06,0.0778234836332449,-2.0408403339911222e-05,0.0778234836332449,-1.51064e-06,0.0778234836332449,-1.2529504563522412e-05
0.078617600813176,-7.592737806713106e-06,0.078617600813176,-2.374563277286645e-05,0.078617600813176,-1.51064e-06,0.078617600813176,-1.2253e-05
0.079411717993107,-8.757776595673556e-06,0.079411717993107,-2.307439383446808e-05,0.079411717993107,-2.57697319134711e-06,0.079411717993107,-1.2529466808652888e-05
0.0802058351730381,-9.370049881465522e-06,0.0802058351730381,-2.174144863848296e-05,0.0802058351730381,-2.557399822198282e-06,0.0802058351730381,-1.2549040177801718e-05
0.0809999523529692,-7.217691804650352e-06,0.0809999523529692,-2.2491722986540345e-05,0.0809999523529692,1.6764283431722005e-07,0.0809999523529692,-1.3931431277730431e-05
0.0817940695329002,-5.835273403032142e-06,0.0817940695329002,-2.370605449408529e-05,0.0817940695329002,1.17494e-06,0.0817940695329002,-1.3319395126147176e-05
0.0825881867128313,-4.314971271772436e-06,0.0825881867128313,-2.560205262328596e-05,0.0825881867128313,1.8857370230853364e-06,0.0825881867128313,-9.686145387491292e-06
0.0833823038927624,-2.971789609800419e-06,0.0833823038927624,-2.35483901074497e-05,0.0833823038927624,3.742180390199581e-06,0.0833823038927624,-9.468410394765022e-06
0.0841764210726934,-4.136965841252847e-06,0.0841764210726934,-2.0448227522118663e-05,0.0841764210726934,2.024132476241461e-06,0.0841764210726934,-1.207520752375854e-05
0.0849705382526245,-4.551596500885163e-06,0.0849705382526245,-1.8967e-05,0.0849705382526245,3.139626083631239e-06,0.0849705382526245,-1.1897633499114836e-05
0.0857646554325556,-6.368289768889039e-06,0.0857646554325556,-1.948029144092213e-05,0.0857646554325556,2.0441325744144323e-06,0.0857646554325556,-1.261814896787097e-05
0.0865587726124866,-7.197740464042496e-06,0.0865587726124866,-2.03098e-05,0.0865587726124866,5.03548e-07,0.0865587726124866,-1.373393364207744e-05
0.0873528897924177,-6.941066978179761e-06,0.0873528897924177,-2.1296935678504103e-05,0.0873528897924177,3.94944978179762e-07,0.0873528897924177,-1.21641464960454e-05
0.0881470069723488,-5.736745498603003e-06,0.0881470069723488,-2.335067381061252e-05,0.0881470069723488,3.058251486430292e-07,0.0881470069723488,-1.2845097536170851e-05
0.0889411241522799,-4.610749760343578e-06,0.0889411241522799,-2.3232317550230425e-05,0.0889411241522799,1.2143501736642949e-06,0.0889411241522799,-1.35958e-05
0.0897352413322109,-5.746374666784937e-06,0.0897352413322109,-2.188963792996981e-05,0.0897352413322109,2.359721332860253e-06,0.0897352413322109,-1.3082418667139747e-05
0.090529358512142,-5.933881086190047e-06,0.090529358512142,-2.10604744941633e-05,0.090529358512142,2.8336246328439987e-06,0.090529358512142,-1.102882541684776e-05
0.0913234756920731,-7.4940302903782e-06,0.0913234756920731,-1.9677921244551332e-05,0.0913234756920731,3.2288832150637675e-06,0.0913234756920731,-1.0416369128865396e-05
0.0921175928720041,-5.736652376519205e-06,0.0921175928720041,-2.1632699682876428e-05,0.0921175928720041,9.578194259115229e-07,0.0921175928720041,-1.213442586765933e-05
0.0929117100519352,-5.933945855572099e-06,0.0929117100519352,-2.23239e-05,0.0929117100519352,6.2198800500127e-07,0.0929117100519352,-1.098921739354673e-05
0.0937058272318663,-6.54612e-06,0.0937058272318663,-2.307429584484952e-05,0.0937058272318663,1.84634e-06,0.0937058272318663,-1.0969197329645762e-05
0.0944999444117974,-6.378290043995287e-06,0.0944999444117974,-2.165276173254785e-05,0.0944999444117974,1.84634e-06,0.0944999444117974,-1.3595599560047136e-05
0.0952940615917284,-7.2569564748222196e-06,0.0952940615917284,-2.115888348997352e-05,0.0952940615917284,1.1255656875525384e-06,0.0952940615917284,-1.5214981966429628e-05
0.0960881787716595,-7.671978294743912e-06,0.0960881787716595,-2.0991050419654223e-05,0.0960881787716595,6.223087062987382e-07,0.0960881787716595,-1.72981768102614e-05
0.0968822959515906,-4.709851860803726e-06,0.0968822959515906,-2.124774057437332e-05,0.0968822959515906,-1.8068954652009316e-06,0.0968822959515906,-1.8216710930401866e-05
0.0976764131315216,-4.215905285992642e-06,0.0976764131315216,-2.23239e-05,0.0976764131315216,-5.431411871614326e-07,0.0976764131315216,-1.596561931361766e-05
0.0984705303114527,-4.86763e-06,0.0984705303114527,-2.330134591970661e-05,0.0984705303114527,1.4807701522944551e-06,0.0984705303114527,-1.561e-05
0.0992646474913838,-4.86763e-06,0.0992646474913838,-2.3607507987562503e-05,0.0992646474913838,3.149675421205641e-06,0.0992646474913838,-1.6360329157588717e-05
0.1000587646713148,-5.815772165988642e-06,0.1000587646713148,-2.2620846891511977e-05,0.1000587646713148,1.9151131558963413e-06,0.1000587646713148,-1.630104947311324e-05
0.1008528818512459,-6.704095927300877e-06,0.1008528818512459,-2.170215816550608e-05,0.1008528818512459,2.7152091394690077e-06,0.1008528818512459,-1.434617185585185e-05
0.101646999031177,-7.849208272957019e-06,0.101646999031177,-2.13169e-05,0.101646999031177,3.18914e-06,0.101646999031177,-1.25594323946322e-05
0.1024411162111081,-8.462429808208968e-06,0.1024411162111081,-2.063521625374612e-05,0.1024411162111081,2.556892309974143e-06,0.1024411162111081,-1.0890623845012928e-05
0.1032352333910391,-5.3420737899201655e-06,0.1032352333910391,-1.9668069435421245e-05,0.1032352333910391,3.317445176721064e-06,0.1032352333910391,-1.0831125642428866e-05
0.1040293505709702,-5.163993848053962e-06,0.1040293505709702,-1.9184105035308835e-05,0.1040293505709702,2.2684375720967761e-07,0.1040293505709702,-1.108788286121306e-05
0.1048234677509013,-6.88182e-06,0.1048234677509013,-1.9558952399913733e-05,0.1048234677509013,6.97835939163706e-08,0.1048234677509013,-9.606058593969202e-06
0.1056175849308323,-5.696165506941043e-06,0.1056175849308323,-2.07836511778043e-05,0.1056175849308323,1.471355830710604e-06,0.1056175849308323,-8.521025830710604e-06
0.1064117021107634,-5.005734734229473e-06,0.1064117021107634,-2.1613405389531007e-05,0.1064117021107634,2.399818695967371e-06,0.1064117021107634,-1.1404158734091826e-05
0.1072058192906945,-4.235605897508681e-06,0.1072058192906945,-2.285787782724766e-05,0.1072058192906945,2.794041196678241e-06,0.1072058192906945,-1.3437926164658226e-05
0.1079999364706256,-3.18918576432552e-06,0.1079999364706256,-2.249177944781896e-05,0.1079999364706256,1.84634e-06,0.1079999364706256,-1.3595891531377622e-05
0.1087940536505566,-7.483114727209752e-06,0.1087940536505566,-2.29953e-05,0.1087940536505566,2.0831735709502624e-06,0.1087940536505566,-1.197706571619895e-05
0.1095881708304877,-8.008262087159904e-06,0.1095881708304877,-2.13169e-05,0.1095881708304877,1.777333496994906e-06,0.1095881708304877,-7.939255584154809e-06
0.1103822880104188,-6.280290064808842e-06,0.1103822880104188,-2.2008003821659088e-05,0.1103822880104188,-1.9852515674510346e-07,0.1103822880104188,-9.170355920006612e-06
0.1111764051903498,-5.53903e-06,0.1111764051903498,-2.1494032904611894e-05,0.1111764051903498,1.667840563884603e-06,0.1111764051903498,-1.0969700166522626e-05
0.1119705223702809,-8.460654018668443e-06,0.1119705223702809,-2.074384570213223e-05,0.1119705223702809,1.4121030052468438e-06,0.1119705223702809,-9.56741e-06
0.112764639550212,-8.93554974323195e-06,0.112764639550212,-2.256099747210928e-05,0.112764639550212,-1.67849e-07,0.112764639550212,-1.0811448478580536e-05
0.1135587567301431,-5.617700946948733e-06,0.1135587567301431,-2.36667e-05,0.1135587567301431,3.061963509534674e-07,0.1135587567301431,-1.2213664233587248e-05
0.1143528739100741,-6.200537327780315e-06,0.1143528739100741,-2.1850939995606224e-05,0.1143528739100741,2.715186207414173e-06,0.1143528739100741,-1.2016023103707086e-05
0.1151469910900052,-7.464034927506978e-06,0.1151469910900052,-2.03098e-05,0.1151469910900052,1.5900878867848198e-06,0.1151469910900052,-1.229270489926583e-05
0.1159411082699363,-8.393961996199875e-06,0.1159411082699363,-1.99741e-05,0.1159411082699363,-4.839776363239816e-07,0.1159411082699363,-1.2686552109866868e-05
0.1167352254498673,-5.06532784002855e-06,0.1167352254498673,-2.190838586146121e-05,0.1167352254498673,1.3718621215513266e-06,0.1167352254498673,-1.5293679686871053e-05
0.1175293426297984,-5.934053838266192e-06,0.1175293426297984,-2.2541010171824012e-05,0.1175293426297984,1.8856943276966751e-06,0.1175293426297984,-1.5135965745772508e-05
0.1183234598097295,-6.40797145721695e-06,0.1183234598097295,-2.4099726439917644e-05,0.1183234598097295,-1.67849e-07,0.1183234598097295,-1.42672e-05
0.1191175769896605,-6.54612e-06,0.1191175769896605,-2.4042477710976047e-05,0.1191175769896605,2.767634976615541e-07,0.1191175769896605,-1.5156430293090716e-05
0.1199116941695916,-7.079409532756818e-06,0.1199116941695916,-1.981481613647333e-05,0.1199116941695916,-1.0963118895535591e-06,0.1199116941695916,-1.5283855597588556e-05
0.1207058113495227,-6.53612861264144e-06,0.1207058113495227,-1.9913213526413623e-05,0.1207058113495227,-6.417089470204054e-07,0.1207058113495227,-1.3497031032183269e-05
0.1214999285294538,-5.539055741666255e-06,0.1214999285294538,-2.333067641331509e-05,0.1214999285294538,-5.03496513753455e-07,0.1214999285294538,-1.2588802972799833e-05
0.1222940457093848,-4.986043918968282e-06,0.1222940457093848,-2.230384241867039e-05,0.1222940457093848,5.621758597652501e-07,0.1222940457093848,-1.110794432412687e-05
0.1230881628893159,-5.677033161966596e-06,0.1230881628893159,-2.196879001552339e-05,0.1230881628893159,6.415544507904983e-07,0.1230881628893159,-9.291395454007053e-06
0.123882280069247,-5.242516708056393e-06,0.123882280069247,-2.1060215495686588e-05,0.123882280069247,1.0769741637096722e-06,0.123882280069247,-9.743754855507036e-06
0.124676397249178,-6.919992336422563e-06,0.124676397249178,-2.1612963352790232e-05,0.124676397249178,7.49987523667647e-07,0.124676397249178,-1.0939961806572962e-05
0.1254705144291091,-6.250540048949707e-06,0.1254705144291091,-2.1533917714550947e-05,0.1254705144291091,2.201511218248667e-06,0.1254705144291091,-9.88363407176054e-06
0.1262646316090402,-5.15394565822362e-06,0.1262646316090402,-2.159333076848786e-05,0.1262646316090402,1.945108683552759e-06,0.1262646316090402,-1.0376962632894482e-05
0.1270587487889713,-6.803126121167249e-06,0.1270587487889713,-2.2027123135565595e-05,0.1270587487889713,5.428947636021107e-07,0.1270587487889713,-1.3497431918899624e-05
0.1278528659689023,-7.000314181160165e-06,0.1278528659689023,-2.1900620905769864e-05,0.1278528659689023,9.379544614909576e-07,0.1278528659689023,-1.248998836232033e-05
0.1286469831488334,-5.084944746100255e-06,0.1286469831488334,-1.894699215365405e-05,0.1286469831488334,7.111365125987051e-07,0.1286469831488334,-1.2253e-05
0.1294411003287645,-6.969860517515767e-06,0.1294411003287645,-2.0626750949287768e-05,0.1294411003287645,-1.2871979692148138e-07,0.1294411003287645,-1.1778749947453355e-05
0.1302352175086955,-7.750932141635879e-06,0.1302352175086955,-2.3547966349399243e-05,0.1302352175086955,5.03548e-07,0.1302352175086955,-1.2253e-05
0.1310293346886266,-5.618028141929391e-06,0.1310293346886266,-2.3113884691660825e-05,0.1310293346886266,1.8753801729642845e-07,0.1310293346886266,-1.2015967920188028e-05
0.1318234518685577,-5.972832994462216e-06,0.1318234518685577,-2.3331e-05,0.1318234518685577,8.986421321107553e-07,0.1318234518685577,-1.3537687799687988e-05
0.1326175690484888,-4.274821270633623e-06,0.1326175690484888,-2.23239e-05,0.1326175690484888,1.7677487293663766e-06,0.1326175690484888,-1.6943775493864834e-05
0.1334116862284198,-4.393813799743116e-06,0.1334116862284198,-2.311417813393601e-05,0.1334116862284198,3.2514426441171574e-07,0.1334116862284198,-1.7762316200256883e-05
0.1342058034083509,-5.973483234803026e-06,0.1342058034083509,-2.29953e-05,0.1342058034083509,-1.3131152955992177e-06,0.1342058034083509,-1.5935713968145502e-05
0.134999920588282,-5.87477720711102e-06,0.134999920588282,-2.1652805445305912e-05,0.134999920588282,-5.036052067701963e-07,0.134999920588282,-1.3596057423479015e-05
0.135794037768213,-4.768752104922866e-06,0.135794037768213,-1.6043198937333463e-05,0.135794037768213,-4.840142535308338e-07,0.135794037768213,-1.3398044209845733e-05
0.1365881549481441,-5.065328460017233e-06,0.1365881549481441,-1.593383878369144e-05,0.1365881549481441,-5.632441532921956e-07,0.1365881549481441,-1.45245953800517e-05
0.1373822721280752,-2.9318007829428312e-06,0.1373822721280752,-1.9746895781643412e-05,0.1373822721280752,5.819090163713392e-07,0.1373822721280752,-1.3665653398105983e-05
0.1381763893080062,-4.62958356822066e-06,0.1381763893080062,-2.19883e-05,0.1381763893080062,1.7273167841103295e-06,0.1381763893080062,-1.181964643177934e-05
0.1389705064879373,-4.670590334760283e-06,0.1389705064879373,-2.2639273089311965e-05,0.1389705064879373,1.2345434528701803e-06,0.1389705064879373,-1.3279559776826478e-05
0.1397646236678684,-5.499398725731291e-06,0.1397646236678684,-2.248182536889496e-05,0.1397646236678684,2.46820149527392e-07,0.1397646236678684,-1.3437857230457371e-05
0.1405587408477994,-8.501272538516978e-06,0.1405587408477994,-2.0942321715732973e-05,0.1405587408477994,1.767623072039528e-06,0.1405587408477994,-1.3872461952298653e-05
0.1413528580277305,-7.22741987126081e-06,0.1413528580277305,-2.2639181232440487e-05,0.1413528580277305,3.406333615761014e-06,0.1413528580277305,-1.4168499828347748e-05
0.1421469752076616,-8.026734557195673e-06,0.1421469752076616,-2.418024365014264e-05,0.1421469752076616,2.280980958227887e-06,0.1421469752076616,-1.2470320479113944e-05
0.1429410923875927,-8.788436324929286e-06,0.1429410923875927,-2.44369329125286e-05,0.1429410923875927,3.228257329259901e-06,0.1429410923875927,-1.2174764176216217e-05
0.1437352095675237,-6.408148799261092e-06,0.1437352095675237,-2.7160752343660072e-05,0.1437352095675237,2.57749524250432e-06,0.1437352095675237,-1.1166808480295563e-05
0.1445293267474548,-7.21752e-06,0.1445293267474548,-2.9017861334563075e-05,0.1445293267474548,1.411939964980442e-06,0.1445293267474548,-1.430677636202851e-05
0.1453234439273859,-6.21042e-06,0.1453234439273859,-2.5406891799548925e-05,0.1453234439273859,3.69268e-06,0.1453234439273859,-1.1896651161929842e-05
0.146117561107317,-6.21042e-06,0.146117561107317,-1.6718270025271333e-05,0.146117561107317,2.655293618427884e-06,0.146117561107317,-1.0831597263338994e-05
0.146911678287248,-6.605576133458792e-06,0.146911678287248,-5.892057113340072e-06,0.146911678287248,2.596405799811813e-06,0.146911678287248,-1.264815613345879e-05
0.1477057954671791,-6.131379187364711e-06,0.1477057954671791,-1.4071784790320238e-05,0.1477057954671791,-2.6660620760551694e-07,0.1477057954671791,-1.252936999284273e-05
0.1484999126471102,-4.196481711288413e-06,0.1484999126471102,-2.4001552491828108e-05,0.1484999126471102,-1.6791192763465053e-07,0.1484999126471102,-1.1078194382360529e-05
0.1492940298270412,-3.86053e-06,0.1492940298270412,-2.263950996941137e-05,0.1492940298270412,-6.024310389718336e-07,0.1492940298270412,-1.3200265487636572e-05
0.1500881470069723,-5.083909117187946e-06,0.1500881470069723,-2.3014799711446275e-05,0.1500881470069723,6.415429848314026e-07,0.1500881470069723,-1.2036716772123732e-05
0.1508822641869034,-6.230007621014488e-06,0.1508822641869034,-2.254125390413258e-05,0.1508822641869034,2.596090484057949e-06,0.1508822641869034,-9.9031e-06
0.1516763813668344,-7.068726678360152e-06,0.1516763813668344,-2.1494094424258964e-05,0.1516763813668344,3.18914e-06,0.1516763813668344,-1.1284013356720304e-05
0.1524704985467655,-7.375645832297854e-06,0.1524704985467655,-1.965877767543817e-05,0.1524704985467655,8.19795896330417e-07,0.1524704985467655,-1.39315e-05
0.1532646157266966,-8.066681024148431e-06,0.1532646157266966,-1.940147413934599e-05,0.1532646157266966,1.8759041601504764e-06,0.1532646157266966,-1.274663132812038e-05
0.1540587329066277,-6.447167787866222e-06,0.1540587329066277,-2.182920098169988e-05,0.1540587329066277,2.201725082247492e-06,0.1540587329066277,-1.4208144753257524e-05
0.1548528500865587,-5.005949058644582e-06,0.1548528500865587,-2.19883e-05,0.1548528500865587,-1.6882036467821651e-06,0.1548528500865587,-1.5254483058437316e-05
0.1556469672664898,-5.104377575744656e-06,0.1556469672664898,-2.27585235787192e-05,0.1556469672664898,-1.687698554407608e-07,0.1556469672664898,-1.4663009697021376e-05
0.1564410844464209,-6.604779668796773e-06,0.1564410844464209,-2.1494161070543308e-05,0.1564410844464209,2.5568464458645158e-06,0.1564410844464209,-9.586962640471043e-06
0.157235201626352,-7.168315860623304e-06,0.157235201626352,-2.0862445803338592e-05,0.157235201626352,2.5476331010388395e-06,0.157235201626352,-1.0672908278753392e-05
0.158029318806283,-6.21042e-06,0.158029318806283,-2.540526976767433e-05,0.158029318806283,9.870802800985935e-08,0.158029318806283,-9.508119066555842e-06
0.1588234359862141,-5.1827154861963465e-06,0.1588234359862141,-2.9431089853854944e-05,0.1588234359862141,1.3530972569018269e-06,0.1588234359862141,-9.804951240189856e-06
0.1596175531661451,-4.117615797311543e-06,0.1596175531661451,-2.807098557779469e-05,0.1596175531661451,2.478432898655771e-06,0.1596175531661451,-1.2836709695760776e-05
0.1604116703460762,-7.47453111576331e-06,0.1604116703460762,-2.7636246446114443e-05,0.1604116703460762,3.86053e-06,0.1604116703460762,-1.60051446674314e-05
0.1612057875260073,-9.330461768775624e-06,0.1612057875260073,-2.6474257861718788e-05,0.1612057875260073,1.9252317406800427e-06,0.1612057875260073,-1.4780541156121885e-05
0.1619999047059384,-9.56741e-06,0.1619999047059384,-1.8296709468915805e-05,0.1619999047059384,-1.67711703547027e-07,0.1619999047059384,-1.35958e-05
0.1627940218858694,-1.1284931916686346e-05,0.1627940218858694,-8.152917477068903e-06,0.1627940218858694,1.282934912194511e-06,0.1627940218858694,-1.5037489361104551e-05
0.1635881390658005,-9.509748077219916e-06,0.1635881390658005,-7.728670012951578e-06,0.1635881390658005,-5.818155224003213e-07,0.1635881390658005,-1.1494075145833184e-05
0.1643822562457316,-7.779823096721919e-06,0.1643822562457316,-1.3141299194599848e-05,0.1643822562457316,1.4882949053211638e-06,0.1643822562457316,-1.0692008527045805e-05
0.1651763734256627,-7.672264325631592e-06,0.1651763734256627,-1.977814340499415e-05,0.1651763734256627,4.412883901265954e-06,0.1651763734256627,-1.1305423049367025e-05
0.1659704906055937,-5.43080417202042e-06,0.1659704906055937,-2.615202996507061e-05,0.1659704906055937,2.123729318053869e-06,0.1659704906055937,-9.88366839551593e-06
0.1667646077855248,-5.854867421298025e-06,0.1667646077855248,-3.152613057573311e-05,0.1667646077855248,-3.257681810686927e-07,0.1667646077855248,-1.0969299716745532e-05
0.1675587249654559,-7.671842961847001e-06,0.1675587249654559,-3.515819504888707e-05,0.1675587249654559,1.0877684749634395e-07,0.1675587249654559,-1.541309184738801e-05
0.1683528421453869,-4.295150441031944e-06,0.1683528421453869,-3.715305017539887e-05,0.1683528421453869,2.91244248866612e-06,0.1683528421453869,-1.6518422760402583e-05
0.169146959325318,-3.879934164575919e-06,0.169146959325318,-4.0106411845556734e-05,0.169146959325318,5.20333e-06,0.169146959325318,-1.2885591670848162e-05
0.1699410765052491,-6.171325602453337e-06,0.1699410765052491,-3.4208484266852464e-05,0.1699410765052491,3.772566877656964e-06,0.1699410765052491,-1.1737979919348396e-05
0.1707351936851801,-4.512641844506579e-06,0.1707351936851801,-1.15887845191547e-05,0.1707351936851801,1.964994441689967e-06,0.1707351936851801,-1.606337927211349e-05
0.1715293108651112,-6.328967969915413e-06,0.1715293108651112,4.69051144280595e-06,0.1715293108651112,5.429910359401913e-07,0.1715293108651112,-1.780191146476857e-05
0.1723234280450423,-7.464149952615772e-06,0.1723234280450423,-5.964077720274402e-07,0.1723234280450423,-7.501763063842062e-07,0.1723234280450423,-1.604387987364206e-05
0.1731175452249733,-6.308702085894799e-06,0.1731175452249733,-1.74632727208812e-05,0.1731175452249733,-1.875053000719166e-07,0.1731175452249733,-1.4345825668715838e-05
0.1739116624049044,-4.670063399298002e-06,0.1739116624049044,-2.9316840243792877e-05,0.1739116624049044,-3.654150121806979e-07,0.1739116624049044,-1.35958e-05
0.1747057795848355,-5.4402839642381e-06,0.1747057795848355,-3.227789145829207e-05,0.1747057795848355,-1.6093860357619005e-06,0.1747057795848355,-1.31218920715238e-05
0.1754998967647666,-4.867704369244312e-06,0.1754998967647666,-2.2325702916824512e-05,0.1754998967647666,-2.3497784461335334e-06,0.1754998967647666,-1.326017436924431e-05
0.1762940139446976,-4.166289811763481e-06,0.1762940139446976,-6.5634494638800495e-06,0.1762940139446976,-8.981902958555098e-08,0.1762940139446976,-1.1305780376473038e-05
0.1770881311246287,-5.53903e-06,0.1770881311246287,-9.368135488350344e-06,0.1770881311246287,1.3819165114124751e-06,0.1770881311246287,-8.81775697717505e-06
0.1778822483045598,-5.91388377600156e-06,0.1778822483045598,-1.0199519193830356e-05,0.1778822483045598,1.84634e-06,0.1778822483045598,-8.38126510400624e-06
0.1786763654844909,-6.762762459843746e-06,0.1786763654844909,-1.176090982858988e-05,0.1786763654844909,1.293997540156254e-06,0.1786763654844909,-1.1224429152804105e-05
0.1794704826644219,-5.183904547440124e-06,0.1794704826644219,-1.799696885339292e-05,0.1794704826644219,1.530065452559876e-06,0.1794704826644219,-1.1542749094880248e-05
0.180264599844353,-6.21042e-06,0.180264599844353,-2.372594868545147e-05,0.180264599844353,9.775563249473855e-07,0.180264599844353,-1.2075208445276006e-05
0.181058717024284,-4.630412154643884e-06,0.181058717024284,-2.1398285992555038e-05,0.181058717024284,-7.703084330762159e-07,0.181058717024284,-1.290470345172509e-05
0.1818528342042151,-6.407755077587254e-06,0.1818528342042151,-1.948943378093997e-05,0.1818528342042151,-4.048821672958173e-07,0.1818528342042151,-1.3161434226429985e-05
0.1826469513841462,-8.372059244310902e-06,0.1826469513841462,-2.346974408689492e-05,0.1826469513841462,-1.3030022787761097e-06,0.1826469513841462,-1.2598361111948488e-05
0.1834410685640773,-9.420847405333353e-06,0.1834410685640773,-2.929510519570093e-05,0.1834410685640773,-5.0599098902577735e-08,0.1834410685640773,-1.557091648619032e-05
0.1842351857440083,-5.638425393578492e-06,0.1842351857440083,-3.099271262863895e-05,0.1842351857440083,1.84634e-06,0.1842351857440083,-1.3912234727350976e-05
0.1850293029239394,-4.512195629040673e-06,0.1850293029239394,-2.957074341759943e-05,0.1850293029239394,6.615298733060705e-07,0.1850293029239394,-1.3279834370959329e-05
0.1858234201038705,-6.21042e-06,0.1858234201038705,-2.899814544013333e-05,0.1858234201038705,1.1155667503246566e-06,0.1858234201038705,-1.0732077067364809e-05
0.1866175372838016,-4.72852166561693e-06,0.1866175372838016,-2.7814018565146845e-05,0.1866175372838016,5.428663331233861e-07,0.1866175372838016,-1.1088625730513488e-05
0.1874116544637326,-3.248555850334333e-06,0.1874116544637326,-2.575941249730212e-05,0.1874116544637326,7.011076906798359e-07,0.1874116544637326,-1.128528812367873e-05
0.1882057716436637,-3.801271730332846e-06,0.1882057716436637,-2.406091491431015e-05,0.1882057716436637,2.1919310596187214e-06,0.1882057716436637,-1.2845441816489235e-05
0.1889998888235948,-1.8465802698662449e-06,0.1889998888235948,-2.6351904499042565e-05,0.1889998888235948,3.1890999550222927e-06,0.1889998888235948,-1.292472035982166e-05
0.1897940060035258,-3.6028279833156418e-06,0.1897940060035258,-2.603665921149761e-05,0.1897940060035258,8.991489516419121e-07,0.1897940060035258,-1.2016200827131968e-05
0.1905881231834569,-7.277262784144116e-06,0.1905881231834569,-2.63523e-05,0.1905881231834569,-7.01268214107256e-07,0.1905881231834569,-1.1029685568288232e-05
0.191382240363388,-6.367052171951486e-06,0.191382240363388,-2.63523e-05,0.191382240363388,2.853220791501298e-07,0.191382240363388,-1.1066832171951486e-05
0.192176357543319,-7.000888981578495e-06,0.192176357543319,-2.6944477971953037e-05,0.192176357543319,1.4511055092107527e-06,0.192176357543319,-1.3633827546053764e-05
0.1929704747232501,-4.670658983293499e-06,0.1929704747232501,-2.7220268127900417e-05,0.1929704747232501,1.530054011137668e-06,0.1929704747232501,-1.1642672938742829e-05
0.1937645919031812,-3.7616755057806966e-06,0.1937645919031812,-2.745812580425488e-05,0.1937645919031812,2.152518745182753e-06,0.1937645919031812,-1.035689266751141e-05
0.1945587090831123,-5.005926578067076e-06,0.1945587090831123,-2.599722687817877e-05,0.1945587090831123,8.786502104363691e-07,0.1945587090831123,-1.5452381749691073e-05
0.1953528262630433,-5.084807153771313e-06,0.1953528262630433,-2.8760498810247236e-05,0.1953528262630433,7.008524987650499e-07,0.1953528262630433,-1.4524114231143437e-05
0.1961469434429744,-6.328776588831216e-06,0.1961469434429744,-3.0045e-05,0.1961469434429744,3.18914e-06,0.1961469434429744,-1.4069226355324862e-05
0.1969410606229055,-5.855184558057748e-06,0.1969410606229055,-2.8642650376081696e-05,0.1969410606229055,1.0577246713816367e-06,0.1969410606229055,-1.5067327952217735e-05
0.1977351778028366,-4.51268761019533e-06,0.1977351778028366,-2.4103102602390887e-05,0.1977351778028366,1.870918038243763e-07,0.1977351778028366,-1.3280403027972196e-05
0.1985292949827676,-5.321810763145197e-06,0.1985292949827676,-1.1934681313451633e-05,0.1985292949827676,3.347112387908305e-06,0.1985292949827676,-1.3398331281427667e-05
0.1993234121626987,-5.755984588166751e-06,0.1993234121626987,2.787023201919981e-06,0.1993234121626987,2.794071409832703e-06,0.1993234121626987,-1.4997968590167296e-05
0.2001175293426297,-5.499705699614664e-06,0.2001175293426297,2.6482066178260897e-06,0.2001175293426297,1.332237201541345e-06,0.2001175293426297,-1.4385172901156007e-05
0.2009116465225608,-5.775942432662713e-06,0.2009116465225608,-8.118563970465922e-06,0.2009116465225608,-1.5818748273785293e-07,0.2009116465225608,-1.2785507065583432e-05
0.2017057637024919,-8.343090675566244e-06,0.2017057637024919,-1.432308578842385e-05,0.2017057637024919,-1.7476054302654966e-06,0.2017057637024919,-9.211961854601757e-06
0.202499880882423,-9.90318581066654e-06,0.202499880882423,-2.0476636914881098e-05,0.202499880882423,1.1742535197800324e-06,0.202499880882423,-1.1077713841775893e-05
0.203293998062354,-9.843176705695522e-06,0.203293998062354,-2.2402836272313588e-05,0.203293998062354,1.47165968043703e-06,0.203293998062354,-1.1680506560145676e-05
0.2040881152422851,-1.1029708500342986e-05,0.2040881152422851,-2.2362858330771208e-05,0.2040881152422851,1.92455862474276e-06,0.2040881152422851,-1.1600064374571269e-05
0.2048822324222162,-8.44285423636622e-06,0.2048822324222162,-2.260043863530644e-05,0.2048822324222162,3.18914e-06,0.2048822324222162,-1.591483891635275e-05
0.2056763496021472,-8.105531350613019e-06,0.2056763496021472,-2.29953e-05,0.2056763496021472,2.9129802115003345e-06,0.2056763496021472,-1.5295841269002006e-05
0.2064704667820783,-8.185810149555782e-06,0.2064704667820783,-2.3429273790919863e-05,0.2064704667820783,2.3595912848577394e-06,0.2064704667820783,-1.377335128485774e-05
0.2072645839620094,-8.04679556243159e-06,0.2072645839620094,-2.29953e-05,0.2072645839620094,2.51774e-06,0.2072645839620094,-1.227292887513682e-05
0.2080587011419405,-8.56031e-06,0.2080587011419405,-2.3232033794902742e-05,0.2080587011419405,2.2017480143023056e-06,0.2080587011419405,-1.0929908014302304e-05
0.2088528183218715,-8.461667158484817e-06,0.2088528183218715,-2.485191074893148e-05,0.2088528183218715,3.3864192138191423e-06,0.2088528183218715,-1.2450285683030364e-05
0.2096469355018026,-6.408420102224606e-06,0.2096469355018026,-2.3824607715009088e-05,0.2096469355018026,4.630928288364972e-06,0.2096469355018026,-1.3181554377165388e-05
0.2104410526817337,-5.755695727193607e-06,0.2104410526817337,-2.370597816197303e-05,0.2104410526817337,3.18914e-06,0.2104410526817337,-1.2647290872632329e-05
0.2112351698616647,-7.31585963022013e-06,0.2112351698616647,-2.29953e-05,0.2112351698616647,2.6759802465199126e-06,0.2112351698616647,-1.3082640246519912e-05
0.2120292870415958,-5.8944819595342495e-06,0.2120292870415958,-2.3350961617709392e-05,0.2120292870415958,1.8760666552289493e-07,0.2120292870415958,-1.1897542746196256e-05
0.2128234042215269,-5.776479709493839e-06,0.2128234042215269,-2.4298335186858832e-05,0.2128234042215269,-4.0529888632693253e-07,0.2128234042215269,-1.3477074261087614e-05
0.2136175214014579,-6.585450033399044e-06,0.2136175214014579,-2.2600120171365867e-05,0.2136175214014579,-1.0660938785158027e-06,0.2136175214014579,-1.1738920133596178e-05
0.214411638581389,-5.242705897508672e-06,0.214411638581389,-2.3627423205288287e-05,0.214411638581389,-8.39246e-07,0.214411638581389,-1.2707497606643542e-05
0.2152057557613201,-4.2357434898376746e-06,0.2152057557613201,-2.252234807003977e-05,0.2152057557613201,-1.51064e-06,0.2152057557613201,-1.2825671163279225e-05
0.2159998729412512,-3.8604384686223775e-06,0.2159998729412512,-2.047796984133297e-05,0.2159998729412512,-5.03822591951602e-07,0.2159998729412512,-1.2756454247944102e-05
0.2167939901211822,-5.242293120521862e-06,0.2167939901211822,-1.847346933271848e-05,0.2167939901211822,1.7968838534203103e-06,0.2167939901211822,-1.3200150827362483e-05
0.2175881073011133,-5.658555542232334e-06,0.2175881073011133,-2.186680851655315e-05,0.2175881073011133,4.3456442904973764e-07,0.2175881073011133,-1.3802730163678624e-05
0.2183822244810444,-2.696853692158181e-06,0.2183822244810444,-2.5542625545831613e-05,0.2183822244810444,1.2336598654406822e-06,0.2183822244810444,-1.52743e-05
0.2191763416609755,-9.583368001524107e-07,0.2191763416609755,-2.463419923925101e-05,0.2191763416609755,1.2642588983171523e-06,0.2191763416609755,-1.3341221525480046e-05
0.2199704588409065,-2.0432766924398783e-06,0.2199704588409065,-2.43381e-05,0.2199704588409065,6.938124042495929e-08,0.2199704588409065,-1.2253e-05
0.2207645760208376,-2.6955658789905874e-06,0.2207645760208376,-2.2817617816987502e-05,0.2207645760208376,-5.234991688312289e-07,0.2207645760208376,-1.1305332045317309e-05
0.2215586932007686,-2.18204e-06,0.2215586932007686,-2.506570216952797e-05,0.2215586932007686,1.4514992278462931e-06,0.2215586932007686,-1.0564646062556954e-05
0.2223528103806997,-1.9449713754877915e-06,0.2223528103806997,-3.048003153294274e-05,0.2223528103806997,2.2806713754877915e-06,0.2223528103806997,-1.2233097063231689e-05
0.2231469275606308,-3.544171843087572e-06,0.2231469275606308,-2.6114925916275825e-05,0.2231469275606308,2.3607262555676e-06,0.2231469275606308,-1.2332674385980908e-05
0.2239410447405619,-5.578078534120108e-06,0.2239410447405619,-1.8492067709424115e-05,0.2239410447405619,-1.0773179086102106e-06,0.2239410447405619,-9.586933976256392e-06
0.2247351619204929,-6.723568312057919e-06,0.2247351619204929,-7.75488876453106e-06,0.2247351619204929,2.042986821806025e-06,0.2247351619204929,-1.1955693248231678e-05
0.225529279100424,-6.88182e-06,0.225529279100424,-2.518300725075199e-06,0.225529279100424,2.666928872499443e-07,0.225529279100424,-1.4741096957161074e-05
0.2263233962803551,-8.00762429749018e-06,0.2263233962803551,-1.220620014993199e-05,0.2263233962803551,-2.102241550128845e-06,0.2263233962803551,-1.4463742810039285e-05
0.2271175134602862,-8.263945766412752e-06,0.2271175134602862,-2.026943464417445e-05,0.2271175134602862,1.0175982232778931e-06,0.2271175134602862,-9.882094959548464e-06
0.2279116306402172,-7.079363668647156e-06,0.2279116306402172,-2.3548844648288136e-05,0.2279116306402172,1.6487963313528434e-06,0.2279116306402172,-1.09502097960002e-05
0.2287057478201483,-8.89601e-06,0.2287057478201483,-2.50095e-05,0.2287057478201483,2.241232414828347e-06,0.2287057478201483,-1.49386e-05
0.2294998650000794,-7.88920175626618e-06,0.2294998650000794,-2.4338274641515787e-05,0.2294998650000794,3.5247327508082675e-06,0.2294998650000794,-1.393179175626618e-05
0.2302939821800104,-5.93469915807259e-06,0.2302939821800104,-2.3153135803796705e-05,0.2302939821800104,8.992177473965464e-07,0.2302939821800104,-1.3397963947653812e-05
0.2310880993599415,-5.221732934770486e-06,0.2310880993599415,-2.167206889235524e-05,0.2310880993599415,1.0807258487455985e-07,0.2310880993599415,-1.4069461408886829e-05
0.2318822165398726,-8.915580421973373e-06,0.2318822165398726,-2.3370184056633305e-05,0.2318822165398726,4.644072726479631e-07,0.2318822165398726,-1.6203118312106508e-05
0.2326763337198036,-7.545052317119473e-06,0.2326763337198036,-2.6767191268223448e-05,0.2326763337198036,-1.0829770186835959e-07,0.2326763337198036,-1.5057703305845084e-05
0.2334704508997347,-5.53903e-06,0.2334704508997347,-2.8878236357007117e-05,0.2334704508997347,5.229271002772881e-07,0.2334704508997347,-1.4977359373742129e-05
0.2342645680796658,-8.441427027308905e-06,0.2342645680796658,-3.444843767268954e-05,0.2342645680796658,9.181759290458002e-07,0.2342645680796658,-1.6873868660206394e-05
0.2350586852595969,-1.150272207868111e-05,0.2350586852595969,-3.8002823541628216e-05,0.2350586852595969,1.17494e-06,0.2350586852595969,-1.5037197401648611e-05
0.2358528024395279,-7.830136831028168e-06,0.2358528024395279,-3.1216600719874134e-05,0.2358528024395279,1.934999841555656e-06,0.2358528024395279,-1.1621440271618876e-05
0.236646919619459,-8.106270610209903e-06,0.236646919619459,-8.618190731053014e-06,0.236646919619459,3.1698153557828148e-06,0.236646919619459,-7.978275660887766e-06
0.2374410367993901,-8.244128824850026e-06,0.2374410367993901,1.4692642162906318e-05,0.2374410367993901,8.197272914372833e-07,0.2374410367993901,-7.059429412425013e-06
0.2382351539793211,-7.277475466199977e-06,0.2382351539793211,1.163487721104656e-05,0.2382351539793211,5.03548e-07,0.2382351539793211,-6.447814694046433e-06
0.2390292711592522,-4.9071902732963175e-06,0.2390292711592522,-1.0102930332379284e-05,0.2390292711592522,7.305940648780548e-07,0.2390292711592522,-6.348599795027762e-06
0.2398233883391833,-5.8951368002138015e-06,0.2398233883391833,-2.541759186342957e-05,0.2398233883391833,2.18204e-06,0.2398233883391833,-8.402664284101957e-06
0.2406175055191144,-7.55322e-06,0.2406175055191144,-3.234496972586921e-05,0.2406175055191144,7.002545595927514e-07,0.2406175055191144,-1.0713493674792112e-05
0.2414116226990454,-7.948289986907794e-06,0.2414116226990454,-3.181192194326016e-05,0.2414116226990454,-1.67849e-07,0.2414116226990454,-1.3714551742533823e-05
0.2422057398789765,-8.797292629306622e-06,0.2422057398789765,-2.852690328844084e-05,0.2422057398789765,2.280757370693378e-06,0.2422057398789765,-1.4069765258613245e-05
0.2429998570589076,-7.553528915332086e-06,0.2429998570589076,-2.4338885900591875e-05,0.2429998570589076,1.175351891199322e-06,0.2429998570589076,-1.35958e-05
0.2437939742388386,-6.171491277560388e-06,0.2437939742388386,-2.3331e-05,0.2437939742388386,7.01393160941142e-07,0.2437939742388386,-1.5885704963252814e-05
0.2445880914187697,-5.281492918126507e-06,0.2445880914187697,-2.370562751168018e-05,0.2445880914187697,-6.415028539745526e-07,0.2445880914187697,-1.5453665944761232e-05
0.2453822085987008,-6.288690221866071e-06,0.2453822085987008,-2.443683703992652e-05,0.2453822085987008,-5.044425008905166e-08,0.2453822085987008,-1.2479508495281132e-05
0.2461763257786318,-6.329534747267293e-06,0.2461763257786318,-2.300483797010213e-05,0.2461763257786318,1.3915263172076605e-06,0.2461763257786318,-1.2372114747267292e-05
0.2469704429585629,-5.0064276318266855e-06,0.2469704429585629,-2.257976788442316e-05,0.2469704429585629,1.2830781337257925e-06,0.2469704429585629,-1.15816e-05
0.247764560138494,-5.183330125254061e-06,0.247764560138494,-2.3903592011502437e-05,0.247764560138494,2.0441881663657564e-06,0.247764560138494,-1.3496876857247496e-05
0.2485586773184251,-7.63230653995456e-06,0.2485586773184251,-2.6429810489945866e-05,0.2485586773184251,-1.7082642116974432e-06,0.2485586773184251,-1.3319275640030294e-05
0.2493527944983561,-8.56031e-06,0.2493527944983561,-2.826713764796623e-05,0.2493527944983561,1.5693776581630534e-06,0.2493527944983561,-1.3121616886865915e-05
0.2501469116782872,-7.57377841271219e-06,0.2501469116782872,-2.90379e-05,0.2501469116782872,3.6591348788384206e-07,0.2501469116782872,-1.6754734627105556e-05
0.2509410288582183,-5.509760362245582e-06,0.2509410288582183,-2.816891620113893e-05,0.2509410288582183,1.03636905648865e-06,0.2509410288582183,-1.6933286908163723e-05
0.2517351460381494,-5.420324071910151e-06,0.2517351460381494,-2.576109137755833e-05,0.2517351460381494,7.40957970274774e-07,0.2517351460381494,-1.66171e-05
0.2525292632180804,-6.032674210964827e-06,0.2525292632180804,-2.215564071970961e-05,0.2525292632180804,6.615012699209729e-07,0.2525292632180804,-1.62814e-05
0.2533233803980115,-4.787911816559554e-06,0.2533233803980115,-1.6166922702741674e-05,0.2533233803980115,-1.0850364624106199e-07,0.2533233803980115,-1.49386e-05
0.2541174975779426,-3.446136707214798e-06,0.2541174975779426,-1.0614941380671444e-05,0.2541174975779426,1.945957660244688e-06,0.2541174975779426,-1.49386e-05
0.2549116147578736,-5.262694405239513e-06,0.2549116147578736,-1.0811931550950592e-05,0.2549116147578736,2.122675594760487e-06,0.2549116147578736,-1.3477071189520972e-05
0.2557057319378047,-6.170854913039009e-06,0.2557057319378047,-1.964301422800883e-05,0.2557057319378047,1.3723632753593396e-06,0.2557057319378047,-1.114718836232033e-05
0.2564998491177358,-6.88182e-06,0.2564998491177358,-2.500876806112421e-05,0.2564998491177358,3.8598778421723305e-06,0.2564998491177358,-1.1078045637055458e-05
0.2572939662976669,-3.614864006241722e-06,0.2572939662976669,-2.9473639231729724e-05,0.2572939662976669,4.966559492200511e-06,0.2572939662976669,-1.282547050779949e-05
0.2580880834775979,-3.642060633545289e-06,0.2580880834775979,-3.105459883752281e-05,0.2580880834775979,3.308734337884421e-06,0.2580880834775979,-1.0556154395025002e-05
0.258882200657529,-5.499900622080651e-06,0.258882200657529,-2.6787218909711e-05,0.258882200657529,2.775181244161301e-06,0.258882200657529,-1.0258370516987364e-05
0.2596763178374601,-5.479466905655253e-06,0.2596763178374601,-2.044602162158105e-05,0.2596763178374601,6.632935994598409e-07,0.2596763178374601,-1.026859041864904e-05
0.2604704350173911,-6.526763195973351e-06,0.2604704350173911,-1.2412735554205297e-05,0.2604704350173911,-1.0361289753958997e-06,0.2604704350173911,-1.3318170412079949e-05
0.2612645521973222,-7.868897242579933e-06,0.2612645521973222,-1.529390719816261e-05,0.2612645521973222,-2.85344e-06,0.2612645521973222,-1.2135203367191885e-05
0.2620586693772533,-8.264071892714239e-06,0.2620586693772533,-1.6005946846585105e-05,0.2620586693772533,-3.2569604187715984e-07,0.2620586693772533,-1.0199338695041087e-05
0.2628527865571843,-8.214632733054156e-06,0.2628527865571843,-1.0636315739440525e-05,0.2628527865571843,1.412043022594459e-06,0.2628527865571843,-1.323013585652191e-05
0.2636469037371154,-7.53392975352357e-06,0.2636469037371154,-9.350283880101769e-06,0.2636469037371154,-3.852204287184947e-07,0.2636469037371154,-1.42672e-05
0.2644410209170465,-6.407531038233946e-06,0.2644410209170465,-1.6993014819106115e-05,0.2644410209170465,1.84634e-06,0.2644410209170465,-1.39315e-05
0.2652351380969776,-7.138376993895653e-06,0.2652351380969776,-2.362509941436385e-05,0.2652351380969776,3.070064433193602e-07,0.2652351380969776,-1.495772797558261e-05
0.2660292552769086,-4.117498292765531e-06,0.2660292552769086,-2.483171766488732e-05,0.2660292552769086,4.639397854610669e-07,0.2660292552769086,-1.466230905847778e-05
0.2668233724568397,-1.195284859081234e-06,0.2668233724568397,-2.6429401347739094e-05,0.2668233724568397,1.5699799866118011e-06,0.2668233724568397,-1.1067880040164596e-05
0.2676174896367708,-5.224207448634886e-06,0.2676174896367708,-2.9511689539622265e-05,0.2676174896367708,1.2536459309077475e-06,0.2676174896367708,-1.0831494069092252e-05
0.2684116068167018,-5.9141302955909225e-06,0.2684116068167018,-2.9077217886833125e-05,0.2684116068167018,-1.0961227016041035e-06,0.2684116068167018,-1.274678675392731e-05
0.2692057239966329,-5.193559333669065e-06,0.2692057239966329,-2.724257123632292e-05,0.2692057239966329,-6.418350727583381e-07,0.2692057239966329,-1.49386e-05
0.269999841176564,-4.19628720711102e-06,0.269999841176564,-2.500991092121364e-05,0.269999841176564,3.35526379689411e-07,0.269999841176564,-1.242165812370643e-05
0.270793958356495,-6.722846821061124e-06,0.270793958356495,-2.410134669074231e-05,0.270793958356495,3.266921595846925e-06,0.270793958356495,-9.814759851563971e-06
0.2715880755364261,-8.689093685231403e-06,0.2715880755364261,-2.391486222480668e-05,0.2715880755364261,2.619038686030534e-06,0.2715880755364261,-1.215169788861158e-05
0.2723821927163572,-6.288667289811242e-06,0.2723821927163572,-2.199831690256846e-05,0.2723821927163572,-9.793231739936075e-07,0.2723821927163572,-1.6124905420377518e-05
0.2731763098962882,-7.157951184944162e-06,0.2731763098962882,-2.007231847480031e-05,0.2731763098962882,1.6080661593492445e-06,0.2731763098962882,-1.2729550520446703e-05
0.2739704270762193,-7.395042681302201e-06,0.2739704270762193,-1.82956e-05,0.2739704270762193,1.84634e-06,0.2739704270762193,-1.0358291881623678e-05
0.2747645442561504,-8.89601e-06,0.2747645442561504,-2.157330965986781e-05,0.2747645442561504,1.17494e-06,0.2747645442561504,-8.639224177660311e-06
0.2755586614360815,-9.527936641258305e-06,0.2755586614360815,-2.3627975514850657e-05,0.2755586614360815,1.8068666412583044e-06,0.2755586614360815,-9.685918301572882e-06
0.2763527786160125,-7.4746026899121235e-06,0.2763527786160125,-2.2017310625352062e-05,0.2763527786160125,2.952025511378084e-06,0.2763527786160125,-1.000168904302075e-05
0.2771468957959436,-6.763497809250987e-06,0.2771468957959436,-2.4456643219437387e-05,0.2771468957959436,3.18914e-06,0.2771468957959436,-1.1492210044417676e-05
0.2779410129758747,-5.500026748382196e-06,0.2779410129758747,-2.5335178951239996e-05,0.2779410129758747,2.794935122573294e-06,0.2779410129758747,-1.3634803251617803e-05
0.2787351301558057,-4.86763e-06,0.2787351301558057,-2.4644097187175737e-05,0.2787351301558057,1.84634e-06,0.2787351301558057,-1.3754097453630942e-05
0.2795292473357368,-5.67715360374941e-06,0.2795292473357368,-2.5917956379987943e-05,0.2795292473357368,3.60380138477131e-06,0.2795292473357368,-1.142365723045738e-05
0.2803233645156679,-4.787991906174136e-06,0.2803233645156679,-2.694411910734509e-05,0.2803233645156679,2.004037202297968e-06,0.2803233645156679,-1.15816e-05
0.2811174816955989,-1.6680747938702674e-06,0.2811174816955989,-2.7260621634916204e-05,0.2811174816955989,1.7676226030648664e-06,0.2811174816955989,-1.0988917396935134e-05
0.2819115988755301,-4.314912946369452e-06,0.2819115988755301,-2.7675435920068284e-05,0.2819115988755301,1.9747711048885447e-06,0.2819115988755301,-1.1838462209777087e-05
0.2827057160554611,-5.53903e-06,0.2827057160554611,-2.594063445401781e-05,0.2827057160554611,6.616496932301373e-07,0.2827057160554611,-1.2055599656695494e-05
0.2834998332353922,-5.203450134933123e-06,0.2834998332353922,-2.0646686502872305e-05,0.2834998332353922,-8.390057312073474e-07,0.2834998332353922,-1.2252759730133754e-05
0.2842939504153233,-5.577900072619235e-06,0.2842939504153233,-1.6803889785593602e-05,0.2842939504153233,1.134317971779806e-06,0.2842939504153233,-1.29244e-05
0.2850880675952543,-4.810274009572526e-06,0.2850880675952543,-1.119263481211955e-05,0.2850880675952543,1.9842784768320024e-06,0.2850880675952543,-1.1029846092671987e-05
0.2858821847751854,-4.075677350141426e-06,0.2858821847751854,-1.3144501021350364e-06,0.2858821847751854,1.135822787266497e-06,0.2858821847751854,-1.0988435823783784e-05
0.2866763019551165,-6.811371856932313e-06,0.2866763019551165,-2.618738856220929e-06,0.2866763019551165,4.250594487231515e-07,0.2866763019551165,-1.1305474535766922e-05
0.2874704191350475,-8.047093039408864e-06,0.2874704191350475,-1.611714583285387e-05,0.2874704191350475,-8.39246e-07,0.2874704191350475,-1.1265233921182271e-05
0.2882645363149786,-7.474311543050813e-06,0.2882645363149786,-2.2876884813339817e-05,0.2882645363149786,1.0833036426568337e-07,0.2882645363149786,-1.4898467655593494e-05
0.2890586534949096,-7.21752e-06,0.2890586534949096,-2.185056444012914e-05,0.2890586534949096,1.1650693819045957e-06,0.2890586534949096,-1.7742646909522977e-05
0.2898527706748408,-7.750361622514916e-06,0.2898527706748408,-2.2837772387113512e-05,0.2898527706748408,-1.0956724048145429e-06,0.2898527706748408,-1.608425190929853e-05
0.2906468878547718,-6.843324778058294e-06,0.2906468878547718,-2.2837330646808874e-05,0.2906468878547718,-2.7654012357935776e-07,0.2906468878547718,-1.3458234169058866e-05
0.2914410050347029,-6.268907678385521e-06,0.2914410050347029,-2.587845303903753e-05,0.2914410050347029,-1.1882496467390717e-08,0.2914410050347029,-1.3002383571180692e-05
0.292235122214634,-5.421708774793496e-06,0.292235122214634,-2.607602846348241e-05,0.292235122214634,3.8004601202596144e-06,0.292235122214634,-1.42672e-05
0.293029239394565,-3.52483e-06,0.293029239394565,-2.431823083956365e-05,0.293029239394565,2.5772124117189517e-06,0.293029239394565,-1.21545406581794e-05
0.2938233565744961,-5.342256594208225e-06,0.2938233565744961,-2.45544132811058e-05,0.2938233565744961,1.412254180758345e-06,0.2938233565744961,-6.269007678386569e-06
0.2946174737544272,-8.73855344668241e-06,0.2946174737544272,-2.581897926659193e-05,0.2946174737544272,3.4067378781636657e-06,0.2946174737544272,-5.9742345837199e-06
0.2954115909343582,-8.22461e-06,0.2954115909343582,-2.5700569216446877e-05,0.2954115909343582,1.1351402702579648e-06,0.2954115909343582,-9.96243412348126e-06
0.2962057081142893,-8.738240746766825e-06,0.2962057081142893,-2.5187564520294945e-05,0.2962057081142893,1.0842344592202341e-07,0.2962057081142893,-1.308217219319262e-05
0.2969998252942204,-7.217645855644206e-06,0.2969998252942204,-2.568067399333256e-05,0.2969998252942204,5.037997082891715e-07,0.2969998252942204,-1.3931625855644208e-05
0.2977939424741515,-7.454273308758384e-06,0.2977939424741515,-2.3626745945490185e-05,0.2977939424741515,5.4240740001199e-07,0.2977939424741515,-1.5786666543791923e-05
0.2985880596540825,-7.829081378826782e-06,0.2985880596540825,-2.2304462582061467e-05,0.2985880596540825,8.99077799411264e-07,0.2985880596540825,-1.6065369024726903e-05
0.2993821768340136,-7.771574628458473e-06,0.2993821768340136,-2.139611581977812e-05,0.2993821768340136,1.2922765366347323e-06,0.2993821768340136,-1.5844673073269465e-05
0.3001762940139447,-6.88182e-06,0.3001762940139447,-1.96384e-05,0.3001762940139447,2.4581597435219614e-06,0.3001762940139447,-1.790031974352196e-05
0.3009704111938757,-5.658569088393799e-06,0.3009704111938757,-1.9746843156709735e-05,0.3009704111938757,4.649008570531977e-07,0.3009704111938757,-1.6597777520239975e-05
0.3017645283738068,-3.445929614156216e-06,0.3017645283738068,-2.0941494648549685e-05,0.3017645283738068,-1.0903713928278453e-07,0.3017645283738068,-1.4622989055047713e-05
0.3025586455537379,-4.136986152072875e-06,0.3025586455537379,-2.3270691633767825e-05,0.3025586455537379,2.4387474184069505e-06,0.3025586455537379,-1.2963896290796525e-05
0.3033527627336689,-4.6304925793233305e-06,0.3033527627336689,-2.451628266014384e-05,0.3033527627336689,1.8663461310150043e-06,0.3033527627336689,-1.403006257932333e-05
0.3041468799136,-5.439947925143893e-06,0.3041468799136,-2.3232269439332262e-05,0.3041468799136,1.5823297020743258e-07,0.3041468799136,-1.403057855055689e-05
0.3049409970935311,-7.562965079890742e-06,0.3049409970935311,-1.9914714428473896e-05,0.3049409970935311,-8.988899951498228e-08,0.3049409970935311,-1.363478031956297e-05
0.3057351142734621,-6.181831009425891e-06,0.3057351142734621,-2.00720656000096e-05,0.3057351142734621,1.688019663524703e-06,0.3057351142734621,-1.4523739831762352e-05
0.3065292314533932,-5.943766992180586e-06,0.3065292314533932,-2.3232335833927183e-05,0.3065292314533932,4.6425466890339466e-07,0.3065292314533932,-1.35958e-05
0.3073233486333243,-5.301738702085991e-06,0.3073233486333243,-2.24831027984079e-05,0.3073233486333243,6.944035406214967e-08,0.3073233486333243,-1.49386e-05
0.3081174658132554,-4.788889671010033e-06,0.3081174658132554,-2.1928707129938992e-05,0.3081174658132554,1.7675996710100329e-06,0.3081174658132554,-1.4049610493484952e-05
0.3089115829931864,-6.21042e-06,0.3089115829931864,-2.23239e-05,0.3089115829931864,-3.555809168740335e-07,0.3089115829931864,-1.4524027811694718e-05
0.3097057001731175,-6.635098235937809e-06,0.3097057001731175,-2.0241177963073838e-05,0.3097057001731175,-1.51064e-06,0.3097057001731175,-1.3892226818006527e-05
0.3104998173530486,-4.196953666034853e-06,0.3104998173530486,-2.131642744060436e-05,0.3104998173530486,-1.6837530189380426e-07,0.3104998173530486,-1.225313157635533e-05
0.3112939345329796,-4.471820302978623e-06,0.3112939345329796,-2.33909002626737e-05,0.3112939345329796,2.003556515106295e-06,0.3112939345329796,-1.4168247575744657e-05
0.3120880517129107,-6.723087527011564e-06,0.3120880517129107,-2.5048376146528487e-05,0.3120880517129107,2.379812989195374e-06,0.3120880517129107,-1.1524294972964869e-05
0.3128821688928418,-6.2022921585321066e-06,0.3128821688928418,-2.6963961736166e-05,0.3128821688928418,2.0027657834580625e-06,0.3128821688928418,-9.200731395603378e-06
0.3136762860727728,-3.487068110968833e-06,0.3136762860727728,-3.024282437144096e-05,0.3136762860727728,3.741359820598654e-06,0.3136762860727728,-1.2447712182486698e-05
0.314470403252704,-4.076662308221192e-06,0.314470403252704,-3.215739160667718e-05,0.314470403252704,2.4791179233242874e-06,0.314470403252704,-1.2885777923324288e-05
0.315264520432635,-6.21042e-06,0.315264520432635,-2.6945781946799957e-05,0.315264520432635,1.767442984473012e-06,0.315264520432635,-1.0752405968946024e-05
0.3160586376125661,-6.842312243176093e-06,0.3160586376125661,-1.2735638032973229e-05,0.3160586376125661,5.628091644851077e-07,0.3160586376125661,-1.1502584486352188e-05
0.3168527547924971,-4.907673127957379e-06,0.3168527547924971,5.336154230647414e-06,0.3168527547924971,-1.2734932325888736e-06,0.3168527547924971,-1.4464302226591747e-05
0.3176468719724282,-5.163388955141228e-06,0.3176468719724282,6.881937084216735e-06,0.3176468719724282,-1.0758538689386695e-06,0.3176468719724282,-1.4820295008292131e-05
0.3184409891523593,-5.87472e-06,0.3184409891523593,-1.110879970059519e-05,0.3184409891523593,-1.116487242067308e-06,0.3184409891523593,-1.4583415573232206e-05
0.3192351063322903,-5.233392364138718e-06,0.3192351063322903,-2.682111055657661e-05,0.3192351063322903,1.114813149312672e-06,0.3192351063322903,-1.413889473564045e-05
0.3200292235122214,-5.4993277252700965e-06,0.3200292235122214,-3.484347443910312e-05,0.3200292235122214,5.432427451666257e-07,0.3200292235122214,-1.3043036852231275e-05
0.3208233406921525,-8.500992896232622e-06,0.3208233406921525,-2.671585148221971e-05,0.3208233406921525,-1.67849e-07,0.3208233406921525,-1.152228289623262e-05
0.3216174578720835,-8.22461e-06,0.3216174578720835,-1.8374106980684664e-05,0.3216174578720835,-1.67849e-07,0.3216174578720835,-1.0356927692526136e-05
0.3224115750520147,-9.56741e-06,0.3224115750520147,-2.2759151988498444e-05,0.3224115750520147,1.6885645186399851e-06,0.3224115750520147,-9.429213537551256e-06
0.3232056922319457,-9.41938554108328e-06,0.3232056922319457,-2.3077145300789605e-05,0.3232056922319457,2.7547570273888524e-06,0.3232056922319457,-1.0633531890444587e-05
0.3239998094118768,-9.06386e-06,0.3239998094118768,-1.8296832763641e-05,0.3239998094118768,2.349958648533227e-06,0.3239998094118768,-1.2252725405867093e-05
0.3247939265918079,-7.712307838529875e-06,0.3247939265918079,-1.991601064656842e-05,0.3247939265918079,5.03548e-07,0.3247939265918079,-1.2253e-05
0.3255880437717389,-7.235722280486277e-06,0.3255880437717389,-2.46738e-05,0.3255880437717389,1.9842612777908974e-06,0.3255880437717389,-1.12849613743453e-05
0.32638216095167,-8.505005200995426e-06,0.32638216095167,-2.46738e-05,0.32638216095167,-2.460500762760797e-07,0.32638216095167,-1.3674001425701574e-05
0.3271762781316011,-4.158488489501233e-06,0.3271762781316011,-2.564134025234905e-05,0.3271762781316011,1.271281224375718e-07,0.3271762781316011,-1.2334441885301724e-05
0.3279703953115321,-6.88182e-06,0.3279703953115321,-2.57790813336468e-05,0.3279703953115321,2.378839395373476e-06,0.3279703953115321,-1.0850423058879378e-05
0.3287645124914632,-5.716939760421676e-06,0.3287645124914632,-2.6964507816215407e-05,0.3287645124914632,1.2739679955950873e-06,0.3287645124914632,-1.3082182589631788e-05
0.3295586296713942,-4.255508834277045e-06,0.3295586296713942,-2.5741249379330343e-05,0.3295586296713942,1.876085525647598e-07,0.3295586296713942,-1.4227680777148636e-05
0.3303527468513254,-4.630469647268497e-06,0.3303527468513254,-2.43381e-05,0.3303527468513254,8.29229028986217e-07,0.3303527468513254,-1.3832960352731502e-05
0.3311468640312564,-5.085030741305862e-06,0.3311468640312564,-2.331130034456425e-05,0.3311468640312564,2.51774e-06,0.3311468640312564,-1.2332903706529307e-05
0.3319409812111875,-4.463754571860762e-06,0.3319409812111875,-2.185009285975028e-05,0.3319409812111875,2.4398252249837275e-06,0.3319409812111875,-9.932320941836606e-06
0.3327350983911186,-3.74177258551023e-06,0.3327350983911186,-2.3981436761832545e-05,0.3327350983911186,1.4883484439540105e-07,0.3327350983911186,-1.0021869206507893e-05
0.3335292155710496,-5.361249886698204e-06,0.3335292155710496,-2.591791528786654e-05,0.3335292155710496,3.059083079962097e-07,0.3335292155710496,-1.019908484259601e-05
0.3343233327509807,-5.776273765427815e-06,0.3343233327509807,-2.398518762301197e-05,0.3343233327509807,1.84634e-06,0.3343233327509807,-1.1759534149168785e-05
0.3351174499309118,-6.585501630522396e-06,0.3351174499309118,-1.6757978287257252e-05,0.3351174499309118,1.84634e-06,0.3351174499309118,-1.3477655108432813e-05
0.3359115671108428,-6.289326586387412e-06,0.3359115671108428,-6.169457538070538e-06,0.3359115671108428,1.9845421954624708e-06,0.3359115671108428,-1.42672e-05
0.3367056842907739,-7.473880498137401e-06,0.3367056842907739,-3.559691521542766e-06,0.3367056842907739,3.458621535705951e-07,0.3367056842907739,-1.5333308958389675e-05
0.337499801470705,-1.0238227933150132e-05,0.337499801470705,-1.4263989685669113e-05,0.337499801470705,-8.39246e-07,0.337499801470705,-1.62814e-05
0.338293918650636,-8.048036503427598e-06,0.338293918650636,-2.185113921152316e-05,0.338293918650636,-3.657758961696397e-07,0.338293918650636,-1.2866152246202284e-05
0.3390880358305671,-5.805762227611416e-06,0.3390880358305671,-2.646886680140318e-05,0.3390880358305671,3.2660978137605053e-07,0.3390880358305671,-1.2528831089554336e-05
0.3398821530104982,-5.499935020162901e-06,0.3398821530104982,-2.7774362048414725e-05,0.3398821530104982,-1.0266463253376784e-06,0.3398821530104982,-1.43062949798371e-05
0.3406762701904293,-5.20333e-06,0.3406762701904293,-2.8445609242027348e-05,0.3406762701904293,-3.466396580479906e-07,0.3406762701904293,-1.4326797418611338e-05
0.3414703873703603,-6.1911318445065975e-06,0.3414703873703603,-2.741091583361043e-05,0.3414703873703603,1.0958417515907251e-06,0.3414703873703603,-9.451681641604833e-06
0.3422645045502914,-4.53193e-06,0.3422645045502914,-2.1534225905461124e-05,0.3422645045502914,9.181301641749788e-07,0.3422645045502914,-7.512902242955434e-06
0.3430586217302225,-5.1637993111212605e-06,0.3430586217302225,-2.4294684895243538e-05,0.3430586217302225,1.17494e-06,0.3430586217302225,-1.2410812488825666e-05
0.3438527389101535,-6.703941135930779e-06,0.3438527389101535,-3.002427304153022e-05,0.3438527389101535,-8.584217374087263e-07,0.3438527389101535,-1.205594363751792e-05
0.3446468560900846,-6.76352647431955e-06,0.3446468560900846,-2.9511931335937515e-05,0.3446468560900846,-1.294897792189383e-07,0.3446468560900846,-1.24895870513609e-05
0.3454409732700157,-5.461138157038481e-06,0.3454409732700157,-1.57078460543102e-05,0.3454409732700157,1.914495362591329e-06,0.3454409732700157,-1.264711888222114e-05
0.3462350904499467,-5.222320678516117e-06,0.3462350904499467,2.6890195586485105e-06,0.3462350904499467,3.919111702275638e-06,0.3462350904499467,-1.333927733037097e-05
0.3470292076298778,-6.467162917006451e-06,0.3470292076298778,-5.342325043831705e-06,0.3470292076298778,5.53903e-06,0.3470292076298778,-1.3871884995922593e-05
0.3478233248098089,-5.617913273109053e-06,0.3478233248098089,-2.0992898012156693e-05,0.3478233248098089,4.689713012964468e-06,0.3478233248098089,-1.4977771688274112e-05
0.34861744198974,-3.721766817680445e-06,0.34861744198974,-2.6292717441062493e-05,0.34861744198974,3.267913553781635e-06,0.34861744198974,-1.2706862090608268e-05
0.349411559169671,-2.972002403102307e-06,0.349411559169671,-2.700401023749244e-05,0.349411559169671,3.347164295816606e-06,0.349411559169671,-1.0860715093107376e-05
0.3502056763496021,-6.446903360101645e-06,0.3502056763496021,-2.74208103981336e-05,0.3502056763496021,1.728371180534123e-06,0.3502056763496021,-7.158533973665077e-06
0.3509997935295332,-6.88241494952379e-06,0.3509997935295332,-2.2325502592732894e-05,0.3509997935295332,-1.8455963115445177e-06,0.3509997935295332,-8.223717573498965e-06
0.3517939107094642,-4.097260376703551e-06,0.3517939107094642,-1.722869219459951e-05,0.3517939107094642,8.703421305895401e-09,0.3517939107094642,-1.1758151883517753e-05
0.3525880278893953,-7.433455138927268e-06,0.3525880278893953,-1.80930483947803e-05,0.3525880278893953,-2.458783812271145e-07,0.3525880278893953,-1.197718037647304e-05
0.3533821450693264,-7.030125376588297e-06,0.3533821450693264,-2.4969041806799163e-05,0.3533821450693264,-1.5888184936468113e-06,0.3533821450693264,-1.2409356987293622e-05
0.3541762622492574,-6.88182e-06,0.3541762622492574,-2.77346494943764e-05,0.3541762622492574,-2.4581368606775384e-06,0.3541762622492574,-1.387189686067754e-05
0.3549703794291886,-5.2727974644465455e-06,0.3549703794291886,-2.73800088186208e-05,0.3549703794291886,-1.51064e-06,0.3549703794291886,-1.4355917742956746e-05
0.3557644966091196,-6.940516917255793e-06,0.3557644966091196,-2.368711661110773e-05,0.3557644966091196,-2.735120219909469e-06,0.3557644966091196,-1.7110559706787374e-05
0.3565586137890507,-7.592761565955423e-06,0.3565586137890507,-1.6148629364034482e-05,0.3565586137890507,-1.560067693632746e-06,0.3565586137890507,-1.76242e-05
0.3573527309689818,-5.894801394512051e-06,0.3573527309689818,-1.1875804990939203e-05,0.3573527309689818,2.0433734304274863e-06,0.3573527309689818,-1.7189983284786256e-05
0.3581468481489128,-5.331195958050798e-06,0.3581468481489128,-1.932198245740045e-05,0.3581468481489128,1.5314599592256968e-06,0.3581468481489128,-1.5629163378000286e-05
0.3589409653288439,-7.592153875553757e-06,0.3589409653288439,-2.587840177266498e-05,0.3589409653288439,-4.062125572461979e-07,0.3589409653288439,-1.82956e-05
0.3597350825087749,-6.813774422207074e-06,0.3597350825087749,-2.63523e-05,0.3597350825087749,2.201007795671621e-06,0.3597350825087749,-1.8039083051082096e-05
0.360529199688706,-4.354138445276015e-06,0.360529199688706,-2.745810525819412e-05,0.360529199688706,1.8861062188959408e-06,0.360529199688706,-1.6400096922254045e-05
0.3613233168686371,-7.119018000079938e-06,0.3613233168686371,-2.5248427236906053e-05,0.3613233168686371,2.2714876498844585e-07,0.3613233168686371,-1.375360017509774e-05
0.3621174340485681,-7.335698116188131e-06,0.3621174340485681,-2.2127818681926647e-05,0.3621174340485681,1.0961547456694218e-06,0.3621174340485681,-1.2628093096549816e-05
0.3629115512284993,-5.53903e-06,0.3629115512284993,-1.7801454091204442e-05,0.3629115512284993,3.5841067941981066e-06,0.3629115512284993,-1.3023113755144465e-05
0.3637056684084303,-5.736358608034504e-06,0.3637056684084303,-1.6199478377033673e-05,0.3637056684084303,3.663201391965496e-06,0.3637056684084303,-1.369446577357003e-05
0.3644997855883614,-7.552602163201016e-06,0.3644997855883614,-2.248978907496705e-05,0.3644997855883614,2.182503377599237e-06,0.3644997855883614,-1.39315e-05
0.3652939027682925,-7.17874312060285e-06,0.3652939027682925,-2.295544867579348e-05,0.3652939027682925,2.121838574759448e-06,0.3652939027682925,-1.2412176781550687e-05
0.3660880199482235,-5.7368200292061005e-06,0.3660880199482235,-2.2362735054407116e-05,0.3660880199482235,2.241931842500449e-06,0.3660880199482235,-9.015793685000898e-06
0.3668821371281546,-5.261954106475208e-06,0.3668821371281546,-2.29953e-05,0.3668821371281546,1.84634e-06,0.3668821371281546,-8.14644413661995e-06
0.3676762543080857,-4.464468094492297e-06,0.3676762543080857,-2.1119178161304197e-05,0.3676762543080857,1.2941577200670763e-06,0.3676762543080857,-7.829302915625088e-06
0.3684703714880167,-3.879795272649025e-06,0.3684703714880167,-1.974683031924704e-05,0.3684703714880167,2.6952226363245123e-06,0.3684703714880167,-8.89601e-06
0.3692644886679478,-3.1102658673174278e-06,0.3692644886679478,-2.06455e-05,0.3692644886679478,-9.969928556398067e-07,0.3692644886679478,-1.122569653073029e-05
0.3700586058478789,-3.169363189533216e-06,0.3700586058478789,-2.0172155449488635e-05,0.3700586058478789,7.008091515026799e-07,0.3700586058478789,-1.288484637906643e-05
0.3708527230278099,-6.012435343507255e-06,0.3708527230278099,-2.1217398962056717e-05,0.3708527230278099,4.847537873779429e-06,0.3708527230278099,-1.0861931533527027e-05
0.371646840207741,-7.454080595860738e-06,0.371646840207741,-2.19883e-05,0.371646840207741,4.276223225180164e-06,0.371646840207741,-6.21042e-06
0.3724409573876721,-8.618694484138769e-06,0.3724409573876721,-2.236348697088262e-05,0.3724409573876721,1.8658014947129228e-06,0.3724409573876721,-8.351112034549066e-06
0.3732350745676032,-1.0593447271742264e-05,0.3732350745676032,-2.311421856514688e-05,0.3732350745676032,1.4125063153794445e-06,0.3732350745676032,-1.0919722456413704e-05
0.3740291917475342,-7.988387458036448e-06,0.3740291917475342,-2.032957670316325e-05,0.3740291917475342,-3.2084030059863587e-06,0.3740291917475342,-1.0357545167708377e-05
0.3748233089274653,-5.104805117405854e-06,0.3748233089274653,-2.3939848535784943e-05,0.3748233089274653,-4.749041558154074e-06,0.3748233089274653,-9.07389089648289e-06
0.3756174261073964,-6.803022340872988e-06,0.3756174261073964,-2.6035442237504508e-05,0.3756174261073964,-2.5665823889671835e-06,0.3756174261073964,-9.9031e-06
0.3764115432873274,-7.671736539334261e-06,0.3764115432873274,-2.797169989338628e-05,0.3764115432873274,-1.1156823185980031e-06,0.3764115432873274,-1.0732530926997702e-05
0.3772056604672585,-9.172769837774743e-06,0.3772056604672585,-2.8760535125568504e-05,0.3772056604672585,-1.67849e-07,0.3772056604672585,-1.02388e-05
0.3779997776471896,-7.218000534960969e-06,0.3779997776471896,-3.239353370838612e-05,0.3779997776471896,-5.033878205663223e-07,0.3779997776471896,-1.158095928035668e-05
0.3787938948271206,-7.178760319473257e-06,0.3787938948271206,-3.342191538907288e-05,0.3787938948271206,1.2524567074049775e-06,0.3787938948271206,-1.1344881089323866e-05
0.3795880120070517,-4.058331654263937e-06,0.3795880120070517,-3.500285043724654e-05,0.3795880120070517,2.1040449627918093e-06,0.3795880120070517,-1.199529503720819e-05
0.3803821291869828,-6.444885520707424e-06,0.3803821291869828,-3.255351655410244e-05,0.3803821291869828,2.77081678026571e-07,0.3803821291869828,-1.4189044438408012e-05
0.3811762463669139,-6.844191127894274e-06,0.3811762463669139,-3.0775325312286585e-05,0.3811762463669139,9.364836304332914e-07,0.3811762463669139,-1.2491458322978647e-05
0.3819703635468449,-4.728660746840229e-06,0.3819703635468449,-2.371310183971139e-05,0.3819703635468449,1.4913861687731806e-06,0.3819703635468449,-1.239196925315977e-05
0.382764480726776,-7.474351588028511e-06,0.382764480726776,-3.1141791130869794e-06,0.382764480726776,-3.255851191314315e-07,0.382764480726776,-1.4048784119714886e-05
0.3835585979067071,-4.690189758551473e-06,0.3835585979067071,2.037937993168137e-05,0.3835585979067071,-8.39246e-07,0.3835585979067071,-1.8196687282597624e-05
0.3843527150866381,-4.946014457897073e-06,0.3843527150866381,1.0724459376329932e-05,0.3843527150866381,-6.02040843061496e-07,0.3843527150866381,-1.6874415542102926e-05
0.3851468322665692,-8.915138979918033e-06,0.3851468322665692,-7.1278629851204e-06,0.3851468322665692,-1.747192653278689e-06,0.3851468322665692,-1.4820323673360656e-05
0.3859409494465003,-6.765086009362342e-06,0.3859409494465003,-1.9816248945326475e-05,0.3859409494465003,-2.1528563574510884e-06,0.3859409494465003,-1.3989867285097823e-05
0.3867350666264313,-6.406655404059694e-06,0.3867350666264313,-3.0279062551848225e-05,0.3867350666264313,-2.3197537687393435e-06,0.3867350666264313,-1.596462202998295e-05
0.3875291838063624,-6.605842680392429e-06,0.3875291838063624,-2.966977741276465e-05,0.3875291838063624,-2.537645992292424e-06,0.3875291838063624,-1.5472008988438635e-05
0.3883233009862935,-2.6162859991524845e-06,0.3883233009862935,-2.7478894378276484e-05,0.3883233009862935,-9.970760888683907e-07,0.3883233009862935,-1.3240068998728726e-05
0.3891174181662246,-9.180544208727428e-07,0.3891174181662246,-2.6669183445071445e-05,0.3891174181662246,1.017323040874227e-06,0.3891174181662246,-9.80383620166053e-06
0.3899115353461556,-4.867664651141787e-06,0.3899115353461556,-2.346893620437168e-05,0.3899115353461556,3.850469807978367e-07,0.3899115353461556,-9.764878990002133e-06
0.3907056525260867,-6.111765692457375e-06,0.3907056525260867,-2.03098e-05,0.3907056525260867,4.240736126153508e-07,0.3907056525260867,-1.1047938305207056e-05
0.3914997697060178,-5.539195895680023e-06,0.3914997697060178,-2.366521045497321e-05,0.3914997697060178,2.5174081987560926e-06,0.3914997697060178,-1.426637049689023e-05
0.3922938868859488,-5.459405892825232e-06,0.3922938868859488,-2.474282264532708e-05,0.3922938868859488,7.01519285739814e-07,0.3922938868859488,-1.4484508154514377e-05
0.3930880040658799,-6.468142161832875e-06,0.3930880040658799,-2.395388475513209e-05,0.3930880040658799,1.17494e-06,0.3930880040658799,-1.6635163063611875e-05
0.393882121245811,-4.6882170272313004e-06,0.393882121245811,-2.2472473696139972e-05,0.393882121245811,1.0967968355536776e-06,0.393882121245811,-1.884978385665321e-05
0.394676238425742,-6.426879397088428e-06,0.394676238425742,-1.9184097656606083e-05,0.394676238425742,1.055700817887986e-06,0.394676238425742,-1.713166090436736e-05
0.3954703556056732,-5.855482896796329e-06,0.3954703556056732,-2.003091987398045e-05,0.3954703556056732,1.0862096891498172e-06,0.3954703556056732,-1.6103928805097674e-05
0.3962644727856042,-4.53193e-06,0.3962644727856042,-2.309435161997919e-05,0.3962644727856042,1.7179213456301975e-06,0.3962644727856042,-1.699221959962316e-05
0.3970585899655353,-5.637611621733393e-06,0.3970585899655353,-2.1751637978018862e-05,0.3970585899655353,1.84634e-06,0.3970585899655353,-1.8542249808460548e-05
0.3978527071454664,-5.6475691124625305e-06,0.3978527071454664,-2.4652990857287608e-05,0.3978527071454664,1.787035579282863e-06,0.3978527071454664,-1.7308626524302823e-05
0.3986468243253974,-7.019198851398796e-06,0.3986468243253974,-2.516755153743381e-05,0.3986468243253974,2.300310593625642e-06,0.3986468243253974,-1.5482141131454754e-05
0.3994409415053285,-6.774845421616708e-06,0.3994409415053285,-2.43381e-05,0.3994409415053285,7.808962036369679e-07,0.3994409415053285,-1.4948322117406716e-05
0.4002350586852595,-6.446221186571055e-06,0.4002350586852595,-2.4614330444396213e-05,0.4002350586852595,6.016465399816814e-07,0.4002350586852595,-1.5491187883898514e-05
0.4010291758651906,-6.526202566285408e-06,0.4010291758651906,-2.5898118038642573e-05,0.4010291758651906,6.02410015954893e-07,0.4010291758651906,-1.4642734867429185e-05
0.4018232930451217,-6.644690647942127e-06,0.4018232930451217,-2.449744634425108e-05,0.4018232930451217,1.293505559001524e-06,0.4018232930451217,-1.229228610249619e-05
0.4026174102250527,-4.353871182363691e-06,0.4026174102250527,-2.2284763298046096e-05,0.4026174102250527,1.5500502955909228e-06,0.4026174102250527,-1.1502779408818152e-05
0.4034115274049838,-5.1243374184070216e-06,0.4034115274049838,-2.104033092570475e-05,0.4034115274049838,1.84634e-06,0.4034115274049838,-1.4109214836814042e-05
0.4042056445849149,-5.73632421046457e-06,0.4042056445849149,-2.1097771937918556e-05,0.4042056445849149,2.5965114363222423e-06,0.4042056445849149,-1.5155738980230567e-05
0.404999761764846,-7.552533514667689e-06,0.404999761764846,-2.23237459504476e-05,0.404999761764846,3.18914e-06,0.404999761764846,-1.6951941893334612e-05
0.4057938789447771,-8.89601e-06,0.4057938789447771,-2.2047931565848757e-05,0.4057938789447771,-2.100225429744201e-06,0.4057938789447771,-2.0081629778595027e-05
0.4065879961247081,-7.82898965197375e-06,0.4065879961247081,-2.2898295191309866e-05,0.4065879961247081,-3.743593148754632e-06,0.4065879961247081,-1.9758252481165413e-05
0.4073821133046392,-8.443112219421373e-06,0.4073821133046392,-2.052748546152315e-05,0.4073821133046392,-1.502692630895869e-06,0.4073821133046392,-1.8967e-05
0.4081762304845703,-6.724998066500511e-06,0.4081762304845703,-2.1455245569849303e-05,0.4081762304845703,1.7646597986189855e-06,0.4081762304845703,-1.924307397783316e-05
0.4089703476645013,-6.387885474191221e-06,0.4089703476645013,-2.3034042312234144e-05,0.4089703476645013,5.812644929672859e-06,0.4089703476645013,-1.8504078933986664e-05
0.4097644648444324,-7.0395339410985424e-06,0.4097644648444324,-2.42094735880695e-05,0.4097644648444324,1.1561327882197086e-05,0.4097644648444324,-1.64008012061551e-05
0.4105585820243635,-8.816834551602315e-06,0.4105585820243635,-2.5769006990088176e-05,0.4105585820243635,1.2904605990492108e-05,0.4105585820243635,-1.1127934104586812e-05
0.4113526992042945,-6.033628487785472e-06,0.4113526992042945,-2.2780000404139977e-05,0.4113526992042945,1.2045954102872196e-05,0.4113526992042945,-4.5923576366814485e-06
0.4121468163842256,-5.321594860611928e-06,0.4121468163842256,-2.252113811072992e-05,0.4121468163842256,1.1009370278776146e-05,0.4121468163842256,-1.4915475319240136e-06
0.4129409335641567,-5.46125281731257e-06,0.4129409335641567,-2.1149077066689907e-05,0.4129409335641567,7.616691598243295e-06,0.4129409335641567,-5.1183863106931606e-08
0.4137350507440878,-3.939735933926471e-06,0.4137350507440878,-1.7891827256225424e-05,0.4137350507440878,3.6771444187986274e-07,0.4137350507440878,3.385296755867271e-06
0.4145291679240188,-4.827772249726397e-06,0.4145291679240188,-1.6873784124211246e-05,0.4145291679240188,-3.327091984120462e-06,0.4145291679240188,3.2289924534479385e-06
0.4153232851039499,-7.030012646974095e-06,0.4153232851039499,-2.00309080110997e-05,0.4153232851039499,-3.673022646974095e-06,0.4153232851039499,2.464778841882876e-07
0.416117402283881,-8.758055074028293e-06,0.416117402283881,-2.254039103384784e-05,0.416117402283881,-6.141775002516765e-06,0.416117402283881,-6.36941397642892e-06
0.416911519463812,-8.22461e-06,0.416911519463812,-2.3015015445083406e-05,0.416911519463812,-9.458786812910555e-06,0.416911519463812,-8.175280553090253e-06
0.4177056366437431,-7.592984413876941e-06,0.4177056366437431,-2.23239e-05,0.4177056366437431,-5.796754620178038e-06,0.4177056366437431,-5.144458633939326e-06
0.4184997538236742,-5.707490697154425e-06,0.4184997538236742,-2.165291841650769e-05,0.4184997538236742,-8.404873911391979e-07,0.4184997538236742,-4.19623e-06
0.4192938710036052,-6.733322567452542e-06,0.4192938710036052,-1.790024629005447e-05,0.4192938710036052,-8.39246e-07,0.4192938710036052,-2.884347681069631e-07
0.4200879881835363,-6.761944586779673e-06,0.4200879881835363,-1.7030387924571465e-05,0.4200879881835363,-9.381577837434352e-07,0.4200879881835363,1.5525756696810606e-06
0.4208821053634674,-9.05225116346335e-06,0.4208821053634674,-1.8788941851679886e-05,0.4208821053634674,-1.135880116378834e-06,0.4208821053634674,-5.297294072191363e-06
0.4216762225433985,-9.134535195171544e-06,0.4216762225433985,-2.03098e-05,0.4216762225433985,-5.631793876098998e-07,0.4216762225433985,-1.1597052604682775e-05
0.4224703397233295,-6.606020616299758e-06,0.4224703397233295,-2.03098e-05,0.4224703397233295,-1.67849e-07,0.4224703397233295,-1.8904857288281065e-05
0.4232644569032606,-4.453078750161813e-06,0.4232644569032606,-2.259011183767982e-05,0.4232644569032606,-1.2537912498381877e-06,0.4232644569032606,-2.2522215989576724e-05
0.4240585740831917,-5.77572187719656e-06,0.4240585740831917,-2.300628356201873e-05,0.4240585740831917,-1.51064e-06,0.4240585740831917,-1.655859639530269e-05
0.4248526912631227,-4.058621383577608e-06,0.4248526912631227,-2.23239e-05,0.4248526912631227,-2.18204e-06,0.4248526912631227,-1.1187762459693524e-05
0.4256468084430538,-6.15893466665884e-06,0.4256468084430538,-2.23239e-05,0.4256468084430538,-1.2931991275982391e-06,0.4256468084430538,-7.375831308602641e-06
0.4264409256229849,-8.818256328413139e-06,0.4264409256229849,-2.324212783725237e-05,0.4264409256229849,-3.4859534537293976e-06,0.4264409256229849,-8.438433610193764e-06
0.4272350428029159,-6.014297568228878e-06,0.4272350428029159,-2.2591568087928466e-05,0.4272350428029159,-2.0839749639126918e-06,0.4272350428029159,-1.4225695108261928e-05
0.428029159982847,-4.334169525161426e-06,0.428029159982847,-2.279778675330824e-05,0.428029159982847,-1.017062980081879e-06,0.428029159982847,-1.8571479050322853e-05
0.4288232771627781,-6.595681931906465e-06,0.4288232771627781,-2.455425948198815e-05,0.4288232771627781,6.923441014956161e-08,0.4288232771627781,-2.3074499366550108e-05
0.4296173943427092,-8.24432088080917e-06,0.4296173943427092,-2.2443229510682837e-05,0.4296173943427092,2.360052953526641e-06,0.4296173943427092,-2.471322176161834e-05
0.4304115115226402,-6.091995188202028e-06,0.4304115115226402,-2.16526e-05,0.4304115115226402,4.3837818570454255e-06,0.4304115115226402,-2.413075710032118e-05
0.4312056287025713,-3.72210421700304e-06,0.4312056287025713,-2.0803084114553366e-05,0.4312056287025713,5.243118674495439e-06,0.4312056287025713,-2.273920673150756e-05
0.4319997458825024,-6.209321628921693e-06,0.4319997458825024,-2.0477846577209617e-05,0.4319997458825024,3.860896125510491e-06,0.4319997458825024,-2.0478057684153935e-05
0.4327938630624334,-5.95438005344675e-06,0.4327938630624334,-2.0705122890854505e-05,0.4327938630624334,3.288141072197247e-06,0.4327938630624334,-2.0901504692460518e-05
0.4335879802423645,-3.644732452376973e-06,0.4335879802423645,-2.510645922313856e-05,0.4335879802423645,2.9913154136812533e-06,0.4335879802423645,-2.0093998345274985e-05
0.4343820974222956,-3.641994546223479e-06,0.4343820974222956,-2.451722302252206e-05,0.4343820974222956,2.4786851512588403e-06,0.4343820974222956,-1.76242e-05
0.4351762146022266,-5.360117609232767e-06,0.4351762146022266,-2.0388837469105764e-05,0.4351762146022266,2.458102536410922e-06,0.4351762146022266,-1.7762190150758868e-05
0.4359703317821577,-6.407082098307039e-06,0.4359703317821577,-2.1414999149404114e-05,0.4359703317821577,3.366588746679267e-06,0.4359703317821577,-1.470352177061691e-05
0.4367644489620888,-6.763551706309391e-06,0.4367644489620888,-2.1711751091663243e-05,0.4367644489620888,2.3206261771823178e-06,0.4367644489620888,-1.1670554470872928e-05
0.4375585661420199,-6.220322737767655e-06,0.4375585661420199,-2.175165335793063e-05,0.4375585661420199,1.8364372622323456e-06,0.4375585661420199,-1.1097899575780903e-05
0.438352683321951,-4.453660202376896e-06,0.438352683321951,-1.9166156171341585e-05,0.438352683321951,3.504655412265864e-06,0.438352683321951,-1.0367547432728442e-05
0.439146800501882,-4.669243578338043e-06,0.439146800501882,-1.76242e-05,0.439146800501882,1.7490957532738308e-06,0.439146800501882,-1.2291120367507063e-05
0.4399409176818131,-5.4904479258889984e-06,0.4399409176818131,-2.0724291984351963e-05,0.4399409176818131,-4.841152282430872e-07,0.4399409176818131,-1.43254984889332e-05
0.4407350348617442,-4.443297375348647e-06,0.4407350348617442,-2.415964510455216e-05,0.4407350348617442,6.015950538375149e-07,0.4407350348617442,-1.4504852126045942e-05
0.4415291520416752,-4.86763e-06,0.4415291520416752,-2.113926977129168e-05,0.4415291520416752,1.4117511815141187e-06,0.4415291520416752,-1.4543044726056476e-05
0.4423232692216063,-5.973565278153584e-06,0.4423232692216063,-1.7783607863898115e-05,0.4423232692216063,1.0858373571932488e-07,0.4423232692216063,-1.6478675061060295e-05
0.4431173864015373,-7.21752e-06,0.4431173864015373,-1.7070322999619395e-05,0.4431173864015373,1.6097763241421786e-06,0.4431173864015373,-1.2193292462424477e-05
0.4439115035814684,-4.255592387218791e-06,0.4439115035814684,-2.206747154051712e-05,0.4439115035814684,1.3694054569327384e-05,0.4439115035814684,-1.5175415523423024e-05
0.4447056207613995,-3.722092750975584e-06,0.4447056207613995,-2.494100806273451e-05,0.4447056207613995,2.1593774498048836e-05,0.4447056207613995,-1.568961174707325e-05
0.4454997379413306,-4.531741216533631e-06,0.4454997379413306,-2.500933049499937e-05,0.4454997379413306,1.6451559821447502e-05,0.4454997379413306,-1.1247599051197324e-05
0.4462938551212617,-5.192495859626682e-06,0.4462938551212617,-2.791261005980298e-05,0.4462938551212617,6.737987091786301e-06,0.4462938551212617,-1.0040783440567476e-05
0.4470879723011927,-5.934684745596126e-06,0.4470879723011927,-3.124596708112521e-05,0.4470879723011927,-3.4408073154831625e-06,0.4470879723011927,-1.1935248403337706e-05
0.4478820894811238,-4.118131768545137e-06,0.4478820894811238,-3.4507739720486654e-05,0.4478820894811238,-9.13030353114994e-06,0.4478820894811238,-1.4720047347182296e-05
0.4486762066610549,-3.52483e-06,0.4486762066610549,-3.088412844746118e-05,0.4486762066610549,-1.1186256815699838e-05,0.4486762066610549,-1.6714227262799355e-05
0.4494703238409859,-4.90602324823164e-06,0.4494703238409859,-2.880028887637373e-05,0.4494703238409859,-1.089100337588418e-05,0.4494703238409859,-1.726930337588418e-05
0.450264441020917,-5.835300095792026e-06,0.450264441020917,-3.131826560751318e-05,0.450264441020917,-8.501813306440016e-06,0.450264441020917,-1.5116620383168103e-05
0.4510585582008481,-5.54893501412828e-06,0.4510585582008481,-3.1734519450006654e-05,0.4510585582008481,-8.481065755950229e-06,0.4510585582008481,-1.333934483419599e-05
0.4518526753807791,-4.19623e-06,0.4518526753807791,-2.2577808599698637e-05,0.4518526753807791,-6.606708893676412e-06,0.4518526753807791,-8.620898893676411e-06
0.4526467925607102,-6.584202447004033e-06,0.4526467925607102,-1.1661633665996711e-05,0.4526467925607102,-3.7422823384292177e-06,0.4526467925607102,-1.8693733052710297e-06
0.4534409097406413,-9.606263614557405e-06,0.4534409097406413,1.835852793227497e-06,0.4534409097406413,-1.4620726635159894e-06,0.4534409097406413,4.53193e-06
0.4542350269205724,-9.46937692824196e-06,0.4542350269205724,1.4173734891328816e-05,0.4542350269205724,-1.5690608157469613e-06,0.4542350269205724,3.5060300243017216e-06
0.4550291441005034,-7.435272701171658e-06,0.4550291441005034,1.7920531508219572e-05,0.4550291441005034,-8.791706312036366e-07,0.4550291441005034,5.833993813420329e-07
0.4558232612804345,-4.472670103343654e-06,0.4558232612804345,4.783418955339914e-06,0.4558232612804345,2.0241196899690387e-06,0.4558232612804345,-5.7169652810209245e-06
0.4566173784603656,-5.381297089416993e-06,0.4566173784603656,-1.7874305367323057e-05,0.4566173784603656,2.85344e-06,0.4566173784603656,-1.1266135353490752e-05
0.4574114956402966,-8.342998948030021e-06,0.4574114956402966,-2.747806059908166e-05,0.4574114956402966,2.9126324148283465e-06,0.4574114956402966,-1.637991586672756e-05
0.4582056128202277,-7.928736010487922e-06,0.4582056128202277,-2.7832121524569013e-05,0.4582056128202277,3.663281652961986e-06,0.4582056128202277,-2.186880140316545e-05
0.4589997300001588,-7.21752e-06,0.4589997300001588,-2.937307607545264e-05,0.4589997300001588,4.531151989084175e-06,0.4589997300001588,-2.668644396658037e-05
0.4597938471800898,-7.789897462116932e-06,0.4597938471800898,-2.733954624910919e-05,0.4597938471800898,1.0393420050173091e-05,0.4597938471800898,-2.7221730974812156e-05
0.4605879643600209,-9.998917474470073e-06,0.4605879643600209,-2.774355681573321e-05,0.4605879643600209,1.341896066466762e-05,0.4605879643600209,-2.1598781852797117e-05
0.461382081539952,-1.3103926469145028e-05,0.461382081539952,-2.7646371710201325e-05,0.461382081539952,1.1089726469145028e-05,0.461382081539952,-1.2221621437240368e-05
0.4621761987198831,-1.0260993430067516e-05,0.4621761987198831,-2.692505088767019e-05,0.4621761987198831,6.866554401420771e-06,0.4621761987198831,-3.017121116454529e-06
0.4629703158998141,-8.857639634612856e-06,0.4629703158998141,-2.859378765320075e-05,0.4629703158998141,-8.464512177459763e-07,0.4629703158998141,-6.426169831336722e-07
0.4637644330797452,-4.7099618245902086e-06,0.4637644330797452,-2.544433672546838e-05,0.4637644330797452,-4.0385618245902085e-06,0.4637644330797452,8.888483987727864e-07
0.4645585502596763,-3.880346941562726e-06,0.4645585502596763,-2.623119111035892e-05,0.4645585502596763,-3.2089563512457296e-06,0.4645585502596763,-2.655271292753136e-06
0.4653526674396073,-3.958954986994328e-06,0.4653526674396073,-2.7894317809523867e-05,0.4653526674396073,-5.044260988513705e-06,0.4653526674396073,-9.713758073116714e-06
0.4661467846195384,-5.212842892835701e-06,0.4661467846195384,-2.63523e-05,0.4661467846195384,-7.55322e-06,0.4661467846195384,-1.612101928557134e-05
0.4669409017994695,-4.551351363617024e-06,0.4669409017994695,-2.528606050706216e-05,0.4669409017994695,-7.475534545531905e-06,0.4669409017994695,-2.169143694190083e-05
0.4677350189794005,-4.611158816770886e-06,0.4677350189794005,-2.5581062566821656e-05,0.4677350189794005,-2.876309897806042e-06,0.4677350189794005,-1.950279338340236e-05
0.4685291361593316,-5.814801375030538e-06,0.4685291361593316,-2.7240943721218403e-05,0.4685291361593316,3.602799413792152e-06,0.4685291361593316,-1.0723320797639306e-05
0.4693232533392627,-8.619564175945263e-06,0.4693232533392627,-2.5544511096245205e-05,0.4693232533392627,7.05958076274267e-06,0.4693232533392627,-1.460312099106946e-05
0.4701173705191938,-7.859105187480512e-06,0.4701173705191938,-2.516617495136828e-05,0.4701173705191938,7.296396746491345e-06,0.4701173705191938,-2.55240935744271e-05
0.4709114876991248,-6.15123905119911e-06,0.4709114876991248,-2.5720371982288252e-05,0.4709114876991248,5.005889525599555e-06,0.4709114876991248,-3.4784083320803115e-05
0.4717056048790559,-3.90037320935821e-06,0.4717056048790559,-2.465323741001573e-05,0.4717056048790559,4.33469018107925e-06,0.4717056048790559,-2.848798235403025e-05
0.472499722058987,-3.5246297810758624e-06,0.472499722058987,-2.601606066590718e-05,0.472499722058987,1.6797914558110923e-06,0.472499722058987,-1.2930006237235046e-05
0.473293839238918,-5.241966338740584e-06,0.473293839238918,-2.3942869566418707e-05,0.473293839238918,-8.585675794315346e-07,0.473293839238918,3.6551982372304976e-06
0.4740879564188491,-5.53903e-06,0.4740879564188491,-2.2520861766648477e-05,0.4740879564188491,-2.556677321960186e-06,0.4740879564188491,1.5684690001309694e-05
0.4748820735987802,-4.965222961377032e-06,0.4748820735987802,-2.29953e-05,0.4748820735987802,-7.611710494618281e-07,0.4748820735987802,1.750708705089985e-05
0.4756761907787112,-6.120938061416435e-06,0.4756761907787112,-2.1672273162871255e-05,0.4756761907787112,-1.67849e-07,0.4756761907787112,1.7169190748555244e-05
0.4764703079586423,-6.88182e-06,0.4764703079586423,-1.9953352495469605e-05,0.4764703079586423,-1.944645305953581e-06,0.4764703079586423,1.1054167872864087e-05
0.4772644251385734,-7.335762550490657e-06,0.4772644251385734,-2.2245667840809636e-05,0.4772644251385734,-1.866727940932276e-06,0.4772644251385734,-1.941480447640941e-06
0.4780585423185045,-7.878999253199548e-06,0.4780585423185045,-1.794348737842412e-05,0.4780585423185045,7.401330995079474e-07,0.4780585423185045,-1.5302059943579512e-05
0.4788526594984356,-9.438651901208723e-06,0.4788526594984356,-1.768195947615434e-05,0.4788526594984356,3.0672007044127306e-07,0.4788526594984356,-2.4711524365318383e-05
0.4796467766783666,-9.56741e-06,0.4796467766783666,-2.0506860473152363e-05,0.4796467766783666,-2.4185123910868107e-06,0.4796467766783666,-2.7477636195543405e-05
0.4804408938582977,-8.088701164139476e-06,0.4804408938582977,-2.248179433032086e-05,0.4804408938582977,-7.615838246043453e-07,0.4804408938582977,-2.6274637477586817e-05
0.4812350110382288,-6.64411638755409e-06,0.4812350110382288,-2.200958452389863e-05,0.4812350110382288,7.600119345736601e-07,0.4812350110382288,-2.50095e-05
0.4820291282181598,-7.079649123371701e-06,0.4820291282181598,-2.089219664034265e-05,0.4820291282181598,2.833453917752199e-06,0.4820291282181598,-2.3154196320040644e-05
0.4828232453980909,-5.933968455234172e-06,0.4828232453980909,-2.16526e-05,0.4828232453980909,2.675694634297486e-06,0.4828232453980909,-2.036904845523417e-05
0.483617362578022,-6.802930612653733e-06,0.483617362578022,-2.125721471075912e-05,0.483617362578022,2.1425953063268664e-06,0.483617362578022,-2.15342659189806e-05
0.484411479757953,-6.822650517226486e-06,0.484411479757953,-2.1968558872340757e-05,0.484411479757953,2.7151747413867565e-06,0.484411479757953,-2.2718769482773515e-05
0.4852055969378841,-4.097615823553326e-06,0.4852055969378841,-2.0823636431507325e-05,0.4852055969378841,3.52483e-06,0.4852055969378841,-2.4436714176446678e-05
0.4859997141178152,-5.538000272001695e-06,0.4859997141178152,-2.1652045256361608e-05,0.4859997141178152,2.3506108034640024e-06,0.4859997141178152,-2.3331823782398643e-05
0.4867938312977463,-4.917143476716747e-06,0.4867938312977463,-2.29953e-05,0.4867938312977463,-1.0155084776835518e-06,0.4867938312977463,-2.0034507813733977e-05
0.4875879484776773,-4.945487444879188e-06,0.4875879484776773,-2.1297528701432975e-05,0.4875879484776773,8.660400951372078e-07,0.4875879484776773,-1.96384e-05
0.4883820656576084,-6.171388083313675e-06,0.4883820656576084,-2.0389231553415355e-05,0.4883820656576084,9.407501276652842e-07,0.4883820656576084,-2.0348831916686325e-05
0.4891761828375395,-5.598688569241126e-06,0.4891761828375395,-2.0092594684011555e-05,0.4891761828375395,-2.871691597092088e-07,0.4891761828375395,-2.036946034643345e-05
0.4899703000174705,-5.361598850075403e-06,0.4899703000174705,-2.0655849154531448e-05,0.4899703000174705,2.8917593142902888e-06,0.4899703000174705,-1.772498195052782e-05
0.4907644171974016,-5.775495590839444e-06,0.4907644171974016,-1.817733890879495e-05,0.4907644171974016,2.51774e-06,0.4907644171974016,-1.4702132061152028e-05
0.4915585343773327,-7.493734777229578e-06,0.4915585343773327,-1.9517209084162984e-05,0.4915585343773327,3.7812169602979904e-06,0.4915585343773327,-1.2668013630360564e-05
0.4923526515572637,-8.461907945060426e-06,0.4923526515572637,-2.133785296513718e-05,0.4923526515572637,3.979178972530213e-06,0.4923526515572637,-1.1680002054939574e-05
0.4931467687371948,-5.973962596848973e-06,0.4931467687371948,-2.0566438275676872e-05,0.4931467687371948,2.063809537470323e-06,0.4931467687371948,-1.142538676229226e-05
0.4939408859171259,-5.855310680602159e-06,0.4939408859171259,-2.09812e-05,0.4939408859171259,2.537149897589607e-06,0.4939408859171259,-8.22461e-06
0.494735003097057,-5.667252231352029e-06,0.494735003097057,-2.0705005511209977e-05,0.494735003097057,4.007501198579776e-06,0.494735003097057,-8.22461e-06
0.495529120276988,-4.19623e-06,0.495529120276988,-1.9421146005751217e-05,0.495529120276988,6.506124952659987e-06,0.495529120276988,-9.03386371449499e-06
0.4963232374569191,-5.015735071555424e-06,0.4963232374569191,-2.111753763738221e-05,0.4963232374569191,6.8028226230906816e-06,0.4963232374569191,-1.2371485469046174e-05
0.4971173546368502,-6.151244359969707e-06,0.4971173546368502,-2.2797602218864368e-05,0.4971173546368502,2.201392665012657e-06,0.4971173546368502,-1.29244e-05
0.4979114718167812,-5.242886487440458e-06,0.4979114718167812,-2.29953e-05,0.4979114718167812,-1.2341004880774523e-06,0.4979114718167812,-1.4188087025119084e-05
0.4987055889967123,-3.426224493964821e-06,0.4987055889967123,-2.388600784011257e-05,0.4987055889967123,-1.51064e-06,0.4987055889967123,-1.3724838874129838e-05
0.4994997061766434,-4.195595007372988e-06,0.4994997061766434,-2.0982340249754356e-05,0.4994997061766434,-1.846128333689255e-06,0.4994997061766434,-1.1582129134250753e-05
0.5002938233565745,-8.301816831352178e-06,0.5002938233565745,-2.007286867508842e-05,0.5002938233565745,3.440849277923036e-07,0.5002938233565745,-1.1482567313552804e-05
0.5010879405365055,-6.923990972207406e-06,0.5010879405365055,-2.0587401513844516e-05,0.5010879405365055,1.84634e-06,0.5010879405365055,-1.0496659754161948e-05
0.5018820577164366,-5.023733572158712e-06,0.5018820577164366,-1.924376464197398e-05,0.5018820577164366,-2.849265047393035e-07,0.5018820577164366,-1.0316852367345124e-05
0.5026761748963677,-6.21042e-06,0.5026761748963677,-1.8364673128785044e-05,0.5026761748963677,-1.4509739328554957e-06,0.5026761748963677,-1.0082098201433514e-05
0.5034702920762988,-4.829328283145862e-06,0.5034702920762988,-1.76242e-05,0.5034702920762988,1.2515486199468175e-06,0.5034702920762988,-7.692338997597085e-06
0.5042644092562298,-4.76838077671472e-06,0.5042644092562298,-1.8926927045437e-05,0.5042644092562298,4.018163851143147e-06,0.5042644092562298,-7.453968428876603e-06
0.5050585264361609,-5.53903e-06,0.5050585264361609,-2.03098e-05,0.5050585264361609,3.900198281207738e-06,0.5050585264361609,-8.22461e-06
0.505852643616092,-6.169895301282087e-06,0.505852643616092,-2.3624752977603967e-05,0.505852643616092,2.51774e-06,0.505852643616092,-9.2114458833681e-06
0.506646760796023,-9.784878792221586e-06,0.506646760796023,-2.7220698834970127e-05,0.506646760796023,1.84634e-06,0.506646760796023,-9.094511081936147e-06
0.507440877975954,-8.108185590565944e-06,0.507440877975954,-2.8405805013469225e-05,0.507440877975954,1.0585158217743395e-06,0.507440877975954,-8.599118329151682e-06
0.5082349951558852,-5.697519597189364e-06,0.5082349951558852,-3.20569506306715e-05,0.5082349951558852,-1.3521494585630467e-06,0.5082349951558852,-9.744610402810635e-06
0.5090291123358163,-5.617948056745511e-06,0.5090291123358163,-3.46067365230557e-05,0.5090291123358163,3.846098408906154e-07,0.5090291123358163,-1.3851464139631454e-05
0.5098232295157473,-7.158282986188029e-06,0.5098232295157473,-2.9004541586573283e-05,0.5098232295157473,9.08375555344392e-07,0.5098232295157473,-1.3852540903316206e-05
0.5106173466956784,-6.88182e-06,0.5106173466956784,-1.0407247737191264e-05,0.5106173466956784,-7.800619955170971e-07,0.5106173466956784,-1.1176734522552076e-05
0.5114114638756094,-6.486973449281368e-06,0.5114114638756094,9.547504506051956e-06,0.5114114638756094,3.95648512440944e-08,0.5114114638756094,-1.2371293101437265e-05
0.5122055810555405,-5.776120226807784e-06,0.5122055810555405,5.7109651854543335e-06,0.5122055810555405,-7.406438770261825e-07,0.5122055810555405,-1.3793005420838435e-05
0.5129996982354716,-5.035806080532743e-06,0.5129996982354716,-1.4426704585563327e-05,0.5129996982354716,1.5093356856397867e-06,0.5129996982354716,-1.5944613064890854e-05
0.5137938154154027,-4.86763e-06,0.5137938154154027,-2.8564626587695388e-05,0.5137938154154027,4.138352887574045e-06,0.5137938154154027,-1.5907115258382698e-05
0.5145879325953338,-6.0814815233985046e-06,0.5145879325953338,-3.4528500319837926e-05,0.5145879325953338,-5.03548e-07,0.5145879325953338,-1.2906594922004988e-05
0.5153820497752648,-5.70687e-06,0.5153820497752648,-3.2356512202515055e-05,0.5153820497752648,2.002421802635655e-06,0.5153820497752648,-1.2331040901317827e-05
0.5161761669551959,-7.087011060721529e-06,0.5161761669551959,-2.812957215162399e-05,0.5161761669551959,2.0850271514227764e-06,0.5161761669551959,-1.4028512848577225e-05
0.5169702841351269,-7.534075868062541e-06,0.5169702841351269,-2.6569168755611e-05,0.5169702841351269,-1.4793521687092034e-06,0.5169702841351269,-1.4070640874492896e-05
0.5177644013150581,-7.197062471774337e-06,0.5177644013150581,-2.5780118909711112e-05,0.5177644013150581,-1.195397293458892e-06,0.5177644013150581,-1.2134771454370708e-05
0.5185585184949891,-8.22461e-06,0.5185585184949891,-2.3727336471016435e-05,0.5185585184949891,1.480092445824996e-07,0.5185585184949891,-1.2223237234573176e-05
0.5193526356749202,-3.565399096629025e-06,0.5193526356749202,-2.325232351431464e-05,0.5193526356749202,-4.645004498657059e-07,0.5193526356749202,-1.2529352107137853e-05
0.5201467528548512,-6.0119024644423736e-06,0.5201467528548512,-2.1455608429757457e-05,0.5201467528548512,2.2009969895068583e-06,0.5201467528548512,-1.2451524013990856e-05
0.5209408700347823,-6.8527223526567184e-06,0.5209408700347823,-1.9648098084357096e-05,0.5209408700347823,2.1044466204613757e-06,0.5209408700347823,-8.876611568437813e-06
0.5217349872147133,-6.762942450577033e-06,0.5217349872147133,-2.254894048262755e-05,0.5217349872147133,5.827992274574344e-07,0.5217349872147133,-9.842543862712828e-06
0.5225291043946444,-8.382449796742728e-06,0.5225291043946444,-2.263025684287123e-05,0.5225291043946444,1.4906195934854558e-06,0.5225291043946444,-1.0416660203257272e-05
0.5233232215745756,-8.343072586201824e-06,0.5233232215745756,-1.9581879080586307e-05,0.5233232215745756,1.6883338793027378e-06,0.5233232215745756,-1.2134537413798177e-05
0.5241173387545066,-8.451652839071366e-06,0.5241173387545066,-2.0328359729170198e-05,0.5241173387545066,2.8139781072857567e-06,0.5241173387545066,-1.15816e-05
0.5249114559344377,-4.818496940217428e-06,0.5249114559344377,-2.163284346279522e-05,0.5249114559344377,3.4161192039184858e-06,0.5249114559344377,-1.1976435084691269e-05
0.5257055731143687,-3.999036045188862e-06,0.5257055731143687,-2.115935184105284e-05,0.5257055731143687,4.729123954811139e-06,0.5257055731143687,-1.249010302259443e-05
0.5264996902942998,-4.531260676801142e-06,0.5264996902942998,-2.0645700324091632e-05,0.5264996902942998,5.20333e-06,0.5264996902942998,-1.1917523107732954e-05
0.5272938074742308,-6.920387542576047e-06,0.5272938074742308,-1.995429761426091e-05,0.5272938074742308,3.9595741524746514e-06,0.5272938074742308,-1.1108288304949302e-05
0.528087924654162,-5.779141845223706e-06,0.528087924654162,-2.096184411097848e-05,0.528087924654162,3.111328258150478e-06,0.528087924654162,-1.1443764717414643e-05
0.528882041834093,-2.892454717645256e-06,0.528882041834093,-2.025088518803454e-05,0.528882041834093,3.150125282354744e-06,0.528882041834093,-1.1924972040353554e-05
0.5296761590140241,-4.017199252003305e-06,0.5296761590140241,-1.900648284809212e-05,0.5296761590140241,1.4733275428337615e-06,0.5296761590140241,-1.4088167474299744e-05
0.5304702761939551,-4.177102024417427e-06,0.5304702761939551,-2.038701809547928e-05,0.5304702761939551,-2.756838555194701e-07,0.5304702761939551,-1.306355803662614e-05
0.5312643933738862,-2.221442742074663e-06,0.5312643933738862,-2.202729417144293e-05,0.5312643933738862,-3.0110486208013574e-06,0.5312643933738862,-1.2410610968298651e-05
0.5320585105538173,-3.7712253613302586e-06,0.5320585105538173,-2.2522078488782912e-05,0.5320585105538173,-3.2089850154603646e-06,0.5320585105538173,-1.545123514695e-05
0.5328526277337483,-4.748963828428628e-06,0.5328526277337483,-2.173127134917017e-05,0.5328526277337483,-2.202338514714117e-06,0.5328526277337483,-1.5847332343142745e-05
0.5336467449136795,-6.229359790465757e-06,0.5336467449136795,-2.22448464220247e-05,0.5336467449136795,-8.203033787906364e-07,0.5336467449136795,-1.4929097711747089e-05
0.5344408620936105,-8.540917301451462e-06,0.5344408620936105,-2.331121166179406e-05,0.5344408620936105,-6.005110305991508e-07,0.5344408620936105,-1.288561460290292e-05
0.5352349792735416,-7.45528990001927e-06,0.5352349792735416,-2.36667e-05,0.5352349792735416,-1.9255974203263552e-06,0.5352349792735416,-1.2509442579673646e-05
0.5360290964534726,-5.736922473545581e-06,0.5360290964534726,-2.2689477615177225e-05,0.5360290964534726,2.0330167925653125e-06,0.5360290964534726,-1.272650222809505e-05
0.5368232136334037,-5.894381670097277e-06,0.5368232136334037,-2.18204e-05,0.5368232136334037,3.011463282830832e-06,0.5368232136334037,-1.3783427247820392e-05
0.5376173308133347,-7.256987625728042e-06,0.5376173308133347,-2.2126245705115865e-05,0.5376173308133347,1.8858076257280424e-06,0.5376173308133347,-1.2499735251456083e-05
0.5384114479932659,-6.4869963813361215e-06,0.5384114479932659,-2.3271714978840287e-05,0.5384114479932659,1.1058000240639638e-06,0.5384114479932659,-1.35958e-05
0.539205565173197,-5.558986070297648e-06,0.539205565173197,-2.29371659087729e-05,0.539205565173197,2.9919575112162717e-06,0.539205565173197,-1.205581751121627e-05
0.539999682353128,-6.545204693040149e-06,0.539999682353128,-2.299499183969159e-05,0.539999682353128,1.51132648533223e-06,0.539999682353128,-1.258801351466777e-05
0.5407937995330591,-7.514666705917391e-06,0.5407937995330591,-2.109956971822805e-05,0.5407937995330591,5.03548e-07,0.5407937995330591,-1.35958e-05
0.5415879167129901,-6.270460900856843e-06,0.5415879167129901,-2.074224799823243e-05,0.5415879167129901,4.435068674224285e-07,0.5415879167129901,-1.1857259099143155e-05
0.5423820338929212,-6.6631469538943696e-06,0.5423820338929212,-2.3310411347337552e-05,0.5423820338929212,1.2884024777238378e-07,0.5423820338929212,-1.3021916651482629e-05
0.5431761510728523,-7.001186458555724e-06,0.5431761510728523,-2.443693367127088e-05,0.5431761510728523,-1.67849e-07,0.5431761510728523,-1.4729699808157618e-05
0.5439702682527834,-6.812232400620364e-06,0.5439702682527834,-2.287645848258069e-05,0.5439702682527834,9.558210134951757e-09,0.5439702682527834,-1.561e-05
0.5447643854327144,-8.717909526876565e-06,0.5447643854327144,-2.41016600018324e-05,0.5447643854327144,2.576036469864525e-06,0.5447643854327144,-1.4781000473123436e-05
0.5455585026126455,-7.020778786173156e-06,0.5455585026126455,-2.228555359435765e-05,0.5455585026126455,4.176378660355026e-06,0.5455585026126455,-1.5530594641420104e-05
0.5463526197925765,-4.976144047707464e-06,0.5463526197925765,-1.893040408610503e-05,0.5463526197925765,1.788615580587422e-06,0.5463526197925765,-1.76632025632462e-05
0.5471467369725076,-6.21042e-06,0.5471467369725076,-1.5975517454671233e-05,0.5471467369725076,-1.0756589482145292e-06,0.5471467369725076,-1.8375962347625853e-05
0.5479408541524387,-4.751308784300243e-06,0.5479408541524387,-1.975643290728678e-05,0.5479408541524387,-8.004722421831257e-07,0.5479408541524387,-1.3853952137861058e-05
0.5487349713323698,-3.3663060790552867e-06,0.5487349713323698,-2.16526e-05,0.5487349713323698,-6.807204262641418e-07,0.5487349713323698,-1.2716880235132305e-05
0.5495290885123009,-4.86763e-06,0.5495290885123009,-2.09812e-05,0.5495290885123009,-2.4976967106412047e-06,0.5495290885123009,-1.0634634569546608e-05
0.5503232056922319,-5.282167197680104e-06,0.5503232056922319,-2.1572814041854808e-05,0.5503232056922319,-1.9451616517276737e-06,0.5503232056922319,-9.172490148321322e-06
0.551117322872163,-7.513746641258308e-06,0.551117322872163,-2.2737845018411106e-05,0.551117322872163,1.9754194991540882e-07,0.551117322872163,-8.89601e-06
0.551911440052094,-6.427895694727157e-06,0.551911440052094,-2.2067361352704057e-05,0.551911440052094,-9.57468012884738e-07,0.551911440052094,-1.129499794127581e-05
0.5527055572320251,-5.1833582670671686e-06,0.5527055572320251,-2.2104542501408342e-05,0.5527055572320251,-7.40661075964821e-07,0.5527055572320251,-1.2055828977243775e-05
0.5534996744119562,-6.880881810366385e-06,0.5534996744119562,-2.517603108734053e-05,0.5534996744119562,-6.712797261211264e-07,0.5534996744119562,-1.091066909831024e-05
0.5542937915918873,-8.461254381497995e-06,0.5542937915918873,-2.256074374796445e-05,0.5542937915918873,2.495752440917043e-06,0.5542937915918873,-1.0475444381497997e-05
0.5550879087718184,-7.811142655891293e-06,0.5550879087718184,-1.7604854384008854e-05,0.5550879087718184,4.316334733768411e-06,0.5550879087718184,-1.15816e-05
0.5558820259517494,-6.959826503235598e-06,0.5558820259517494,-1.80776885318094e-05,0.5558820259517494,1.2919497548533973e-06,0.5558820259517494,-1.12068967483822e-05
0.5566761431316805,-7.277208949989e-06,0.5566761431316805,-2.169207259481757e-05,0.5566761431316805,3.010073150033e-06,0.5566761431316805,-9.806164021911617e-06
0.5574702603116115,-6.88182e-06,0.5574702603116115,-2.19883e-05,0.5574702603116115,4.570140185476155e-06,0.5574702603116115,-9.092517639107116e-06
0.5582643774915427,-6.052834261702033e-06,0.5582643774915427,-2.216559698262708e-05,0.5582643774915427,4.334944893181953e-06,0.5582643774915427,-1.2153682128181656e-05
0.5590584946714737,-6.48654937353656e-06,0.5590584946714737,-2.204896847040818e-05,0.5590584946714737,5.745649619231365e-06,0.5590584946714737,-1.2292714145317254e-05
0.5598526118514048,-7.119175275197498e-06,0.5598526118514048,-2.005276107613986e-05,0.5598526118514048,6.271421667930739e-06,0.5598526118514048,-1.29244e-05
0.5606467290313358,-5.302626405077639e-06,0.5606467290313358,-2.1336250372404216e-05,0.5606467290313358,7.021366833151581e-07,0.5606467290313358,-1.213479820253882e-05
0.5614408462112669,-5.58748250396483e-06,0.5614408462112669,-2.275827398677364e-05,0.5614408462112669,1.2330836975632472e-06,0.5614408462112669,-1.0948962465042165e-05
0.5622349633911979,-6.762916707377096e-06,0.5622349633911979,-2.29953e-05,0.5622349633911979,1.412746585245809e-06,0.5622349633911979,-1.312018682950838e-05
0.563029080571129,-7.375342634609436e-06,0.563029080571129,-2.23239e-05,0.563029080571129,9.970658138295503e-07,0.563029080571129,-1.2371997272367925e-05
0.5638231977510602,-7.711269370997573e-06,0.5638231977510602,-2.26197018942902e-05,0.5638231977510602,2.18204e-06,0.5638231977510602,-1.170002826193511e-05
0.5646173149309912,-6.88182e-06,0.5646173149309912,-2.29953e-05,0.5646173149309912,1.8858190917553487e-06,0.5646173149309912,-1.2993508150726576e-05
0.5654114321109223,-7.88891e-06,0.5654114321109223,-2.29953e-05,0.5654114321109223,1.0567433309902423e-06,0.5654114321109223,-1.566910068660906e-05
0.5662055492908533,-7.316099778364407e-06,0.5662055492908533,-2.2008881427842315e-05,0.5662055492908533,-1.8063793350932224e-06,0.5662055492908533,-1.3843521329813557e-05
0.5669996664707844,-7.55322e-06,0.5669996664707844,-2.16526e-05,0.5669996664707844,-1.8468205397324888e-06,0.5669996664707844,-1.2924039559414237e-05
0.5677937836507154,-4.355836757578782e-06,0.5677937836507154,-2.220552597179332e-05,0.5677937836507154,9.768196576798729e-07,0.5677937836507154,-1.4030561351515757e-05
0.5685879008306466,-3.938284250632606e-06,0.5685879008306466,-2.329231904104796e-05,0.5685879008306466,3.056666730047812e-07,0.5685879008306466,-1.0595716180624256e-05
0.5693820180105776,-5.383039925583397e-06,0.5693820180105776,-2.2265074777455188e-05,0.5693820180105776,2.3303912406979244e-06,0.5693820180105776,-1.3236380148833206e-05
0.5701761351905087,-4.19623e-06,0.5701761351905087,-2.28374418840462e-05,0.5701761351905087,5.260154238069482e-07,0.5701761351905087,-1.6438015987899868e-05
0.5709702523704397,-3.930134761513008e-06,0.5709702523704397,-2.16526e-05,0.5709702523704397,-1.51064e-06,0.5709702523704397,-1.3696822220394037e-05
0.5717643695503708,-3.495711541945975e-06,0.5717643695503708,-2.153440054697696e-05,0.5717643695503708,-1.2742769115407465e-06,0.5717643695503708,-1.0396376644032067e-05
0.5725584867303019,-2.221765611344862e-06,0.5725584867303019,-2.09812e-05,0.5725584867303019,9.177174928107038e-07,0.5725584867303019,-1.2173548777310276e-05
0.573352603910233,-5.064296517550203e-06,0.573352603910233,-2.0902544060375315e-05,0.573352603910233,8.39246e-07,0.573352603910233,-1.2312324008307324e-05
0.5741467210901641,-5.520135327541218e-06,0.5741467210901641,-1.987567763024236e-05,0.5741467210901641,2.200928193342441e-06,0.5741467210901641,-1.0583976492252925e-05
0.5749408382700951,-4.551305499507359e-06,0.5749408382700951,-2.0348893426737803e-05,0.5749408382700951,2.3917997149358483e-06,0.5749408382700951,-1.2014177497536794e-05
0.5757349554500262,-5.636898614091906e-06,0.5757349554500262,-2.330949975317484e-05,0.5757349554500262,-4.893783475174697e-08,0.5757349554500262,-1.4621501670161168e-05
0.5765290726299572,-7.21752e-06,0.5765290726299572,-2.4555384813339804e-05,0.5765290726299572,1.3327569138983922e-06,0.5765290726299572,-1.3053447393104226e-05
