X [s],L DELTOID ANTERIOR: EMG 3 [V],L DELTOID ANTERIOR: EMG 3->filter (FilterSlidingRMS57) [V]
0.000000e+000,0.000000e+000,0.000000e+000
7.941176e-004,0.000000e+000,0.000000e+000
1.588235e-003,0.000000e+000,0.000000e+000
2.382353e-003,0.000000e+000,0.000000e+000
3.176471e-003,0.000000e+000,0.000000e+000
3.970588e-003,0.000000e+000,0.000000e+000
4.764706e-003,0.000000e+000,0.000000e+000
5.558824e-003,0.000000e+000,0.000000e+000
6.352941e-003,0.000000e+000,0.000000e+000
7.147059e-003,0.000000e+000,0.000000e+000
7.941176e-003,0.000000e+000,0.000000e+000
8.735294e-003,0.000000e+000,0.000000e+000
9.529412e-003,0.000000e+000,0.000000e+000
1.032353e-002,0.000000e+000,0.000000e+000
1.111765e-002,0.000000e+000,0.000000e+000
1.191176e-002,0.000000e+000,0.000000e+000
1.270588e-002,0.000000e+000,0.000000e+000
1.350000e-002,0.000000e+000,0.000000e+000
1.429412e-002,0.000000e+000,0.000000e+000
1.508824e-002,0.000000e+000,0.000000e+000
1.588235e-002,0.000000e+000,0.000000e+000
1.667647e-002,0.000000e+000,0.000000e+000
1.747059e-002,0.000000e+000,0.000000e+000
1.826471e-002,0.000000e+000,0.000000e+000
1.905882e-002,0.000000e+000,0.000000e+000
1.985294e-002,0.000000e+000,0.000000e+000
2.064706e-002,0.000000e+000,0.000000e+000
2.144118e-002,0.000000e+000,0.000000e+000
2.223529e-002,0.000000e+000,0.000000e+000
2.302941e-002,0.000000e+000,0.000000e+000
2.382353e-002,0.000000e+000,0.000000e+000
2.461765e-002,0.000000e+000,0.000000e+000
2.541176e-002,0.000000e+000,0.000000e+000
2.620588e-002,0.000000e+000,0.000000e+000
2.700000e-002,0.000000e+000,0.000000e+000
2.779412e-002,0.000000e+000,0.000000e+000
2.858824e-002,0.000000e+000,0.000000e+000
2.938235e-002,0.000000e+000,0.000000e+000
3.017647e-002,0.000000e+000,0.000000e+000
3.097059e-002,0.000000e+000,0.000000e+000
3.176471e-002,0.000000e+000,0.000000e+000
3.255882e-002,0.000000e+000,0.000000e+000
3.335294e-002,0.000000e+000,0.000000e+000
3.414706e-002,0.000000e+000,0.000000e+000
3.494118e-002,0.000000e+000,0.000000e+000
3.573529e-002,0.000000e+000,0.000000e+000
3.652941e-002,0.000000e+000,0.000000e+000
3.732353e-002,0.000000e+000,0.000000e+000
3.811765e-002,0.000000e+000,0.000000e+000
3.891176e-002,0.000000e+000,0.000000e+000
3.970588e-002,0.000000e+000,0.000000e+000
4.050000e-002,0.000000e+000,0.000000e+000
4.129412e-002,0.000000e+000,0.000000e+000
4.208824e-002,0.000000e+000,0.000000e+000
4.288235e-002,0.000000e+000,0.000000e+000
4.367647e-002,0.000000e+000,0.000000e+000
4.447059e-002,0.000000e+000,0.000000e+000
4.526471e-002,0.000000e+000,0.000000e+000
4.605882e-002,0.000000e+000,0.000000e+000
4.685294e-002,0.000000e+000,0.000000e+000
4.764706e-002,0.000000e+000,0.000000e+000
4.844118e-002,0.000000e+000,0.000000e+000
4.923529e-002,0.000000e+000,0.000000e+000
5.002941e-002,0.000000e+000,0.000000e+000
5.082353e-002,0.000000e+000,0.000000e+000
5.161765e-002,0.000000e+000,0.000000e+000
5.241176e-002,0.000000e+000,0.000000e+000
5.320588e-002,0.000000e+000,0.000000e+000
5.400000e-002,0.000000e+000,0.000000e+000
5.479412e-002,0.000000e+000,0.000000e+000
5.558824e-002,0.000000e+000,0.000000e+000
5.638235e-002,0.000000e+000,0.000000e+000
5.717647e-002,0.000000e+000,0.000000e+000
5.797059e-002,0.000000e+000,0.000000e+000
5.876471e-002,0.000000e+000,0.000000e+000
5.955882e-002,0.000000e+000,0.000000e+000
6.035294e-002,0.000000e+000,0.000000e+000
6.114706e-002,0.000000e+000,0.000000e+000
6.194118e-002,0.000000e+000,0.000000e+000
6.273529e-002,0.000000e+000,0.000000e+000
6.352941e-002,0.000000e+000,0.000000e+000
6.432353e-002,0.000000e+000,0.000000e+000
6.511765e-002,0.000000e+000,0.000000e+000
6.591176e-002,0.000000e+000,0.000000e+000
6.670588e-002,0.000000e+000,0.000000e+000
6.750000e-002,0.000000e+000,0.000000e+000
6.829412e-002,0.000000e+000,0.000000e+000
6.908824e-002,0.000000e+000,0.000000e+000
6.988235e-002,0.000000e+000,0.000000e+000
7.067647e-002,0.000000e+000,0.000000e+000
7.147059e-002,0.000000e+000,0.000000e+000
7.226471e-002,0.000000e+000,0.000000e+000
7.305882e-002,0.000000e+000,0.000000e+000
7.385294e-002,0.000000e+000,0.000000e+000
7.464706e-002,0.000000e+000,0.000000e+000
7.544118e-002,0.000000e+000,0.000000e+000
7.623529e-002,0.000000e+000,0.000000e+000
7.702941e-002,0.000000e+000,0.000000e+000
7.782353e-002,0.000000e+000,0.000000e+000
7.861765e-002,0.000000e+000,0.000000e+000
7.941176e-002,0.000000e+000,0.000000e+000
8.020588e-002,0.000000e+000,0.000000e+000
8.100000e-002,0.000000e+000,0.000000e+000
8.179412e-002,0.000000e+000,0.000000e+000
8.258824e-002,0.000000e+000,0.000000e+000
8.338235e-002,0.000000e+000,0.000000e+000
8.417647e-002,0.000000e+000,0.000000e+000
8.497059e-002,0.000000e+000,0.000000e+000
8.576471e-002,0.000000e+000,0.000000e+000
8.655882e-002,0.000000e+000,0.000000e+000
8.735294e-002,0.000000e+000,0.000000e+000
8.814706e-002,0.000000e+000,0.000000e+000
8.894118e-002,0.000000e+000,0.000000e+000
8.973529e-002,0.000000e+000,0.000000e+000
9.052941e-002,0.000000e+000,0.000000e+000
9.132353e-002,0.000000e+000,0.000000e+000
9.211765e-002,0.000000e+000,0.000000e+000
9.291176e-002,0.000000e+000,0.000000e+000
9.370588e-002,0.000000e+000,0.000000e+000
9.450000e-002,-1.107805e-005,0.000000e+000
9.529412e-002,-7.553216e-006,0.000000e+000
9.608824e-002,-7.553216e-006,0.000000e+000
9.688235e-002,-7.888914e-006,0.000000e+000
9.767647e-002,-1.040665e-005,0.000000e+000
9.847059e-002,-1.191730e-005,0.000000e+000
9.926471e-002,-9.567407e-006,0.000000e+000
1.000588e-001,-9.735256e-006,0.000000e+000
1.008529e-001,-1.057450e-005,0.000000e+000
1.016471e-001,-1.225299e-005,0.000000e+000
1.024412e-001,-1.292439e-005,0.000000e+000
1.032353e-001,-1.359579e-005,0.000000e+000
1.040294e-001,-1.292439e-005,0.000000e+000
1.048235e-001,-1.225299e-005,0.000000e+000
1.056176e-001,-1.057450e-005,0.000000e+000
1.064118e-001,-1.023880e-005,0.000000e+000
1.072059e-001,-1.225299e-005,0.000000e+000
1.080000e-001,-1.158160e-005,0.000000e+000
1.087941e-001,-9.231709e-006,0.000000e+000
1.095882e-001,-8.896010e-006,0.000000e+000
1.103824e-001,-1.091020e-005,0.000000e+000
1.111765e-001,-1.158160e-005,0.000000e+000
1.119706e-001,-1.124590e-005,0.000000e+000
1.127647e-001,-8.896010e-006,0.000000e+000
1.135588e-001,-5.874723e-006,0.000000e+000
1.143529e-001,-3.189136e-006,0.000000e+000
1.151471e-001,-8.392462e-007,0.000000e+000
1.159412e-001,-1.678492e-007,0.000000e+000
1.167353e-001,-8.392462e-007,0.000000e+000
1.175294e-001,3.356985e-007,0.000000e+000
1.183235e-001,5.035477e-007,0.000000e+000
1.191176e-001,2.517739e-006,0.000000e+000
1.199118e-001,1.007095e-006,0.000000e+000
1.207059e-001,2.517739e-006,0.000000e+000
1.215000e-001,2.853437e-006,0.000000e+000
1.222941e-001,4.196231e-006,0.000000e+000
1.230882e-001,2.517739e-006,0.000000e+000
1.238824e-001,2.182040e-006,0.000000e+000
1.246765e-001,1.846342e-006,0.000000e+000
1.254706e-001,2.182040e-006,0.000000e+000
1.262647e-001,-3.356985e-007,0.000000e+000
1.270588e-001,-5.035477e-007,0.000000e+000
1.278529e-001,-1.678492e-007,0.000000e+000
1.286471e-001,1.007095e-006,0.000000e+000
1.294412e-001,-5.035477e-007,0.000000e+000
1.302353e-001,-2.853437e-006,0.000000e+000
1.310294e-001,-4.867628e-006,0.000000e+000
1.318235e-001,-6.210422e-006,0.000000e+000
1.326176e-001,-6.881819e-006,0.000000e+000
1.334118e-001,-8.896010e-006,0.000000e+000
1.342059e-001,-8.896010e-006,0.000000e+000
1.350000e-001,-6.881819e-006,0.000000e+000
1.357941e-001,-8.224612e-006,0.000000e+000
1.365882e-001,-6.378271e-006,0.000000e+000
1.373824e-001,-7.217518e-006,0.000000e+000
1.381765e-001,-9.567407e-006,0.000000e+000
1.389706e-001,-9.567407e-006,0.000000e+000
1.397647e-001,-1.057450e-005,0.000000e+000
1.405588e-001,-1.091020e-005,0.000000e+000
1.413529e-001,-1.124590e-005,0.000000e+000
1.421471e-001,-1.158160e-005,0.000000e+000
1.429412e-001,-9.063859e-006,0.000000e+000
1.437353e-001,-9.567407e-006,0.000000e+000
1.445294e-001,-9.231709e-006,0.000000e+000
1.453235e-001,-9.567407e-006,0.000000e+000
1.461176e-001,-9.567407e-006,0.000000e+000
1.469118e-001,-6.881819e-006,0.000000e+000
1.477059e-001,-6.881819e-006,0.000000e+000
1.485000e-001,-7.553216e-006,0.000000e+000
1.492941e-001,-5.874723e-006,0.000000e+000
1.500882e-001,-4.196231e-006,0.000000e+000
1.508824e-001,-4.196231e-006,0.000000e+000
1.516765e-001,-5.539025e-006,0.000000e+000
1.524706e-001,-3.692683e-006,0.000000e+000
1.532647e-001,-3.189136e-006,0.000000e+000
1.540588e-001,-7.217518e-006,0.000000e+000
1.548529e-001,-6.210422e-006,0.000000e+000
1.556471e-001,-5.874723e-006,0.000000e+000
1.564412e-001,-4.196231e-006,0.000000e+000
1.572353e-001,-5.539025e-006,0.000000e+000
1.580294e-001,-6.210422e-006,0.000000e+000
1.588235e-001,-6.881819e-006,0.000000e+000
1.596176e-001,-5.539025e-006,0.000000e+000
1.604118e-001,-6.210422e-006,0.000000e+000
1.612059e-001,-4.196231e-006,0.000000e+000
1.620000e-001,-6.881819e-006,0.000000e+000
1.627941e-001,-6.881819e-006,0.000000e+000
1.635882e-001,-4.867628e-006,0.000000e+000
1.643824e-001,-2.853437e-006,0.000000e+000
1.651765e-001,-6.881819e-006,0.000000e+000
1.659706e-001,-7.217518e-006,0.000000e+000
1.667647e-001,-7.553216e-006,0.000000e+000
1.675588e-001,-7.217518e-006,0.000000e+000
1.683529e-001,-7.049668e-006,0.000000e+000
1.691471e-001,-4.196231e-006,0.000000e+000
1.699412e-001,-4.531929e-006,0.000000e+000
1.707353e-001,-3.860533e-006,0.000000e+000
1.715294e-001,-5.539025e-006,0.000000e+000
1.723235e-001,-4.364080e-006,0.000000e+000
1.731176e-001,-2.853437e-006,0.000000e+000
1.739118e-001,-6.546120e-006,0.000000e+000
1.747059e-001,-5.539025e-006,0.000000e+000
1.755000e-001,-4.196231e-006,0.000000e+000
1.762941e-001,-6.210422e-006,0.000000e+000
1.770882e-001,-9.063859e-006,0.000000e+000
1.778824e-001,-6.546120e-006,0.000000e+000
1.786765e-001,-4.196231e-006,0.000000e+000
1.794706e-001,-7.217518e-006,0.000000e+000
1.802647e-001,-8.224612e-006,0.000000e+000
1.810588e-001,-7.217518e-006,0.000000e+000
1.818529e-001,-7.888914e-006,0.000000e+000
1.826471e-001,-6.546120e-006,0.000000e+000
1.834412e-001,-1.091020e-005,0.000000e+000
1.842353e-001,-7.721065e-006,0.000000e+000
1.850294e-001,-4.196231e-006,0.000000e+000
1.858235e-001,-4.531929e-006,0.000000e+000
1.866176e-001,-5.539025e-006,0.000000e+000
1.874118e-001,-5.539025e-006,0.000000e+000
1.882059e-001,-6.210422e-006,0.000000e+000
1.890000e-001,-2.853437e-006,0.000000e+000
1.897941e-001,-1.678492e-006,0.000000e+000
1.905882e-001,-4.196231e-006,0.000000e+000
1.913824e-001,-6.210422e-006,0.000000e+000
1.921765e-001,-5.874723e-006,0.000000e+000
1.929706e-001,-4.196231e-006,0.000000e+000
1.937647e-001,-4.196231e-006,0.000000e+000
1.945588e-001,-4.867628e-006,0.000000e+000
1.953529e-001,-2.182040e-006,0.000000e+000
1.961471e-001,-4.531929e-006,0.000000e+000
1.969412e-001,-5.539025e-006,0.000000e+000
1.977353e-001,-6.210422e-006,0.000000e+000
1.985294e-001,-2.182040e-006,0.000000e+000
1.993235e-001,-5.035477e-007,0.000000e+000
2.001176e-001,-3.524834e-006,0.000000e+000
2.009118e-001,-5.539025e-006,0.000000e+000
2.017059e-001,-4.364080e-006,0.000000e+000
2.025000e-001,-4.531929e-006,0.000000e+000
2.032941e-001,-4.867628e-006,0.000000e+000
2.040882e-001,-7.553216e-006,0.000000e+000
2.048824e-001,-6.210422e-006,0.000000e+000
2.056765e-001,-5.203327e-006,0.000000e+000
2.064706e-001,-2.182040e-006,0.000000e+000
2.072647e-001,-3.524834e-006,0.000000e+000
2.080588e-001,-5.035477e-006,0.000000e+000
2.088529e-001,-6.378271e-006,0.000000e+000
2.096471e-001,-5.539025e-006,0.000000e+000
2.104412e-001,-2.182040e-006,0.000000e+000
2.112353e-001,-2.182040e-006,0.000000e+000
2.120294e-001,-1.174945e-006,0.000000e+000
2.128235e-001,-2.853437e-006,0.000000e+000
2.136176e-001,-4.867628e-006,0.000000e+000
2.144118e-001,-2.853437e-006,0.000000e+000
2.152059e-001,-2.853437e-006,0.000000e+000
2.160000e-001,-1.846342e-006,0.000000e+000
2.167941e-001,-1.007095e-006,0.000000e+000
2.175882e-001,-2.853437e-006,0.000000e+000
2.183824e-001,-3.692683e-006,0.000000e+000
2.191765e-001,-3.189136e-006,0.000000e+000
2.199706e-001,-5.539025e-006,0.000000e+000
2.207647e-001,-7.217518e-006,0.000000e+000
2.215588e-001,-5.874723e-006,0.000000e+000
2.223529e-001,-9.567407e-006,0.000000e+000
2.231471e-001,-9.567407e-006,0.000000e+000
2.239412e-001,-7.049668e-006,0.000000e+000
2.247353e-001,-5.539025e-006,0.000000e+000
2.255294e-001,-9.903105e-006,0.000000e+000
2.263235e-001,-1.191730e-005,0.000000e+000
2.271176e-001,-1.158160e-005,0.000000e+000
2.279118e-001,-1.124590e-005,0.000000e+000
2.287059e-001,-1.158160e-005,0.000000e+000
2.295000e-001,-1.225299e-005,0.000000e+000
2.302941e-001,-1.023880e-005,0.000000e+000
2.310882e-001,-8.224612e-006,0.000000e+000
2.318824e-001,-5.539025e-006,0.000000e+000
2.326765e-001,-8.224612e-006,0.000000e+000
2.334706e-001,-6.881819e-006,0.000000e+000
2.342647e-001,-4.364080e-006,0.000000e+000
2.350588e-001,-8.224612e-006,0.000000e+000
2.358529e-001,-6.378271e-006,0.000000e+000
2.366471e-001,-5.874723e-006,0.000000e+000
2.374412e-001,-4.531929e-006,0.000000e+000
2.382353e-001,-4.196231e-006,0.000000e+000
2.390294e-001,-6.210422e-006,0.000000e+000
2.398235e-001,-7.888914e-006,0.000000e+000
2.406176e-001,-5.539025e-006,0.000000e+000
2.414118e-001,-3.524834e-006,0.000000e+000
2.422059e-001,-4.867628e-006,0.000000e+000
2.430000e-001,-6.210422e-006,0.000000e+000
2.437941e-001,-2.853437e-006,0.000000e+000
2.445882e-001,-4.196231e-006,0.000000e+000
2.453824e-001,-5.035477e-006,0.000000e+000
2.461765e-001,-4.867628e-006,0.000000e+000
2.469706e-001,-6.210422e-006,0.000000e+000
2.477647e-001,-6.881819e-006,0.000000e+000
2.485588e-001,-8.224612e-006,0.000000e+000
2.493529e-001,-5.874723e-006,5.441897e-006
2.501471e-001,-5.035477e-006,5.451987e-006
2.509412e-001,-5.203327e-006,5.459387e-006
2.517353e-001,-5.539025e-006,5.467278e-006
2.525294e-001,-3.860533e-006,5.476207e-006
2.533235e-001,-3.524834e-006,5.480539e-006
2.541176e-001,-4.196231e-006,5.484148e-006
2.549118e-001,-4.196231e-006,5.489258e-006
2.557059e-001,-3.524834e-006,5.494363e-006
2.565000e-001,-4.867628e-006,5.497963e-006
2.572941e-001,-5.706874e-006,5.504821e-006
2.580882e-001,-4.364080e-006,5.514234e-006
2.588824e-001,-4.867628e-006,5.519731e-006
2.596765e-001,-2.349889e-006,5.526562e-006
2.604706e-001,-1.510643e-006,5.528153e-006
2.612647e-001,-4.531929e-006,5.528811e-006
2.620588e-001,-4.867628e-006,5.534722e-006
2.628529e-001,-6.210422e-006,5.541535e-006
2.636471e-001,-8.224612e-006,5.552607e-006
2.644412e-001,-8.224612e-006,5.571972e-006
2.652353e-001,-9.735256e-006,5.591270e-006
2.660294e-001,-9.567407e-006,5.618197e-006
2.668235e-001,-8.896010e-006,5.644080e-006
2.676176e-001,-8.224612e-006,5.666364e-006
2.684118e-001,-1.023880e-005,5.685341e-006
2.692059e-001,-8.896010e-006,5.714628e-006
2.700000e-001,-9.567407e-006,5.736637e-006
2.707941e-001,-6.210422e-006,5.761990e-006
2.715882e-001,-6.881819e-006,5.772639e-006
2.723824e-001,-8.224612e-006,5.785688e-006
2.731765e-001,-4.867628e-006,5.804275e-006
2.739706e-001,-2.182040e-006,5.810772e-006
2.747647e-001,-5.035477e-006,5.812076e-006
2.755588e-001,-6.210422e-006,5.819019e-006
2.763529e-001,-8.896010e-006,5.829564e-006
2.771471e-001,-5.874723e-006,5.851141e-006
2.779412e-001,-2.182040e-006,5.860526e-006
2.787353e-001,-2.182040e-006,5.861819e-006
2.795294e-001,-2.182040e-006,5.863113e-006
2.803235e-001,-4.196231e-006,5.864406e-006
2.811176e-001,-1.846342e-006,5.869185e-006
2.819118e-001,-2.517739e-006,5.870110e-006
2.827059e-001,-2.182040e-006,5.871829e-006
2.835000e-001,-3.524834e-006,5.873120e-006
2.842941e-001,-4.196231e-006,5.876488e-006
2.850882e-001,-6.881819e-006,5.881257e-006
2.858824e-001,-8.224612e-006,5.894066e-006
2.866765e-001,-6.881819e-006,5.912313e-006
2.874706e-001,-4.867628e-006,5.925054e-006
2.882647e-001,-5.539025e-006,5.931418e-006
2.890588e-001,-5.203327e-006,5.939649e-006
2.898529e-001,-4.196231e-006,5.946903e-006
2.906471e-001,-5.539025e-006,5.951616e-006
2.914412e-001,-6.881819e-006,5.959819e-006
2.922353e-001,-1.023880e-005,5.972460e-006
2.930294e-001,-7.888914e-006,6.000345e-006
2.938235e-001,-2.517739e-006,6.016838e-006
2.946176e-001,-3.692683e-006,6.018515e-006
2.954118e-001,-6.881819e-006,6.022122e-006
2.962059e-001,-5.203327e-006,6.034632e-006
2.970000e-001,-4.531929e-006,6.041771e-006
2.977941e-001,-6.210422e-006,6.047182e-006
2.985882e-001,-3.021286e-006,6.057330e-006
2.993824e-001,-4.364080e-006,6.059729e-006
3.001765e-001,-4.531929e-006,6.064731e-006
3.009706e-001,-2.517739e-006,6.070122e-006
3.017647e-001,-3.860533e-006,6.071784e-006
3.025588e-001,-6.546120e-006,6.075692e-006
3.033529e-001,-4.196231e-006,6.086912e-006
3.041471e-001,-6.210422e-006,6.091517e-006
3.049412e-001,-8.224612e-006,6.101591e-006
3.057353e-001,-7.217518e-006,6.119219e-006
3.065294e-001,-5.706874e-006,6.132759e-006
3.073235e-001,-5.539025e-006,6.141210e-006
3.081176e-001,-9.567407e-006,6.149160e-006
3.089118e-001,-7.888914e-006,6.172818e-006
3.097059e-001,-6.881819e-006,6.188851e-006
3.105000e-001,-9.567407e-006,6.201025e-006
3.112941e-001,-9.063859e-006,6.224486e-006
3.120882e-001,-1.023880e-005,6.245467e-006
3.128824e-001,-9.231709e-006,6.272139e-006
3.136765e-001,-7.553216e-006,6.293738e-006
3.144706e-001,-4.867628e-006,6.308156e-006
3.152647e-001,-2.517739e-006,6.314134e-006
3.160588e-001,-2.182040e-006,6.315733e-006
3.168529e-001,-1.510643e-006,6.316933e-006
3.176471e-001,-3.524834e-006,6.317508e-006
3.184412e-001,-4.531929e-006,6.320639e-006
3.192353e-001,-3.189136e-006,6.325811e-006
3.200294e-001,-3.524834e-006,6.328371e-006
3.208235e-001,-6.546120e-006,6.331496e-006
3.216176e-001,-6.881819e-006,6.342264e-006
3.224118e-001,-4.196231e-006,6.354144e-006
3.232059e-001,-6.881819e-006,6.358555e-006
3.240000e-001,-5.874723e-006,6.370403e-006
3.247941e-001,-5.539025e-006,6.379024e-006
3.255882e-001,-7.553216e-006,6.386678e-006
3.263824e-001,-6.881819e-006,6.400886e-006
3.271765e-001,-5.539025e-006,6.412657e-006
3.279706e-001,-5.539025e-006,6.420271e-006
3.287647e-001,-5.539025e-006,6.427876e-006
3.295588e-001,-6.210422e-006,6.435472e-006
3.303529e-001,-5.203327e-006,6.445009e-006
3.311471e-001,-6.210422e-006,6.451694e-006
3.319412e-001,-7.217518e-006,6.461207e-006
3.327353e-001,-8.560311e-006,6.474032e-006
3.335294e-001,-8.224612e-006,6.492031e-006
3.343235e-001,-6.881819e-006,6.508601e-006
3.351176e-001,-5.874723e-006,6.520178e-006
3.359118e-001,-4.531929e-006,6.528601e-006
3.367059e-001,-6.210422e-006,6.533608e-006
3.375000e-001,-4.196231e-006,6.543002e-006
3.382941e-001,-6.546120e-006,6.547285e-006
3.390882e-001,-9.567407e-006,6.557699e-006
3.398824e-001,-9.063859e-006,6.579889e-006
3.406765e-001,-1.023880e-005,6.599740e-006
3.414706e-001,-9.735256e-006,6.624985e-006
3.422647e-001,-6.210422e-006,6.647726e-006
3.430588e-001,-2.853437e-006,6.656959e-006
3.438529e-001,-2.517739e-006,6.658906e-006
3.446471e-001,-1.678492e-007,6.631016e-006
3.454412e-001,-1.678492e-007,6.617309e-006
3.462353e-001,-2.349889e-006,6.603573e-006
3.470294e-001,-1.510643e-006,6.589883e-006
3.478235e-001,-8.392462e-007,6.564216e-006
3.486176e-001,-1.510643e-006,6.529845e-006
3.494118e-001,-6.042573e-006,6.508043e-006
3.502059e-001,-6.210422e-006,6.493772e-006
3.510000e-001,-2.517739e-006,6.475785e-006
3.517941e-001,-1.846342e-006,6.440329e-006
3.525882e-001,-5.203327e-006,6.399744e-006
3.533824e-001,-6.881819e-006,6.360367e-006
3.541765e-001,-4.196231e-006,6.330334e-006
3.549706e-001,-4.196231e-006,6.296909e-006
3.557647e-001,-3.189136e-006,6.273039e-006
3.565588e-001,-4.196231e-006,6.248964e-006
3.573529e-001,-3.524834e-006,6.215102e-006
3.581471e-001,-4.196231e-006,6.183840e-006
3.589412e-001,-1.846342e-006,6.166404e-006
3.597353e-001,-4.364080e-006,6.146817e-006
3.605294e-001,-5.874723e-006,6.120860e-006
3.613235e-001,-6.881819e-006,6.094889e-006
3.621176e-001,-7.553216e-006,6.074185e-006
3.629118e-001,-1.258869e-005,6.068391e-006
3.637059e-001,-1.326009e-005,6.100833e-006
3.645000e-001,-8.224612e-006,6.143919e-006
3.652941e-001,-7.888914e-006,6.161244e-006
3.660882e-001,-8.896010e-006,6.177300e-006
3.668824e-001,-7.049668e-006,6.197486e-006
3.676765e-001,-6.546120e-006,6.210213e-006
3.684706e-001,-5.539025e-006,6.221126e-006
3.692647e-001,-7.217518e-006,6.227353e-006
3.700588e-001,-6.210422e-006,6.240401e-006
3.708529e-001,-4.867628e-006,6.248619e-006
3.716471e-001,-2.853437e-006,6.252581e-006
3.724412e-001,-3.860533e-006,6.250170e-006
3.732353e-001,-6.881819e-006,6.252352e-006
3.740294e-001,-8.896010e-006,6.263191e-006
3.748235e-001,-6.546120e-006,6.282415e-006
3.756176e-001,-7.217518e-006,6.292062e-006
3.764118e-001,-8.224612e-006,6.305203e-006
3.772059e-001,-6.210422e-006,6.322200e-006
3.780000e-001,-6.881819e-006,6.331899e-006
3.787941e-001,-8.560311e-006,6.343544e-006
3.795882e-001,-7.553216e-006,6.361848e-006
3.803824e-001,-7.721065e-006,6.374078e-006
3.811765e-001,-7.553216e-006,6.383045e-006
3.819706e-001,-6.881819e-006,6.387655e-006
3.827647e-001,-7.217518e-006,6.387655e-006
3.835588e-001,-7.385367e-006,6.380909e-006
3.843529e-001,-6.210422e-006,6.374768e-006
3.851471e-001,-7.553216e-006,6.372572e-006
3.859412e-001,-8.224612e-006,6.369924e-006
3.867353e-001,-7.888914e-006,6.376661e-006
3.875294e-001,-5.539025e-006,6.379193e-006
3.883235e-001,-4.196231e-006,6.363984e-006
3.891176e-001,-2.853437e-006,6.345459e-006
3.899118e-001,-6.546120e-006,6.319389e-006
3.907059e-001,-6.546120e-006,6.300163e-006
3.915000e-001,-3.860533e-006,6.278994e-006
3.922941e-001,-5.035477e-007,6.248684e-006
3.930882e-001,-3.524834e-006,6.227778e-006
3.938824e-001,-4.867628e-006,6.207517e-006
3.946765e-001,-6.210422e-006,6.191714e-006
3.954706e-001,-2.853437e-006,6.178077e-006
3.962647e-001,-6.378271e-006,6.156546e-006
3.970588e-001,-5.539025e-006,6.154818e-006
3.978529e-001,-5.874723e-006,6.150502e-006
3.986471e-001,-6.210422e-006,6.144664e-006
3.994412e-001,-2.853437e-006,6.145715e-006
4.002353e-001,-4.196231e-006,6.143262e-006
4.010294e-001,-6.881819e-006,6.143262e-006
4.018235e-001,-2.182040e-006,6.147583e-006
4.026176e-001,-1.510643e-006,6.145284e-006
4.034118e-001,-6.546120e-006,6.143240e-006
4.042059e-001,-5.203327e-006,6.140844e-006
4.050000e-001,-2.517739e-006,6.137863e-006
4.057941e-001,-2.182040e-006,6.130550e-006
4.065882e-001,-5.539025e-006,6.127212e-006
4.073824e-001,-7.553216e-006,6.127212e-006
4.081765e-001,-7.553216e-006,6.132013e-006
4.089706e-001,-6.042573e-006,6.134529e-006
4.097647e-001,-7.553216e-006,6.136043e-006
4.105588e-001,-8.224612e-006,6.140837e-006
4.113529e-001,-6.546120e-006,6.153798e-006
4.121471e-001,-6.210422e-006,6.152632e-006
4.129412e-001,-4.867628e-006,6.150356e-006
4.137353e-001,-4.196231e-006,6.150356e-006
4.145294e-001,-6.881819e-006,6.152806e-006
4.153235e-001,-7.553216e-006,6.152806e-006
4.161176e-001,-4.867628e-006,6.154090e-006
4.169118e-001,-2.853437e-006,6.145453e-006
4.177059e-001,-5.539025e-006,6.134054e-006
4.185000e-001,-7.049668e-006,6.129115e-006
4.192941e-001,-4.196231e-006,6.137446e-006
4.200882e-001,-3.524834e-006,6.136686e-006
4.208824e-001,-9.231709e-006,6.136043e-006
4.216765e-001,-8.224612e-006,6.150181e-006
4.224706e-001,-6.210422e-006,6.162751e-006
4.232647e-001,-5.539025e-006,6.170608e-006
4.240588e-001,-4.364080e-006,6.167467e-006
4.248529e-001,-4.867628e-006,6.164462e-006
4.256471e-001,-5.539025e-006,6.166033e-006
4.264412e-001,-4.867628e-006,6.163996e-006
4.272353e-001,-3.692683e-006,6.148875e-006
4.280294e-001,-2.517739e-006,6.141305e-006
4.288235e-001,-4.196231e-006,6.138382e-006
4.296176e-001,-6.881819e-006,6.129430e-006
4.304118e-001,-6.546120e-006,6.124158e-006
4.312059e-001,-5.539025e-006,6.121755e-006
4.320000e-001,-3.524834e-006,6.113542e-006
4.327941e-001,-5.874723e-006,6.105611e-006
4.335882e-001,-8.224612e-006,6.083528e-006
4.343824e-001,-5.539025e-006,6.085630e-006
4.351765e-001,-3.524834e-006,6.089049e-006
4.359706e-001,-4.196231e-006,6.086927e-006
4.367647e-001,-4.196231e-006,6.083506e-006
4.375588e-001,-5.539025e-006,6.080083e-006
4.383529e-001,-4.196231e-006,6.078017e-006
4.391471e-001,-4.867628e-006,6.080497e-006
4.399412e-001,-4.196231e-006,6.085962e-006
4.407353e-001,-5.539025e-006,6.085962e-006
4.415294e-001,-7.553216e-006,6.083897e-006
4.423235e-001,-7.553216e-006,6.089793e-006
4.431176e-001,-5.539025e-006,6.100098e-006
4.439118e-001,-7.553216e-006,6.103509e-006
4.447059e-001,-8.896010e-006,6.112206e-006
4.455000e-001,-5.706874e-006,6.131552e-006
4.462941e-001,-7.553216e-006,6.134675e-006
4.470882e-001,-8.224612e-006,6.141517e-006
4.478824e-001,-7.217518e-006,6.149050e-006
4.486765e-001,-1.023880e-005,6.161295e-006
4.494706e-001,-1.023880e-005,6.188264e-006
4.502647e-001,-6.546120e-006,6.211997e-006
4.510588e-001,-8.224612e-006,6.215116e-006
4.518529e-001,-6.881819e-006,6.227555e-006
4.526471e-001,-5.706874e-006,6.234409e-006
4.534412e-001,-5.874723e-006,6.236676e-006
4.542353e-001,-1.678492e-006,6.230919e-006
4.550294e-001,-3.356985e-007,6.221775e-006
4.558235e-001,-2.853437e-006,6.214871e-006
4.566176e-001,-3.189136e-006,6.215737e-006
4.574118e-001,-4.196231e-006,6.215160e-006
4.582059e-001,-3.692683e-006,6.213174e-006
4.590000e-001,-2.853437e-006,6.206239e-006
4.597941e-001,-4.867628e-006,6.200453e-006
4.605882e-001,-2.182040e-006,6.205314e-006
4.613824e-001,-4.531929e-006,6.205314e-006
4.621765e-001,-6.881819e-006,6.210228e-006
4.629706e-001,-6.210422e-006,6.220275e-006
4.637647e-001,-4.196231e-006,6.224082e-006
4.645588e-001,-7.888914e-006,6.226504e-006
4.653529e-001,-7.217518e-006,6.240322e-006
4.661471e-001,-8.224612e-006,6.252732e-006
4.669412e-001,-8.728161e-006,6.269678e-006
4.677353e-001,-8.392462e-006,6.286934e-006
4.685294e-001,-8.224612e-006,6.301304e-006
4.693235e-001,-6.881819e-006,6.315810e-006
4.701176e-001,-4.867628e-006,6.320014e-006
4.709118e-001,-6.881819e-006,6.312855e-006
4.717059e-001,-3.189136e-006,6.316095e-006
4.725000e-001,-2.517739e-006,6.295548e-006
4.732941e-001,-2.182040e-006,6.273962e-006
4.740882e-001,-1.510643e-006,6.262547e-006
4.748824e-001,-3.524834e-006,6.255322e-006
4.756765e-001,-4.867628e-006,6.233482e-006
4.764706e-001,-2.182040e-006,6.203181e-006
4.772647e-001,-2.853437e-006,6.169882e-006
4.780588e-001,-2.182040e-006,6.139267e-006
4.788529e-001,-4.196231e-006,6.105619e-006
4.796471e-001,-3.189136e-006,6.070957e-006
4.804412e-001,-5.539025e-006,6.046077e-006
4.812353e-001,-6.546120e-006,6.036334e-006
4.820294e-001,-6.546120e-006,6.039544e-006
4.828235e-001,-7.721065e-006,6.033004e-006
4.836176e-001,-8.224612e-006,6.036237e-006
4.844118e-001,-6.881819e-006,6.049044e-006
4.852059e-001,-6.210422e-006,6.043702e-006
4.860000e-001,-5.539025e-006,6.043144e-006
4.867941e-001,-7.888914e-006,6.042135e-006
4.875882e-001,-8.560311e-006,6.053113e-006
4.883824e-001,-8.560311e-006,6.067741e-006
4.891765e-001,-7.553216e-006,6.076843e-006
4.899706e-001,-9.231709e-006,6.075484e-006
4.907647e-001,-1.225299e-005,6.089763e-006
4.915588e-001,-1.023880e-005,6.125666e-006
4.923529e-001,-8.392462e-006,6.146722e-006
4.931471e-001,-9.735256e-006,6.154971e-006
4.939412e-001,-8.896010e-006,6.177343e-006
4.947353e-001,-1.057450e-005,6.193184e-006
4.955294e-001,-6.881819e-006,6.215375e-006
4.963235e-001,-5.539025e-006,6.221435e-006
4.971176e-001,-6.378271e-006,6.219416e-006
4.979118e-001,-6.881819e-006,6.217706e-006
4.987059e-001,-5.539025e-006,6.212509e-006
4.995000e-001,-5.539025e-006,6.211527e-006
5.002941e-001,-4.531929e-006,6.212892e-006
5.010882e-001,-4.196231e-006,6.211216e-006
5.018824e-001,-4.867628e-006,6.207864e-006
5.026765e-001,-8.392462e-007,6.210118e-006
5.034706e-001,-2.182040e-006,6.207113e-006
5.042647e-001,-1.510643e-006,6.203816e-006
5.050588e-001,-2.853437e-006,6.199880e-006
5.058529e-001,-5.539025e-006,6.198780e-006
5.066471e-001,-6.210422e-006,6.200575e-006
5.074412e-001,-7.553216e-006,6.202116e-006
5.082353e-001,-6.210422e-006,6.211866e-006
5.090294e-001,-5.874723e-006,6.215678e-006
5.098235e-001,-7.217518e-006,6.223101e-006
5.106176e-001,-4.531929e-006,6.235833e-006
5.114118e-001,-4.531929e-006,6.235833e-006
5.122059e-001,-6.210422e-006,6.235027e-006
5.130000e-001,-5.539025e-006,6.235027e-006
5.137941e-001,-5.874723e-006,6.225580e-006
5.145882e-001,-7.049668e-006,6.217100e-006
5.153824e-001,-5.203327e-006,6.205544e-006
5.161765e-001,-5.874723e-006,6.188981e-006
5.169706e-001,-5.539025e-006,6.177488e-006
5.177647e-001,-4.867628e-006,6.167953e-006
5.185588e-001,-5.539025e-006,6.146970e-006
5.193529e-001,-5.874723e-006,6.134404e-006
5.201471e-001,-7.217518e-006,6.119584e-006
5.209412e-001,-7.553216e-006,6.123102e-006
5.217353e-001,-9.567407e-006,6.125622e-006
5.225294e-001,-7.553216e-006,6.131829e-006
5.233235e-001,-7.553216e-006,6.140486e-006
5.241176e-001,-7.888914e-006,6.154030e-006
5.249118e-001,-1.023880e-005,6.163566e-006
5.257059e-001,-9.567407e-006,6.180661e-006
5.265000e-001,-6.881819e-006,6.183854e-006
5.272941e-001,-7.217518e-006,6.187161e-006
5.280882e-001,-5.539025e-006,6.199331e-006
5.288824e-001,-4.364080e-006,6.205985e-006
5.296765e-001,-4.531929e-006,6.209649e-006
5.304706e-001,-4.196231e-006,6.210400e-006
5.312647e-001,-4.196231e-006,6.214040e-006
5.320588e-001,-5.035477e-006,6.216927e-006
5.328529e-001,-3.189136e-006,6.222199e-006
5.336471e-001,-3.189136e-006,6.221623e-006
5.344412e-001,-2.182040e-006,6.219719e-006
5.352353e-001,-1.510643e-006,6.208803e-006
5.360294e-001,-4.531929e-006,6.192017e-006
5.368235e-001,-4.867628e-006,6.185116e-006
5.376176e-001,-2.853437e-006,6.185116e-006
5.384118e-001,-5.874723e-006,6.179311e-006
5.392059e-001,-4.196231e-006,6.181227e-006
5.400000e-001,-5.539025e-006,6.181227e-006
5.407941e-001,-4.867628e-006,6.181227e-006
5.415882e-001,-1.678492e-007,6.175128e-006
5.423824e-001,-1.174945e-006,6.148043e-006
5.431765e-001,-1.510643e-006,6.132261e-006
5.439706e-001,-2.182040e-006,6.131208e-006
5.447647e-001,-6.210422e-006,6.128902e-006
5.455588e-001,-7.217518e-006,6.126618e-006
5.463529e-001,-8.224612e-006,6.133117e-006
5.471471e-001,-8.224612e-006,6.145335e-006
5.479412e-001,-9.903105e-006,6.152864e-006
5.487353e-001,-9.231709e-006,6.175840e-006
5.495294e-001,-6.881819e-006,6.192879e-006
5.503235e-001,-7.217518e-006,6.199772e-006
5.511176e-001,-6.881819e-006,6.211512e-006
5.519118e-001,-5.203327e-006,6.219827e-006
5.527059e-001,-4.867628e-006,6.215786e-006
5.535000e-001,-5.874723e-006,6.217345e-006
5.542941e-001,-7.217518e-006,6.216306e-006
5.550882e-001,-7.553216e-006,6.212321e-006
5.558824e-001,-7.217518e-006,6.213592e-006
5.566765e-001,-5.539025e-006,6.218594e-006
5.574706e-001,-5.539025e-006,6.218593e-006
5.582647e-001,-4.867628e-006,6.202991e-006
5.590588e-001,-5.706874e-006,6.193090e-006
5.598529e-001,-6.881819e-006,6.189285e-006
5.606471e-001,-6.210422e-006,6.177910e-006
5.614412e-001,-6.881819e-006,6.166666e-006
5.622353e-001,-8.056763e-006,6.151807e-006
5.630294e-001,-8.560311e-006,6.146547e-006
5.638235e-001,-8.224612e-006,6.150749e-006
5.646176e-001,-6.881819e-006,6.162117e-006
5.654118e-001,-6.881819e-006,6.172708e-006
5.662059e-001,-6.881819e-006,6.183687e-006
5.670000e-001,-6.881819e-006,6.195284e-006
5.677941e-001,-8.896010e-006,6.204257e-006
5.685882e-001,-8.224612e-006,6.219279e-006
5.693824e-001,-5.539025e-006,6.233977e-006
5.701765e-001,-4.196231e-006,6.238638e-006
5.709706e-001,-6.210422e-006,6.232192e-006
5.717647e-001,-5.539025e-006,6.229946e-006
5.725588e-001,-4.531929e-006,6.233286e-006
5.733529e-001,-6.210422e-006,6.226431e-006
5.741471e-001,-7.553216e-006,6.227468e-006
5.749412e-001,-4.196231e-006,6.234207e-006
5.757353e-001,-6.210422e-006,6.224124e-006
5.765294e-001,-6.546120e-006,6.221875e-006
5.773235e-001,-3.524834e-006,6.224989e-006
5.781176e-001,-2.517739e-006,6.220317e-006
5.789118e-001,-5.203327e-006,6.214083e-006
5.797059e-001,-3.860533e-006,6.211137e-006
5.805000e-001,-4.531929e-006,6.208016e-006
5.812941e-001,-6.210422e-006,6.203389e-006
5.820882e-001,-5.035477e-006,6.199917e-006
5.828824e-001,-4.196231e-006,6.187596e-006
5.836765e-001,-3.189136e-006,6.174706e-006
5.844706e-001,-4.867628e-006,6.165109e-006
5.852647e-001,-7.553216e-006,6.162314e-006
5.860588e-001,-8.896010e-006,6.171741e-006
5.868529e-001,-6.881819e-006,6.182200e-006
5.876471e-001,-5.874723e-006,6.189858e-006
5.884412e-001,-4.531929e-006,6.187712e-006
5.892353e-001,-3.356985e-006,6.169415e-006
5.900294e-001,-4.196231e-006,6.151092e-006
5.908235e-001,-4.531929e-006,6.128470e-006
5.916176e-001,-5.539025e-006,6.109151e-006
5.924118e-001,-7.553216e-006,6.107095e-006
5.932059e-001,-1.510643e-006,6.119834e-006
5.940000e-001,-1.510643e-006,6.118778e-006
5.947941e-001,-3.524834e-006,6.119365e-006
5.955882e-001,-4.196231e-006,6.122590e-006
5.963824e-001,-6.546120e-006,6.125732e-006
5.971765e-001,-6.210422e-006,6.136269e-006
5.979706e-001,-6.042573e-006,6.146087e-006
5.987647e-001,-6.881819e-006,6.154949e-006
5.995588e-001,-8.224612e-006,6.157755e-006
6.003529e-001,-7.217518e-006,6.165269e-006
6.011471e-001,-7.553216e-006,6.177074e-006
6.019412e-001,-4.867628e-006,6.190887e-006
6.027353e-001,-5.539025e-006,6.190017e-006
6.035294e-001,-7.217518e-006,6.185725e-006
6.043235e-001,-6.881819e-006,6.194596e-006
6.051176e-001,-6.378271e-006,6.202240e-006
6.059118e-001,-6.881819e-006,6.210068e-006
6.067059e-001,-7.049668e-006,6.217692e-006
6.075000e-001,-8.896010e-006,6.227231e-006
6.082941e-001,-5.203327e-006,6.242944e-006
6.090882e-001,-4.196231e-006,6.248978e-006
6.098824e-001,-6.210422e-006,6.248611e-006
6.106765e-001,-5.539025e-006,6.249645e-006
6.114706e-001,-4.867628e-006,6.245394e-006
6.122647e-001,-6.881819e-006,6.236884e-006
6.130588e-001,-6.881819e-006,6.208450e-006
6.138529e-001,-4.867628e-006,6.175411e-006
6.146471e-001,-3.860533e-006,6.164068e-006
6.154412e-001,-4.196231e-006,6.151829e-006
6.162353e-001,-5.539025e-006,6.135881e-006
6.170294e-001,-5.539025e-006,6.130944e-006
6.178235e-001,-5.203327e-006,6.127782e-006
6.186176e-001,-6.881819e-006,6.126846e-006
6.194118e-001,-6.210422e-006,6.125615e-006
6.202059e-001,-9.903105e-006,6.125615e-006
6.210000e-001,-9.735256e-006,6.144920e-006
6.217941e-001,-1.091020e-005,6.167328e-006
6.225882e-001,-1.292439e-005,6.194155e-006
6.233824e-001,-8.224612e-006,6.224846e-006
6.241765e-001,-8.896010e-006,6.221905e-006
6.249706e-001,-7.888914e-006,6.231185e-006
6.257647e-001,-8.896010e-006,6.233776e-006
6.265588e-001,-8.896010e-006,6.236711e-006
6.273529e-001,-7.888914e-006,6.247061e-006
6.281471e-001,-4.867628e-006,6.250852e-006
6.289412e-001,-4.196231e-006,6.238207e-006
6.297353e-001,-7.553216e-006,6.228131e-006
6.305294e-001,-7.553216e-006,6.227475e-006
6.313235e-001,-4.196231e-006,6.227475e-006
6.321176e-001,-8.392462e-007,6.219863e-006
6.329118e-001,1.846342e-006,6.206693e-006
6.337059e-001,1.846342e-006,6.193561e-006
6.345000e-001,-1.678492e-007,6.184514e-006
6.352941e-001,-8.392462e-007,6.169815e-006
6.360882e-001,-1.510643e-006,6.152514e-006
6.368824e-001,-1.174945e-006,6.136978e-006
6.376765e-001,-2.853437e-006,6.129370e-006
6.384706e-001,-2.517739e-006,6.126911e-006
6.392647e-001,-2.853437e-006,6.126442e-006
6.400588e-001,-5.874723e-006,6.117414e-006
6.408529e-001,-5.539025e-006,6.115243e-006
6.416471e-001,-7.049668e-006,6.119350e-006
6.424412e-001,-8.224612e-006,6.132202e-006
6.432353e-001,-7.217518e-006,6.146524e-006
6.440294e-001,-5.706874e-006,6.153877e-006
6.448235e-001,-6.881819e-006,6.152324e-006
6.456176e-001,-7.888914e-006,6.162466e-006
6.464118e-001,-8.560311e-006,6.168033e-006
6.472059e-001,-4.867628e-006,6.179021e-006
6.480000e-001,-4.196231e-006,6.176232e-006
6.487941e-001,-2.182040e-006,6.170826e-006
6.495882e-001,-1.678492e-007,6.169953e-006
6.503824e-001,-2.182040e-006,6.165415e-006
6.511765e-001,-4.531929e-006,6.154402e-006
6.519706e-001,-4.196231e-006,6.158483e-006
6.527647e-001,-6.210422e-006,6.162445e-006
6.535588e-001,-8.224612e-006,6.161338e-006
6.543529e-001,-8.224612e-006,6.171814e-006
6.551471e-001,-8.896010e-006,6.187611e-006
6.559412e-001,-9.063859e-006,6.206722e-006
6.567353e-001,-8.224612e-006,6.219914e-006
6.575294e-001,-5.539025e-006,6.222625e-006
6.583235e-001,-6.881819e-006,6.215873e-006
6.591176e-001,-8.896010e-006,6.218651e-006
6.599118e-001,-8.560311e-006,6.224305e-006
6.607059e-001,-7.553216e-006,6.225746e-006
6.615000e-001,-6.210422e-006,6.229377e-006
6.622941e-001,-3.524834e-006,6.229377e-006
6.630882e-001,-3.692683e-006,6.226495e-006
6.638824e-001,-6.210422e-006,6.225479e-006
6.646765e-001,-6.881819e-006,6.223231e-006
6.654706e-001,-7.217518e-006,6.220750e-006
6.662647e-001,-7.217518e-006,6.228016e-006
6.670588e-001,-1.023880e-005,6.239242e-006
6.678529e-001,-8.560311e-006,6.258138e-006
6.686471e-001,-5.706874e-006,6.264136e-006
6.694412e-001,-5.539025e-006,6.267937e-006
6.702353e-001,-5.539025e-006,6.272574e-006
6.710294e-001,-5.539025e-006,6.258712e-006
6.718235e-001,-6.210422e-006,6.249301e-006
6.726176e-001,-5.539025e-006,6.249301e-006
6.734118e-001,-6.546120e-006,6.249301e-006
6.742059e-001,-7.721065e-006,6.255364e-006
6.750000e-001,-5.539025e-006,6.264501e-006
6.757941e-001,-6.881819e-006,6.264501e-006
6.765882e-001,-5.874723e-006,6.270514e-006
6.773824e-001,-4.196231e-006,6.275813e-006
6.781765e-001,-2.853437e-006,6.278672e-006
6.789706e-001,-4.867628e-006,6.276271e-006
6.797647e-001,-5.539025e-006,6.270263e-006
6.805588e-001,-5.539025e-006,6.267172e-006
6.813529e-001,-3.524834e-006,6.267172e-006
6.821471e-001,-4.867628e-006,6.267172e-006
6.829412e-001,-4.867628e-006,6.264423e-006
6.837353e-001,-7.553216e-006,6.253241e-006
6.845294e-001,-6.546120e-006,6.259952e-006
6.853235e-001,-6.210422e-006,6.267687e-006
6.861176e-001,-8.560311e-006,6.273010e-006
6.869118e-001,-1.091020e-005,6.287126e-006
6.877059e-001,-9.567407e-006,6.309463e-006
6.885000e-001,-1.057450e-005,6.328093e-006
6.892941e-001,-8.224612e-006,6.350230e-006
6.900882e-001,-6.881819e-006,6.362764e-006
6.908824e-001,-7.888914e-006,6.366937e-006
6.916765e-001,-7.888914e-006,6.368233e-006
6.924706e-001,-6.881819e-006,6.369529e-006
6.932647e-001,-5.539025e-006,6.373697e-006
6.940588e-001,-4.867628e-006,6.367105e-006
6.948529e-001,-2.349889e-006,6.353224e-006
6.956471e-001,-1.678492e-006,6.346442e-006
6.964412e-001,-2.182040e-006,6.332819e-006
6.972353e-001,-3.524834e-006,6.316988e-006
6.980294e-001,-3.692683e-006,6.306981e-006
6.988235e-001,-5.539025e-006,6.283914e-006
6.996176e-001,-4.196231e-006,6.265095e-006
7.004118e-001,-2.182040e-006,6.258676e-006
7.012059e-001,-1.510643e-006,6.242657e-006
7.020000e-001,-4.196231e-006,6.231148e-006
7.027941e-001,-4.196231e-006,6.227323e-006
7.035882e-001,-3.021286e-006,6.222999e-006
7.043824e-001,-2.853437e-006,6.224614e-006
7.051765e-001,-4.196231e-006,6.226668e-006
7.059706e-001,-2.853437e-006,6.229088e-006
7.067647e-001,-3.021286e-006,6.228569e-006
7.075588e-001,-4.196231e-006,6.226401e-006
7.083529e-001,-4.531929e-006,6.227417e-006
7.091471e-001,-4.531929e-006,6.230586e-006
7.099412e-001,-3.021286e-006,6.229780e-006
7.107353e-001,-3.524834e-006,6.230895e-006
7.115294e-001,-4.196231e-006,6.228821e-006
7.123235e-001,-3.524834e-006,6.221211e-006
7.131176e-001,-5.035477e-006,6.214516e-006
7.139118e-001,-9.567407e-006,6.216500e-006
7.147059e-001,-1.057450e-005,6.224001e-006
7.155000e-001,-1.225299e-005,6.239263e-006
7.162941e-001,-8.224612e-006,6.260281e-006
7.170882e-001,-6.546120e-006,6.258109e-006
7.178824e-001,-9.231709e-006,6.251087e-006
7.186765e-001,-1.091020e-005,6.255564e-006
7.194706e-001,-8.224612e-006,6.273782e-006
7.202647e-001,-1.023880e-005,6.284927e-006
7.210588e-001,-1.023880e-005,6.299472e-006
7.218529e-001,-9.903105e-006,6.323355e-006
7.226471e-001,-1.057450e-005,6.346414e-006
7.234412e-001,-1.191730e-005,6.373219e-006
7.242353e-001,-1.326009e-005,6.408038e-006
7.250294e-001,-1.393149e-005,6.448515e-006
7.258235e-001,-1.359579e-005,6.490454e-006
7.266176e-001,-1.023880e-005,6.534487e-006
7.274118e-001,-9.735256e-006,6.558006e-006
7.282059e-001,-9.567407e-006,6.579826e-006
7.290000e-001,-7.217518e-006,6.597693e-006
7.297941e-001,-7.553216e-006,6.607803e-006
7.305882e-001,-8.560311e-006,6.614155e-006
7.313824e-001,-9.903105e-006,6.621476e-006
7.321765e-001,-8.224612e-006,6.634742e-006
7.329706e-001,-6.546120e-006,6.636669e-006
7.337647e-001,-6.881819e-006,6.630718e-006
7.345588e-001,-8.896010e-006,6.630718e-006
7.353529e-001,-7.217518e-006,6.640453e-006
7.361471e-001,-5.539025e-006,6.645585e-006
7.369412e-001,-6.881819e-006,6.638020e-006
7.377353e-001,-6.210422e-006,6.631800e-006
7.385294e-001,-3.860533e-006,6.623461e-006
7.393235e-001,-2.853437e-006,6.613320e-006
7.401176e-001,-1.678492e-007,6.594734e-006
7.409118e-001,-3.524834e-006,6.558389e-006
7.417059e-001,-3.524834e-006,6.535914e-006
7.425000e-001,-4.867628e-006,6.521765e-006
7.432941e-001,-3.524834e-006,6.504387e-006
7.440882e-001,-1.510643e-006,6.488034e-006
7.448824e-001,-4.196231e-006,6.461094e-006
7.456765e-001,-4.531929e-006,6.453758e-006
7.464706e-001,-1.007095e-006,6.451255e-006
7.472647e-001,-1.678492e-007,6.441456e-006
7.480588e-001,-1.510643e-006,6.429745e-006
7.488529e-001,-1.510643e-006,6.422708e-006
7.496471e-001,-5.035477e-007,6.415663e-006
7.504412e-001,-2.853437e-006,6.410627e-006
7.512353e-001,-5.539025e-006,6.408275e-006
7.520294e-001,-3.692683e-006,6.410011e-006
7.528235e-001,-4.196231e-006,6.413223e-006
7.536176e-001,-4.867628e-006,6.416412e-006
7.544118e-001,-2.853437e-006,6.421723e-006
7.552059e-001,1.678492e-007,6.421723e-006
7.560000e-001,-8.392462e-007,6.414118e-006
7.567941e-001,-5.035477e-007,6.404711e-006
7.575882e-001,-2.182040e-006,6.390574e-006
7.583824e-001,-3.021286e-006,6.382145e-006
7.591765e-001,-1.510643e-006,6.375808e-006
7.599706e-001,5.035477e-007,6.363356e-006
7.607647e-001,5.035477e-007,6.358278e-006
7.615588e-001,-1.846342e-006,6.353196e-006
7.623529e-001,-8.392462e-007,6.344377e-006
7.631471e-001,-4.531929e-006,6.336849e-006
7.639412e-001,-7.049668e-006,6.333336e-006
7.647353e-001,-6.881819e-006,6.333336e-006
7.655294e-001,-3.189136e-006,6.338435e-006
7.663235e-001,-5.539025e-006,6.332316e-006
7.671176e-001,-8.224612e-006,6.332316e-006
7.679118e-001,-7.553216e-006,6.343359e-006
7.687059e-001,-5.874723e-006,6.349975e-006
7.695000e-001,-5.539025e-006,6.349975e-006
7.702941e-001,-6.881819e-006,6.344603e-006
7.710882e-001,-8.560311e-006,6.342171e-006
7.718824e-001,-7.888914e-006,6.337585e-006
7.726765e-001,-1.091020e-005,6.338887e-006
7.734706e-001,-1.023880e-005,6.354438e-006
7.742647e-001,-7.553216e-006,6.365105e-006
7.750588e-001,-8.224612e-006,6.353139e-006
7.758529e-001,-8.560311e-006,6.347148e-006
7.766471e-001,-6.881819e-006,6.353648e-006
7.774412e-001,-6.546120e-006,6.352462e-006
7.782353e-001,-6.378271e-006,6.355512e-006
7.790294e-001,-6.210422e-006,6.360930e-006
7.798235e-001,-8.560311e-006,6.365442e-006
7.806176e-001,-7.721065e-006,6.379354e-006
7.814118e-001,-6.881819e-006,6.389830e-006
7.822059e-001,-6.881819e-006,6.395311e-006
7.830000e-001,-8.896010e-006,6.404564e-006
7.837941e-001,-7.553216e-006,6.421689e-006
7.845882e-001,-7.217518e-006,6.434642e-006
7.853824e-001,-7.553216e-006,6.446956e-006
7.861765e-001,-4.196231e-006,6.455969e-006
7.869706e-001,-3.860533e-006,6.454467e-006
7.877647e-001,-6.210422e-006,6.456135e-006
7.885588e-001,-8.896010e-006,6.457136e-006
7.893529e-001,-9.567407e-006,6.472292e-006
7.901471e-001,-8.224612e-006,6.487247e-006
7.909412e-001,-9.063859e-006,6.498025e-006
7.917353e-001,-8.224612e-006,6.518119e-006
7.925294e-001,-6.881819e-006,6.534287e-006
7.933235e-001,-6.881819e-006,6.545263e-006
7.941176e-001,-4.867628e-006,6.555619e-006
7.949118e-001,-4.867628e-006,6.552004e-006
7.957059e-001,-5.874723e-006,6.545099e-006
7.965000e-001,-5.203327e-006,6.537033e-006
7.972941e-001,-8.896010e-006,6.527143e-006
7.980882e-001,-7.553216e-006,6.522523e-006
7.988824e-001,-6.881819e-006,6.515641e-006
7.996765e-001,-5.539025e-006,6.515641e-006
8.004706e-001,-3.524834e-006,6.510407e-006
8.012647e-001,-6.210422e-006,6.501857e-006
8.020588e-001,-4.364080e-006,6.504671e-006
8.028529e-001,-4.531929e-006,6.503533e-006
8.036471e-001,-3.860533e-006,6.500110e-006
8.044412e-001,-3.524834e-006,6.490994e-006
8.052353e-001,-5.539025e-006,6.480037e-006
8.060294e-001,-4.531929e-006,6.474773e-006
8.068235e-001,-4.196231e-006,6.472279e-006
8.076176e-001,-4.196231e-006,6.469062e-006
8.084118e-001,-4.196231e-006,6.467564e-006
8.092059e-001,-5.539025e-006,6.463879e-006
8.100000e-001,-5.203327e-006,6.459769e-006
8.107941e-001,-5.539025e-006,6.456935e-006
8.115882e-001,-5.874723e-006,6.452820e-006
8.123824e-001,-8.224612e-006,6.445315e-006
8.131765e-001,-9.567407e-006,6.443922e-006
8.139706e-001,-8.224612e-006,6.449824e-006
8.147647e-001,-4.196231e-006,6.454829e-006
8.155588e-001,-4.531929e-006,6.447486e-006
8.163529e-001,-7.553216e-006,6.440859e-006
8.171471e-001,-7.553216e-006,6.443254e-006
8.179412e-001,-8.224612e-006,6.437793e-006
8.187353e-001,-8.896010e-006,6.437793e-006
8.195294e-001,-6.546120e-006,6.449768e-006
8.203235e-001,-4.867628e-006,6.455997e-006
8.211176e-001,-5.539025e-006,6.452327e-006
8.219118e-001,-4.196231e-006,6.452327e-006
8.227059e-001,-8.392462e-007,6.451604e-006
8.235000e-001,-4.531929e-006,6.442252e-006
8.242941e-001,-4.867628e-006,6.433220e-006
8.250882e-001,-4.531929e-006,6.434726e-006
8.258824e-001,-6.881819e-006,6.430263e-006
8.266765e-001,-6.210422e-006,6.431379e-006
8.274706e-001,-7.888914e-006,6.437849e-006
8.282647e-001,-5.203327e-006,6.451659e-006
8.290588e-001,-5.874723e-006,6.451659e-006
8.298529e-001,-5.874723e-006,6.456497e-006
8.306471e-001,-4.196231e-006,6.459943e-006
8.314412e-001,-2.517739e-006,6.454774e-006
8.322353e-001,-3.189136e-006,6.450080e-006
8.330294e-001,-6.210422e-006,6.448244e-006
8.338235e-001,-6.210422e-006,6.455253e-006
8.346176e-001,-5.035477e-006,6.458922e-006
8.354118e-001,-4.867628e-006,6.451103e-006
8.362059e-001,-4.867628e-006,6.437403e-006
8.370000e-001,-2.853437e-006,6.431546e-006
8.377941e-001,-3.524834e-006,6.425014e-006
8.385882e-001,-5.539025e-006,6.423003e-006
8.393824e-001,-5.539025e-006,6.427813e-006
8.401765e-001,-6.210422e-006,6.431051e-006
8.409706e-001,-5.539025e-006,6.435514e-006
8.417647e-001,-6.881819e-006,6.435514e-006
8.425588e-001,-7.217518e-006,6.433115e-006
8.433529e-001,-4.867628e-006,6.445433e-006
8.441471e-001,-4.196231e-006,6.450721e-006
8.449412e-001,-3.860533e-006,6.452000e-006
8.457353e-001,-2.182040e-006,6.451332e-006
8.465294e-001,-4.531929e-006,6.441924e-006
8.473235e-001,-2.853437e-006,6.437465e-006
8.481176e-001,-4.196231e-006,6.430444e-006
8.489118e-001,-6.881819e-006,6.423073e-006
8.497059e-001,-6.378271e-006,6.418042e-006
8.505000e-001,-6.210422e-006,6.415210e-006
8.512941e-001,-4.364080e-006,6.410621e-006
8.520882e-001,-4.531929e-006,6.409466e-006
8.528824e-001,-6.881819e-006,6.406946e-006
8.536765e-001,-7.217518e-006,6.405769e-006
8.544706e-001,-8.560311e-006,6.406946e-006
8.552647e-001,-9.567407e-006,6.415042e-006
8.560588e-001,-8.560311e-006,6.425998e-006
8.568529e-001,-8.896010e-006,6.431839e-006
8.576471e-001,-5.203327e-006,6.431839e-006
8.584412e-001,-4.196231e-006,6.431839e-006
8.592353e-001,-6.042573e-006,6.431839e-006
8.600294e-001,-8.224612e-006,6.431330e-006
8.608235e-001,-5.539025e-006,6.440475e-006
8.616176e-001,-4.531929e-006,6.442202e-006
8.624118e-001,-5.874723e-006,6.435570e-006
8.632059e-001,-5.874723e-006,6.432390e-006
8.640000e-001,-6.210422e-006,6.435067e-006
8.647941e-001,-5.539025e-006,6.440921e-006
8.655882e-001,-4.364080e-006,6.444152e-006
8.663824e-001,-6.210422e-006,6.441276e-006
8.671765e-001,-3.021286e-006,6.443226e-006
8.679706e-001,-2.182040e-006,6.438789e-006
8.687647e-001,-3.189136e-006,6.428246e-006
8.695588e-001,-4.867628e-006,6.421207e-006
8.703529e-001,-4.867628e-006,6.402736e-006
8.711471e-001,-2.349889e-006,6.385034e-006
8.719412e-001,-1.510643e-006,6.356662e-006
8.727353e-001,-5.203327e-006,6.315255e-006
8.735294e-001,-3.021286e-006,6.305017e-006
8.743235e-001,-3.524834e-006,6.287311e-006
8.751176e-001,-4.867628e-006,6.274684e-006
8.759118e-001,-1.510643e-006,6.260597e-006
8.767059e-001,-1.174945e-006,6.241018e-006
8.775000e-001,-2.853437e-006,6.225472e-006
8.782941e-001,-5.539025e-006,6.221493e-006
8.790882e-001,-5.874723e-006,6.224838e-006
8.798824e-001,-6.881819e-006,6.219070e-006
8.806765e-001,-7.049668e-006,6.216588e-006
8.814706e-001,-9.231709e-006,6.224802e-006
8.822647e-001,-9.903105e-006,6.246386e-006
8.830588e-001,-1.225299e-005,6.270471e-006
8.838529e-001,-1.292439e-005,6.307621e-006
8.846471e-001,-1.158160e-005,6.349644e-006
8.854412e-001,-8.224612e-006,6.383017e-006
8.862353e-001,-5.539025e-006,6.399302e-006
8.870294e-001,-5.874723e-006,6.406588e-006
8.878235e-001,-6.881819e-006,6.413140e-006
8.886176e-001,-5.706874e-006,6.423317e-006
8.894118e-001,-8.224612e-006,6.429369e-006
8.902059e-001,-8.560311e-006,6.437569e-006
8.910000e-001,-6.210422e-006,6.448098e-006
8.917941e-001,-6.546120e-006,6.445349e-006
8.925882e-001,-8.896010e-006,6.439221e-006
8.933824e-001,-9.567407e-006,6.445906e-006
8.941765e-001,-9.903105e-006,6.460456e-006
8.949706e-001,-4.531929e-006,6.472943e-006
8.957647e-001,-3.860533e-006,6.462678e-006
8.965588e-001,-6.881819e-006,6.448279e-006
8.973529e-001,-5.706874e-006,6.454120e-006
8.981471e-001,-2.853437e-006,6.457810e-006
8.989412e-001,-5.203327e-006,6.458644e-006
8.997353e-001,-5.706874e-006,6.465308e-006
9.005294e-001,-4.867628e-006,6.472153e-006
9.013235e-001,-3.524834e-006,6.472930e-006
9.021176e-001,-5.203327e-006,6.471655e-006
9.029118e-001,-3.524834e-006,6.468826e-006
9.037059e-001,-2.853437e-006,6.455218e-006
9.045000e-001,-6.881819e-006,6.440524e-006
9.052941e-001,-5.203327e-006,6.432662e-006
9.060882e-001,-5.874723e-006,6.419013e-006
9.068824e-001,-8.392462e-006,6.410789e-006
9.076765e-001,-5.539025e-006,6.420655e-006
9.084706e-001,-4.531929e-006,6.416517e-006
9.092647e-001,-4.867628e-006,6.401958e-006
9.100588e-001,-5.539025e-006,6.389613e-006
9.108529e-001,-4.364080e-006,6.383038e-006
9.116471e-001,-5.874723e-006,6.378166e-006
9.124412e-001,-5.539025e-006,6.383678e-006
9.132353e-001,-7.049668e-006,6.387928e-006
9.140294e-001,-4.196231e-006,6.390702e-006
9.148235e-001,-3.524834e-006,6.383284e-006
9.156176e-001,-6.881819e-006,6.373381e-006
9.164118e-001,-6.881819e-006,6.372199e-006
9.172059e-001,-4.196231e-006,6.357820e-006
9.180000e-001,-3.021286e-006,6.343862e-006
9.187941e-001,-4.867628e-006,6.337975e-006
9.195882e-001,-6.881819e-006,6.336220e-006
9.203824e-001,-6.881819e-006,6.340410e-006
9.211765e-001,-4.531929e-006,6.344597e-006
9.219706e-001,-6.210422e-006,6.340070e-006
9.227647e-001,-7.049668e-006,6.342051e-006
9.235588e-001,-9.735256e-006,6.343770e-006
9.243529e-001,-9.231709e-006,6.352589e-006
9.251471e-001,-8.560311e-006,6.366246e-006
9.259412e-001,-6.210422e-006,6.372727e-006
9.267353e-001,-7.553216e-006,6.373740e-006
9.275294e-001,-4.867628e-006,6.383587e-006
9.283235e-001,-2.853437e-006,6.387465e-006
9.291176e-001,-3.189136e-006,6.383587e-006
9.299118e-001,-4.867628e-006,6.378469e-006
9.307059e-001,-5.035477e-006,6.376724e-006
9.315000e-001,-6.210422e-006,6.379953e-006
9.322941e-001,-5.035477e-006,6.383664e-006
9.330882e-001,-4.867628e-006,6.384079e-006
9.338824e-001,-2.182040e-006,6.375753e-006
9.346765e-001,-2.182040e-006,6.366233e-006
9.354706e-001,-4.196231e-006,6.357771e-006
9.362647e-001,-7.553216e-006,6.343813e-006
9.370588e-001,-8.392462e-006,6.328236e-006
9.378529e-001,-7.553216e-006,6.322924e-006
9.386471e-001,-5.539025e-006,6.309116e-006
9.394412e-001,-5.539025e-006,6.299780e-006
9.402353e-001,-6.546120e-006,6.295562e-006
9.410294e-001,-6.881819e-006,6.290658e-006
9.418235e-001,-7.553216e-006,6.286891e-006
9.426176e-001,-3.189136e-006,6.289345e-006
9.434118e-001,-5.874723e-006,6.284150e-006
9.442059e-001,-7.888914e-006,6.286892e-006
9.450000e-001,-7.888914e-006,6.301239e-006
9.457941e-001,-6.210422e-006,6.316237e-006
9.465882e-001,-4.531929e-006,6.324754e-006
9.473824e-001,-5.539025e-006,6.326797e-006
9.481765e-001,-2.853437e-006,6.331085e-006
9.489706e-001,-1.846342e-006,6.325414e-006
9.497647e-001,-5.539025e-006,6.321838e-006
9.505588e-001,-4.867628e-006,6.328364e-006
9.513529e-001,-8.224612e-006,6.333749e-006
9.521471e-001,-6.881819e-006,6.346316e-006
9.529412e-001,-7.888914e-006,6.353776e-006
9.537353e-001,-4.196231e-006,6.367072e-006
9.545294e-001,-6.546120e-006,6.369439e-006
9.553235e-001,-6.881819e-006,6.375747e-006
9.561176e-001,-4.196231e-006,6.385534e-006
9.569118e-001,-4.867628e-006,6.387648e-006
9.577059e-001,-4.531929e-006,6.389165e-006
9.585000e-001,-3.524834e-006,6.389165e-006
9.592941e-001,-4.196231e-006,6.387142e-006
9.600882e-001,-5.539025e-006,6.389256e-006
9.608824e-001,-6.546120e-006,6.393805e-006
9.616765e-001,-5.539025e-006,6.400088e-006
9.624706e-001,-4.867628e-006,6.404629e-006
9.632647e-001,-4.867628e-006,6.404216e-006
9.640588e-001,-4.196231e-006,6.387325e-006
9.648529e-001,-3.860533e-006,6.363794e-006
9.656471e-001,-5.539025e-006,6.329866e-006
9.664412e-001,-6.546120e-006,6.320561e-006
9.672353e-001,-6.210422e-006,6.320561e-006
9.680294e-001,-3.189136e-006,6.308796e-006
9.688235e-001,-3.189136e-006,6.281259e-006
9.696176e-001,-6.210422e-006,6.266671e-006
9.704118e-001,-4.531929e-006,6.249811e-006
9.712059e-001,-6.210422e-006,6.228297e-006
9.720000e-001,-7.385367e-006,6.213065e-006
9.727941e-001,-7.217518e-006,6.198368e-006
9.735882e-001,-7.553216e-006,6.175222e-006
9.743824e-001,-8.896010e-006,6.144518e-006
9.751765e-001,-7.888914e-006,6.114656e-006
9.759706e-001,-8.392462e-006,6.082643e-006
9.767647e-001,-7.049668e-006,6.073631e-006
9.775588e-001,-6.881819e-006,6.061801e-006
9.783529e-001,-9.231709e-006,6.050185e-006
9.791471e-001,-9.567407e-006,6.058899e-006
9.799412e-001,-4.867628e-006,6.067955e-006
9.807353e-001,-4.196231e-006,6.054929e-006
9.815294e-001,-4.531929e-006,6.033731e-006
9.823235e-001,-2.853437e-006,6.021287e-006
9.831176e-001,-2.853437e-006,6.012101e-006
9.839118e-001,-1.007095e-006,6.001705e-006
9.847059e-001,-5.539025e-006,5.980941e-006
9.855000e-001,-5.539025e-006,5.975237e-006
9.862941e-001,-5.539025e-006,5.975237e-006
9.870882e-001,-4.531929e-006,5.970791e-006
9.878824e-001,-4.196231e-006,5.965981e-006
9.886765e-001,-6.210422e-006,5.966702e-006
9.894706e-001,-5.203327e-006,5.974817e-006
9.902647e-001,-4.364080e-006,5.982021e-006
9.910588e-001,-5.539025e-006,5.983783e-006
9.918529e-001,-5.203327e-006,5.988639e-006
9.926471e-001,-5.539025e-006,5.989538e-006
9.934412e-001,-6.881819e-006,5.994390e-006
9.942353e-001,-5.539025e-006,6.006352e-006
9.950294e-001,-5.539025e-006,6.009817e-006
9.958235e-001,-8.896010e-006,6.012503e-006
9.966176e-001,-5.874723e-006,6.033159e-006
9.974118e-001,-4.867628e-006,6.042254e-006
9.982059e-001,-3.860533e-006,6.047894e-006
9.990000e-001,-4.867628e-006,6.051216e-006
9.997941e-001,-4.196231e-006,6.057381e-006
1.000588e+000,-2.853437e-006,6.059869e-006
1.001382e+000,-2.853437e-006,6.053944e-006
1.002176e+000,-4.196231e-006,6.052499e-006
1.002971e+000,-6.210422e-006,6.052499e-006
1.003765e+000,-7.553216e-006,6.056411e-006
1.004559e+000,-6.881819e-006,6.069256e-006
1.005353e+000,-6.210422e-006,6.081662e-006
1.006147e+000,-6.210422e-006,6.091568e-006
1.006941e+000,-8.224612e-006,6.101575e-006
1.007735e+000,-6.546120e-006,6.117964e-006
1.008529e+000,-3.524834e-006,6.126736e-006
1.009324e+000,-1.846342e-006,6.129371e-006
1.010118e+000,-4.867628e-006,6.130190e-006
1.010912e+000,-7.553216e-006,6.136276e-006
1.011706e+000,-4.531929e-006,6.150181e-006
1.012500e+000,-4.867628e-006,6.155314e-006
1.013294e+000,-4.196231e-006,6.156130e-006
1.014088e+000,-5.539025e-006,6.147824e-006
1.014882e+000,-8.224612e-006,6.143503e-006
1.015676e+000,-9.567407e-006,6.158381e-006
1.016471e+000,-8.560311e-006,6.174097e-006
1.017265e+000,-8.560311e-006,6.175550e-006
1.018059e+000,-8.896010e-006,6.179732e-006
1.018853e+000,-6.210422e-006,6.191221e-006
1.019647e+000,-8.224612e-006,6.193249e-006
1.020441e+000,-1.158160e-005,6.198463e-006
1.021235e+000,-1.158160e-005,6.214076e-006
1.022029e+000,-1.158160e-005,6.232473e-006
1.022824e+000,-8.224612e-006,6.236330e-006
1.023618e+000,-7.385367e-006,6.226827e-006
1.024412e+000,-8.560311e-006,6.226186e-006
1.025206e+000,-6.881819e-006,6.227627e-006
1.026000e+000,-5.539025e-006,6.220996e-006
1.026794e+000,-5.539025e-006,6.216725e-006
1.027588e+000,-4.196231e-006,6.213607e-006
1.028382e+000,-2.349889e-006,6.207691e-006
1.029176e+000,-1.174945e-006,6.199208e-006
1.029971e+000,-1.846342e-006,6.180712e-006
1.030765e+000,5.035477e-007,6.166215e-006
1.031559e+000,5.035477e-007,6.154039e-006
1.032353e+000,-5.035477e-007,6.141838e-006
1.033147e+000,-5.035477e-007,6.121352e-006
1.033941e+000,-2.853437e-006,6.106559e-006
1.034735e+000,-3.524834e-006,6.095088e-006
1.035529e+000,-4.531929e-006,6.083418e-006
1.036324e+000,-4.531929e-006,6.084184e-006
1.037118e+000,-5.539025e-006,6.085659e-006
1.037912e+000,-5.539025e-006,6.083595e-006
1.038706e+000,-9.567407e-006,6.070898e-006
1.039500e+000,-9.567407e-006,6.070898e-006
1.040294e+000,-8.560311e-006,6.077161e-006
1.041088e+000,-4.196231e-006,6.074835e-006
1.041882e+000,-6.210422e-006,6.061705e-006
1.042676e+000,-4.196231e-006,6.059396e-006
1.043471e+000,-5.203327e-006,6.051573e-006
1.044265e+000,-6.210422e-006,6.052462e-006
1.045059e+000,-6.546120e-006,6.056374e-006
1.045853e+000,-5.874723e-006,6.058566e-006
1.046647e+000,-9.567407e-006,6.060521e-006
1.047441e+000,-7.553216e-006,6.063777e-006
1.048235e+000,-9.567407e-006,6.063777e-006
1.049029e+000,-7.553216e-006,6.075366e-006
1.049824e+000,-7.049668e-006,6.082274e-006
1.050618e+000,-5.539025e-006,6.092025e-006
1.051412e+000,-2.182040e-006,6.089962e-006
1.052206e+000,-2.853437e-006,6.086226e-006
1.053000e+000,-4.531929e-006,6.082982e-006
1.053794e+000,-5.203327e-006,6.084457e-006
1.054588e+000,-5.539025e-006,6.088290e-006
1.055382e+000,-4.867628e-006,6.088290e-006
1.056176e+000,-3.524834e-006,6.089115e-006
1.056971e+000,-5.035477e-006,6.087760e-006
1.057765e+000,-6.210422e-006,6.089786e-006
1.058559e+000,-5.539025e-006,6.095264e-006
1.059353e+000,-3.524834e-006,6.095264e-006
1.060147e+000,-3.524834e-006,6.091435e-006
1.060941e+000,-4.196231e-006,6.086661e-006
1.061735e+000,-3.189136e-006,6.082237e-006
1.062529e+000,-2.853437e-006,6.067172e-006
1.063324e+000,-3.524834e-006,6.045245e-006
1.064118e+000,-3.860533e-006,6.030682e-006
1.064912e+000,-5.874723e-006,6.029968e-006
1.065706e+000,-8.896010e-006,6.033657e-006
1.066500e+000,-8.896010e-006,6.039484e-006
1.067294e+000,-8.896010e-006,6.045304e-006
1.068088e+000,-7.553216e-006,6.048332e-006
1.068882e+000,-6.881819e-006,6.042514e-006
1.069676e+000,-7.553216e-006,6.043701e-006
1.070471e+000,-4.531929e-006,6.052484e-006
1.071265e+000,-3.524834e-006,6.049815e-006
1.072059e+000,-4.196231e-006,6.048450e-006
1.072853e+000,-5.203327e-006,6.052899e-006
1.073647e+000,-5.539025e-006,6.054618e-006
1.074441e+000,-5.539025e-006,6.056455e-006
1.075235e+000,-4.196231e-006,6.059121e-006
1.076029e+000,-6.881819e-006,6.051298e-006
1.076824e+000,-6.881819e-006,6.053610e-006
1.077618e+000,-7.217518e-006,6.049696e-006
1.078412e+000,-6.881819e-006,6.056277e-006
1.079206e+000,-7.553216e-006,6.059654e-006
1.080000e+000,-8.896010e-006,6.065574e-006
1.080794e+000,-8.224612e-006,6.081706e-006
1.081588e+000,-9.063859e-006,6.097736e-006
1.082382e+000,-9.567407e-006,6.116505e-006
1.083176e+000,-8.896010e-006,6.130279e-006
1.083971e+000,-5.539025e-006,6.140808e-006
1.084765e+000,-5.539025e-006,6.142188e-006
1.085559e+000,-6.210422e-006,6.143999e-006
1.086353e+000,-5.035477e-006,6.147854e-006
1.087147e+000,-5.203327e-006,6.152311e-006
1.087941e+000,-5.874723e-006,6.156101e-006
1.088735e+000,-6.210422e-006,6.157092e-006
1.089529e+000,-8.224612e-006,6.159132e-006
1.090324e+000,-6.881819e-006,6.166644e-006
1.091118e+000,-6.881819e-006,6.170949e-006
1.091912e+000,-9.231709e-006,6.170949e-006
1.092706e+000,-6.881819e-006,6.179493e-006
1.093500e+000,-5.874723e-006,6.185588e-006
1.094294e+000,-4.531929e-006,6.189938e-006
1.095088e+000,-6.210422e-006,6.191387e-006
1.095882e+000,-5.539025e-006,6.200076e-006
1.096676e+000,-7.049668e-006,6.202681e-006
1.097471e+000,-6.881819e-006,6.213339e-006
1.098265e+000,-5.539025e-006,6.220960e-006
1.099059e+000,-5.874723e-006,6.216689e-006
1.099853e+000,-7.553216e-006,6.215108e-006
1.100647e+000,-5.203327e-006,6.219842e-006
1.101441e+000,-4.196231e-006,6.221897e-006
1.102235e+000,-7.553216e-006,6.221147e-006
1.103029e+000,-7.217518e-006,6.223627e-006
1.103824e+000,-4.867628e-006,6.223627e-006
1.104618e+000,-6.378271e-006,6.210927e-006
1.105412e+000,-5.203327e-006,6.197876e-006
1.106206e+000,-3.189136e-006,6.185994e-006
1.107000e+000,-3.524834e-006,6.168215e-006
1.107794e+000,-5.035477e-007,6.164432e-006
1.108588e+000,-5.035477e-007,6.159947e-006
1.109382e+000,-8.392462e-007,6.150567e-006
1.110176e+000,-2.182040e-006,6.133212e-006
1.110971e+000,-5.539025e-006,6.126479e-006
1.111765e+000,-7.217518e-006,6.129114e-006
1.112559e+000,-5.539025e-006,6.133680e-006
1.113353e+000,-7.553216e-006,6.132685e-006
1.114147e+000,-8.224612e-006,6.137482e-006
1.114941e+000,-7.049668e-006,6.147065e-006
1.115735e+000,-6.881819e-006,6.155000e-006
1.116529e+000,-8.224612e-006,6.157274e-006
1.117324e+000,-5.539025e-006,6.172389e-006
1.118118e+000,-5.539025e-006,6.179072e-006
1.118912e+000,-5.539025e-006,6.184355e-006
1.119706e+000,-4.196231e-006,6.186154e-006
1.120500e+000,-3.692683e-006,6.184587e-006
1.121294e+000,-5.874723e-006,6.186676e-006
1.122088e+000,-5.874723e-006,6.194965e-006
1.122882e+000,-5.539025e-006,6.196877e-006
1.123676e+000,-5.539025e-006,6.202413e-006
1.124471e+000,-4.867628e-006,6.207098e-006
1.125265e+000,-7.553216e-006,6.207098e-006
1.126059e+000,-6.546120e-006,6.221132e-006
1.126853e+000,-4.867628e-006,6.231738e-006
1.127647e+000,-5.539025e-006,6.235711e-006
1.128441e+000,-3.524834e-006,6.235711e-006
1.129235e+000,-5.539025e-006,6.230068e-006
1.130029e+000,-6.881819e-006,6.225803e-006
1.130824e+000,-4.867628e-006,6.225205e-006
1.131618e+000,-4.364080e-006,6.209446e-006
1.132412e+000,-7.217518e-006,6.189148e-006
1.133206e+000,-7.217518e-006,6.163871e-006
1.134000e+000,-4.867628e-006,6.134104e-006
1.134794e+000,-6.210422e-006,6.105368e-006
1.135588e+000,-4.867628e-006,6.097780e-006
1.136382e+000,-6.210422e-006,6.095955e-006
1.137176e+000,-6.378271e-006,6.097015e-006
1.137971e+000,-4.196231e-006,6.095271e-006
1.138765e+000,-4.364080e-006,6.091361e-006
1.139559e+000,-1.846342e-006,6.078643e-006
1.140353e+000,-3.860533e-006,6.060312e-006
1.141147e+000,-4.196231e-006,6.054091e-006
1.141941e+000,-3.860533e-006,6.047448e-006
1.142735e+000,-5.203327e-006,6.030511e-006
1.143529e+000,-5.203327e-006,6.013466e-006
1.144324e+000,-5.539025e-006,5.994636e-006
1.145118e+000,-4.196231e-006,5.997330e-006
1.145912e+000,-9.231709e-006,5.998048e-006
1.146706e+000,-1.225299e-005,6.008092e-006
1.147500e+000,-7.217518e-006,6.039171e-006
1.148294e+000,-5.539025e-006,6.050749e-006
1.149088e+000,-8.560311e-006,6.051697e-006
1.149882e+000,-8.224612e-006,6.062400e-006
1.150676e+000,-5.035477e-006,6.073933e-006
1.151471e+000,-7.553216e-006,6.077322e-006
1.152265e+000,-8.224612e-006,6.085172e-006
1.153059e+000,-9.567407e-006,6.099604e-006
1.153853e+000,-9.567407e-006,6.121336e-006
1.154647e+000,-6.881819e-006,6.132817e-006
1.155441e+000,-7.553216e-006,6.138082e-006
1.156235e+000,-3.692683e-006,6.143926e-006
1.157029e+000,-3.524834e-006,6.129188e-006
1.157824e+000,-4.196231e-006,6.124443e-006
1.158618e+000,-4.364080e-006,6.123681e-006
1.159412e+000,-4.867628e-006,6.122472e-006
1.160206e+000,-3.524834e-006,6.120654e-006
1.161000e+000,-2.853437e-006,6.118932e-006
1.161794e+000,-4.867628e-006,6.112065e-006
1.162588e+000,-4.867628e-006,6.110245e-006
1.163382e+000,-4.531929e-006,6.103464e-006
1.164176e+000,-4.531929e-006,6.104229e-006
1.164971e+000,-8.224612e-006,6.106345e-006
1.165765e+000,-6.210422e-006,6.111632e-006
1.166559e+000,-3.692683e-006,6.109341e-006
1.167353e+000,-3.524834e-006,6.108306e-006
1.168147e+000,-3.524834e-006,6.109165e-006
1.168941e+000,-4.196231e-006,6.106227e-006
1.169735e+000,-5.035477e-006,6.098464e-006
1.170529e+000,-4.867628e-006,6.092716e-006
1.171324e+000,-5.874723e-006,6.093540e-006
1.172118e+000,-5.539025e-006,6.092480e-006
1.172912e+000,-3.524834e-006,6.087508e-006
1.173706e+000,-4.196231e-006,6.065929e-006
1.174500e+000,-4.867628e-006,6.048152e-006
1.175294e+000,-4.867628e-006,6.035084e-006
1.176088e+000,-4.867628e-006,6.031157e-006
1.176882e+000,-4.196231e-006,6.022344e-006
1.177676e+000,-7.888914e-006,6.020735e-006
1.178471e+000,-8.560311e-006,6.035024e-006
1.179265e+000,-9.903105e-006,6.051652e-006
1.180059e+000,-8.224612e-006,6.071192e-006
1.180853e+000,-7.217518e-006,6.082273e-006
1.181647e+000,-8.224612e-006,6.085812e-006
1.182441e+000,-8.224612e-006,6.096867e-006
1.183235e+000,-6.210422e-006,6.108335e-006
1.184029e+000,-5.539025e-006,6.117142e-006
1.184824e+000,-4.531929e-006,6.123885e-006
1.185618e+000,-4.364080e-006,6.124647e-006
1.186412e+000,-4.196231e-006,6.114758e-006
1.187206e+000,-6.881819e-006,6.100986e-006
1.188000e+000,-7.217518e-006,6.098456e-006
1.188794e+000,-7.049668e-006,6.104045e-006
1.189588e+000,-7.049668e-006,6.109003e-006
1.190382e+000,-5.706874e-006,6.110788e-006
1.191176e+000,-5.539025e-006,6.106932e-006
1.191971e+000,-5.539025e-006,6.100052e-006
1.192765e+000,-5.874723e-006,6.105404e-006
1.193559e+000,-7.217518e-006,6.105404e-006
1.194353e+000,-7.049668e-006,6.102758e-006
1.195147e+000,-8.896010e-006,6.099486e-006
1.195941e+000,-9.567407e-006,6.110068e-006
1.196735e+000,-5.203327e-006,6.128542e-006
1.197529e+000,-4.867628e-006,6.127606e-006
1.198324e+000,-4.867628e-006,6.131645e-006
1.199118e+000,-6.881819e-006,6.136911e-006
1.199912e+000,-5.539025e-006,6.141237e-006
1.200706e+000,-4.867628e-006,6.143049e-006
1.201500e+000,-6.210422e-006,6.131645e-006
1.202294e+000,-5.874723e-006,6.129362e-006
1.203088e+000,-2.853437e-006,6.122156e-006
1.203882e+000,-5.539025e-006,6.119693e-006
1.204676e+000,-8.560311e-006,6.116526e-006
1.205471e+000,-9.903105e-006,6.123269e-006
1.206265e+000,-6.881819e-006,6.144159e-006
1.207059e+000,-7.888914e-006,6.150289e-006
1.207853e+000,-7.553216e-006,6.161075e-006
1.208647e+000,-6.210422e-006,6.172598e-006
1.209441e+000,-6.210422e-006,6.178003e-006
1.210235e+000,-9.735256e-006,6.180036e-006
1.211029e+000,-8.392462e-006,6.193400e-006
1.211824e+000,-7.217518e-006,6.203612e-006
1.212618e+000,-7.553216e-006,6.210897e-006
1.213412e+000,-5.203327e-006,6.219444e-006
1.214206e+000,-1.846342e-006,6.221867e-006
1.215000e+000,-2.517739e-006,6.218924e-006
1.215794e+000,-2.853437e-006,6.212688e-006
1.216588e+000,-2.853437e-006,6.203786e-006
1.217382e+000,-4.196231e-006,6.195971e-006
1.218176e+000,-3.524834e-006,6.197882e-006
1.218971e+000,-8.392462e-007,6.198461e-006
1.219765e+000,-8.392462e-007,6.188726e-006
1.220559e+000,-2.853437e-006,6.183621e-006
1.221353e+000,-4.196231e-006,6.175781e-006
1.222147e+000,-4.531929e-006,6.166250e-006
1.222941e+000,-2.182040e-006,6.158096e-006
1.223735e+000,-1.846342e-006,6.144560e-006
1.224529e+000,-1.510643e-006,6.124903e-006
1.225324e+000,-1.678492e-007,6.109297e-006
1.226118e+000,-2.853437e-006,6.090918e-006
1.226912e+000,-3.692683e-006,6.080045e-006
1.227706e+000,-3.692683e-006,6.071206e-006
1.228500e+000,-5.874723e-006,6.052401e-006
1.229294e+000,-5.539025e-006,6.037380e-006
1.230088e+000,-7.049668e-006,6.039222e-006
1.230882e+000,-5.874723e-006,6.047677e-006
1.231676e+000,-5.874723e-006,6.051356e-006
1.232471e+000,-5.539025e-006,6.058291e-006
1.233265e+000,-7.553216e-006,6.064212e-006
1.234059e+000,-8.224612e-006,6.078908e-006
1.234853e+000,-8.224612e-006,6.088583e-006
1.235647e+000,-8.224612e-006,6.098242e-006
1.236441e+000,-5.539025e-006,6.107887e-006
1.237235e+000,-7.553216e-006,6.110530e-006
1.238029e+000,-5.203327e-006,6.120800e-006
1.238824e+000,-5.539025e-006,6.117809e-006
1.239618e+000,-6.210422e-006,6.118747e-006
1.240412e+000,-6.210422e-006,6.123827e-006
1.241206e+000,-6.881819e-006,6.125877e-006
1.242000e+000,-9.567407e-006,6.131148e-006
1.242794e+000,-9.567407e-006,6.146932e-006
1.243588e+000,-7.553216e-006,6.158366e-006
1.244382e+000,-9.567407e-006,6.165180e-006
1.245176e+000,-1.124590e-005,6.180878e-006
1.245971e+000,-9.735256e-006,6.193060e-006
1.246765e+000,-6.881819e-006,6.208535e-006
1.247559e+000,-7.049668e-006,6.214602e-006
1.248353e+000,-6.210422e-006,6.223511e-006
1.249147e+000,-6.881819e-006,6.227316e-006
1.249941e+000,-6.881819e-006,6.234919e-006
1.250735e+000,-4.867628e-006,6.244926e-006
1.251529e+000,-7.888914e-006,6.248891e-006
1.252324e+000,-5.539025e-006,6.260252e-006
1.253118e+000,-7.888914e-006,6.258245e-006
1.253912e+000,-8.224612e-006,6.259564e-006
1.254706e+000,-5.539025e-006,6.264722e-006
1.255500e+000,-6.210422e-006,6.262717e-006
1.256294e+000,-8.224612e-006,6.262717e-006
1.257088e+000,-6.881819e-006,6.262717e-006
1.257882e+000,-7.553216e-006,6.263863e-006
1.258676e+000,-6.881819e-006,6.275197e-006
1.259471e+000,-8.728161e-006,6.286340e-006
1.260265e+000,-7.553216e-006,6.299621e-006
1.261059e+000,-5.539025e-006,6.299621e-006
1.261853e+000,-4.196231e-006,6.302184e-006
1.262647e+000,-3.860533e-006,6.300646e-006
1.263441e+000,-5.539025e-006,6.299963e-006
1.264235e+000,-7.217518e-006,6.299963e-006
1.265029e+000,-5.203327e-006,6.296031e-006
1.265824e+000,-2.853437e-006,6.279707e-006
1.266618e+000,-1.174945e-006,6.263168e-006
1.267412e+000,-3.524834e-006,6.244862e-006
1.268206e+000,-3.524834e-006,6.227827e-006
1.269000e+000,-3.189136e-006,6.221138e-006
1.269794e+000,-3.524834e-006,6.206410e-006
1.270588e+000,-2.517739e-006,6.175105e-006
1.271382e+000,-1.510643e-006,6.142062e-006
1.272176e+000,-1.678492e-007,6.107784e-006
1.272971e+000,-3.524834e-006,6.090130e-006
1.273765e+000,-3.860533e-006,6.079107e-006
1.274559e+000,-4.196231e-006,6.063797e-006
1.275353e+000,-3.860533e-006,6.055980e-006
1.276147e+000,-2.853437e-006,6.051830e-006
1.276941e+000,-3.524834e-006,6.045896e-006
1.277735e+000,-4.867628e-006,6.044531e-006
1.278529e+000,-5.371176e-006,6.049316e-006
1.279324e+000,-5.035477e-006,6.056543e-006
1.280118e+000,-4.196231e-006,6.062310e-006
1.280912e+000,-4.196231e-006,6.066867e-006
1.281706e+000,-4.531929e-006,6.071420e-006
1.282500e+000,-5.539025e-006,6.076739e-006
1.283294e+000,-6.881819e-006,6.084707e-006
1.284088e+000,-7.553216e-006,6.094962e-006
1.284882e+000,-6.881819e-006,6.106610e-006
1.285676e+000,-8.560311e-006,6.113600e-006
1.286471e+000,-8.896010e-006,6.127321e-006
1.287265e+000,-1.091020e-005,6.139901e-006
1.288059e+000,-1.091020e-005,6.162772e-006
1.288853e+000,-1.091020e-005,6.169873e-006
1.289647e+000,-1.023880e-005,6.176966e-006
1.290441e+000,-1.040665e-005,6.185095e-006
1.291235e+000,-1.225299e-005,6.208399e-006
1.292029e+000,-8.224612e-006,6.236949e-006
1.292824e+000,-4.196231e-006,6.249710e-006
1.293618e+000,-4.531929e-006,6.247298e-006
1.294412e+000,-5.539025e-006,6.242700e-006
1.295206e+000,-4.867628e-006,6.239595e-006
1.296000e+000,-4.867628e-006,6.236834e-006
1.296794e+000,-2.182040e-006,6.219488e-006
1.297588e+000,-1.510643e-006,6.206086e-006
1.298382e+000,-3.860533e-006,6.183143e-006
1.299176e+000,-3.189136e-006,6.172279e-006
1.299971e+000,-1.510643e-006,6.162074e-006
1.300765e+000,-1.678492e-007,6.154730e-006
1.301559e+000,-1.678492e-007,6.153506e-006
1.302353e+000,-1.007095e-006,6.151406e-006
1.303147e+000,-1.174945e-006,6.146350e-006
1.303941e+000,-5.203327e-006,6.139690e-006
1.304735e+000,-7.888914e-006,6.138754e-006
1.305529e+000,-8.224612e-006,6.148744e-006
1.306324e+000,-7.888914e-006,6.163027e-006
1.307118e+000,-7.217518e-006,6.172548e-006
1.307912e+000,-5.874723e-006,6.176036e-006
1.308706e+000,-7.553216e-006,6.177024e-006
1.309500e+000,-7.553216e-006,6.188518e-006
1.310294e+000,-5.874723e-006,6.199989e-006
1.311088e+000,-4.867628e-006,6.204330e-006
1.311882e+000,5.035477e-007,6.207799e-006
1.312676e+000,8.392462e-007,6.205776e-006
1.313471e+000,-1.510643e-006,6.202768e-006
1.314265e+000,-2.182040e-006,6.199526e-006
1.315059e+000,-4.867628e-006,6.191880e-006
1.315853e+000,-6.210422e-006,6.177605e-006
1.316647e+000,-8.224612e-006,6.167139e-006
1.317441e+000,-7.553216e-006,6.164170e-006
1.318235e+000,-6.881819e-006,6.164170e-006
1.319029e+000,-7.553216e-006,6.164170e-006
1.319824e+000,-6.881819e-006,6.164170e-006
1.320618e+000,-8.224612e-006,6.171094e-006
1.321412e+000,-9.231709e-006,6.185327e-006
1.322206e+000,-6.881819e-006,6.202709e-006
1.323000e+000,-1.158160e-005,6.207915e-006
1.323794e+000,-1.191730e-005,6.234394e-006
1.324588e+000,-9.735256e-006,6.262768e-006
1.325382e+000,-8.392462e-006,6.282357e-006
1.326176e+000,-7.049668e-006,6.288203e-006
1.326971e+000,-6.210422e-006,6.288795e-006
1.327765e+000,-3.860533e-006,6.285370e-006
1.328559e+000,-5.035477e-006,6.277142e-006
1.329353e+000,-4.531929e-006,6.269097e-006
1.330147e+000,-3.524834e-006,6.254195e-006
1.330941e+000,-7.217518e-006,6.240120e-006
1.331735e+000,-4.867628e-006,6.232444e-006
1.332529e+000,-6.546120e-006,6.215087e-006
1.333324e+000,-7.049668e-006,6.205782e-006
1.334118e+000,-6.210422e-006,6.210660e-006
1.334912e+000,-7.049668e-006,6.212682e-006
1.335706e+000,-3.860533e-006,6.215534e-006
1.336500e+000,-3.021286e-006,6.212856e-006
1.337294e+000,-4.196231e-006,6.208254e-006
1.338088e+000,-3.524834e-006,6.203917e-006
1.338882e+000,-1.510643e-006,6.197203e-006
1.339676e+000,-2.182040e-006,6.180385e-006
1.340471e+000,-1.174945e-006,6.169400e-006
1.341265e+000,-2.853437e-006,6.157522e-006
1.342059e+000,-2.853437e-006,6.137555e-006
1.342853e+000,-1.678492e-006,6.127372e-006
1.343647e+000,-4.531929e-006,6.119130e-006
1.344441e+000,-6.210422e-006,6.119130e-006
1.345235e+000,-6.210422e-006,6.119130e-006
1.346029e+000,-8.896010e-006,6.121183e-006
1.346824e+000,-7.217518e-006,6.128837e-006
1.347618e+000,-6.881819e-006,6.130066e-006
1.348412e+000,-1.023880e-005,6.134397e-006
1.349206e+000,-1.174945e-005,6.152624e-006
1.350000e+000,-1.225299e-005,6.173551e-006
1.350794e+000,-6.881819e-006,6.205211e-006
1.351588e+000,-8.224612e-006,6.212842e-006
1.352382e+000,-6.210422e-006,6.215556e-006
1.353176e+000,-6.881819e-006,6.212091e-006
1.353971e+000,-6.881819e-006,6.218154e-006
1.354765e+000,-8.392462e-006,6.219863e-006
1.355559e+000,-9.903105e-006,6.230954e-006
1.356353e+000,-1.158160e-005,6.253377e-006
1.357147e+000,-1.174945e-005,6.284293e-006
1.357941e+000,-8.896010e-006,6.319112e-006
1.358735e+000,-9.567407e-006,6.338959e-006
1.359529e+000,-8.224612e-006,6.361735e-006
1.360324e+000,-6.881819e-006,6.377456e-006
1.361118e+000,-9.567407e-006,6.381619e-006
1.361912e+000,-1.124590e-005,6.391453e-006
1.362706e+000,-1.091020e-005,6.415273e-006
1.363500e+000,-8.224612e-006,6.430640e-006
1.364294e+000,-6.881819e-006,6.430640e-006
1.365088e+000,-4.196231e-006,6.430060e-006
1.365882e+000,-1.510643e-006,6.422688e-006
1.366676e+000,-1.846342e-006,6.406463e-006
1.367471e+000,-1.510643e-006,6.399681e-006
1.368265e+000,-1.174945e-006,6.392611e-006
1.369059e+000,-1.846342e-006,6.385308e-006
1.369853e+000,-4.867628e-006,6.381766e-006
1.370647e+000,-4.531929e-006,6.384275e-006
1.371441e+000,-2.853437e-006,6.380789e-006
1.372235e+000,-2.182040e-006,6.374205e-006
1.373029e+000,-3.524834e-006,6.367727e-006
1.373824e+000,-4.196231e-006,6.363160e-006
1.374618e+000,-2.349889e-006,6.361637e-006
1.375412e+000,-1.510643e-006,6.348725e-006
1.376206e+000,-1.846342e-006,6.338541e-006
1.377000e+000,-4.364080e-006,6.333444e-006
1.377794e+000,-3.356985e-006,6.330517e-006
1.378588e+000,-4.531929e-006,6.330227e-006
1.379382e+000,-4.531929e-006,6.327675e-006
1.380176e+000,-4.196231e-006,6.320922e-006
1.380971e+000,-1.678492e-007,6.319389e-006
1.381765e+000,1.678492e-007,6.314595e-006
1.382559e+000,-8.392462e-007,6.301452e-006
1.383353e+000,-2.517739e-006,6.288453e-006
1.384147e+000,-2.853437e-006,6.284057e-006
1.384941e+000,-3.524834e-006,6.276342e-006
1.385735e+000,-4.196231e-006,6.273482e-006
1.386529e+000,-2.853437e-006,6.268160e-006
1.387324e+000,-4.196231e-006,6.259888e-006
1.388118e+000,-3.356985e-007,6.259888e-006
1.388912e+000,-5.035477e-007,6.255070e-006
1.389706e+000,-2.182040e-006,6.254267e-006
1.390500e+000,-2.853437e-006,6.251684e-006
1.391294e+000,-2.853437e-006,6.249272e-006
1.392088e+000,-1.846342e-006,6.247549e-006
1.392882e+000,-5.539025e-006,6.241514e-006
1.393676e+000,-7.553216e-006,6.242434e-006
1.394471e+000,-6.881819e-006,6.249157e-006
1.395265e+000,-8.224612e-006,6.256734e-006
1.396059e+000,-7.553216e-006,6.252258e-006
1.396853e+000,-6.881819e-006,6.228505e-006
1.397647e+000,-7.553216e-006,6.227295e-006
1.398441e+000,-5.539025e-006,6.234035e-006
1.399235e+000,-6.210422e-006,6.223144e-006
1.400029e+000,-7.721065e-006,6.215700e-006
1.400824e+000,-7.553216e-006,6.224471e-006
1.401618e+000,-6.210422e-006,6.224471e-006
1.402412e+000,-4.531929e-006,6.217028e-006
1.403206e+000,-8.224612e-006,6.198817e-006
1.404000e+000,-8.392462e-006,6.192677e-006
1.404794e+000,-8.392462e-006,6.198607e-006
1.405588e+000,-6.881819e-006,6.202044e-006
1.406382e+000,-6.881819e-006,6.210696e-006
1.407176e+000,-6.210422e-006,6.219647e-006
1.407971e+000,-8.224612e-006,6.225011e-006
1.408765e+000,-9.567407e-006,6.237430e-006
1.409559e+000,-9.063859e-006,6.254726e-006
1.410353e+000,-8.896010e-006,6.272453e-006
1.411147e+000,-9.567407e-006,6.290451e-006
1.411941e+000,-8.560311e-006,6.307600e-006
1.412735e+000,-6.210422e-006,6.320106e-006
1.413529e+000,-7.217518e-006,6.324647e-006
1.414324e+000,-5.035477e-006,6.332587e-006
1.415118e+000,-5.539025e-006,6.321944e-006
1.415912e+000,-8.896010e-006,6.319957e-006
1.416706e+000,-8.224612e-006,6.336439e-006
1.417500e+000,-6.210422e-006,6.350301e-006
1.418294e+000,-5.874723e-006,6.356853e-006
1.419088e+000,-4.196231e-006,6.361086e-006
1.419882e+000,-4.867628e-006,6.359146e-006
1.420676e+000,-6.881819e-006,6.359146e-006
1.421471e+000,-5.874723e-006,6.362363e-006
1.422265e+000,-5.874723e-006,6.363322e-006
1.423059e+000,-7.217518e-006,6.368847e-006
1.423853e+000,-6.881819e-006,6.377463e-006
1.424647e+000,-8.224612e-006,6.383369e-006
1.425441e+000,-5.706874e-006,6.394323e-006
1.426235e+000,-3.692683e-006,6.396533e-006
1.427029e+000,-6.378271e-006,6.395544e-006
1.427824e+000,-5.539025e-006,6.390175e-006
1.428618e+000,-7.721065e-006,6.379551e-006
1.429412e+000,-6.210422e-006,6.369945e-006
1.430206e+000,-4.196231e-006,6.362674e-006
1.431000e+000,-7.217518e-006,6.354037e-006
1.431794e+000,-9.567407e-006,6.350139e-006
1.432588e+000,-8.560311e-006,6.356127e-006
1.433382e+000,-8.224612e-006,6.364816e-006
1.434176e+000,-6.881819e-006,6.374057e-006
1.434971e+000,-6.546120e-006,6.380754e-006
1.435765e+000,-1.510643e-006,6.386693e-006
1.436559e+000,-6.378271e-006,6.382870e-006
1.437353e+000,-9.231709e-006,6.381204e-006
1.438147e+000,-4.196231e-006,6.389467e-006
1.438941e+000,-3.524834e-006,6.381464e-006
1.439735e+000,-2.853437e-006,6.372157e-006
1.440529e+000,-3.524834e-006,6.366050e-006
1.441324e+000,-3.860533e-006,6.361482e-006
1.442118e+000,-7.721065e-006,6.357531e-006
1.442912e+000,-8.392462e-006,6.363815e-006
1.443706e+000,-5.203327e-006,6.368403e-006
1.444500e+000,-3.692683e-006,6.362744e-006
1.445294e+000,-1.510643e-006,6.346330e-006
1.446088e+000,-5.539025e-006,6.323895e-006
1.446882e+000,-5.539025e-006,6.324804e-006
1.447676e+000,-3.189136e-006,6.326562e-006
1.448471e+000,-3.692683e-006,6.323158e-006
1.449265e+000,-4.531929e-006,6.314659e-006
1.450059e+000,-4.867628e-006,6.312102e-006
1.450853e+000,-3.524834e-006,6.312102e-006
1.451647e+000,-5.203327e-006,6.305503e-006
1.452441e+000,-6.881819e-006,6.303624e-006
1.453235e+000,-6.881819e-006,6.313523e-006
1.454029e+000,-7.553216e-006,6.317728e-006
1.454824e+000,-5.539025e-006,6.313636e-006
1.455618e+000,-2.182040e-006,6.296617e-006
1.456412e+000,-5.874723e-006,6.285835e-006
1.457206e+000,-6.881819e-006,6.278809e-006
1.458000e+000,-5.706874e-006,6.276349e-006
1.458794e+000,-4.364080e-006,6.274827e-006
1.459588e+000,-5.539025e-006,6.269870e-006
1.460382e+000,-6.210422e-006,6.253571e-006
1.461176e+000,-5.539025e-006,6.245452e-006
1.461971e+000,-8.392462e-006,6.239990e-006
1.462765e+000,-9.567407e-006,6.243405e-006
1.463559e+000,-7.721065e-006,6.259823e-006
1.464353e+000,-6.881819e-006,6.274105e-006
1.465147e+000,-7.049668e-006,6.284507e-006
1.465941e+000,-3.524834e-006,6.295027e-006
1.466735e+000,-6.881819e-006,6.296111e-006
1.467529e+000,-9.063859e-006,6.303630e-006
1.468324e+000,-8.224612e-006,6.321220e-006
1.469118e+000,-1.023880e-005,6.338060e-006
1.469912e+000,-8.896010e-006,6.364168e-006
1.470706e+000,-6.210422e-006,6.381907e-006
1.471500e+000,-6.210422e-006,6.387135e-006
1.472294e+000,-7.217518e-006,6.391628e-006
1.473088e+000,-5.874723e-006,6.403409e-006
1.473882e+000,-6.210422e-006,6.411139e-006
1.474676e+000,-7.217518e-006,6.420145e-006
1.475471e+000,-4.196231e-006,6.433046e-006
1.476265e+000,-3.860533e-006,6.435389e-006
1.477059e+000,-4.867628e-006,6.435702e-006
1.477853e+000,-3.524834e-006,6.438190e-006
1.478647e+000,-2.853437e-006,6.432725e-006
1.479441e+000,-4.531929e-006,6.427143e-006
1.480235e+000,-2.853437e-006,6.419915e-006
1.481029e+000,-4.196231e-006,6.413371e-006
1.481824e+000,-5.539025e-006,6.409172e-006
1.482618e+000,-2.853437e-006,6.409172e-006
1.483412e+000,-1.510643e-006,6.397009e-006
1.484206e+000,-2.853437e-006,6.380718e-006
1.485000e+000,-4.196231e-006,6.365852e-006
1.485794e+000,-4.196231e-006,6.353323e-006
1.486588e+000,-3.189136e-006,6.350047e-006
1.487382e+000,-5.539025e-006,6.338280e-006
1.488176e+000,-9.567407e-006,6.339186e-006
1.488971e+000,-7.721065e-006,6.354453e-006
1.489765e+000,-6.546120e-006,6.359725e-006
1.490559e+000,-7.217518e-006,6.360797e-006
1.491353e+000,-6.881819e-006,6.361982e-006
1.492147e+000,-7.217518e-006,6.350916e-006
1.492941e+000,-8.224612e-006,6.341018e-006
1.493735e+000,-7.553216e-006,6.343678e-006
1.494529e+000,-5.539025e-006,6.335016e-006
1.495324e+000,-5.706874e-006,6.310892e-006
1.496118e+000,-5.035477e-006,6.295177e-006
1.496912e+000,-4.196231e-006,6.289609e-006
1.497706e+000,-4.867628e-006,6.281479e-006
1.498500e+000,-8.392462e-007,6.277707e-006
1.499294e+000,-8.392462e-007,6.265861e-006
1.500088e+000,-2.182040e-006,6.253994e-006
1.500882e+000,5.035477e-007,6.249171e-006
1.501676e+000,-1.678492e-007,6.233358e-006
1.502471e+000,-3.524834e-006,6.225523e-006
1.503265e+000,-5.539025e-006,6.212769e-006
1.504059e+000,-5.203327e-006,6.203288e-006
1.504853e+000,-6.881819e-006,6.202362e-006
1.505647e+000,-6.881819e-006,6.204618e-006
1.506441e+000,-5.706874e-006,6.199411e-006
1.507235e+000,-4.867628e-006,6.195610e-006
1.508029e+000,-8.896010e-006,6.187031e-006
1.508824e+000,-7.049668e-006,6.195205e-006
1.509618e+000,-5.203327e-006,6.188394e-006
1.510412e+000,-6.881819e-006,6.180676e-006
1.511206e+000,-7.553216e-006,6.184971e-006
1.512000e+000,-4.867628e-006,6.195118e-006
1.512794e+000,-4.196231e-006,6.197377e-006
1.513588e+000,-7.049668e-006,6.194017e-006
1.514382e+000,-4.364080e-006,6.193402e-006
1.515176e+000,-3.524834e-006,6.191337e-006
1.515971e+000,-5.203327e-006,6.192438e-006
1.516765e+000,-4.196231e-006,6.199042e-006
1.517559e+000,-4.867628e-006,6.200373e-006
1.518353e+000,-1.846342e-006,6.203267e-006
1.519147e+000,-3.524834e-006,6.201531e-006
1.519941e+000,-7.553216e-006,6.201531e-006
1.520735e+000,-5.874723e-006,6.214538e-006
1.521529e+000,-7.217518e-006,6.222791e-006
1.522324e+000,-6.210422e-006,6.236100e-006
1.523118e+000,-6.546120e-006,6.242772e-006
1.523912e+000,-8.896010e-006,6.249897e-006
1.524706e+000,-1.023880e-005,6.265554e-006
1.525500e+000,-6.881819e-006,6.288368e-006
1.526294e+000,-7.553216e-006,6.298290e-006
1.527088e+000,-5.539025e-006,6.309563e-006
1.527882e+000,-5.874723e-006,6.311326e-006
1.528676e+000,-9.567407e-006,6.312755e-006
1.529471e+000,-4.867628e-006,6.329426e-006
1.530265e+000,-5.874723e-006,6.330957e-006
1.531059e+000,-5.539025e-006,6.335207e-006
1.531853e+000,-5.203327e-006,6.337756e-006
1.532647e+000,-5.539025e-006,6.336850e-006
1.533441e+000,-6.881819e-006,6.332657e-006
1.534235e+000,-7.553216e-006,6.330220e-006
1.535029e+000,-8.224612e-006,6.332657e-006
1.535824e+000,-8.224612e-006,6.331240e-006
1.536618e+000,-6.546120e-006,6.328349e-006
1.537412e+000,-8.392462e-006,6.309151e-006
1.538206e+000,-9.231709e-006,6.296873e-006
1.539000e+000,-8.896010e-006,6.288318e-006
1.539794e+000,-6.881819e-006,6.281808e-006
1.540588e+000,-6.210422e-006,6.266342e-006
1.541382e+000,-5.035477e-006,6.237927e-006
1.542176e+000,-5.539025e-006,6.227123e-006
1.542971e+000,-7.553216e-006,6.230465e-006
1.543765e+000,-7.553216e-006,6.239789e-006
1.544559e+000,-7.385367e-006,6.246516e-006
1.545353e+000,-1.057450e-005,6.254375e-006
1.546147e+000,-7.553216e-006,6.276771e-006
1.546941e+000,-7.888914e-006,6.290023e-006
1.547735e+000,-6.881819e-006,6.305182e-006
1.548529e+000,-6.546120e-006,6.313373e-006
1.549324e+000,-5.203327e-006,6.321611e-006
1.550118e+000,-4.196231e-006,6.327853e-006
1.550912e+000,-6.546120e-006,6.332275e-006
1.551706e+000,-5.203327e-006,6.343035e-006
1.552500e+000,-4.196231e-006,6.349574e-006
1.553294e+000,-3.524834e-006,6.353642e-006
1.554088e+000,-5.539025e-006,6.349969e-006
1.554882e+000,-2.182040e-006,6.342051e-006
1.555676e+000,-3.356985e-007,6.326243e-006
1.556471e+000,-4.364080e-006,6.310587e-006
1.557265e+000,-4.531929e-006,6.302243e-006
1.558059e+000,-2.853437e-006,6.298711e-006
1.558853e+000,-1.174945e-006,6.286335e-006
1.559647e+000,1.174945e-006,6.272217e-006
1.560441e+000,1.846342e-006,6.263800e-006
1.561235e+000,2.182040e-006,6.258641e-006
1.562029e+000,-1.678492e-007,6.259788e-006
1.562824e+000,-3.356985e-007,6.259616e-006
1.563618e+000,5.035477e-007,6.259064e-006
1.564412e+000,8.392462e-007,6.257917e-006
1.565206e+000,-2.182040e-006,6.252065e-006
1.566000e+000,-5.539025e-006,6.243448e-006
1.566794e+000,-7.888914e-006,6.234014e-006
1.567588e+000,-9.903105e-006,6.235338e-006
1.568382e+000,-1.091020e-005,6.248275e-006
1.569176e+000,-9.231709e-006,6.264051e-006
1.569971e+000,-1.023880e-005,6.273669e-006
1.570765e+000,-1.174945e-005,6.283101e-006
1.571559e+000,-1.124590e-005,6.296475e-006
1.572353e+000,-1.460288e-005,6.316450e-006
1.573147e+000,-1.493858e-005,6.336362e-006
1.573941e+000,-1.023880e-005,6.356720e-006
1.574735e+000,-8.224612e-006,6.359239e-006
1.575529e+000,-8.224612e-006,6.358541e-006
1.576324e+000,-6.881819e-006,6.363034e-006
1.577118e+000,-7.553216e-006,6.365233e-006
1.577912e+000,-6.210422e-006,6.375768e-006
1.578706e+000,-6.546120e-006,6.379067e-006
1.579500e+000,-5.539025e-006,6.384635e-006
1.580294e+000,-2.349889e-006,6.389187e-006
1.581088e+000,-5.539025e-006,6.377569e-006
1.581882e+000,-1.023880e-005,6.379314e-006
1.582676e+000,-9.903105e-006,6.394766e-006
1.583471e+000,-7.553216e-006,6.406800e-006
1.584265e+000,-5.203327e-006,6.411392e-006
1.585059e+000,-3.524834e-006,6.405771e-006
1.585853e+000,-5.539025e-006,6.405155e-006
1.586647e+000,-2.349889e-006,6.410511e-006
1.587441e+000,-4.867628e-006,6.407508e-006
1.588235e+000,-5.874723e-006,6.410308e-006
1.589029e+000,-3.524834e-006,6.418309e-006
1.589824e+000,-5.203327e-006,6.420210e-006
1.590618e+000,-4.531929e-006,6.426580e-006
1.591412e+000,-4.531929e-006,6.429651e-006
1.592206e+000,-5.035477e-006,6.432720e-006
1.593000e+000,-2.853437e-006,6.438297e-006
1.593794e+000,-2.853437e-006,6.435230e-006
1.594588e+000,-4.867628e-006,6.427696e-006
1.595382e+000,-6.210422e-006,6.424010e-006
1.596176e+000,-7.217518e-006,6.413946e-006
1.596971e+000,-6.546120e-006,6.413946e-006
1.597765e+000,-5.203327e-006,6.412827e-006
1.598559e+000,-4.364080e-006,6.393490e-006
1.599353e+000,-4.699779e-006,6.363782e-006
1.600147e+000,-5.706874e-006,6.331660e-006
1.600941e+000,-5.539025e-006,6.327939e-006
1.601735e+000,-8.896010e-006,6.318631e-006
1.602529e+000,-8.224612e-006,6.328847e-006
1.603324e+000,-4.196231e-006,6.333948e-006
1.604118e+000,-1.846342e-006,6.326465e-006
1.604912e+000,-4.196231e-006,6.309572e-006
1.605706e+000,-4.867628e-006,6.289233e-006
1.606500e+000,-5.539025e-006,6.261208e-006
1.607294e+000,-4.867628e-006,6.233843e-006
1.608088e+000,-4.867628e-006,6.219664e-006
1.608882e+000,-3.692683e-006,6.202270e-006
1.609676e+000,-4.196231e-006,6.188389e-006
1.610471e+000,-2.853437e-006,6.180729e-006
1.611265e+000,-2.182040e-006,6.159206e-006
1.612059e+000,-2.853437e-006,6.127660e-006
1.612853e+000,-4.196231e-006,6.098775e-006
1.613647e+000,-3.524834e-006,6.085698e-006
1.614441e+000,-4.196231e-006,6.076550e-006
1.615235e+000,-5.706874e-006,6.076550e-006
1.616029e+000,-5.203327e-006,6.084481e-006
1.616824e+000,-5.874723e-006,6.090671e-006
1.617618e+000,-6.881819e-006,6.099092e-006
1.618412e+000,-7.553216e-006,6.111085e-006
1.619206e+000,-5.203327e-006,6.125046e-006
1.620000e+000,-3.524834e-006,6.125922e-006
1.620794e+000,-6.042573e-006,6.123813e-006
1.621588e+000,-1.091020e-005,6.131186e-006
1.622382e+000,-1.258869e-005,6.160792e-006
1.623176e+000,-1.040665e-005,6.198426e-006
1.623971e+000,-8.224612e-006,6.221681e-006
1.624765e+000,-7.217518e-006,6.237560e-006
1.625559e+000,-7.553216e-006,6.250263e-006
1.626353e+000,-8.224612e-006,6.263914e-006
1.627147e+000,-8.224612e-006,6.276256e-006
1.627941e+000,-6.881819e-006,6.290543e-006
1.628735e+000,-7.553216e-006,6.297329e-006
1.629529e+000,-6.210422e-006,6.306555e-006
1.630324e+000,-5.539025e-006,6.311845e-006
1.631118e+000,-6.881819e-006,6.319573e-006
1.631912e+000,-7.049668e-006,6.331489e-006
1.632706e+000,-7.553216e-006,6.343798e-006
1.633500e+000,-6.546120e-006,6.356515e-006
1.634294e+000,-6.210422e-006,6.365204e-006
1.635088e+000,-8.896010e-006,6.371741e-006
1.635882e+000,-8.560311e-006,6.387100e-006
1.636676e+000,-7.888914e-006,6.403318e-006
1.637471e+000,-4.867628e-006,6.414406e-006
1.638265e+000,-5.203327e-006,6.420258e-006
1.639059e+000,-4.531929e-006,6.426907e-006
1.639853e+000,-3.524834e-006,6.430814e-006
1.640647e+000,-3.524834e-006,6.431875e-006
1.641441e+000,-3.189136e-006,6.432935e-006
1.642235e+000,-4.196231e-006,6.434608e-006
1.643029e+000,-1.510643e-006,6.431372e-006
1.643824e+000,-1.678492e-007,6.417798e-006
1.644618e+000,5.035477e-007,6.406043e-006
1.645412e+000,-8.392462e-007,6.389270e-006
1.646206e+000,-1.174945e-006,6.375211e-006
1.647000e+000,-1.846342e-006,6.363717e-006
1.647794e+000,-3.692683e-006,6.350280e-006
1.648588e+000,-3.860533e-006,6.346004e-006
1.649382e+000,-8.392462e-007,6.340063e-006
1.650176e+000,-1.510643e-006,6.325250e-006
1.650971e+000,-1.510643e-006,6.311448e-006
1.651765e+000,-4.196231e-006,6.302286e-006
1.652559e+000,-5.539025e-006,6.301545e-006
1.653353e+000,-6.546120e-006,6.292198e-006
1.654147e+000,-6.210422e-006,6.285214e-006
1.654941e+000,-7.553216e-006,6.277136e-006
1.655735e+000,-6.881819e-006,6.279594e-006
1.656529e+000,-6.210422e-006,6.279594e-006
1.657324e+000,-8.224612e-006,6.279594e-006
1.658118e+000,-8.560311e-006,6.279594e-006
1.658912e+000,-7.888914e-006,6.274963e-006
1.659706e+000,-9.903105e-006,6.269906e-006
1.660500e+000,-7.888914e-006,6.274713e-006
1.661294e+000,-5.539025e-006,6.267273e-006
1.662088e+000,-4.867628e-006,6.256440e-006
1.662882e+000,-5.539025e-006,6.252653e-006
1.663676e+000,-6.881819e-006,6.247198e-006
1.664471e+000,-6.210422e-006,6.252804e-006
1.665265e+000,-4.531929e-006,6.254813e-006
1.666059e+000,-3.189136e-006,6.239876e-006
1.666853e+000,-1.846342e-006,6.225192e-006
1.667647e+000,-5.539025e-006,6.216192e-006
1.668441e+000,-7.553216e-006,6.215211e-006
1.669235e+000,-8.224612e-006,6.225308e-006
1.670029e+000,-8.224612e-006,6.236540e-006
1.670824e+000,-9.903105e-006,6.241717e-006
1.671618e+000,-7.217518e-006,6.257911e-006
1.672412e+000,-6.210422e-006,6.262383e-006
1.673206e+000,-6.210422e-006,6.258943e-006
1.674000e+000,-3.524834e-006,6.256706e-006
1.674794e+000,-3.189136e-006,6.242637e-006
1.675588e+000,-3.524834e-006,6.236921e-006
1.676382e+000,-6.546120e-006,6.236612e-006
1.677176e+000,-6.546120e-006,6.237166e-006
1.677971e+000,-4.867628e-006,6.240272e-006
1.678765e+000,-5.203327e-006,6.231099e-006
1.679559e+000,-5.874723e-006,6.228161e-006
1.680353e+000,-4.867628e-006,6.232481e-006
1.681147e+000,-4.196231e-006,6.225221e-006
1.681941e+000,-7.217518e-006,6.206282e-006
1.682735e+000,-7.217518e-006,6.200844e-006
1.683529e+000,-4.196231e-006,6.196849e-006
1.684324e+000,-5.874723e-006,6.189200e-006
1.685118e+000,-5.539025e-006,6.187054e-006
1.685912e+000,-2.853437e-006,6.194358e-006
1.686706e+000,-4.867628e-006,6.185988e-006
1.687500e+000,-5.539025e-006,6.170128e-006
1.688294e+000,-5.874723e-006,6.173501e-006
1.689088e+000,-5.539025e-006,6.179196e-006
1.689882e+000,-7.553216e-006,6.185001e-006
1.690676e+000,-1.040665e-005,6.196480e-006
1.691471e+000,-9.903105e-006,6.220434e-006
1.692265e+000,-1.007095e-005,6.230271e-006
1.693059e+000,-9.903105e-006,6.238186e-006
1.693853e+000,-5.874723e-006,6.256283e-006
1.694647e+000,-6.546120e-006,6.261594e-006
1.695441e+000,-7.553216e-006,6.271902e-006
1.696235e+000,-5.874723e-006,6.278594e-006
1.697029e+000,-6.881819e-006,6.279565e-006
1.697824e+000,-7.217518e-006,6.288989e-006
1.698618e+000,-8.224612e-006,6.298718e-006
1.699412e+000,-6.546120e-006,6.310615e-006
1.700206e+000,-6.042573e-006,6.315448e-006
1.701000e+000,-5.539025e-006,6.321518e-006
1.701794e+000,-3.524834e-006,6.322427e-006
1.702588e+000,-6.210422e-006,6.313622e-006
1.703382e+000,-7.217518e-006,6.311404e-006
1.704176e+000,-7.217518e-006,6.310153e-006
1.704971e+000,-7.553216e-006,6.315554e-006
1.705765e+000,-7.888914e-006,6.328724e-006
1.706559e+000,-7.217518e-006,6.335696e-006
1.707353e+000,-6.210422e-006,6.336885e-006
1.708147e+000,-8.224612e-006,6.338393e-006
1.708941e+000,-7.553216e-006,6.350590e-006
1.709735e+000,-7.049668e-006,6.357199e-006
1.710529e+000,-7.049668e-006,6.359986e-006
1.711324e+000,-6.546120e-006,6.364745e-006
1.712118e+000,-6.210422e-006,6.357841e-006
1.712912e+000,-5.203327e-006,6.344562e-006
1.713706e+000,-4.531929e-006,6.336390e-006
1.714500e+000,-1.678492e-007,6.329646e-006
1.715294e+000,2.349889e-006,6.317138e-006
1.716088e+000,1.174945e-006,6.315398e-006
1.716882e+000,-3.524834e-006,6.303794e-006
1.717676e+000,-4.196231e-006,6.286156e-006
1.718471e+000,-4.196231e-006,6.273468e-006
1.719265e+000,-3.524834e-006,6.251290e-006
1.720059e+000,-3.189136e-006,6.234272e-006
1.720853e+000,-2.853437e-006,6.227015e-006
1.721647e+000,-4.196231e-006,6.219229e-006
1.722441e+000,-6.546120e-006,6.210394e-006
1.723235e+000,-5.539025e-006,6.212531e-006
1.724029e+000,-3.189136e-006,6.210509e-006
1.724824e+000,-4.196231e-006,6.199751e-006
1.725618e+000,-5.203327e-006,6.199751e-006
1.726412e+000,-4.196231e-006,6.202876e-006
1.727206e+000,-2.517739e-006,6.201314e-006
1.728000e+000,-3.524834e-006,6.199751e-006
1.728794e+000,-8.896010e-006,6.200850e-006
1.729588e+000,-9.567407e-006,6.215881e-006
1.730382e+000,-1.124590e-005,6.237207e-006
1.731176e+000,-1.158160e-005,6.264938e-006
1.731971e+000,-6.546120e-006,6.291178e-006
1.732765e+000,-5.035477e-006,6.299957e-006
1.733559e+000,-6.210422e-006,6.305786e-006
1.734353e+000,-6.546120e-006,6.313465e-006
1.735147e+000,-2.853437e-006,6.319829e-006
1.735941e+000,-4.196231e-006,6.317443e-006
1.736735e+000,-6.881819e-006,6.319317e-006
1.737529e+000,-8.896010e-006,6.323519e-006
1.738324e+000,-5.539025e-006,6.320396e-006
1.739118e+000,-6.210422e-006,6.313102e-006
1.739912e+000,-6.881819e-006,6.312022e-006
1.740706e+000,-8.560311e-006,6.310828e-006
1.741500e+000,-6.881819e-006,6.317364e-006
1.742294e+000,-5.203327e-006,6.316171e-006
1.743088e+000,-9.231709e-006,6.305935e-006
1.743882e+000,-6.210422e-006,6.313046e-006
1.744676e+000,-4.531929e-006,6.315035e-006
1.745471e+000,-4.867628e-006,6.312001e-006
1.746265e+000,-7.888914e-006,6.311581e-006
1.747059e+000,-7.553216e-006,6.322830e-006
1.747853e+000,-5.203327e-006,6.331225e-006
1.748647e+000,-4.867628e-006,6.337854e-006
1.749441e+000,-7.217518e-006,6.343627e-006
1.750235e+000,-7.553216e-006,6.355498e-006
1.751029e+000,-6.210422e-006,6.369712e-006
1.751824e+000,-6.881819e-006,6.379340e-006
1.752618e+000,-6.881819e-006,6.388053e-006
1.753412e+000,-6.210422e-006,6.392210e-006
1.754206e+000,-5.035477e-006,6.395072e-006
1.755000e+000,-4.531929e-006,6.389591e-006
1.755794e+000,-6.881819e-006,6.382903e-006
1.756588e+000,-3.860533e-006,6.386592e-006
1.757382e+000,-6.210422e-006,6.384400e-006
1.758176e+000,-8.896010e-006,6.374274e-006
1.758971e+000,-8.560311e-006,6.381624e-006
1.759765e+000,-7.888914e-006,6.393143e-006
1.760559e+000,-6.378271e-006,6.396847e-006
1.761353e+000,-6.210422e-006,6.392771e-006
1.762147e+000,-6.881819e-006,6.396475e-006
1.762941e+000,-6.881819e-006,6.403877e-006
1.763735e+000,-8.224612e-006,6.403295e-006
1.764529e+000,-9.903105e-006,6.415370e-006
1.765324e+000,-8.224612e-006,6.436593e-006
1.766118e+000,-5.539025e-006,6.446622e-006
1.766912e+000,-6.546120e-006,6.449849e-006
1.767706e+000,-6.881819e-006,6.454577e-006
1.768500e+000,-3.189136e-006,6.465411e-006
1.769294e+000,-4.196231e-006,6.464856e-006
1.770088e+000,-4.867628e-006,6.455134e-006
1.770882e+000,-3.524834e-006,6.452464e-006
1.771676e+000,-6.210422e-006,6.442667e-006
1.772471e+000,-5.539025e-006,6.442667e-006
1.773265e+000,-2.517739e-006,6.439659e-006
1.774059e+000,-5.203327e-006,6.421632e-006
1.774853e+000,-5.539025e-006,6.402322e-006
1.775647e+000,-4.867628e-006,6.398172e-006
1.776441e+000,-5.874723e-006,6.389865e-006
1.777235e+000,-6.881819e-006,6.390820e-006
1.778029e+000,-4.867628e-006,6.394020e-006
1.778824e+000,-3.860533e-006,6.377102e-006
1.779618e+000,-4.867628e-006,6.374907e-006
1.780412e+000,-4.196231e-006,6.372204e-006
1.781206e+000,-4.196231e-006,6.368936e-006
1.782000e+000,-6.546120e-006,6.366571e-006
1.782794e+000,-7.217518e-006,6.369614e-006
1.783588e+000,-7.049668e-006,6.370797e-006
1.784382e+000,-7.217518e-006,6.368959e-006
1.785176e+000,-7.553216e-006,6.365070e-006
1.785971e+000,-6.881819e-006,6.362419e-006
1.786765e+000,-4.196231e-006,6.363547e-006
1.787559e+000,5.035477e-007,6.350314e-006
1.788353e+000,2.517739e-006,6.328972e-006
1.789147e+000,3.189136e-006,6.310629e-006
1.789941e+000,-2.853437e-006,6.301238e-006
1.790735e+000,-6.881819e-006,6.293545e-006
1.791529e+000,-9.903105e-006,6.299109e-006
1.792324e+000,-4.867628e-006,6.316122e-006
1.793118e+000,-2.182040e-006,6.307707e-006
1.793912e+000,5.035477e-007,6.294492e-006
1.794706e+000,4.867628e-006,6.280743e-006
1.795500e+000,1.174945e-006,6.258361e-006
1.796294e+000,-6.210422e-006,6.244180e-006
1.797088e+000,-7.217518e-006,6.238142e-006
1.797882e+000,-4.196231e-006,6.239351e-006
1.798676e+000,-5.874723e-006,6.232905e-006
1.799471e+000,-5.539025e-006,6.234804e-006
1.800265e+000,-4.364080e-006,6.238142e-006
1.801059e+000,-4.364080e-006,6.232062e-006
1.801853e+000,-6.210422e-006,6.230011e-006
1.802647e+000,-5.874723e-006,6.235366e-006
1.803441e+000,-6.881819e-006,6.241004e-006
1.804235e+000,-8.392462e-006,6.245258e-006
1.805029e+000,-8.224612e-006,6.261980e-006
1.805824e+000,-7.888914e-006,6.279129e-006
1.806618e+000,-1.510643e-006,6.290072e-006
1.807412e+000,-4.531929e-006,6.285449e-006
1.808206e+000,-8.224612e-006,6.288588e-006
1.809000e+000,-9.567407e-006,6.305345e-006
1.809794e+000,-1.225299e-005,6.328072e-006
1.810588e+000,-1.158160e-005,6.364886e-006
1.811382e+000,-1.023880e-005,6.397170e-006
1.812176e+000,-9.903105e-006,6.423205e-006
1.812971e+000,-1.057450e-005,6.447444e-006
1.813765e+000,-1.242084e-005,6.474939e-006
1.814559e+000,-1.762417e-005,6.512598e-006
1.815353e+000,-1.795987e-005,6.586955e-006
1.816147e+000,-1.628138e-005,6.657140e-006
1.816941e+000,-1.695277e-005,6.705485e-006
1.817735e+000,-1.762417e-005,6.750294e-006
1.818529e+000,-1.426719e-005,6.795337e-006
1.819324e+000,-1.292439e-005,6.823008e-006
1.820118e+000,-1.242084e-005,6.837511e-006
1.820912e+000,-8.224612e-006,6.841289e-006
1.821706e+000,1.007095e-006,6.827583e-006
1.822500e+000,5.706874e-006,6.777905e-006
1.823294e+000,2.517739e-006,6.732980e-006
1.824088e+000,-7.721065e-006,6.709645e-006
1.824882e+000,-9.567407e-006,6.707740e-006
1.825676e+000,-3.524834e-006,6.713409e-006
1.826471e+000,7.553216e-006,6.705117e-006
1.827265e+000,-1.628138e-005,6.705117e-006
1.828059e+000,-1.762417e-005,6.758697e-006
1.828853e+000,-3.524834e-006,6.821489e-006
1.829647e+000,1.846342e-006,6.817227e-006
1.830441e+000,-9.903105e-006,6.816733e-006
1.831235e+000,1.896696e-005,6.832457e-006
1.832029e+000,2.098116e-005,6.891611e-006
1.832824e+000,-1.930266e-005,6.970216e-006
1.833618e+000,-6.378271e-006,7.041932e-006
1.834412e+000,3.138781e-005,7.045009e-006
1.835206e+000,5.992218e-005,7.261552e-006
1.836000e+000,2.534523e-005,8.004229e-006
1.836794e+000,3.189136e-006,8.129938e-006
1.837588e+000,4.213016e-005,8.127289e-006
1.838382e+000,4.213016e-005,8.461419e-006
1.839176e+000,1.997406e-005,8.786851e-006
1.839971e+000,1.661708e-005,8.853988e-006
1.840765e+000,4.531929e-006,8.899837e-006
1.841559e+000,-6.210422e-006,8.899837e-006
1.842353e+000,-8.560311e-006,8.902201e-006
1.843147e+000,-1.762417e-005,8.913844e-006
1.843941e+000,-3.440909e-005,8.967714e-006
1.844735e+000,-6.395056e-005,9.171428e-006
1.845529e+000,-8.207828e-005,9.849706e-006
1.846324e+000,-5.052262e-005,1.087684e-005
1.847118e+000,-1.158160e-005,1.123825e-005
1.847912e+000,-1.628138e-005,1.125341e-005
1.848706e+000,-1.393149e-005,1.128817e-005
1.849500e+000,-9.567407e-006,1.131241e-005
1.850294e+000,-1.007095e-005,1.132071e-005
1.851088e+000,-1.225299e-005,1.133065e-005
1.851882e+000,-1.359579e-005,1.134063e-005
1.852676e+000,-1.594568e-005,1.135707e-005
1.853471e+000,-1.107805e-005,1.139020e-005
1.854265e+000,-1.560998e-005,1.140687e-005
1.855059e+000,-3.038071e-005,1.143839e-005
1.855853e+000,-5.119402e-005,1.156290e-005
1.856647e+000,-4.716563e-005,1.191426e-005
1.857441e+000,-3.709468e-005,1.220487e-005
1.858235e+000,-4.078737e-005,1.238005e-005
1.859029e+000,-2.131685e-005,1.259048e-005
1.859824e+000,1.795987e-005,1.264561e-005
1.860618e+000,5.857939e-005,1.268513e-005
1.861412e+000,6.831464e-005,1.310824e-005
1.862206e+000,2.030976e-005,1.366246e-005
1.863000e+000,-1.846342e-006,1.370840e-005
1.863794e+000,7.888914e-006,1.370736e-005
1.864588e+000,2.937362e-005,1.371254e-005
1.865382e+000,4.531930e-005,1.380861e-005
1.866176e+000,4.246586e-005,1.404039e-005
1.866971e+000,3.071641e-005,1.423958e-005
1.867765e+000,1.124590e-005,1.433944e-005
1.868559e+000,-7.553216e-006,1.434715e-005
1.869353e+000,-2.517739e-005,1.435048e-005
1.870147e+000,-2.433814e-005,1.441927e-005
1.870941e+000,-2.937362e-005,1.448053e-005
1.871735e+000,-8.224612e-006,1.456209e-005
1.872529e+000,4.078737e-005,1.455215e-005
1.873324e+000,5.539025e-006,1.472135e-005
1.874118e+000,-2.198825e-005,1.471736e-005
1.874912e+000,-1.963836e-005,1.476396e-005
1.875706e+000,-2.517739e-005,1.479936e-005
1.876500e+000,-2.903792e-005,1.486016e-005
1.877294e+000,-2.182040e-005,1.494303e-005
1.878088e+000,-1.628138e-005,1.498865e-005
1.878882e+000,-1.594568e-005,1.501074e-005
1.879676e+000,-1.980621e-005,1.503360e-005
1.880471e+000,-2.500954e-005,1.507186e-005
1.881265e+000,-2.299535e-005,1.513281e-005
1.882059e+000,-2.198825e-005,1.518314e-005
1.882853e+000,-2.333104e-005,1.522780e-005
1.883647e+000,-2.568093e-005,1.528015e-005
1.884441e+000,-2.433814e-005,1.534472e-005
1.885235e+000,-2.366674e-005,1.539788e-005
1.886029e+000,-2.366674e-005,1.544815e-005
1.886824e+000,-2.030976e-005,1.549938e-005
1.887618e+000,-2.030976e-005,1.553927e-005
1.888412e+000,-1.795987e-005,1.557872e-005
1.889206e+000,-1.158160e-005,1.560956e-005
1.890000e+000,-4.531929e-006,1.562197e-005
1.890794e+000,-1.678492e-007,1.562280e-005
1.891588e+000,8.224612e-006,1.562176e-005
1.892382e+000,1.594568e-005,1.562686e-005
1.893176e+000,1.795987e-005,1.565252e-005
1.893971e+000,1.795987e-005,1.568529e-005
1.894765e+000,1.493858e-005,1.571798e-005
1.895559e+000,6.546120e-006,1.574050e-005
1.896353e+000,5.035477e-007,1.574470e-005
1.897147e+000,5.874723e-006,1.574438e-005
1.897941e+000,8.224612e-006,1.574649e-005
1.898735e+000,5.874723e-006,1.575182e-005
1.899529e+000,-3.189136e-006,1.575524e-005
1.900324e+000,-1.292439e-005,1.575604e-005
1.901118e+000,-1.493858e-005,1.577268e-005
1.901912e+000,-1.829557e-005,1.579342e-005
1.902706e+000,-1.896696e-005,1.582404e-005
1.903500e+000,-1.493858e-005,1.585590e-005
1.904294e+000,-1.225299e-005,1.587443e-005
1.905088e+000,-5.874723e-006,1.588376e-005
1.905882e+000,3.524834e-006,1.588247e-005
1.906676e+000,1.191730e-005,1.587985e-005
1.907471e+000,8.560311e-006,1.588731e-005
1.908265e+000,-5.539025e-006,1.588731e-005
1.909059e+000,-1.560998e-005,1.588414e-005
1.909853e+000,-1.963836e-005,1.589873e-005
1.910647e+000,-1.426719e-005,1.593109e-005
1.911441e+000,-1.359579e-005,1.594836e-005
1.912235e+000,-1.560998e-005,1.596445e-005
1.913029e+000,-1.527428e-005,1.598568e-005
1.913824e+000,-9.567407e-006,1.600419e-005
1.914618e+000,5.035477e-007,1.600946e-005
1.915412e+000,-6.713969e-007,1.600744e-005
1.916206e+000,-5.874723e-006,1.600647e-005
1.917000e+000,-1.426719e-005,1.600957e-005
1.917794e+000,-2.165255e-005,1.602675e-005
1.918588e+000,-2.232395e-005,1.606761e-005
1.919382e+000,-1.963836e-005,1.611024e-005
1.920176e+000,-1.493858e-005,1.614164e-005
1.920971e+000,-7.888914e-006,1.615398e-005
1.921765e+000,-3.524834e-006,1.615498e-005
1.922559e+000,-1.174945e-006,1.615240e-005
1.923353e+000,-5.539025e-006,1.614873e-005
1.924147e+000,-9.903105e-006,1.615053e-005
1.924941e+000,-9.567407e-006,1.615920e-005
1.925735e+000,3.541619e-005,1.616699e-005
1.926529e+000,4.917983e-005,1.628588e-005
1.927324e+000,2.265965e-005,1.651654e-005
1.928118e+000,5.874723e-006,1.656369e-005
1.928912e+000,-7.217518e-006,1.656440e-005
1.929706e+000,-1.560998e-005,1.656609e-005
1.930500e+000,-1.695277e-005,1.658722e-005
1.931294e+000,-1.661708e-005,1.661310e-005
1.932088e+000,-1.393149e-005,1.663456e-005
1.932882e+000,-1.326009e-005,1.664815e-005
1.933676e+000,-5.706874e-006,1.666328e-005
1.934471e+000,2.182040e-006,1.666309e-005
1.935265e+000,7.888914e-006,1.666061e-005
1.936059e+000,-3.189136e-006,1.666578e-005
1.936853e+000,-4.531929e-006,1.666449e-005
1.937647e+000,-1.846342e-006,1.666352e-005
1.938441e+000,-7.553216e-006,1.666055e-005
1.939235e+000,-6.210422e-006,1.666307e-005
1.940029e+000,-6.378271e-006,1.666130e-005
1.940824e+000,-9.735256e-006,1.665484e-005
1.941618e+000,-2.198825e-005,1.665453e-005
1.942412e+000,-3.138781e-005,1.669101e-005
1.943206e+000,-3.877317e-005,1.677543e-005
1.944000e+000,-4.347295e-005,1.691428e-005
1.944794e+000,-3.575189e-005,1.708729e-005
1.945588e+000,-2.903792e-005,1.720071e-005
1.946382e+000,-2.668803e-005,1.727541e-005
1.947176e+000,-1.829557e-005,1.733659e-005
1.947971e+000,-5.539025e-006,1.736253e-005
1.948765e+000,9.903105e-006,1.735914e-005
1.949559e+000,1.426719e-005,1.736420e-005
1.950353e+000,3.189136e-006,1.737951e-005
1.951147e+000,-8.560311e-006,1.737764e-005
1.951941e+000,1.930266e-005,1.738321e-005
1.952735e+000,8.879225e-005,1.741378e-005
1.953529e+000,9.047074e-005,1.811580e-005
1.954324e+000,9.315633e-005,1.881710e-005
1.955118e+000,8.543526e-005,1.953302e-005
1.955912e+000,8.090334e-005,2.011433e-005
1.956706e+000,4.011597e-005,2.062197e-005
1.957500e+000,-2.668803e-005,2.074290e-005
1.958294e+000,-4.112306e-005,2.079232e-005
1.959088e+000,-2.366674e-005,2.091709e-005
1.959882e+000,-2.232395e-005,2.095591e-005
1.960676e+000,-1.896696e-005,2.098997e-005
1.961471e+000,1.309224e-005,2.101400e-005
1.962265e+000,1.258869e-005,2.102407e-005
1.963059e+000,-9.903105e-006,2.103401e-005
1.963853e+000,-2.232395e-005,2.103988e-005
1.964647e+000,-3.440909e-005,2.107757e-005
1.965441e+000,-3.843748e-005,2.116641e-005
1.966235e+000,-3.642328e-005,2.127716e-005
1.967029e+000,-3.239490e-005,2.137529e-005
1.967824e+000,-3.340200e-005,2.145202e-005
1.968618e+000,-3.709468e-005,2.153337e-005
1.969412e+000,-3.373770e-005,2.163397e-005
1.970206e+000,-3.239490e-005,2.171685e-005
1.971000e+000,-2.903792e-005,2.179306e-005
1.971794e+000,-2.853437e-005,2.185330e-005
1.972588e+000,-3.306630e-005,2.190944e-005
1.973382e+000,-2.970932e-005,2.198654e-005
1.974176e+000,-2.970932e-005,2.204963e-005
1.974971e+000,-3.038071e-005,2.211202e-005
1.975765e+000,-2.232395e-005,2.217644e-005
1.976559e+000,-1.997406e-005,2.221093e-005
1.977353e+000,-2.383459e-005,2.223906e-005
1.978147e+000,-2.433814e-005,2.227881e-005
1.978941e+000,-2.131685e-005,2.231547e-005
1.979735e+000,-2.215610e-005,2.234134e-005
1.980529e+000,-2.165255e-005,2.236730e-005
1.981324e+000,-2.702373e-005,2.239112e-005
1.982118e+000,-3.860533e-005,2.243995e-005
1.982912e+000,-5.622950e-005,2.254367e-005
1.983706e+000,-5.421531e-005,2.276320e-005
1.984500e+000,-4.716563e-005,2.296493e-005
1.985294e+000,-4.380865e-005,2.311810e-005
1.986088e+000,-1.460288e-005,2.324871e-005
1.986882e+000,3.944457e-005,2.326007e-005
1.987676e+000,9.382772e-005,2.336095e-005
1.988471e+000,8.476387e-005,2.395148e-005
1.989265e+000,3.743038e-005,2.442196e-005
1.990059e+000,3.071641e-005,2.451007e-005
1.990853e+000,2.668803e-005,2.456654e-005
1.991647e+000,4.548714e-005,2.460960e-005
1.992441e+000,7.234302e-005,2.474137e-005
1.993235e+000,1.059129e-004,2.507053e-005
1.994029e+000,8.039978e-005,2.577078e-005
1.994824e+000,4.716563e-005,2.616590e-005
1.995618e+000,4.011597e-005,2.629949e-005
1.996412e+000,-1.359579e-005,2.639300e-005
1.997206e+000,-2.853437e-005,2.640070e-005
1.998000e+000,-1.628138e-005,2.644814e-005
1.998794e+000,-1.460288e-005,2.646267e-005
1.999588e+000,-7.553216e-006,2.647236e-005
2.000382e+000,8.560311e-006,2.647236e-005
2.001176e+000,2.450599e-005,2.647445e-005
2.001971e+000,7.335011e-005,2.650770e-005
2.002765e+000,4.917983e-005,2.682614e-005
2.003559e+000,-2.500954e-005,2.696705e-005
2.004353e+000,-9.080644e-005,2.700246e-005
2.005147e+000,-1.257191e-004,2.748323e-005
2.005941e+000,-8.644236e-005,2.838156e-005
2.006735e+000,-3.004501e-005,2.879691e-005
2.007529e+000,-1.158160e-005,2.884466e-005
2.008324e+000,-4.850843e-005,2.884769e-005
2.009118e+000,-8.107119e-005,2.897326e-005
2.009912e+000,-5.522240e-005,2.932888e-005
2.010706e+000,1.863127e-005,2.949179e-005
2.011500e+000,-3.373770e-005,2.950844e-005
2.012294e+000,-4.515145e-005,2.956725e-005
2.013088e+000,4.347295e-005,2.967430e-005
2.013882e+000,7.570001e-005,2.977192e-005
2.014676e+000,5.958648e-005,3.007167e-005
2.015471e+000,3.390555e-005,3.025553e-005
2.016265e+000,-6.546120e-006,3.031436e-005
2.017059e+000,-6.092927e-005,3.031436e-005
2.017853e+000,-8.627451e-005,3.050627e-005
2.018647e+000,-5.488670e-005,3.089183e-005
2.019441e+000,6.210422e-006,3.104582e-005
2.020235e+000,5.824369e-005,3.104658e-005
2.021029e+000,3.675899e-005,3.121945e-005
2.021824e+000,1.644922e-005,3.128633e-005
2.022618e+000,-8.560311e-006,3.129854e-005
2.023412e+000,-5.320821e-005,3.130195e-005
2.024206e+000,-7.435722e-005,3.144427e-005
2.025000e+000,-6.076142e-005,3.172148e-005
2.025794e+000,-4.464790e-005,3.190509e-005
2.026588e+000,-2.299535e-005,3.200271e-005
2.027382e+000,1.460288e-005,3.202666e-005
2.028176e+000,4.078737e-005,3.203608e-005
2.028971e+000,5.052262e-005,3.211793e-005
2.029765e+000,-7.217518e-006,3.224306e-005
2.030559e+000,-4.414435e-005,3.224476e-005
2.031353e+000,-1.762417e-005,3.233998e-005
2.032147e+000,1.191730e-005,3.235316e-005
2.032941e+000,1.376364e-005,3.235759e-005
2.033735e+000,1.443504e-005,3.236447e-005
2.034529e+000,5.035477e-007,3.237215e-005
2.035324e+000,-1.779202e-005,3.236936e-005
2.036118e+000,2.349889e-006,3.238260e-005
2.036912e+000,-4.263371e-005,3.238201e-005
2.037706e+000,-1.015488e-004,3.247125e-005
2.038500e+000,-6.260777e-005,3.297277e-005
2.039294e+000,8.073549e-005,3.316104e-005
2.040088e+000,1.858091e-004,3.347218e-005
2.040882e+000,1.728847e-005,3.507404e-005
2.041676e+000,-1.126268e-004,3.508316e-005
2.042471e+000,-3.138781e-005,3.565319e-005
2.043265e+000,6.546120e-005,3.569695e-005
2.044059e+000,5.723659e-005,3.588758e-005
2.044853e+000,-3.524834e-006,3.603160e-005
2.045647e+000,-4.985122e-005,3.603209e-005
2.046441e+000,-7.737850e-005,3.614005e-005
2.047235e+000,-8.476387e-005,3.640063e-005
2.048029e+000,-6.764325e-005,3.671282e-005
2.048824e+000,-2.064546e-005,3.690926e-005
2.049618e+000,3.944457e-005,3.692632e-005
2.050412e+000,8.442817e-005,3.699253e-005
2.051206e+000,8.224613e-005,3.729729e-005
2.052000e+000,7.469291e-005,3.758334e-005
2.052794e+000,6.025788e-005,3.781753e-005
2.053588e+000,-1.158160e-005,3.796812e-005
2.054382e+000,-9.382772e-005,3.797079e-005
2.055176e+000,-1.411612e-004,3.833540e-005
2.055971e+000,-1.012131e-004,3.915182e-005
2.056765e+000,-2.500954e-005,3.956617e-005
2.057559e+000,2.333104e-005,3.959051e-005
2.058353e+000,5.421531e-005,3.960968e-005
2.059147e+000,1.112840e-004,3.972400e-005
2.059941e+000,1.572747e-004,4.021141e-005
2.060735e+000,6.327916e-005,4.117409e-005
2.061529e+000,1.728847e-005,4.132462e-005
2.062324e+000,-2.853437e-006,4.133235e-005
2.063118e+000,-6.009003e-005,4.132836e-005
2.063912e+000,-6.865034e-005,4.146132e-005
2.064706e+000,-5.958648e-005,4.163005e-005
2.065500e+000,-6.059357e-005,4.175334e-005
2.066294e+000,-7.838559e-005,4.188305e-005
2.067088e+000,-1.560998e-005,4.210514e-005
2.067882e+000,-8.073549e-005,4.210261e-005
2.068676e+000,-2.190433e-004,4.234076e-005
2.069471e+000,-2.395209e-004,4.410227e-005
2.070265e+000,-1.216907e-004,4.612187e-005
2.071059e+000,9.517052e-005,4.662803e-005
2.071853e+000,3.227741e-004,4.693629e-005
2.072647e+000,2.405280e-004,5.034585e-005
2.073441e+000,1.896696e-005,5.214338e-005
2.074235e+000,7.402152e-005,5.215254e-005
2.075029e+000,1.958801e-004,5.231678e-005
2.075824e+000,5.958648e-005,5.347149e-005
2.076618e+000,-4.045167e-005,5.357543e-005
2.077412e+000,3.860533e-006,5.361617e-005
2.078206e+000,5.539025e-006,5.360738e-005
2.079000e+000,-4.481575e-005,5.360793e-005
2.079794e+000,-1.203479e-004,5.366745e-005
2.080588e+000,-1.106127e-004,5.409260e-005
2.081382e+000,-6.529335e-005,5.444106e-005
2.082176e+000,-5.555810e-005,5.455276e-005
2.082971e+000,-6.277562e-005,5.463193e-005
2.083765e+000,-7.200732e-005,5.474549e-005
2.084559e+000,-9.013504e-005,5.486751e-005
2.085353e+000,-1.069200e-004,5.499893e-005
2.086147e+000,-1.268940e-004,5.531043e-005
2.086941e+000,-1.408255e-004,5.577178e-005
2.087735e+000,-1.324331e-004,5.628497e-005
2.088529e+000,-1.069200e-004,5.672918e-005
2.089324e+000,-5.253681e-005,5.703803e-005
2.090118e+000,-1.158160e-005,5.710733e-005
2.090912e+000,2.534523e-005,5.711050e-005
2.091706e+000,5.220111e-005,5.712733e-005
2.092500e+000,8.812085e-005,5.720120e-005
2.093294e+000,1.314260e-004,5.740834e-005
2.094088e+000,1.816129e-004,5.785288e-005
2.094882e+000,2.207217e-004,5.864276e-005
2.095676e+000,2.321355e-004,5.977183e-005
2.096471e+000,2.143435e-004,6.112411e-005
2.097265e+000,1.346151e-004,6.230606e-005
2.098059e+000,1.364614e-004,6.276075e-005
2.098853e+000,1.381399e-004,6.322657e-005
2.099647e+000,-2.970932e-005,6.370306e-005
2.100441e+000,-5.874724e-005,6.372259e-005
2.101235e+000,7.486076e-005,6.380503e-005
2.102029e+000,5.622950e-005,6.394013e-005
2.102824e+000,-2.366674e-005,6.401250e-005
2.103618e+000,-3.910887e-005,6.402338e-005
2.104412e+000,-5.589380e-005,6.405535e-005
2.105206e+000,-7.200732e-005,6.411005e-005
2.106000e+000,-7.905699e-005,6.417371e-005
2.106794e+000,-8.274968e-005,6.427351e-005
2.107588e+000,-8.744946e-005,6.440892e-005
2.108382e+000,-9.047074e-005,6.455668e-005
2.109176e+000,-8.946365e-005,6.474709e-005
2.109971e+000,-8.946365e-005,6.493572e-005
2.110765e+000,-8.610666e-005,6.504775e-005
2.111559e+000,-8.274968e-005,6.511497e-005
2.112353e+000,-7.905699e-005,6.527214e-005
2.113147e+000,-7.284657e-005,6.542436e-005
2.113941e+000,-6.478981e-005,6.555187e-005
2.114735e+000,-5.992218e-005,6.563283e-005
2.115529e+000,-5.119402e-005,6.567011e-005
2.116324e+000,-4.112306e-005,6.568993e-005
2.117118e+000,-3.054856e-005,6.570805e-005
2.117912e+000,-1.762417e-005,6.572760e-005
2.118706e+000,-1.258869e-005,6.573374e-005
2.119500e+000,-3.508049e-005,6.572222e-005
2.120294e+000,-5.455100e-005,6.573769e-005
2.121088e+000,-5.589380e-005,6.578885e-005
2.121882e+000,-4.783703e-005,6.586278e-005
2.122676e+000,-3.860533e-005,6.587789e-005
2.123471e+000,-2.568093e-005,6.591316e-005
2.124265e+000,5.874723e-006,6.591742e-005
2.125059e+000,7.032883e-005,6.590893e-005
2.125853e+000,1.198444e-004,6.601303e-005
2.126647e+000,5.018692e-005,6.633835e-005
2.127441e+000,2.333104e-005,6.638736e-005
2.128235e+000,9.987030e-005,6.639406e-005
2.129029e+000,1.502251e-004,6.662677e-005
2.129824e+000,6.797894e-005,6.715465e-005
2.130618e+000,2.198825e-005,6.724933e-005
2.131412e+000,1.191730e-005,6.724826e-005
2.132206e+000,5.337606e-005,6.724017e-005
2.133000e+000,3.944457e-005,6.729473e-005
2.133794e+000,-5.421531e-005,6.731594e-005
2.134588e+000,-8.677805e-005,6.737143e-005
2.135382e+000,5.203327e-006,6.753598e-005
2.136176e+000,6.965744e-005,6.752340e-005
2.136971e+000,-1.695277e-005,6.762803e-005
2.137765e+000,-5.656519e-005,6.762508e-005
2.138559e+000,-6.529335e-005,6.769279e-005
2.139353e+000,-7.536431e-005,6.778985e-005
2.140147e+000,-7.100023e-005,6.792265e-005
2.140941e+000,-9.483482e-005,6.804073e-005
2.141735e+000,-1.153124e-004,6.824930e-005
2.142529e+000,-1.166552e-004,6.855294e-005
2.143324e+000,-1.354543e-004,6.886085e-005
2.144118e+000,-1.317617e-004,6.927642e-005
2.144912e+000,-1.122911e-004,6.966923e-005
2.145706e+000,-6.596475e-005,6.995586e-005
2.146500e+000,2.500954e-005,7.005483e-005
2.147294e+000,7.502861e-005,7.006826e-005
2.148088e+000,6.730755e-005,7.019454e-005
2.148882e+000,1.233692e-004,7.029645e-005
2.149676e+000,1.743954e-004,7.064015e-005
2.150471e+000,1.935302e-004,7.131870e-005
2.151265e+000,1.468681e-004,7.214518e-005
2.152059e+000,5.555810e-005,7.261237e-005
2.152853e+000,-2.433814e-005,7.267214e-005
2.153647e+000,-8.342107e-005,7.268023e-005
2.154441e+000,-8.778516e-005,7.282926e-005
2.155235e+000,9.852750e-005,7.299680e-005
2.156029e+000,1.764096e-004,7.320799e-005
2.156824e+000,6.747540e-005,7.387873e-005
2.157618e+000,-8.896010e-006,7.397521e-005
2.158412e+000,-1.393149e-005,7.397625e-005
2.159206e+000,5.757229e-005,7.397519e-005
2.160000e+000,2.375067e-004,7.403821e-005
2.160794e+000,1.508965e-004,7.523733e-005
2.161588e+000,-4.766919e-005,7.571382e-005
2.162382e+000,-4.733349e-005,7.575647e-005
2.163176e+000,2.803082e-005,7.579865e-005
2.163971e+000,-4.649424e-005,7.581323e-005
2.164765e+000,-1.240406e-004,7.585862e-005
2.165559e+000,-1.183337e-004,7.618089e-005
2.166353e+000,-8.493171e-005,7.647230e-005
2.167147e+000,-7.402152e-005,7.661813e-005
2.167941e+000,-1.252155e-004,7.672219e-005
2.168735e+000,-1.750668e-004,7.703662e-005
