X [s],L BICEPS BRACHII: EMG 4 [V],L BICEPS BRACHII: EMG 4->filter (FilterSlidingRMS33) [V]
0.000000e+000,0.000000e+000,0.000000e+000
7.941176e-004,0.000000e+000,0.000000e+000
1.588235e-003,0.000000e+000,0.000000e+000
2.382353e-003,0.000000e+000,0.000000e+000
3.176471e-003,0.000000e+000,0.000000e+000
3.970588e-003,0.000000e+000,0.000000e+000
4.764706e-003,0.000000e+000,0.000000e+000
5.558824e-003,0.000000e+000,0.000000e+000
6.352941e-003,0.000000e+000,0.000000e+000
7.147059e-003,0.000000e+000,0.000000e+000
7.941176e-003,0.000000e+000,0.000000e+000
8.735294e-003,0.000000e+000,0.000000e+000
9.529412e-003,0.000000e+000,0.000000e+000
1.032353e-002,0.000000e+000,0.000000e+000
1.111765e-002,0.000000e+000,0.000000e+000
1.191176e-002,0.000000e+000,0.000000e+000
1.270588e-002,0.000000e+000,0.000000e+000
1.350000e-002,0.000000e+000,0.000000e+000
1.429412e-002,0.000000e+000,0.000000e+000
1.508824e-002,0.000000e+000,0.000000e+000
1.588235e-002,0.000000e+000,0.000000e+000
1.667647e-002,0.000000e+000,0.000000e+000
1.747059e-002,0.000000e+000,0.000000e+000
1.826471e-002,0.000000e+000,0.000000e+000
1.905882e-002,0.000000e+000,0.000000e+000
1.985294e-002,0.000000e+000,0.000000e+000
2.064706e-002,0.000000e+000,0.000000e+000
2.144118e-002,0.000000e+000,0.000000e+000
2.223529e-002,0.000000e+000,0.000000e+000
2.302941e-002,0.000000e+000,0.000000e+000
2.382353e-002,0.000000e+000,0.000000e+000
2.461765e-002,0.000000e+000,0.000000e+000
2.541176e-002,0.000000e+000,0.000000e+000
2.620588e-002,0.000000e+000,0.000000e+000
2.700000e-002,0.000000e+000,0.000000e+000
2.779412e-002,0.000000e+000,0.000000e+000
2.858824e-002,0.000000e+000,0.000000e+000
2.938235e-002,0.000000e+000,0.000000e+000
3.017647e-002,0.000000e+000,0.000000e+000
3.097059e-002,0.000000e+000,0.000000e+000
3.176471e-002,0.000000e+000,0.000000e+000
3.255882e-002,0.000000e+000,0.000000e+000
3.335294e-002,0.000000e+000,0.000000e+000
3.414706e-002,0.000000e+000,0.000000e+000
3.494118e-002,0.000000e+000,0.000000e+000
3.573529e-002,0.000000e+000,0.000000e+000
3.652941e-002,0.000000e+000,0.000000e+000
3.732353e-002,0.000000e+000,0.000000e+000
3.811765e-002,0.000000e+000,0.000000e+000
3.891176e-002,0.000000e+000,0.000000e+000
3.970588e-002,0.000000e+000,0.000000e+000
4.050000e-002,0.000000e+000,0.000000e+000
4.129412e-002,0.000000e+000,0.000000e+000
4.208824e-002,0.000000e+000,0.000000e+000
4.288235e-002,0.000000e+000,0.000000e+000
4.367647e-002,0.000000e+000,0.000000e+000
4.447059e-002,0.000000e+000,0.000000e+000
4.526471e-002,0.000000e+000,0.000000e+000
4.605882e-002,0.000000e+000,0.000000e+000
4.685294e-002,0.000000e+000,0.000000e+000
4.764706e-002,0.000000e+000,0.000000e+000
4.844118e-002,0.000000e+000,0.000000e+000
4.923529e-002,0.000000e+000,0.000000e+000
5.002941e-002,0.000000e+000,0.000000e+000
5.082353e-002,0.000000e+000,0.000000e+000
5.161765e-002,0.000000e+000,0.000000e+000
5.241176e-002,0.000000e+000,0.000000e+000
5.320588e-002,0.000000e+000,0.000000e+000
5.400000e-002,0.000000e+000,0.000000e+000
5.479412e-002,0.000000e+000,0.000000e+000
5.558824e-002,0.000000e+000,0.000000e+000
5.638235e-002,0.000000e+000,0.000000e+000
5.717647e-002,0.000000e+000,0.000000e+000
5.797059e-002,0.000000e+000,0.000000e+000
5.876471e-002,0.000000e+000,0.000000e+000
5.955882e-002,0.000000e+000,0.000000e+000
6.035294e-002,0.000000e+000,0.000000e+000
6.114706e-002,0.000000e+000,0.000000e+000
6.194118e-002,0.000000e+000,0.000000e+000
6.273529e-002,0.000000e+000,0.000000e+000
6.352941e-002,0.000000e+000,0.000000e+000
6.432353e-002,0.000000e+000,0.000000e+000
6.511765e-002,0.000000e+000,0.000000e+000
6.591176e-002,0.000000e+000,0.000000e+000
6.670588e-002,0.000000e+000,0.000000e+000
6.750000e-002,0.000000e+000,0.000000e+000
6.829412e-002,0.000000e+000,0.000000e+000
6.908824e-002,0.000000e+000,0.000000e+000
6.988235e-002,0.000000e+000,0.000000e+000
7.067647e-002,0.000000e+000,0.000000e+000
7.147059e-002,0.000000e+000,0.000000e+000
7.226471e-002,0.000000e+000,0.000000e+000
7.305882e-002,0.000000e+000,0.000000e+000
7.385294e-002,0.000000e+000,0.000000e+000
7.464706e-002,0.000000e+000,0.000000e+000
7.544118e-002,0.000000e+000,0.000000e+000
7.623529e-002,0.000000e+000,0.000000e+000
7.702941e-002,0.000000e+000,0.000000e+000
7.782353e-002,0.000000e+000,0.000000e+000
7.861765e-002,0.000000e+000,0.000000e+000
7.941176e-002,0.000000e+000,0.000000e+000
8.020588e-002,0.000000e+000,0.000000e+000
8.100000e-002,0.000000e+000,0.000000e+000
8.179412e-002,0.000000e+000,0.000000e+000
8.258824e-002,0.000000e+000,0.000000e+000
8.338235e-002,0.000000e+000,0.000000e+000
8.417647e-002,0.000000e+000,0.000000e+000
8.497059e-002,0.000000e+000,0.000000e+000
8.576471e-002,0.000000e+000,0.000000e+000
8.655882e-002,0.000000e+000,0.000000e+000
8.735294e-002,0.000000e+000,0.000000e+000
8.814706e-002,0.000000e+000,0.000000e+000
8.894118e-002,0.000000e+000,0.000000e+000
8.973529e-002,0.000000e+000,0.000000e+000
9.052941e-002,0.000000e+000,0.000000e+000
9.132353e-002,0.000000e+000,0.000000e+000
9.211765e-002,0.000000e+000,0.000000e+000
9.291176e-002,0.000000e+000,0.000000e+000
9.370588e-002,0.000000e+000,0.000000e+000
9.450000e-002,0.000000e+000,0.000000e+000
9.529412e-002,0.000000e+000,0.000000e+000
9.608824e-002,0.000000e+000,0.000000e+000
9.688235e-002,0.000000e+000,0.000000e+000
9.767647e-002,0.000000e+000,0.000000e+000
9.847059e-002,0.000000e+000,0.000000e+000
9.926471e-002,0.000000e+000,0.000000e+000
1.000588e-001,0.000000e+000,0.000000e+000
1.008529e-001,0.000000e+000,0.000000e+000
1.016471e-001,0.000000e+000,0.000000e+000
1.024412e-001,0.000000e+000,0.000000e+000
1.032353e-001,0.000000e+000,0.000000e+000
1.040294e-001,0.000000e+000,0.000000e+000
1.048235e-001,0.000000e+000,0.000000e+000
1.056176e-001,0.000000e+000,0.000000e+000
1.064118e-001,0.000000e+000,0.000000e+000
1.072059e-001,0.000000e+000,0.000000e+000
1.080000e-001,-1.628138e-005,0.000000e+000
1.087941e-001,-8.560311e-006,0.000000e+000
1.095882e-001,-1.443504e-005,0.000000e+000
1.103824e-001,-1.376364e-005,0.000000e+000
1.111765e-001,-1.057450e-005,0.000000e+000
1.119706e-001,-1.023880e-005,0.000000e+000
1.127647e-001,-1.493858e-005,0.000000e+000
1.135588e-001,-1.493858e-005,0.000000e+000
1.143529e-001,-1.359579e-005,0.000000e+000
1.151471e-001,-1.594568e-005,0.000000e+000
1.159412e-001,-1.493858e-005,0.000000e+000
1.167353e-001,-1.762417e-005,0.000000e+000
1.175294e-001,-1.493858e-005,0.000000e+000
1.183235e-001,-1.091020e-005,0.000000e+000
1.191176e-001,-1.023880e-005,0.000000e+000
1.199118e-001,-1.225299e-005,0.000000e+000
1.207059e-001,-1.158160e-005,0.000000e+000
1.215000e-001,-1.174945e-005,0.000000e+000
1.222941e-001,-9.903105e-006,0.000000e+000
1.230882e-001,-1.091020e-005,0.000000e+000
1.238824e-001,-9.567407e-006,0.000000e+000
1.246765e-001,-1.292439e-005,0.000000e+000
1.254706e-001,-1.359579e-005,0.000000e+000
1.262647e-001,-9.567407e-006,0.000000e+000
1.270588e-001,-8.224612e-006,0.000000e+000
1.278529e-001,-7.553216e-006,0.000000e+000
1.286471e-001,-7.888914e-006,0.000000e+000
1.294412e-001,-7.217518e-006,0.000000e+000
1.302353e-001,-8.560311e-006,0.000000e+000
1.310294e-001,-1.091020e-005,0.000000e+000
1.318235e-001,-9.903105e-006,0.000000e+000
1.326176e-001,-1.023880e-005,0.000000e+000
1.334118e-001,-9.903105e-006,0.000000e+000
1.342059e-001,-9.567407e-006,0.000000e+000
1.350000e-001,-1.158160e-005,0.000000e+000
1.357941e-001,-1.124590e-005,0.000000e+000
1.365882e-001,-7.553216e-006,0.000000e+000
1.373824e-001,-9.567407e-006,0.000000e+000
1.381765e-001,-1.158160e-005,0.000000e+000
1.389706e-001,-1.225299e-005,0.000000e+000
1.397647e-001,-1.443504e-005,0.000000e+000
1.405588e-001,-1.493858e-005,0.000000e+000
1.413529e-001,-1.242084e-005,0.000000e+000
1.421471e-001,-1.292439e-005,0.000000e+000
1.429412e-001,-1.023880e-005,0.000000e+000
1.437353e-001,-1.091020e-005,0.000000e+000
1.445294e-001,-1.493858e-005,0.000000e+000
1.453235e-001,-1.426719e-005,0.000000e+000
1.461176e-001,-1.359579e-005,0.000000e+000
1.469118e-001,-1.560998e-005,0.000000e+000
1.477059e-001,-1.628138e-005,0.000000e+000
1.485000e-001,-1.493858e-005,0.000000e+000
1.492941e-001,-1.258869e-005,0.000000e+000
1.500882e-001,-1.091020e-005,0.000000e+000
1.508824e-001,-8.224612e-006,0.000000e+000
1.516765e-001,-8.896010e-006,0.000000e+000
1.524706e-001,-1.023880e-005,0.000000e+000
1.532647e-001,-1.225299e-005,0.000000e+000
1.540588e-001,-1.023880e-005,0.000000e+000
1.548529e-001,-9.903105e-006,0.000000e+000
1.556471e-001,-6.881819e-006,0.000000e+000
1.564412e-001,-8.560311e-006,0.000000e+000
1.572353e-001,-1.091020e-005,0.000000e+000
1.580294e-001,-1.091020e-005,0.000000e+000
1.588235e-001,-1.258869e-005,0.000000e+000
1.596176e-001,-1.426719e-005,0.000000e+000
1.604118e-001,-9.567407e-006,0.000000e+000
1.612059e-001,-8.896010e-006,0.000000e+000
1.620000e-001,-1.225299e-005,0.000000e+000
1.627941e-001,-1.040665e-005,0.000000e+000
1.635882e-001,-1.292439e-005,0.000000e+000
1.643824e-001,-1.493858e-005,0.000000e+000
1.651765e-001,-1.493858e-005,0.000000e+000
1.659706e-001,-1.460288e-005,0.000000e+000
1.667647e-001,-1.225299e-005,0.000000e+000
1.675588e-001,-1.057450e-005,0.000000e+000
1.683529e-001,-1.225299e-005,0.000000e+000
1.691471e-001,-1.091020e-005,0.000000e+000
1.699412e-001,-1.225299e-005,0.000000e+000
1.707353e-001,-1.258869e-005,0.000000e+000
1.715294e-001,-1.292439e-005,0.000000e+000
1.723235e-001,-1.174945e-005,0.000000e+000
1.731176e-001,-1.393149e-005,0.000000e+000
1.739118e-001,-1.560998e-005,0.000000e+000
1.747059e-001,-1.158160e-005,0.000000e+000
1.755000e-001,-1.023880e-005,0.000000e+000
1.762941e-001,-1.258869e-005,0.000000e+000
1.770882e-001,-1.577783e-005,0.000000e+000
1.778824e-001,-1.762417e-005,0.000000e+000
1.786765e-001,-1.829557e-005,0.000000e+000
1.794706e-001,-1.695277e-005,0.000000e+000
1.802647e-001,-1.493858e-005,0.000000e+000
1.810588e-001,-7.049668e-006,0.000000e+000
1.818529e-001,-2.182040e-006,0.000000e+000
1.826471e-001,5.035477e-007,0.000000e+000
1.834412e-001,-1.510643e-006,0.000000e+000
1.842353e-001,-5.539025e-006,0.000000e+000
1.850294e-001,-9.903105e-006,0.000000e+000
1.858235e-001,-1.292439e-005,0.000000e+000
1.866176e-001,-1.292439e-005,0.000000e+000
1.874118e-001,-1.091020e-005,0.000000e+000
1.882059e-001,-1.023880e-005,0.000000e+000
1.890000e-001,-1.292439e-005,0.000000e+000
1.897941e-001,-1.225299e-005,0.000000e+000
1.905882e-001,-1.359579e-005,0.000000e+000
1.913824e-001,-1.292439e-005,0.000000e+000
1.921765e-001,-1.124590e-005,0.000000e+000
1.929706e-001,-1.158160e-005,0.000000e+000
1.937647e-001,-1.158160e-005,0.000000e+000
1.945588e-001,-1.292439e-005,0.000000e+000
1.953529e-001,-1.359579e-005,0.000000e+000
1.961471e-001,-1.292439e-005,0.000000e+000
1.969412e-001,-1.359579e-005,0.000000e+000
1.977353e-001,-1.560998e-005,0.000000e+000
1.985294e-001,-1.762417e-005,0.000000e+000
1.993235e-001,-1.896696e-005,0.000000e+000
2.001176e-001,-1.762417e-005,0.000000e+000
2.009118e-001,-1.359579e-005,0.000000e+000
2.017059e-001,-1.359579e-005,0.000000e+000
2.025000e-001,-1.359579e-005,0.000000e+000
2.032941e-001,-1.393149e-005,0.000000e+000
2.040882e-001,-1.661708e-005,0.000000e+000
2.048824e-001,-1.695277e-005,0.000000e+000
2.056765e-001,-1.510643e-005,0.000000e+000
2.064706e-001,-1.426719e-005,0.000000e+000
2.072647e-001,-1.628138e-005,0.000000e+000
2.080588e-001,-1.426719e-005,0.000000e+000
2.088529e-001,-1.158160e-005,0.000000e+000
2.096471e-001,-1.225299e-005,0.000000e+000
2.104412e-001,-1.426719e-005,0.000000e+000
2.112353e-001,-1.292439e-005,0.000000e+000
2.120294e-001,-1.493858e-005,0.000000e+000
2.128235e-001,-1.091020e-005,0.000000e+000
2.136176e-001,-9.903105e-006,0.000000e+000
2.144118e-001,-1.309224e-005,0.000000e+000
2.152059e-001,-1.124590e-005,0.000000e+000
2.160000e-001,-7.553216e-006,0.000000e+000
2.167941e-001,-9.567407e-006,0.000000e+000
2.175882e-001,-8.392462e-006,0.000000e+000
2.183824e-001,-6.881819e-006,0.000000e+000
2.191765e-001,-8.224612e-006,0.000000e+000
2.199706e-001,-7.553216e-006,0.000000e+000
2.207647e-001,-6.881819e-006,0.000000e+000
2.215588e-001,-7.553216e-006,0.000000e+000
2.223529e-001,-9.231709e-006,0.000000e+000
2.231471e-001,-4.867628e-006,0.000000e+000
2.239412e-001,-7.721065e-006,0.000000e+000
2.247353e-001,-9.231709e-006,0.000000e+000
2.255294e-001,-7.553216e-006,0.000000e+000
2.263235e-001,-9.231709e-006,0.000000e+000
2.271176e-001,-7.553216e-006,0.000000e+000
2.279118e-001,-9.567407e-006,0.000000e+000
2.287059e-001,-9.063859e-006,0.000000e+000
2.295000e-001,-8.896010e-006,0.000000e+000
2.302941e-001,-9.567407e-006,0.000000e+000
2.310882e-001,-1.124590e-005,0.000000e+000
2.318824e-001,-1.275654e-005,0.000000e+000
2.326765e-001,-1.258869e-005,0.000000e+000
2.334706e-001,-9.567407e-006,0.000000e+000
2.342647e-001,-1.158160e-005,0.000000e+000
2.350588e-001,-1.359579e-005,0.000000e+000
2.358529e-001,-1.460288e-005,0.000000e+000
2.366471e-001,-1.695277e-005,0.000000e+000
2.374412e-001,-2.081331e-005,0.000000e+000
2.382353e-001,-2.232395e-005,0.000000e+000
2.390294e-001,-1.863127e-005,0.000000e+000
2.398235e-001,-1.560998e-005,0.000000e+000
2.406176e-001,-1.762417e-005,0.000000e+000
2.414118e-001,-1.560998e-005,0.000000e+000
2.422059e-001,-1.158160e-005,0.000000e+000
2.430000e-001,-7.888914e-006,0.000000e+000
2.437941e-001,-8.560311e-006,0.000000e+000
2.445882e-001,-9.567407e-006,0.000000e+000
2.453824e-001,-6.881819e-006,0.000000e+000
2.461765e-001,-7.217518e-006,0.000000e+000
2.469706e-001,-8.224612e-006,0.000000e+000
2.477647e-001,-9.567407e-006,0.000000e+000
2.485588e-001,-6.881819e-006,0.000000e+000
2.493529e-001,-6.210422e-006,9.240490e-006
2.501471e-001,-7.553216e-006,9.247134e-006
2.509412e-001,-9.063859e-006,9.256953e-006
2.517353e-001,-1.023880e-005,9.271074e-006
2.525294e-001,-9.567407e-006,9.289062e-006
2.533235e-001,-9.903105e-006,9.304740e-006
2.541176e-001,-1.225299e-005,9.321509e-006
2.549118e-001,-1.124590e-005,9.347121e-006
2.557059e-001,-1.426719e-005,9.368641e-006
2.565000e-001,-1.091020e-005,9.403175e-006
2.572941e-001,-1.258869e-005,9.423310e-006
2.580882e-001,-1.292439e-005,9.450051e-006
2.588824e-001,-1.560998e-005,9.478156e-006
2.596765e-001,-1.762417e-005,9.519005e-006
2.604706e-001,-1.661708e-005,9.570825e-006
2.612647e-001,-1.695277e-005,9.616656e-006
2.620588e-001,-1.628138e-005,9.664127e-006
2.628529e-001,-1.493858e-005,9.707706e-006
2.636471e-001,-1.560998e-005,9.744243e-006
2.644412e-001,-1.359579e-005,9.783981e-006
2.652353e-001,-1.258869e-005,9.814019e-006
2.660294e-001,-1.292439e-005,9.839699e-006
2.668235e-001,-1.493858e-005,9.866693e-006
2.676176e-001,-1.594568e-005,9.902644e-006
2.684118e-001,-1.158160e-005,9.943446e-006
2.692059e-001,-1.124590e-005,9.964902e-006
2.700000e-001,-1.091020e-005,9.985091e-006
2.707941e-001,-8.224612e-006,1.000406e-005
2.715882e-001,-1.023880e-005,1.001482e-005
2.723824e-001,-1.040665e-005,1.003147e-005
2.731765e-001,-1.040665e-005,1.004865e-005
2.739706e-001,-1.158160e-005,1.006579e-005
2.747647e-001,-1.023880e-005,1.008699e-005
2.755588e-001,-9.567407e-006,1.010353e-005
2.763529e-001,-1.158160e-005,1.011794e-005
2.771471e-001,-1.158160e-005,1.013903e-005
2.779412e-001,-9.735256e-006,1.016007e-005
2.787353e-001,-9.567407e-006,1.017492e-005
2.795294e-001,-6.881819e-006,1.018923e-005
2.803235e-001,-8.896010e-006,1.019663e-005
2.811176e-001,-1.124590e-005,1.020898e-005
2.819118e-001,-1.124590e-005,1.022869e-005
2.827059e-001,-9.567407e-006,1.024836e-005
2.835000e-001,-8.560311e-006,1.026257e-005
2.842941e-001,-8.896010e-006,1.027394e-005
2.850882e-001,-9.567407e-006,1.028619e-005
2.858824e-001,-9.903105e-006,1.030035e-005
2.866765e-001,-1.376364e-005,1.031550e-005
2.874706e-001,-1.091020e-005,1.034471e-005
2.882647e-001,-1.091020e-005,1.036301e-005
2.890588e-001,-1.091020e-005,1.038129e-005
2.898529e-001,-1.023880e-005,1.039953e-005
2.906471e-001,-1.057450e-005,1.041557e-005
2.914412e-001,-1.292439e-005,1.043265e-005
2.922353e-001,-1.460288e-005,1.045811e-005
2.930294e-001,-1.225299e-005,1.049053e-005
2.938235e-001,-1.359579e-005,1.051330e-005
2.946176e-001,-1.376364e-005,1.054126e-005
2.954118e-001,-1.644922e-005,1.056983e-005
2.962059e-001,-1.560998e-005,1.061052e-005
2.970000e-001,-1.527428e-005,1.064702e-005
2.977941e-001,-1.896696e-005,1.068186e-005
2.985882e-001,-1.762417e-005,1.073535e-005
2.993824e-001,-1.762417e-005,1.078133e-005
3.001765e-001,-1.829557e-005,1.082711e-005
3.009706e-001,-1.577783e-005,1.087622e-005
3.017647e-001,-1.829557e-005,1.091261e-005
3.025588e-001,-1.594568e-005,1.096134e-005
3.033529e-001,-1.426719e-005,1.099822e-005
3.041471e-001,-1.443504e-005,1.102765e-005
3.049412e-001,-1.460288e-005,1.105770e-005
3.057353e-001,-1.359579e-005,1.108836e-005
3.065294e-001,-1.158160e-005,1.111488e-005
3.073235e-001,-1.258869e-005,1.113408e-005
3.081176e-001,-1.594568e-005,1.115672e-005
3.089118e-001,-1.158160e-005,1.119295e-005
3.097059e-001,-8.896010e-006,1.121201e-005
3.105000e-001,-7.553216e-006,1.122325e-005
3.112941e-001,-9.567407e-006,1.123134e-005
3.120882e-001,-6.210422e-006,1.124431e-005
3.128824e-001,-2.853437e-006,1.124977e-005
3.136765e-001,-2.182040e-006,1.125092e-005
3.144706e-001,-8.392462e-007,1.125160e-005
3.152647e-001,8.392462e-007,1.125170e-005
3.160588e-001,-8.392462e-007,1.125180e-005
3.168529e-001,-2.517739e-006,1.125189e-005
3.176471e-001,-1.846342e-006,1.125279e-005
3.184412e-001,-4.867628e-006,1.125327e-005
3.192353e-001,-6.210422e-006,1.125663e-005
3.200294e-001,-7.888914e-006,1.126208e-005
3.208235e-001,-1.023880e-005,1.127088e-005
3.216176e-001,-1.359579e-005,1.128568e-005
3.224118e-001,-1.510643e-005,1.131173e-005
3.232059e-001,-1.644922e-005,1.134381e-005
3.240000e-001,-2.098116e-005,1.138173e-005
3.247941e-001,-1.762417e-005,1.144315e-005
3.255882e-001,-1.191730e-005,1.148629e-005
3.263824e-001,-7.888914e-006,1.150596e-005
3.271765e-001,-6.546120e-006,1.151457e-005
3.279706e-001,-8.224612e-006,1.152050e-005
3.287647e-001,-1.258869e-005,1.152984e-005
3.295588e-001,-1.359579e-005,1.155171e-005
3.303529e-001,-1.628138e-005,1.157716e-005
3.311471e-001,-1.762417e-005,1.161356e-005
3.319412e-001,-2.299535e-005,1.165607e-005
3.327353e-001,-2.232395e-005,1.172809e-005
3.335294e-001,-2.098116e-005,1.179556e-005
3.343235e-001,-2.232395e-005,1.185484e-005
3.351176e-001,-1.846342e-005,1.192159e-005
3.359118e-001,-1.795987e-005,1.196704e-005
3.367059e-001,-1.493858e-005,1.200988e-005
3.375000e-001,-1.225299e-005,1.203943e-005
3.382941e-001,-1.158160e-005,1.205927e-005
3.390882e-001,-6.881819e-006,1.207697e-005
3.398824e-001,-6.881819e-006,1.208321e-005
3.406765e-001,-5.539025e-006,1.208945e-005
3.414706e-001,-4.196231e-006,1.209349e-005
3.422647e-001,-5.539025e-006,1.209581e-005
3.430588e-001,-6.546120e-006,1.209985e-005
3.438529e-001,-1.023880e-005,1.210549e-005
3.446471e-001,-8.896010e-006,1.211927e-005
3.454412e-001,-9.567407e-006,1.212966e-005
3.462353e-001,-8.896010e-006,1.214167e-005
3.470294e-001,-1.023880e-005,1.215205e-005
3.478235e-001,-1.359579e-005,1.216578e-005
3.486176e-001,-1.493858e-005,1.218995e-005
3.494118e-001,-1.577783e-005,1.221906e-005
3.502059e-001,-1.527428e-005,1.225146e-005
3.510000e-001,-1.560998e-005,1.228175e-005
3.517941e-001,-1.661708e-005,1.231330e-005
3.525882e-001,-1.644922e-005,1.234896e-005
3.533824e-001,-1.560998e-005,1.238380e-005
3.541765e-001,-1.527428e-005,1.241509e-005
3.549706e-001,-1.258869e-005,1.244498e-005
3.557647e-001,-1.493858e-005,1.246524e-005
3.565588e-001,-1.292439e-005,1.249371e-005
3.573529e-001,-1.527428e-005,1.251498e-005
3.581471e-001,-1.577783e-005,1.251094e-005
3.589412e-001,-1.292439e-005,1.253328e-005
3.597353e-001,-9.567407e-006,1.252803e-005
3.605294e-001,-9.567407e-006,1.251558e-005
3.613235e-001,-1.174945e-005,1.251300e-005
3.621176e-001,-9.903105e-006,1.251722e-005
3.629118e-001,-1.091020e-005,1.250130e-005
3.637059e-001,-1.023880e-005,1.248803e-005
3.645000e-001,-1.091020e-005,1.247782e-005
3.652941e-001,-1.091020e-005,1.246055e-005
3.660882e-001,-9.231709e-006,1.244724e-005
3.668824e-001,-1.292439e-005,1.241837e-005
3.676765e-001,-1.091020e-005,1.241117e-005
3.684706e-001,-7.553216e-006,1.241117e-005
3.692647e-001,-1.258869e-005,1.240504e-005
3.700588e-001,-1.023880e-005,1.240611e-005
3.708529e-001,-8.224612e-006,1.240235e-005
3.716471e-001,-7.217518e-006,1.239331e-005
3.724412e-001,-8.224612e-006,1.238740e-005
3.732353e-001,-6.881819e-006,1.238079e-005
3.740294e-001,-7.553216e-006,1.237511e-005
3.748235e-001,-9.567407e-006,1.236095e-005
3.756176e-001,-9.903105e-006,1.234892e-005
3.764118e-001,-1.091020e-005,1.234976e-005
3.772059e-001,-1.091020e-005,1.235639e-005
3.780000e-001,-7.553216e-006,1.236437e-005
3.787941e-001,-1.225299e-005,1.236371e-005
3.795882e-001,-1.695277e-005,1.237633e-005
3.803824e-001,-1.359579e-005,1.240384e-005
3.811765e-001,-1.493858e-005,1.241229e-005
3.819706e-001,-1.275654e-005,1.242833e-005
3.827647e-001,-1.560998e-005,1.243574e-005
3.835588e-001,-1.628138e-005,1.245437e-005
3.843529e-001,-1.762417e-005,1.247654e-005
3.851471e-001,-1.493858e-005,1.249905e-005
3.859412e-001,-1.158160e-005,1.251136e-005
3.867353e-001,-1.091020e-005,1.252116e-005
3.875294e-001,-1.158160e-005,1.252466e-005
3.883235e-001,-1.359579e-005,1.252466e-005
3.891176e-001,-1.896696e-005,1.252907e-005
3.899118e-001,-2.198825e-005,1.254830e-005
3.907059e-001,-1.628138e-005,1.258129e-005
3.915000e-001,-1.896696e-005,1.259530e-005
3.922941e-001,-1.947051e-005,1.261964e-005
3.930882e-001,-1.762417e-005,1.265420e-005
3.938824e-001,-1.560998e-005,1.267829e-005
3.946765e-001,-1.258869e-005,1.268086e-005
3.954706e-001,-9.567407e-006,1.267520e-005
3.962647e-001,-7.553216e-006,1.266347e-005
3.970588e-001,-6.881819e-006,1.263999e-005
3.978529e-001,-6.546120e-006,1.261253e-005
3.986471e-001,-6.881819e-006,1.258974e-005
3.994412e-001,-5.035477e-006,1.257568e-005
4.002353e-001,-7.553216e-006,1.256381e-005
4.010294e-001,-9.735256e-006,1.256247e-005
4.018235e-001,-4.531929e-006,1.256445e-005
4.026176e-001,2.853437e-006,1.255377e-005
4.034118e-001,5.874723e-006,1.253574e-005
4.042059e-001,3.189136e-006,1.252681e-005
4.050000e-001,3.524834e-006,1.251563e-005
4.057941e-001,-2.182040e-006,1.251118e-005
4.065882e-001,-9.567407e-006,1.250246e-005
4.073824e-001,-1.225299e-005,1.249895e-005
4.081765e-001,-1.124590e-005,1.250292e-005
4.089706e-001,-1.040665e-005,1.249884e-005
4.097647e-001,-1.460288e-005,1.248670e-005
4.105588e-001,-1.779202e-005,1.250221e-005
4.113529e-001,-1.560998e-005,1.253241e-005
4.121471e-001,-1.527428e-005,1.254429e-005
4.129412e-001,-1.560998e-005,1.256015e-005
4.137353e-001,-1.762417e-005,1.256986e-005
4.145294e-001,-1.930266e-005,1.258093e-005
4.153235e-001,-1.846342e-005,1.259983e-005
4.161176e-001,-1.661708e-005,1.261596e-005
4.169118e-001,-1.560998e-005,1.263185e-005
4.177059e-001,-1.091020e-005,1.264846e-005
4.185000e-001,-1.023880e-005,1.264454e-005
4.192941e-001,-9.567407e-006,1.264275e-005
4.200882e-001,-1.560998e-005,1.263537e-005
4.208824e-001,-1.628138e-005,1.264610e-005
4.216765e-001,-1.628138e-005,1.265844e-005
4.224706e-001,-1.258869e-005,1.267441e-005
4.232647e-001,-1.225299e-005,1.266994e-005
4.240588e-001,-1.762417e-005,1.265818e-005
4.248529e-001,-1.795987e-005,1.268036e-005
4.256471e-001,-1.762417e-005,1.270767e-005
4.264412e-001,-1.527428e-005,1.272672e-005
4.272353e-001,-1.091020e-005,1.272476e-005
4.280294e-001,-1.225299e-005,1.270077e-005
4.288235e-001,-9.903105e-006,1.267760e-005
4.296176e-001,-1.292439e-005,1.265380e-005
4.304118e-001,-1.258869e-005,1.264673e-005
4.312059e-001,-1.023880e-005,1.266042e-005
4.320000e-001,-8.560311e-006,1.267300e-005
4.327941e-001,-1.124590e-005,1.268218e-005
4.335882e-001,-9.567407e-006,1.269776e-005
4.343824e-001,-3.524834e-006,1.270539e-005
4.351765e-001,-3.692683e-006,1.269465e-005
4.359706e-001,-6.210422e-006,1.267539e-005
4.367647e-001,-6.881819e-006,1.265924e-005
4.375588e-001,-7.888914e-006,1.265022e-005
4.383529e-001,-8.224612e-006,1.264486e-005
4.391471e-001,-8.896010e-006,1.263234e-005
4.399412e-001,-1.225299e-005,1.262339e-005
4.407353e-001,-1.577783e-005,1.261901e-005
4.415294e-001,-1.493858e-005,1.262934e-005
4.423235e-001,-1.493858e-005,1.264152e-005
4.431176e-001,-1.560998e-005,1.265273e-005
4.439118e-001,-1.292439e-005,1.266651e-005
4.447059e-001,-1.426719e-005,1.266651e-005
4.455000e-001,-1.510643e-005,1.266886e-005
4.462941e-001,-1.628138e-005,1.267655e-005
4.470882e-001,-1.359579e-005,1.268662e-005
4.478824e-001,-1.460288e-005,1.267924e-005
4.486765e-001,-1.527428e-005,1.266700e-005
4.494706e-001,-1.023880e-005,1.265110e-005
4.502647e-001,-6.546120e-006,1.262517e-005
4.510588e-001,-7.888914e-006,1.260725e-005
4.518529e-001,-1.091020e-005,1.259175e-005
4.526471e-001,-1.091020e-005,1.258343e-005
4.534412e-001,-1.057450e-005,1.257393e-005
4.542353e-001,-1.091020e-005,1.255310e-005
4.550294e-001,-1.107805e-005,1.253173e-005
4.558235e-001,-9.903105e-006,1.251832e-005
4.566176e-001,-1.292439e-005,1.250489e-005
4.574118e-001,-1.359579e-005,1.249240e-005
4.582059e-001,-1.359579e-005,1.249002e-005
4.590000e-001,-1.661708e-005,1.249648e-005
4.597941e-001,-1.913481e-005,1.251252e-005
4.605882e-001,-1.728847e-005,1.253320e-005
4.613824e-001,-1.695277e-005,1.254994e-005
4.621765e-001,-1.628138e-005,1.255809e-005
4.629706e-001,-1.493858e-005,1.257659e-005
4.637647e-001,-1.376364e-005,1.259242e-005
4.645588e-001,-1.527428e-005,1.259470e-005
4.653529e-001,-1.225299e-005,1.260820e-005
4.661471e-001,-1.359579e-005,1.261995e-005
4.669412e-001,-1.326009e-005,1.263172e-005
4.677353e-001,-1.191730e-005,1.264500e-005
4.685294e-001,-1.326009e-005,1.265691e-005
4.693235e-001,-1.023880e-005,1.267052e-005
4.701176e-001,-6.546120e-006,1.267652e-005
4.709118e-001,-8.560311e-006,1.267595e-005
4.717059e-001,-8.896010e-006,1.267799e-005
4.725000e-001,-6.378271e-006,1.267723e-005
4.732941e-001,-6.210422e-006,1.267936e-005
4.740882e-001,-5.874723e-006,1.267672e-005
4.748824e-001,-6.546120e-006,1.267035e-005
4.756765e-001,-5.874723e-006,1.266856e-005
4.764706e-001,-4.867628e-006,1.266219e-005
4.772647e-001,-1.091020e-005,1.265799e-005
4.780588e-001,-1.091020e-005,1.266145e-005
4.788529e-001,-1.057450e-005,1.266609e-005
4.796471e-001,-1.174945e-005,1.267019e-005
4.804412e-001,-1.292439e-005,1.267604e-005
4.812353e-001,-1.326009e-005,1.268113e-005
4.820294e-001,-1.510643e-005,1.268278e-005
4.828235e-001,-1.158160e-005,1.269153e-005
4.836176e-001,-1.225299e-005,1.269687e-005
4.844118e-001,-1.560998e-005,1.269888e-005
4.852059e-001,-1.762417e-005,1.270625e-005
4.860000e-001,-1.829557e-005,1.271845e-005
4.867941e-001,-1.695277e-005,1.272438e-005
4.875882e-001,-1.594568e-005,1.270612e-005
4.883824e-001,-1.493858e-005,1.267549e-005
4.891765e-001,-1.292439e-005,1.265991e-005
4.899706e-001,-1.225299e-005,1.265027e-005
4.907647e-001,-1.225299e-005,1.263005e-005
4.915588e-001,-1.359579e-005,1.261825e-005
4.923529e-001,-1.326009e-005,1.262465e-005
4.931471e-001,-1.292439e-005,1.263897e-005
4.939412e-001,-9.567407e-006,1.265078e-005
4.947353e-001,-9.567407e-006,1.265078e-005
4.955294e-001,-1.292439e-005,1.265633e-005
4.963235e-001,-8.896010e-006,1.267079e-005
4.971176e-001,-6.881819e-006,1.267223e-005
4.979118e-001,-5.706874e-006,1.266668e-005
4.987059e-001,-5.539025e-006,1.266482e-005
4.995000e-001,-8.896010e-006,1.266383e-005
5.002941e-001,-1.091020e-005,1.266661e-005
5.010882e-001,-9.567407e-006,1.267124e-005
5.018824e-001,-8.896010e-006,1.266957e-005
5.026765e-001,-1.023880e-005,1.266801e-005
5.034706e-001,-6.881819e-006,1.266886e-005
5.042647e-001,-6.546120e-006,1.265594e-005
5.050588e-001,-9.063859e-006,1.264541e-005
5.058529e-001,-9.231709e-006,1.263012e-005
5.066471e-001,-1.292439e-005,1.262585e-005
5.074412e-001,-1.695277e-005,1.262693e-005
5.082353e-001,-1.560998e-005,1.264210e-005
5.090294e-001,-1.426719e-005,1.264210e-005
5.098235e-001,-1.426719e-005,1.262861e-005
5.106176e-001,-1.426719e-005,1.261946e-005
5.114118e-001,-1.292439e-005,1.260887e-005
5.122059e-001,-1.510643e-005,1.259648e-005
5.130000e-001,-1.628138e-005,1.259712e-005
5.137941e-001,-1.292439e-005,1.259983e-005
5.145882e-001,-1.359579e-005,1.259758e-005
5.153824e-001,-1.762417e-005,1.260091e-005
5.161765e-001,-1.628138e-005,1.261904e-005
5.169706e-001,-1.225299e-005,1.262433e-005
5.177647e-001,-1.493858e-005,1.261119e-005
5.185588e-001,-1.057450e-005,1.262242e-005
5.193529e-001,-9.903105e-006,1.262058e-005
5.201471e-001,-1.091020e-005,1.261793e-005
5.209412e-001,-1.124590e-005,1.262441e-005
5.217353e-001,-8.224612e-006,1.262714e-005
5.225294e-001,-9.735256e-006,1.262201e-005
5.233235e-001,-1.141375e-005,1.262031e-005
5.241176e-001,-1.091020e-005,1.261982e-005
5.249118e-001,-1.225299e-005,1.262161e-005
5.257059e-001,-1.124590e-005,1.262900e-005
5.265000e-001,-1.091020e-005,1.262804e-005
5.272941e-001,-1.359579e-005,1.262613e-005
5.280882e-001,-1.242084e-005,1.263749e-005
5.288824e-001,-1.376364e-005,1.264539e-005
5.296765e-001,-1.225299e-005,1.266327e-005
5.304706e-001,-1.124590e-005,1.267219e-005
5.312647e-001,-1.023880e-005,1.267219e-005
5.320588e-001,-8.224612e-006,1.266947e-005
5.328529e-001,-9.567407e-006,1.266647e-005
5.336471e-001,-7.888914e-006,1.266877e-005
5.344412e-001,-5.203327e-006,1.266664e-005
5.352353e-001,-5.203327e-006,1.265854e-005
5.360294e-001,-6.210422e-006,1.264960e-005
5.368235e-001,-8.224612e-006,1.263060e-005
5.376176e-001,-5.874723e-006,1.262411e-005
5.384118e-001,-5.539025e-006,1.261345e-005
5.392059e-001,-1.091020e-005,1.260229e-005
5.400000e-001,-1.091020e-005,1.260408e-005
5.407941e-001,-1.376364e-005,1.260500e-005
5.415882e-001,-1.292439e-005,1.260783e-005
5.423824e-001,-1.359579e-005,1.260199e-005
5.431765e-001,-9.567407e-006,1.260637e-005
5.439706e-001,-1.124590e-005,1.259458e-005
5.447647e-001,-1.292439e-005,1.258662e-005
5.455588e-001,-1.426719e-005,1.257351e-005
5.463529e-001,-1.762417e-005,1.256843e-005
5.471471e-001,-1.628138e-005,1.257822e-005
5.479412e-001,-1.493858e-005,1.256623e-005
5.487353e-001,-1.258869e-005,1.255515e-005
5.495294e-001,-1.091020e-005,1.253584e-005
5.503235e-001,-1.158160e-005,1.250841e-005
5.511176e-001,-1.359579e-005,1.249378e-005
5.519118e-001,-1.493858e-005,1.247467e-005
5.527059e-001,-1.359579e-005,1.247069e-005
5.535000e-001,-1.493858e-005,1.246831e-005
5.542941e-001,-1.292439e-005,1.247019e-005
5.550882e-001,-9.567407e-006,1.246429e-005
5.558824e-001,-1.426719e-005,1.245237e-005
5.566765e-001,-1.359579e-005,1.246124e-005
5.574706e-001,-1.225299e-005,1.246461e-005
5.582647e-001,-1.158160e-005,1.245130e-005
5.590588e-001,-1.225299e-005,1.245130e-005
5.598529e-001,-1.158160e-005,1.246038e-005
5.606471e-001,-1.158160e-005,1.247022e-005
5.614412e-001,-1.040665e-005,1.247566e-005
5.622353e-001,-1.225299e-005,1.248456e-005
5.630294e-001,-1.292439e-005,1.250266e-005
5.638235e-001,-9.903105e-006,1.252331e-005
5.646176e-001,-1.023880e-005,1.253568e-005
5.654118e-001,-1.326009e-005,1.254890e-005
5.662059e-001,-1.359579e-005,1.257110e-005
5.670000e-001,-1.158160e-005,1.259369e-005
5.677941e-001,-1.191730e-005,1.261021e-005
5.685882e-001,-1.091020e-005,1.262515e-005
5.693824e-001,-1.091020e-005,1.263529e-005
5.701765e-001,-8.560311e-006,1.264245e-005
5.709706e-001,-1.023880e-005,1.263847e-005
5.717647e-001,-1.091020e-005,1.262839e-005
5.725588e-001,-4.867628e-006,1.261461e-005
5.733529e-001,-7.217518e-006,1.258341e-005
5.741471e-001,-7.553216e-006,1.253420e-005
5.749412e-001,-5.874723e-006,1.250195e-005
5.757353e-001,-8.896010e-006,1.248825e-005
5.765294e-001,-8.224612e-006,1.249040e-005
5.773235e-001,-7.049668e-006,1.249356e-005
5.781176e-001,-7.888914e-006,1.249127e-005
5.789118e-001,-1.040665e-005,1.247900e-005
5.797059e-001,-1.242084e-005,1.246923e-005
5.805000e-001,-1.661708e-005,1.245507e-005
5.812941e-001,-1.493858e-005,1.245066e-005
5.820882e-001,-1.762417e-005,1.241151e-005
5.828824e-001,-1.896696e-005,1.238740e-005
5.836765e-001,-1.359579e-005,1.237705e-005
5.844706e-001,-1.258869e-005,1.233665e-005
5.852647e-001,-1.359579e-005,1.231308e-005
5.860588e-001,-1.124590e-005,1.229526e-005
5.868529e-001,-1.023880e-005,1.228273e-005
5.876471e-001,-1.091020e-005,1.227686e-005
5.884412e-001,-1.158160e-005,1.227490e-005
5.892353e-001,-1.225299e-005,1.228615e-005
5.900294e-001,-1.527428e-005,1.229946e-005
5.908235e-001,-1.359579e-005,1.232567e-005
5.916176e-001,-1.560998e-005,1.234725e-005
5.924118e-001,-1.695277e-005,1.237469e-005
5.932059e-001,-1.695277e-005,1.240612e-005
5.940000e-001,-1.628138e-005,1.242953e-005
5.947941e-001,-1.493858e-005,1.245333e-005
5.955882e-001,-1.258869e-005,1.247015e-005
5.963824e-001,-9.567407e-006,1.248028e-005
5.971765e-001,-8.896010e-006,1.247858e-005
5.979706e-001,-8.560311e-006,1.246508e-005
5.987647e-001,-9.903105e-006,1.244592e-005
5.995588e-001,-8.896010e-006,1.242660e-005
6.003529e-001,-1.124590e-005,1.240683e-005
6.011471e-001,-1.443504e-005,1.239178e-005
6.019412e-001,-1.158160e-005,1.238307e-005
6.027353e-001,-8.224612e-006,1.236551e-005
6.035294e-001,-5.874723e-006,1.234283e-005
6.043235e-001,-7.217518e-006,1.231715e-005
6.051176e-001,-5.539025e-006,1.230339e-005
6.059118e-001,-7.888914e-006,1.227845e-005
6.067059e-001,-8.392462e-006,1.226486e-005
6.075000e-001,-9.903105e-006,1.224369e-005
6.082941e-001,-1.191730e-005,1.222405e-005
6.090882e-001,-1.292439e-005,1.222079e-005
6.098824e-001,-1.393149e-005,1.223063e-005
6.106765e-001,-1.426719e-005,1.224397e-005
6.114706e-001,-1.393149e-005,1.225249e-005
6.122647e-001,-1.292439e-005,1.226496e-005
6.130588e-001,-1.560998e-005,1.227119e-005
6.138529e-001,-1.560998e-005,1.228920e-005
6.146471e-001,-1.292439e-005,1.230534e-005
6.154412e-001,-1.158160e-005,1.231155e-005
6.162353e-001,-1.258869e-005,1.231787e-005
6.170294e-001,-1.393149e-005,1.231676e-005
6.178235e-001,-1.359579e-005,1.232646e-005
6.186176e-001,-1.292439e-005,1.234296e-005
6.194118e-001,-9.567407e-006,1.234406e-005
6.202059e-001,-1.359579e-005,1.234235e-005
6.210000e-001,-1.628138e-005,1.235746e-005
6.217941e-001,-1.292439e-005,1.238488e-005
6.225882e-001,-1.225299e-005,1.239765e-005
6.233824e-001,-1.158160e-005,1.241084e-005
6.241765e-001,-1.426719e-005,1.242073e-005
6.249706e-001,-1.158160e-005,1.243508e-005
6.257647e-001,-1.158160e-005,1.243970e-005
6.265588e-001,-8.560311e-006,1.244163e-005
6.273529e-001,-4.867628e-006,1.243577e-005
6.281471e-001,-3.021286e-006,1.243150e-005
6.289412e-001,-3.524834e-006,1.241343e-005
6.297353e-001,-4.867628e-006,1.237810e-005
6.305294e-001,-9.735256e-006,1.235736e-005
6.313235e-001,-8.224612e-006,1.234080e-005
6.321176e-001,-6.378271e-006,1.232853e-005
6.329118e-001,-8.224612e-006,1.230228e-005
6.337059e-001,-1.023880e-005,1.227670e-005
6.345000e-001,-1.158160e-005,1.224998e-005
6.352941e-001,-1.493858e-005,1.223840e-005
6.360882e-001,-1.762417e-005,1.224998e-005
6.368824e-001,-1.896696e-005,1.227486e-005
6.376765e-001,-2.030976e-005,1.230409e-005
6.384706e-001,-1.980621e-005,1.233351e-005
6.392647e-001,-1.158160e-005,1.233772e-005
6.400588e-001,-4.867628e-006,1.229254e-005
6.408529e-001,-3.021286e-006,1.226124e-005
6.416471e-001,-5.706874e-006,1.221562e-005
6.424412e-001,-9.903105e-006,1.217036e-005
6.432353e-001,-1.393149e-005,1.214252e-005
6.440294e-001,-1.326009e-005,1.213602e-005
6.448235e-001,-1.309224e-005,1.213829e-005
6.456176e-001,-1.628138e-005,1.214877e-005
6.464118e-001,-1.712062e-005,1.217600e-005
6.472059e-001,-1.795987e-005,1.220810e-005
6.480000e-001,-1.695277e-005,1.224453e-005
6.487941e-001,-1.527428e-005,1.227570e-005
6.495882e-001,-1.376364e-005,1.230265e-005
6.503824e-001,-1.292439e-005,1.231977e-005
6.511765e-001,-1.091020e-005,1.232911e-005
6.519706e-001,-8.896010e-006,1.234182e-005
6.527647e-001,-1.158160e-005,1.235098e-005
6.535588e-001,-9.567407e-006,1.236382e-005
6.543529e-001,-1.225299e-005,1.237429e-005
6.551471e-001,-1.124590e-005,1.239200e-005
6.559412e-001,-9.567407e-006,1.240763e-005
6.567353e-001,-1.124590e-005,1.240763e-005
6.575294e-001,-1.393149e-005,1.240459e-005
6.583235e-001,-1.258869e-005,1.241327e-005
6.591176e-001,-1.158160e-005,1.241970e-005
6.599118e-001,-9.903105e-006,1.240956e-005
6.607059e-001,-7.553216e-006,1.238149e-005
6.615000e-001,-6.210422e-006,1.235747e-005
6.622941e-001,-6.881819e-006,1.233235e-005
6.630882e-001,-1.023880e-005,1.230697e-005
6.638824e-001,-1.023880e-005,1.228032e-005
6.646765e-001,-1.124590e-005,1.224555e-005
6.654706e-001,-9.567407e-006,1.221764e-005
6.662647e-001,-9.231709e-006,1.219355e-005
6.670588e-001,-8.896010e-006,1.217284e-005
6.678529e-001,-1.174945e-005,1.216762e-005
6.686471e-001,-1.292439e-005,1.217197e-005
6.694412e-001,-1.225299e-005,1.218184e-005
6.702353e-001,-1.292439e-005,1.216961e-005
6.710294e-001,-1.309224e-005,1.215678e-005
6.718235e-001,-1.426719e-005,1.214450e-005
6.726176e-001,-1.493858e-005,1.215041e-005
6.734118e-001,-1.661708e-005,1.215998e-005
6.742059e-001,-1.560998e-005,1.215546e-005
6.750000e-001,-1.426719e-005,1.214512e-005
6.757941e-001,-1.225299e-005,1.213108e-005
6.765882e-001,-8.560311e-006,1.212015e-005
6.773824e-001,-9.735256e-006,1.211414e-005
6.781765e-001,-1.158160e-005,1.210686e-005
6.789706e-001,-9.231709e-006,1.211161e-005
6.797647e-001,-8.224612e-006,1.210084e-005
6.805588e-001,-1.057450e-005,1.208889e-005
6.813529e-001,-1.124590e-005,1.208981e-005
6.821471e-001,-9.567407e-006,1.209681e-005
6.829412e-001,-7.553216e-006,1.209221e-005
6.837353e-001,-3.860533e-006,1.208767e-005
6.845294e-001,-4.531929e-006,1.208799e-005
6.853235e-001,-1.191730e-005,1.208890e-005
6.861176e-001,-1.091020e-005,1.210252e-005
6.869118e-001,-9.231709e-006,1.211195e-005
6.877059e-001,-1.091020e-005,1.211497e-005
6.885000e-001,-1.258869e-005,1.212172e-005
6.892941e-001,-1.225299e-005,1.213214e-005
6.900882e-001,-1.191730e-005,1.213214e-005
6.908824e-001,-1.158160e-005,1.211810e-005
6.916765e-001,-1.426719e-005,1.210640e-005
6.924706e-001,-1.426719e-005,1.210382e-005
6.932647e-001,-1.577783e-005,1.209854e-005
6.940588e-001,-1.493858e-005,1.210931e-005
6.948529e-001,-1.359579e-005,1.211189e-005
6.956471e-001,-1.560998e-005,1.210619e-005
6.964412e-001,-1.594568e-005,1.210337e-005
6.972353e-001,-1.762417e-005,1.211250e-005
6.980294e-001,-1.963836e-005,1.212530e-005
6.988235e-001,-1.628138e-005,1.214529e-005
6.996176e-001,-1.426719e-005,1.216628e-005
7.004118e-001,-1.426719e-005,1.218729e-005
7.012059e-001,-1.158160e-005,1.220574e-005
7.020000e-001,-1.057450e-005,1.220771e-005
7.027941e-001,-9.567407e-006,1.220677e-005
7.035882e-001,-8.896010e-006,1.220413e-005
7.043824e-001,-1.225299e-005,1.219892e-005
7.051765e-001,-1.510643e-005,1.220250e-005
7.059706e-001,-1.527428e-005,1.221947e-005
7.067647e-001,-1.443504e-005,1.222810e-005
7.075588e-001,-1.493858e-005,1.223116e-005
7.083529e-001,-1.493858e-005,1.223615e-005
7.091471e-001,-1.158160e-005,1.222926e-005
7.099412e-001,-1.107805e-005,1.219901e-005
7.107353e-001,-1.057450e-005,1.217599e-005
7.115294e-001,-9.567407e-006,1.215301e-005
7.123235e-001,-9.567407e-006,1.213025e-005
7.131176e-001,-7.553216e-006,1.211296e-005
7.139118e-001,-5.539025e-006,1.209554e-005
7.147059e-001,-7.888914e-006,1.206884e-005
7.155000e-001,-7.049668e-006,1.205723e-005
7.162941e-001,-6.210422e-006,1.203937e-005
7.170882e-001,-8.224612e-006,1.202120e-005
7.178824e-001,-6.881819e-006,1.201135e-005
7.186765e-001,-6.210422e-006,1.199431e-005
7.194706e-001,-7.553216e-006,1.198550e-005
7.202647e-001,-5.539025e-006,1.198739e-005
7.210588e-001,-8.560311e-006,1.198173e-005
7.218529e-001,-1.191730e-005,1.198095e-005
7.226471e-001,-1.460288e-005,1.199441e-005
7.234412e-001,-1.326009e-005,1.201758e-005
7.242353e-001,-1.158160e-005,1.203629e-005
7.250294e-001,-1.359579e-005,1.204836e-005
7.258235e-001,-1.443504e-005,1.206821e-005
7.266176e-001,-1.292439e-005,1.209256e-005
7.274118e-001,-1.359579e-005,1.209888e-005
7.282059e-001,-1.258869e-005,1.210754e-005
7.290000e-001,-1.426719e-005,1.211367e-005
7.297941e-001,-1.359579e-005,1.212228e-005
7.305882e-001,-1.426719e-005,1.212462e-005
7.313824e-001,-9.567407e-006,1.212826e-005
7.321765e-001,-9.567407e-006,1.211030e-005
7.329706e-001,-7.721065e-006,1.210470e-005
7.337647e-001,-8.392462e-007,1.209278e-005
7.345588e-001,-3.860533e-006,1.206075e-005
7.353529e-001,-8.224612e-006,1.202164e-005
7.361471e-001,-1.124590e-005,1.198621e-005
7.369412e-001,-1.191730e-005,1.196482e-005
7.377353e-001,-9.567407e-006,1.194987e-005
7.385294e-001,-9.063859e-006,1.193231e-005
7.393235e-001,-1.191730e-005,1.192098e-005
7.401176e-001,-9.567407e-006,1.191990e-005
7.409118e-001,-1.091020e-005,1.191207e-005
7.417059e-001,-1.426719e-005,1.190327e-005
7.425000e-001,-1.493858e-005,1.190697e-005
7.432941e-001,-1.426719e-005,1.191448e-005
7.440882e-001,-1.225299e-005,1.192944e-005
7.448824e-001,-1.225299e-005,1.193726e-005
7.456765e-001,-1.158160e-005,1.193500e-005
7.464706e-001,-1.242084e-005,1.194234e-005
7.472647e-001,-9.567407e-006,1.195659e-005
7.480588e-001,-1.158160e-005,1.196444e-005
7.488529e-001,-1.560998e-005,1.197820e-005
7.496471e-001,-1.493858e-005,1.200005e-005
7.504412e-001,-1.426719e-005,1.201386e-005
7.512353e-001,-1.359579e-005,1.202870e-005
7.520294e-001,-1.510643e-005,1.204268e-005
7.528235e-001,-1.359579e-005,1.205898e-005
7.536176e-001,-1.023880e-005,1.207713e-005
7.544118e-001,-1.158160e-005,1.208530e-005
7.552059e-001,-1.527428e-005,1.209214e-005
7.560000e-001,-1.527428e-005,1.211163e-005
7.567941e-001,-1.628138e-005,1.212034e-005
7.575882e-001,-1.594568e-005,1.211740e-005
7.583824e-001,-1.560998e-005,1.211880e-005
7.591765e-001,-1.242084e-005,1.212407e-005
7.599706e-001,-1.124590e-005,1.211759e-005
7.607647e-001,-1.174945e-005,1.210746e-005
7.615588e-001,-1.292439e-005,1.210365e-005
7.623529e-001,-1.795987e-005,1.209560e-005
7.631471e-001,-1.913481e-005,1.210316e-005
7.639412e-001,-2.131685e-005,1.212933e-005
7.647353e-001,-2.030976e-005,1.216466e-005
7.655294e-001,-1.091020e-005,1.217799e-005
7.663235e-001,-6.378271e-006,1.215888e-005
7.671176e-001,-2.182040e-006,1.214454e-005
7.679118e-001,-1.678492e-007,1.211587e-005
7.687059e-001,-3.356985e-007,1.210117e-005
7.695000e-001,-5.035477e-006,1.208827e-005
7.702941e-001,-8.560311e-006,1.207592e-005
7.710882e-001,-8.224612e-006,1.206891e-005
7.718824e-001,-1.225299e-005,1.206891e-005
7.726765e-001,-1.426719e-005,1.207621e-005
7.734706e-001,-1.091020e-005,1.208587e-005
7.742647e-001,-9.567407e-006,1.208587e-005
7.750588e-001,-1.258869e-005,1.207814e-005
7.758529e-001,-1.359579e-005,1.208236e-005
7.766471e-001,-1.158160e-005,1.209103e-005
7.774412e-001,-9.231709e-006,1.208435e-005
7.782353e-001,-1.124590e-005,1.207525e-005
7.790294e-001,-1.493858e-005,1.206694e-005
7.798235e-001,-1.695277e-005,1.207658e-005
7.806176e-001,-1.560998e-005,1.209778e-005
7.814118e-001,-1.359579e-005,1.211604e-005
7.822059e-001,-1.393149e-005,1.213143e-005
7.830000e-001,-1.292439e-005,1.214488e-005
7.837941e-001,-1.091020e-005,1.215861e-005
7.845882e-001,-6.881819e-006,1.217065e-005
7.853824e-001,-5.035477e-006,1.217330e-005
7.861765e-001,-8.560311e-006,1.217157e-005
7.869706e-001,-9.567407e-006,1.217231e-005
7.877647e-001,-9.567407e-006,1.217977e-005
7.885588e-001,-9.567407e-006,1.218772e-005
7.893529e-001,-8.224612e-006,1.218413e-005
7.901471e-001,-1.091020e-005,1.217741e-005
7.909412e-001,-8.896010e-006,1.216820e-005
7.917353e-001,-8.896010e-006,1.215669e-005
7.925294e-001,-9.903105e-006,1.214284e-005
7.933235e-001,-8.896010e-006,1.214370e-005
7.941176e-001,-1.493858e-005,1.213749e-005
7.949118e-001,-1.628138e-005,1.214485e-005
7.957059e-001,-1.158160e-005,1.215291e-005
7.965000e-001,-1.174945e-005,1.212977e-005
7.972941e-001,-1.292439e-005,1.211308e-005
7.980882e-001,-1.393149e-005,1.210570e-005
7.988824e-001,-1.258869e-005,1.211038e-005
7.996765e-001,-1.359579e-005,1.211557e-005
8.004706e-001,-1.091020e-005,1.212223e-005
8.012647e-001,-1.158160e-005,1.211358e-005
8.020588e-001,-1.057450e-005,1.210188e-005
8.028529e-001,-8.392462e-006,1.209226e-005
8.036471e-001,-9.567407e-006,1.207214e-005
8.044412e-001,-1.091020e-005,1.206217e-005
8.052353e-001,-8.896010e-006,1.206580e-005
8.060294e-001,-8.392462e-006,1.204937e-005
8.068235e-001,-1.091020e-005,1.203424e-005
8.076176e-001,-1.225299e-005,1.203013e-005
8.084118e-001,-1.158160e-005,1.203224e-005
8.092059e-001,-1.225299e-005,1.203012e-005
8.100000e-001,-1.292439e-005,1.203224e-005
8.107941e-001,-1.258869e-005,1.203660e-005
8.115882e-001,-9.567407e-006,1.204323e-005
8.123824e-001,-1.107805e-005,1.203548e-005
8.131765e-001,-1.359579e-005,1.202962e-005
8.139706e-001,-1.762417e-005,1.204110e-005
8.147647e-001,-1.695277e-005,1.206828e-005
8.155588e-001,-1.628138e-005,1.208299e-005
8.163529e-001,-1.896696e-005,1.209356e-005
8.171471e-001,-1.762417e-005,1.212323e-005
8.179412e-001,-1.628138e-005,1.214535e-005
8.187353e-001,-1.493858e-005,1.216449e-005
8.195294e-001,-1.426719e-005,1.217811e-005
8.203235e-001,-1.460288e-005,1.219513e-005
8.211176e-001,-1.359579e-005,1.220928e-005
8.219118e-001,-1.292439e-005,1.221786e-005
8.227059e-001,-1.359579e-005,1.223653e-005
8.235000e-001,-1.057450e-005,1.225379e-005
8.242941e-001,-8.896010e-006,1.226091e-005
8.250882e-001,-9.567407e-006,1.226670e-005
8.258824e-001,-8.224612e-006,1.226831e-005
8.266765e-001,-6.881819e-006,1.226831e-005
8.274706e-001,-1.023880e-005,1.226801e-005
8.282647e-001,-1.023880e-005,1.227354e-005
8.290588e-001,-6.378271e-006,1.227309e-005
8.298529e-001,-5.706874e-006,1.225834e-005
8.306471e-001,-6.881819e-006,1.222666e-005
8.314412e-001,-4.531929e-006,1.220374e-005
8.322353e-001,-7.553216e-006,1.216583e-005
8.330294e-001,-7.553216e-006,1.212615e-005
8.338235e-001,-7.553216e-006,1.210936e-005
8.346176e-001,-9.063859e-006,1.209601e-005
8.354118e-001,-1.091020e-005,1.208249e-005
8.362059e-001,-1.359579e-005,1.208151e-005
8.370000e-001,-1.225299e-005,1.209205e-005
8.377941e-001,-1.225299e-005,1.209614e-005
8.385882e-001,-1.091020e-005,1.209825e-005
8.393824e-001,-1.091020e-005,1.209416e-005
8.401765e-001,-9.231709e-006,1.207910e-005
8.409706e-001,-9.567407e-006,1.206596e-005
8.417647e-001,-1.426719e-005,1.204587e-005
8.425588e-001,-1.963836e-005,1.203478e-005
8.433529e-001,-1.695277e-005,1.204777e-005
8.441471e-001,-1.258869e-005,1.205072e-005
8.449412e-001,-1.661708e-005,1.204217e-005
8.457353e-001,-1.661708e-005,1.205772e-005
8.465294e-001,-1.393149e-005,1.208207e-005
8.473235e-001,-1.124590e-005,1.209721e-005
8.481176e-001,-1.225299e-005,1.210421e-005
8.489118e-001,-1.040665e-005,1.211106e-005
8.497059e-001,-9.231709e-006,1.211489e-005
8.505000e-001,-8.896010e-006,1.210947e-005
8.512941e-001,-1.124590e-005,1.209246e-005
8.520882e-001,-9.567407e-006,1.209145e-005
8.528824e-001,-1.091020e-005,1.209460e-005
8.536765e-001,-1.292439e-005,1.210572e-005
8.544706e-001,-1.376364e-005,1.212083e-005
8.552647e-001,-1.091020e-005,1.214167e-005
8.560588e-001,-1.023880e-005,1.214912e-005
8.568529e-001,-1.091020e-005,1.215363e-005
8.576471e-001,-1.091020e-005,1.215637e-005
8.584412e-001,-1.292439e-005,1.215336e-005
8.592353e-001,-1.426719e-005,1.215336e-005
8.600294e-001,-1.661708e-005,1.215460e-005
8.608235e-001,-1.762417e-005,1.216411e-005
8.616176e-001,-1.628138e-005,1.217935e-005
8.624118e-001,-1.493858e-005,1.219216e-005
8.632059e-001,-9.567407e-006,1.218948e-005
8.640000e-001,-8.392462e-007,1.216959e-005
8.647941e-001,5.203327e-006,1.214781e-005
8.655882e-001,2.853437e-006,1.213377e-005
8.663824e-001,1.174945e-006,1.211402e-005
8.671765e-001,-4.196231e-006,1.208867e-005
8.679706e-001,-8.224612e-006,1.206662e-005
8.687647e-001,-9.567407e-006,1.205349e-005
8.695588e-001,-1.023880e-005,1.205349e-005
8.703529e-001,-1.158160e-005,1.204292e-005
8.711471e-001,-1.292439e-005,1.202559e-005
8.719412e-001,-1.527428e-005,1.202559e-005
8.727353e-001,-1.359579e-005,1.203660e-005
8.735294e-001,-1.695277e-005,1.204331e-005
8.743235e-001,-1.779202e-005,1.205439e-005
8.751176e-001,-1.695277e-005,1.207846e-005
8.759118e-001,-1.510643e-005,1.209865e-005
8.767059e-001,-1.225299e-005,1.211902e-005
8.775000e-001,-1.326009e-005,1.213562e-005
8.782941e-001,-1.460288e-005,1.215748e-005
8.790882e-001,-1.493858e-005,1.218375e-005
8.798824e-001,-1.527428e-005,1.220979e-005
8.806765e-001,-1.443504e-005,1.222785e-005
8.814706e-001,-1.426719e-005,1.224616e-005
8.822647e-001,-1.174945e-005,1.226732e-005
8.830588e-001,-1.191730e-005,1.227645e-005
8.838529e-001,-1.107805e-005,1.228128e-005
8.846471e-001,-1.091020e-005,1.227980e-005
8.854412e-001,-1.174945e-005,1.226629e-005
8.862353e-001,-1.091020e-005,1.224386e-005
8.870294e-001,-1.023880e-005,1.221252e-005
8.878235e-001,-9.567407e-006,1.217234e-005
8.886176e-001,-1.023880e-005,1.213293e-005
8.894118e-001,-1.393149e-005,1.212909e-005
8.902059e-001,-1.292439e-005,1.215143e-005
8.910000e-001,-9.231709e-006,1.217211e-005
8.917941e-001,-1.091020e-005,1.217900e-005
8.925882e-001,-1.460288e-005,1.218174e-005
8.933824e-001,-1.359579e-005,1.218424e-005
8.941765e-001,-1.426719e-005,1.218542e-005
8.949706e-001,-1.762417e-005,1.218962e-005
8.957647e-001,-1.426719e-005,1.219556e-005
8.965588e-001,-1.359579e-005,1.218386e-005
8.973529e-001,-1.426719e-005,1.216585e-005
8.981471e-001,-1.292439e-005,1.215487e-005
8.989412e-001,-1.762417e-005,1.214619e-005
8.997353e-001,-1.762417e-005,1.216207e-005
9.005294e-001,-1.510643e-005,1.218085e-005
9.013235e-001,-1.393149e-005,1.219511e-005
9.021176e-001,-1.493858e-005,1.221011e-005
9.029118e-001,-1.695277e-005,1.222172e-005
9.037059e-001,-1.628138e-005,1.224721e-005
9.045000e-001,-1.107805e-005,1.226214e-005
9.052941e-001,-1.023880e-005,1.226166e-005
9.060882e-001,-1.158160e-005,1.226338e-005
9.068824e-001,-1.057450e-005,1.226438e-005
9.076765e-001,-8.896010e-006,1.225369e-005
9.084706e-001,-4.531929e-006,1.224338e-005
9.092647e-001,-5.874723e-006,1.222860e-005
9.100588e-001,-8.224612e-006,1.222032e-005
9.108529e-001,-6.881819e-006,1.222170e-005
9.116471e-001,-5.035477e-006,1.222284e-005
9.124412e-001,-6.546120e-006,1.221998e-005
9.132353e-001,-1.023880e-005,1.221190e-005
9.140294e-001,-1.023880e-005,1.221190e-005
9.148235e-001,-1.057450e-005,1.220908e-005
9.156176e-001,-8.896010e-006,1.221172e-005
9.164118e-001,-6.881819e-006,1.221093e-005
9.172059e-001,-7.888914e-006,1.220678e-005
9.180000e-001,-8.560311e-006,1.219689e-005
9.187941e-001,-8.224612e-006,1.218464e-005
9.195882e-001,-8.224612e-006,1.217386e-005
9.203824e-001,-1.124590e-005,1.216085e-005
9.211765e-001,-1.326009e-005,1.215496e-005
9.219706e-001,-1.359579e-005,1.215133e-005
9.227647e-001,-1.493858e-005,1.214631e-005
9.235588e-001,-1.762417e-005,1.213936e-005
9.243529e-001,-1.795987e-005,1.214814e-005
9.251471e-001,-1.560998e-005,1.216373e-005
9.259412e-001,-1.628138e-005,1.217597e-005
9.267353e-001,-1.628138e-005,1.220103e-005
9.275294e-001,-1.493858e-005,1.222323e-005
9.283235e-001,-1.309224e-005,1.223483e-005
9.291176e-001,-1.292439e-005,1.224604e-005
9.299118e-001,-1.426719e-005,1.225895e-005
9.307059e-001,-1.359579e-005,1.227086e-005
9.315000e-001,-1.091020e-005,1.227844e-005
9.322941e-001,-1.158160e-005,1.228200e-005
9.330882e-001,-8.896010e-006,1.229199e-005
9.338824e-001,-6.210422e-006,1.230031e-005
9.346765e-001,-3.524834e-006,1.230264e-005
9.354706e-001,-4.867628e-006,1.228586e-005
9.362647e-001,-3.524834e-006,1.227350e-005
9.370588e-001,-3.860533e-006,1.226405e-005
9.378529e-001,-6.210422e-006,1.225052e-005
9.386471e-001,-6.210422e-006,1.223492e-005
9.394412e-001,-5.539025e-006,1.222040e-005
9.402353e-001,-8.392462e-006,1.220588e-005
9.410294e-001,-8.896010e-006,1.219757e-005
9.418235e-001,-8.224612e-006,1.218131e-005
9.426176e-001,-9.903105e-006,1.216353e-005
9.434118e-001,-1.460288e-005,1.214377e-005
9.442059e-001,-1.577783e-005,1.214247e-005
9.450000e-001,-1.628138e-005,1.215087e-005
9.457941e-001,-1.493858e-005,1.215367e-005
9.465882e-001,-1.527428e-005,1.214960e-005
9.473824e-001,-1.762417e-005,1.213946e-005
9.481765e-001,-1.695277e-005,1.212961e-005
9.489706e-001,-1.661708e-005,1.213254e-005
9.497647e-001,-1.762417e-005,1.214206e-005
9.505588e-001,-1.560998e-005,1.215610e-005
9.513529e-001,-1.628138e-005,1.217044e-005
9.521471e-001,-1.426719e-005,1.219047e-005
9.529412e-001,-1.225299e-005,1.220510e-005
9.537353e-001,-9.903105e-006,1.221435e-005
9.545294e-001,-1.057450e-005,1.220757e-005
9.553235e-001,-1.258869e-005,1.219237e-005
9.561176e-001,-1.225299e-005,1.218260e-005
9.569118e-001,-1.225299e-005,1.217498e-005
9.577059e-001,-1.258869e-005,1.216543e-005
9.585000e-001,-1.158160e-005,1.215696e-005
9.592941e-001,-9.735256e-006,1.215696e-005
9.600882e-001,-9.735256e-006,1.215330e-005
9.608824e-001,-1.225299e-005,1.215106e-005
9.616765e-001,-1.359579e-005,1.215874e-005
9.624706e-001,-9.735256e-006,1.217096e-005
9.632647e-001,-9.063859e-006,1.217589e-005
9.640588e-001,-1.242084e-005,1.218262e-005
9.648529e-001,-1.426719e-005,1.219464e-005
9.656471e-001,-1.493858e-005,1.221472e-005
9.664412e-001,-1.460288e-005,1.223876e-005
9.672353e-001,-1.292439e-005,1.225769e-005
9.680294e-001,-1.124590e-005,1.227322e-005
9.688235e-001,-1.158160e-005,1.228462e-005
9.696176e-001,-9.567407e-006,1.229461e-005
9.704118e-001,-8.896010e-006,1.230249e-005
9.712059e-001,-1.158160e-005,1.230325e-005
9.720000e-001,-1.124590e-005,1.230223e-005
9.727941e-001,-1.225299e-005,1.229099e-005
9.735882e-001,-1.225299e-005,1.228766e-005
9.743824e-001,-1.510643e-005,1.228973e-005
9.751765e-001,-1.493858e-005,1.229535e-005
9.759706e-001,-1.393149e-005,1.229727e-005
9.767647e-001,-8.224612e-006,1.230077e-005
9.775588e-001,-3.524834e-006,1.228559e-005
9.783529e-001,1.678492e-007,1.226664e-005
9.791471e-001,-3.356985e-007,1.224019e-005
9.799412e-001,-4.867628e-006,1.221614e-005
9.807353e-001,-6.210422e-006,1.219267e-005
9.815294e-001,-6.546120e-006,1.218575e-005
9.823235e-001,-9.735256e-006,1.217939e-005
9.831176e-001,-1.493858e-005,1.218398e-005
9.839118e-001,-1.527428e-005,1.221302e-005
9.847059e-001,-1.359579e-005,1.224147e-005
9.855000e-001,-1.225299e-005,1.225670e-005
9.862941e-001,-1.527428e-005,1.225978e-005
9.870882e-001,-1.695277e-005,1.227163e-005
9.878824e-001,-1.661708e-005,1.229701e-005
9.886765e-001,-1.594568e-005,1.232211e-005
9.894706e-001,-1.309224e-005,1.233660e-005
9.902647e-001,-1.258869e-005,1.234691e-005
9.910588e-001,-1.124590e-005,1.235199e-005
9.918529e-001,-1.292439e-005,1.234205e-005
9.926471e-001,-1.191730e-005,1.233481e-005
9.934412e-001,-9.903105e-006,1.232686e-005
9.942353e-001,-1.023880e-005,1.232014e-005
9.950294e-001,-1.225299e-005,1.231428e-005
9.958235e-001,-1.359579e-005,1.231635e-005
9.966176e-001,-1.040665e-005,1.232030e-005
9.974118e-001,-7.217518e-006,1.232247e-005
9.982059e-001,-8.224612e-006,1.231186e-005
9.990000e-001,-8.896010e-006,1.228907e-005
9.997941e-001,-7.888914e-006,1.227040e-005
1.000588e+000,-8.224612e-006,1.225204e-005
1.001382e+000,-7.888914e-006,1.223680e-005
1.002176e+000,-8.392462e-006,1.221519e-005
1.002971e+000,-1.158160e-005,1.220026e-005
1.003765e+000,-9.735256e-006,1.220409e-005
1.004559e+000,-1.326009e-005,1.219895e-005
1.005353e+000,-1.628138e-005,1.219145e-005
1.006147e+000,-1.426719e-005,1.219560e-005
1.006941e+000,-1.493858e-005,1.218756e-005
1.007735e+000,-1.426719e-005,1.218349e-005
1.008529e+000,-1.661708e-005,1.217825e-005
1.009324e+000,-1.628138e-005,1.219417e-005
1.010118e+000,-1.493858e-005,1.221226e-005
1.010912e+000,-1.527428e-005,1.222335e-005
1.011706e+000,-1.661708e-005,1.223198e-005
1.012500e+000,-1.628138e-005,1.222594e-005
1.013294e+000,-1.695277e-005,1.221277e-005
1.014088e+000,-1.779202e-005,1.219097e-005
1.014882e+000,-1.628138e-005,1.217844e-005
1.015676e+000,-1.426719e-005,1.219752e-005
1.016471e+000,-1.359579e-005,1.221876e-005
1.017265e+000,-1.091020e-005,1.224221e-005
1.018059e+000,-8.896010e-006,1.225768e-005
1.018853e+000,-1.191730e-005,1.226794e-005
1.019647e+000,-8.224612e-006,1.228307e-005
1.020441e+000,-7.553216e-006,1.228234e-005
1.021235e+000,-6.881819e-006,1.228097e-005
1.022029e+000,-6.210422e-006,1.226763e-005
1.022824e+000,-4.196231e-006,1.224620e-005
1.023618e+000,-3.524834e-006,1.223301e-005
1.024412e+000,-7.553216e-006,1.222270e-005
1.025206e+000,-7.553216e-006,1.220948e-005
1.026000e+000,-6.881819e-006,1.219280e-005
1.026794e+000,-9.231709e-006,1.218147e-005
1.027588e+000,-1.091020e-005,1.218147e-005
1.028382e+000,-1.426719e-005,1.218049e-005
1.029176e+000,-1.292439e-005,1.217793e-005
1.029971e+000,-1.091020e-005,1.216218e-005
1.030765e+000,-1.124590e-005,1.214585e-005
1.031559e+000,-1.141375e-005,1.213820e-005
1.032353e+000,-1.292439e-005,1.212982e-005
1.033147e+000,-1.560998e-005,1.212982e-005
1.033941e+000,-1.510643e-005,1.214617e-005
1.034735e+000,-1.426719e-005,1.216986e-005
1.035529e+000,-1.158160e-005,1.219315e-005
1.036324e+000,-1.426719e-005,1.220110e-005
1.037118e+000,-1.527428e-005,1.221571e-005
1.037912e+000,-1.527428e-005,1.223418e-005
1.038706e+000,-1.695277e-005,1.225261e-005
1.039500e+000,-1.628138e-005,1.228114e-005
1.040294e+000,-1.695277e-005,1.230006e-005
1.041088e+000,-1.560998e-005,1.232699e-005
1.041882e+000,-1.493858e-005,1.234823e-005
1.042676e+000,-1.594568e-005,1.236435e-005
1.043471e+000,-1.225299e-005,1.238688e-005
1.044265e+000,-1.493858e-005,1.237749e-005
1.045059e+000,-1.628138e-005,1.237210e-005
1.045853e+000,-1.023880e-005,1.238894e-005
1.046647e+000,-1.023880e-005,1.238467e-005
1.047441e+000,-1.091020e-005,1.237667e-005
1.048235e+000,-1.040665e-005,1.236701e-005
1.049029e+000,-6.546120e-006,1.236055e-005
1.049824e+000,-3.524834e-006,1.234224e-005
1.050618e+000,-7.385367e-006,1.232848e-005
1.051412e+000,-6.210422e-006,1.231819e-005
1.052206e+000,-5.203327e-006,1.230872e-005
1.053000e+000,-7.721065e-006,1.230311e-005
1.053794e+000,-8.896010e-006,1.229898e-005
1.054588e+000,-9.567407e-006,1.229381e-005
1.055382e+000,-6.210422e-006,1.229542e-005
1.056176e+000,-7.888914e-006,1.229129e-005
1.056971e+000,-7.217518e-006,1.228393e-005
1.057765e+000,-5.874723e-006,1.227121e-005
1.058559e+000,-7.553216e-006,1.225828e-005
1.059353e+000,-7.553216e-006,1.224618e-005
1.060147e+000,-4.867628e-006,1.223187e-005
1.060941e+000,-6.881819e-006,1.221431e-005
1.061735e+000,-8.896010e-006,1.220855e-005
1.062529e+000,-1.225299e-005,1.220287e-005
1.063324e+000,-1.326009e-005,1.219834e-005
1.064118e+000,-1.359579e-005,1.218073e-005
1.064912e+000,-1.560998e-005,1.216731e-005
1.065706e+000,-1.426719e-005,1.216451e-005
1.066500e+000,-1.376364e-005,1.214405e-005
1.067294e+000,-1.628138e-005,1.212815e-005
1.068088e+000,-1.460288e-005,1.212815e-005
1.068882e+000,-1.527428e-005,1.212685e-005
1.069676e+000,-1.426719e-005,1.213075e-005
1.070471e+000,-1.258869e-005,1.212948e-005
1.071265e+000,-1.225299e-005,1.212602e-005
1.072059e+000,-1.393149e-005,1.212380e-005
1.072853e+000,-1.426719e-005,1.212501e-005
1.073647e+000,-1.426719e-005,1.213705e-005
1.074441e+000,-1.560998e-005,1.215337e-005
1.075235e+000,-1.695277e-005,1.217328e-005
1.076029e+000,-2.064546e-005,1.220199e-005
1.076824e+000,-2.433814e-005,1.225134e-005
1.077618e+000,-2.333104e-005,1.231454e-005
1.078412e+000,-1.695277e-005,1.237124e-005
1.079206e+000,-1.091020e-005,1.240295e-005
1.080000e+000,-2.853437e-006,1.241405e-005
1.080794e+000,-1.846342e-006,1.240902e-005
1.081588e+000,-3.189136e-006,1.240682e-005
1.082382e+000,-5.539025e-006,1.240080e-005
1.083176e+000,-1.225299e-005,1.239742e-005
1.083971e+000,-1.158160e-005,1.240936e-005
1.084765e+000,-9.567407e-006,1.241603e-005
1.085559e+000,-1.091020e-005,1.241251e-005
1.086353e+000,-1.023880e-005,1.240406e-005
1.087147e+000,-1.124590e-005,1.239824e-005
1.087941e+000,-1.158160e-005,1.239520e-005
1.088735e+000,-1.359579e-005,1.239714e-005
1.089529e+000,-1.460288e-005,1.240559e-005
1.090324e+000,-1.292439e-005,1.242202e-005
1.091118e+000,-1.158160e-005,1.243169e-005
1.091912e+000,-1.225299e-005,1.242280e-005
1.092706e+000,-9.567407e-006,1.239257e-005
1.093500e+000,-9.735256e-006,1.236738e-005
1.094294e+000,-7.217518e-006,1.235917e-005
1.095088e+000,-9.735256e-006,1.233027e-005
1.095882e+000,-1.091020e-005,1.230683e-005
1.096676e+000,-1.091020e-005,1.229712e-005
1.097471e+000,-9.903105e-006,1.229615e-005
1.098265e+000,-1.124590e-005,1.228941e-005
1.099059e+000,-1.359579e-005,1.229176e-005
1.099853e+000,-1.292439e-005,1.230466e-005
1.100647e+000,-1.560998e-005,1.231603e-005
1.101441e+000,-8.896010e-006,1.233117e-005
1.102235e+000,-9.903105e-006,1.232957e-005
1.103029e+000,-1.124590e-005,1.232687e-005
1.103824e+000,-6.881819e-006,1.232163e-005
1.104618e+000,-1.124590e-005,1.230325e-005
1.105412e+000,-1.292439e-005,1.230421e-005
1.106206e+000,-1.560998e-005,1.231226e-005
1.107000e+000,-1.661708e-005,1.232837e-005
1.107794e+000,-1.695277e-005,1.234865e-005
1.108588e+000,-1.359579e-005,1.236416e-005
1.109382e+000,-9.567407e-006,1.236175e-005
1.110176e+000,-1.158160e-005,1.233795e-005
1.110971e+000,-1.359579e-005,1.231515e-005
1.111765e+000,-1.258869e-005,1.230477e-005
1.112559e+000,-1.023880e-005,1.229640e-005
1.113353e+000,-1.107805e-005,1.229812e-005
1.114147e+000,-1.124590e-005,1.231391e-005
1.114941e+000,-1.091020e-005,1.232675e-005
1.115735e+000,-1.258869e-005,1.234107e-005
1.116529e+000,-1.292439e-005,1.236132e-005
1.117324e+000,-1.225299e-005,1.238056e-005
1.118118e+000,-1.527428e-005,1.239116e-005
1.118912e+000,-1.359579e-005,1.240937e-005
1.119706e+000,-1.426719e-005,1.241963e-005
1.120500e+000,-1.225299e-005,1.242853e-005
1.121294e+000,-1.225299e-005,1.242636e-005
1.122088e+000,-1.292439e-005,1.241570e-005
1.122882e+000,-1.292439e-005,1.241341e-005
1.123676e+000,-1.091020e-005,1.239797e-005
1.124471e+000,-9.903105e-006,1.237257e-005
1.125265e+000,-8.224612e-006,1.234818e-005
1.126059e+000,-8.896010e-006,1.232746e-005
1.126853e+000,-6.881819e-006,1.231828e-005
1.127647e+000,-6.881819e-006,1.230167e-005
1.128441e+000,-8.896010e-006,1.228017e-005
1.129235e+000,-8.896010e-006,1.226148e-005
1.130029e+000,-6.881819e-006,1.224145e-005
1.130824e+000,-4.196231e-006,1.222048e-005
1.131618e+000,-6.881819e-006,1.219623e-005
1.132412e+000,-6.881819e-006,1.218439e-005
1.133206e+000,-5.874723e-006,1.217201e-005
1.134000e+000,-9.567407e-006,1.216046e-005
1.134794e+000,-1.091020e-005,1.215686e-005
1.135588e+000,-1.023880e-005,1.215437e-005
1.136382e+000,-1.091020e-005,1.215251e-005
1.137176e+000,-1.242084e-005,1.215437e-005
1.137971e+000,-1.107805e-005,1.216259e-005
1.138765e+000,-8.896010e-006,1.216493e-005
1.139559e+000,-1.158160e-005,1.214987e-005
1.140353e+000,-1.158160e-005,1.214556e-005
1.141147e+000,-1.292439e-005,1.215197e-005
1.141941e+000,-1.493858e-005,1.215826e-005
1.142735e+000,-1.460288e-005,1.215956e-005
1.143529e+000,-1.493858e-005,1.216328e-005
1.144324e+000,-1.846342e-005,1.216584e-005
1.145118e+000,-1.829557e-005,1.216981e-005
1.145912e+000,-1.846342e-005,1.218696e-005
1.146706e+000,-1.795987e-005,1.220733e-005
1.147500e+000,-1.661708e-005,1.222284e-005
1.148294e+000,-1.695277e-005,1.223705e-005
1.149088e+000,-1.493858e-005,1.223403e-005
1.149882e+000,-1.158160e-005,1.222264e-005
1.150676e+000,-1.493858e-005,1.221038e-005
1.151471e+000,-1.460288e-005,1.221417e-005
1.152265e+000,-1.376364e-005,1.221288e-005
1.153059e+000,-1.527428e-005,1.220010e-005
1.153853e+000,-1.124590e-005,1.219595e-005
1.154647e+000,-1.141375e-005,1.219644e-005
1.155441e+000,-8.224612e-006,1.219976e-005
1.156235e+000,-4.531929e-006,1.219108e-005
1.157029e+000,-1.510643e-006,1.217915e-005
1.157824e+000,-5.539025e-006,1.216910e-005
1.158618e+000,-7.217518e-006,1.217042e-005
1.159412e+000,-9.567407e-006,1.217272e-005
1.160206e+000,-8.560311e-006,1.217585e-005
1.161000e+000,-9.903105e-006,1.217924e-005
1.161794e+000,-9.567407e-006,1.218874e-005
1.162588e+000,-6.210422e-006,1.219510e-005
1.163382e+000,-9.903105e-006,1.218644e-005
1.164176e+000,-1.292439e-005,1.218556e-005
1.164971e+000,-1.359579e-005,1.219277e-005
1.165765e+000,-1.628138e-005,1.220657e-005
1.166559e+000,-1.644922e-005,1.223494e-005
1.167353e+000,-1.225299e-005,1.226203e-005
1.168147e+000,-6.881819e-006,1.227200e-005
1.168941e+000,-3.692683e-006,1.226937e-005
1.169735e+000,-1.678492e-007,1.226236e-005
1.170529e+000,-2.853437e-006,1.224593e-005
1.171324e+000,-6.546120e-006,1.222410e-005
1.172118e+000,-1.023880e-005,1.220559e-005
1.172912e+000,-9.567407e-006,1.219015e-005
1.173706e+000,-1.023880e-005,1.216150e-005
1.174500e+000,-1.292439e-005,1.213295e-005
1.175294e+000,-1.560998e-005,1.212289e-005
1.176088e+000,-1.493858e-005,1.212008e-005
1.176882e+000,-1.644922e-005,1.211457e-005
1.177676e+000,-2.131685e-005,1.212080e-005
1.178471e+000,-2.131685e-005,1.215792e-005
1.179265e+000,-1.829557e-005,1.219550e-005
1.180059e+000,-1.628138e-005,1.221262e-005
1.180853e+000,-1.795987e-005,1.222308e-005
1.181647e+000,-1.560998e-005,1.224956e-005
1.182441e+000,-1.594568e-005,1.226379e-005
1.183235e+000,-1.426719e-005,1.228651e-005
1.184029e+000,-1.527428e-005,1.230787e-005
1.184824e+000,-1.577783e-005,1.233642e-005
1.185618e+000,-1.426719e-005,1.236546e-005
1.186412e+000,-1.023880e-005,1.239005e-005
1.187206e+000,-1.023880e-005,1.240160e-005
1.188000e+000,-8.560311e-006,1.241010e-005
1.188794e+000,-8.896010e-006,1.241456e-005
1.189588e+000,-6.881819e-006,1.242077e-005
1.190382e+000,-1.023880e-005,1.241781e-005
1.191176e+000,-9.567407e-006,1.242111e-005
1.191971e+000,-5.539025e-006,1.242417e-005
1.192765e+000,-7.553216e-006,1.241553e-005
1.193559e+000,-9.567407e-006,1.239548e-005
1.194353e+000,-8.560311e-006,1.237524e-005
1.195147e+000,-7.217518e-006,1.235054e-005
1.195941e+000,-9.567407e-006,1.232846e-005
1.196735e+000,-1.091020e-005,1.231014e-005
1.197529e+000,-1.258869e-005,1.228533e-005
1.198324e+000,-1.560998e-005,1.226861e-005
1.199118e+000,-1.695277e-005,1.226440e-005
1.199912e+000,-1.594568e-005,1.226138e-005
1.200706e+000,-1.695277e-005,1.226276e-005
1.201500e+000,-1.628138e-005,1.226566e-005
1.202294e+000,-1.359579e-005,1.227364e-005
1.203088e+000,-9.231709e-006,1.227814e-005
1.203882e+000,-1.225299e-005,1.227648e-005
1.204676e+000,-1.477073e-005,1.228145e-005
1.205471e+000,-1.225299e-005,1.228918e-005
1.206265e+000,-1.091020e-005,1.228918e-005
1.207059e+000,-7.217518e-006,1.228515e-005
1.207853e+000,-8.224612e-006,1.227136e-005
1.208647e+000,-8.224612e-006,1.226273e-005
1.209441e+000,-8.896010e-006,1.225920e-005
1.210235e+000,-1.091020e-005,1.225717e-005
1.211029e+000,-1.124590e-005,1.225313e-005
1.211824e+000,-9.903105e-006,1.224554e-005
1.212618e+000,-1.225299e-005,1.224597e-005
1.213412e+000,-1.292439e-005,1.225481e-005
1.214206e+000,-1.292439e-005,1.225647e-005
1.215000e+000,-1.309224e-005,1.225172e-005
1.215794e+000,-1.225299e-005,1.224499e-005
1.216588e+000,-1.091020e-005,1.223678e-005
1.217382e+000,-9.735256e-006,1.223053e-005
1.218176e+000,-1.124590e-005,1.222641e-005
1.218971e+000,-9.567407e-006,1.222541e-005
1.219765e+000,-8.896010e-006,1.222541e-005
1.220559e+000,-1.023880e-005,1.222541e-005
1.221353e+000,-1.107805e-005,1.222159e-005
1.222147e+000,-1.174945e-005,1.222110e-005
1.222941e+000,-1.359579e-005,1.221953e-005
1.223735e+000,-1.225299e-005,1.222405e-005
1.224529e+000,-1.326009e-005,1.221388e-005
1.225324e+000,-1.393149e-005,1.220771e-005
1.226118e+000,-1.426719e-005,1.220770e-005
1.226912e+000,-1.191730e-005,1.222542e-005
1.227706e+000,-9.903105e-006,1.224229e-005
1.228500e+000,-1.158160e-005,1.225503e-005
1.229294e+000,-1.393149e-005,1.227244e-005
1.230088e+000,-1.628138e-005,1.229452e-005
1.230882e+000,-1.258869e-005,1.232383e-005
1.231676e+000,-1.426719e-005,1.233876e-005
1.232471e+000,-1.493858e-005,1.235279e-005
1.233265e+000,-1.628138e-005,1.235279e-005
1.234059e+000,-1.762417e-005,1.235688e-005
1.234853e+000,-1.728847e-005,1.237308e-005
1.235647e+000,-1.594568e-005,1.239221e-005
1.236441e+000,-1.628138e-005,1.239490e-005
1.237235e+000,-1.191730e-005,1.239203e-005
1.238029e+000,-6.881819e-006,1.237479e-005
1.238824e+000,-6.881819e-006,1.234814e-005
1.239618e+000,-7.049668e-006,1.233213e-005
1.240412e+000,-9.903105e-006,1.231808e-005
1.241206e+000,-7.553216e-006,1.231441e-005
1.242000e+000,-5.539025e-006,1.230017e-005
1.242794e+000,-6.210422e-006,1.228575e-005
1.243588e+000,-7.553216e-006,1.227804e-005
1.244382e+000,-9.567407e-006,1.227184e-005
1.245176e+000,-1.057450e-005,1.226423e-005
1.245971e+000,-1.158160e-005,1.225475e-005
1.246765e+000,-1.258869e-005,1.225810e-005
1.247559e+000,-1.376364e-005,1.227192e-005
1.248353e+000,-1.728847e-005,1.228771e-005
1.249147e+000,-1.560998e-005,1.231615e-005
1.249941e+000,-1.426719e-005,1.233959e-005
1.250735e+000,-1.158160e-005,1.235712e-005
1.251529e+000,-1.560998e-005,1.236638e-005
1.252324e+000,-1.560998e-005,1.238866e-005
1.253118e+000,-1.393149e-005,1.240274e-005
1.253912e+000,-1.292439e-005,1.241548e-005
1.254706e+000,-1.158160e-005,1.241435e-005
1.255500e+000,-6.881819e-006,1.239754e-005
1.256294e+000,-1.846342e-006,1.237747e-005
1.257088e+000,-5.035477e-007,1.234916e-005
1.257882e+000,-3.356985e-007,1.232292e-005
1.258676e+000,-1.174945e-006,1.228720e-005
1.259471e+000,-5.874723e-006,1.225298e-005
1.260265e+000,-1.225299e-005,1.222844e-005
1.261059e+000,-1.326009e-005,1.221760e-005
1.261853e+000,-9.567407e-006,1.220453e-005
1.262647e+000,-9.567407e-006,1.218186e-005
1.263441e+000,-1.292439e-005,1.215623e-005
1.264235e+000,-1.426719e-005,1.213663e-005
1.265029e+000,-1.393149e-005,1.212856e-005
1.265824e+000,-1.426719e-005,1.212731e-005
1.266618e+000,-1.359579e-005,1.212977e-005
1.267412e+000,-1.242084e-005,1.213841e-005
1.268206e+000,-1.292439e-005,1.214826e-005
1.269000e+000,-1.309224e-005,1.215154e-005
1.269794e+000,-1.426719e-005,1.216513e-005
1.270588e+000,-1.728847e-005,1.218429e-005
1.271382e+000,-1.795987e-005,1.221712e-005
1.272176e+000,-1.309224e-005,1.225408e-005
1.272971e+000,-1.443504e-005,1.227404e-005
1.273765e+000,-1.376364e-005,1.229944e-005
1.274559e+000,-1.091020e-005,1.231657e-005
1.275353e+000,-8.224612e-006,1.232458e-005
1.276147e+000,-6.881819e-006,1.232720e-005
1.276941e+000,-8.224612e-006,1.232231e-005
1.277735e+000,-6.210422e-006,1.231566e-005
1.278529e+000,-5.539025e-006,1.229431e-005
1.279324e+000,-8.224612e-006,1.227664e-005
1.280118e+000,-6.881819e-006,1.226997e-005
1.280912e+000,-5.203327e-006,1.225970e-005
1.281706e+000,-6.881819e-006,1.224629e-005
1.282500e+000,-8.896010e-006,1.223072e-005
1.283294e+000,-1.191730e-005,1.220928e-005
1.284088e+000,-1.292439e-005,1.219803e-005
1.284882e+000,-1.292439e-005,1.219327e-005
1.285676e+000,-1.225299e-005,1.219756e-005
1.286471e+000,-1.426719e-005,1.219059e-005
1.287265e+000,-1.695277e-005,1.218670e-005
1.288059e+000,-1.628138e-005,1.219377e-005
1.288853e+000,-1.728847e-005,1.219085e-005
1.289647e+000,-1.695277e-005,1.219527e-005
1.290441e+000,-1.560998e-005,1.219527e-005
1.291235e+000,-1.695277e-005,1.219527e-005
1.292029e+000,-1.560998e-005,1.220365e-005
1.292824e+000,-1.628138e-005,1.220227e-005
1.293618e+000,-1.695277e-005,1.221726e-005
1.294412e+000,-1.359579e-005,1.222563e-005
1.295206e+000,-1.359579e-005,1.221518e-005
1.296000e+000,-1.225299e-005,1.222560e-005
1.296794e+000,-1.359579e-005,1.223150e-005
1.297588e+000,-1.376364e-005,1.224006e-005
1.298382e+000,-1.560998e-005,1.225062e-005
1.299176e+000,-1.560998e-005,1.227669e-005
1.299971e+000,-1.527428e-005,1.230665e-005
1.300765e+000,-1.393149e-005,1.232976e-005
1.301559e+000,-1.393149e-005,1.234982e-005
1.302353e+000,-1.292439e-005,1.237134e-005
1.303147e+000,-9.567407e-006,1.238516e-005
1.303941e+000,-9.231709e-006,1.238675e-005
1.304735e+000,-9.567407e-006,1.238594e-005
1.305529e+000,-9.063859e-006,1.239275e-005
1.306324e+000,-4.867628e-006,1.239531e-005
1.307118e+000,-9.903105e-006,1.239166e-005
1.307912e+000,-1.023880e-005,1.239982e-005
1.308706e+000,-8.392462e-006,1.240596e-005
1.309500e+000,-8.224612e-006,1.240768e-005
1.310294e+000,-7.553216e-006,1.241332e-005
1.311088e+000,-6.210422e-006,1.241456e-005
1.311882e+000,-6.881819e-006,1.240935e-005
1.312676e+000,-7.553216e-006,1.239616e-005
1.313471e+000,-6.378271e-006,1.238089e-005
1.314265e+000,-5.539025e-006,1.236234e-005
1.315059e+000,-4.867628e-006,1.233487e-005
1.315853e+000,-9.231709e-006,1.231163e-005
1.316647e+000,-1.158160e-005,1.229814e-005
1.317441e+000,-1.091020e-005,1.228118e-005
1.318235e+000,-1.225299e-005,1.226896e-005
1.319029e+000,-1.292439e-005,1.225816e-005
1.319824e+000,-1.124590e-005,1.225341e-005
1.320618e+000,-1.174945e-005,1.224925e-005
1.321412e+000,-1.057450e-005,1.224768e-005
1.322206e+000,-1.225299e-005,1.223698e-005
1.323000e+000,-1.292439e-005,1.223003e-005
1.323794e+000,-1.023880e-005,1.222527e-005
1.324588e+000,-8.896010e-006,1.220718e-005
1.325382e+000,-1.023880e-005,1.217998e-005
1.326176e+000,-8.224612e-006,1.213789e-005
1.326971e+000,-1.023880e-005,1.206886e-005
1.327765e+000,-1.359579e-005,1.201073e-005
1.328559e+000,-1.527428e-005,1.199713e-005
1.329353e+000,-1.527428e-005,1.201228e-005
1.330147e+000,-1.695277e-005,1.204209e-005
1.330941e+000,-1.426719e-005,1.207959e-005
1.331735e+000,-1.292439e-005,1.210505e-005
1.332529e+000,-1.023880e-005,1.212298e-005
1.333324e+000,-1.091020e-005,1.211703e-005
1.334118e+000,-1.393149e-005,1.211504e-005
1.334912e+000,-1.393149e-005,1.212851e-005
1.335706e+000,-1.326009e-005,1.213836e-005
1.336500e+000,-1.560998e-005,1.214767e-005
1.337294e+000,-1.292439e-005,1.216302e-005
1.338088e+000,-1.359579e-005,1.216733e-005
1.338882e+000,-1.426719e-005,1.216733e-005
1.339676e+000,-1.527428e-005,1.216606e-005
1.340471e+000,-1.326009e-005,1.217473e-005
1.341265e+000,-8.896010e-006,1.218019e-005
1.342059e+000,-7.553216e-006,1.217090e-005
1.342853e+000,-1.225299e-005,1.216639e-005
1.343647e+000,-1.225299e-005,1.217363e-005
1.344441e+000,-1.527428e-005,1.218645e-005
1.345235e+000,-1.695277e-005,1.220454e-005
1.346029e+000,-1.896696e-005,1.222648e-005
1.346824e+000,-2.098116e-005,1.225779e-005
1.347618e+000,-1.980621e-005,1.230216e-005
1.348412e+000,-1.158160e-005,1.233652e-005
1.349206e+000,-4.196231e-006,1.232997e-005
1.350000e+000,-5.035477e-007,1.231066e-005
1.350794e+000,-2.517739e-006,1.227913e-005
1.351588e+000,-5.706874e-006,1.226969e-005
1.352382e+000,-6.042573e-006,1.226118e-005
1.353176e+000,-1.124590e-005,1.224949e-005
1.353971e+000,-1.795987e-005,1.225977e-005
1.354765e+000,-1.493858e-005,1.228522e-005
1.355559e+000,-1.225299e-005,1.229249e-005
1.356353e+000,-1.158160e-005,1.228037e-005
1.357147e+000,-1.376364e-005,1.226194e-005
1.357941e+000,-1.292439e-005,1.224921e-005
1.358735e+000,-1.292439e-005,1.224690e-005
1.359529e+000,-1.393149e-005,1.225671e-005
1.360324e+000,-1.091020e-005,1.226450e-005
1.361118e+000,-9.567407e-006,1.225595e-005
1.361912e+000,-9.231709e-006,1.224725e-005
1.362706e+000,-8.560311e-006,1.224470e-005
1.363500e+000,-9.567407e-006,1.223827e-005
1.364294e+000,-1.057450e-005,1.223372e-005
1.365088e+000,-8.560311e-006,1.223278e-005
1.365882e+000,-9.567407e-006,1.222169e-005
1.366676e+000,-1.091020e-005,1.221185e-005
1.367471e+000,-1.292439e-005,1.220779e-005
1.368265e+000,-1.258869e-005,1.219914e-005
1.369059e+000,-1.023880e-005,1.219570e-005
1.369853e+000,-1.091020e-005,1.218280e-005
1.370647e+000,-1.174945e-005,1.217874e-005
1.371441e+000,-1.258869e-005,1.217716e-005
1.372235e+000,-1.225299e-005,1.217604e-005
1.373029e+000,-1.275654e-005,1.217383e-005
1.373824e+000,-1.359579e-005,1.217954e-005
1.374618e+000,-1.460288e-005,1.219088e-005
1.375412e+000,-1.795987e-005,1.220988e-005
1.376206e+000,-1.695277e-005,1.224159e-005
1.377000e+000,-1.829557e-005,1.227277e-005
1.377794e+000,-1.963836e-005,1.231000e-005
1.378588e+000,-1.762417e-005,1.234959e-005
1.379382e+000,-1.326009e-005,1.237940e-005
1.380176e+000,-1.359579e-005,1.239591e-005
1.380971e+000,-1.326009e-005,1.241738e-005
1.381765e+000,-1.107805e-005,1.243384e-005
1.382559e+000,-7.553216e-006,1.244349e-005
1.383353e+000,-7.721065e-006,1.244637e-005
1.384147e+000,-8.560311e-006,1.244229e-005
1.384941e+000,-1.091020e-005,1.243643e-005
1.385735e+000,-1.124590e-005,1.243825e-005
1.386529e+000,-8.896010e-006,1.243920e-005
1.387324e+000,-6.210422e-006,1.242958e-005
1.388118e+000,-5.539025e-006,1.241879e-005
1.388912e+000,-5.706874e-006,1.241258e-005
1.389706e+000,-5.539025e-006,1.239954e-005
1.390500e+000,-5.874723e-006,1.238625e-005
1.391294e+000,-6.881819e-006,1.236920e-005
1.392088e+000,-6.546120e-006,1.234655e-005
1.392882e+000,-8.224612e-006,1.232455e-005
1.393676e+000,-9.567407e-006,1.230444e-005
1.394471e+000,-8.224612e-006,1.227213e-005
1.395265e+000,-9.231709e-006,1.223742e-005
1.396059e+000,-1.242084e-005,1.220411e-005
1.396853e+000,-1.493858e-005,1.218213e-005
1.397647e+000,-1.493858e-005,1.217521e-005
1.398441e+000,-1.225299e-005,1.216681e-005
1.399235e+000,-1.023880e-005,1.215724e-005
1.400029e+000,-1.091020e-005,1.215341e-005
1.400824e+000,-6.546120e-006,1.213976e-005
1.401618e+000,-7.553216e-006,1.211738e-005
1.402412e+000,-8.896010e-006,1.209997e-005
1.403206e+000,-8.392462e-006,1.207967e-005
1.404000e+000,-9.567407e-006,1.207228e-005
1.404794e+000,-8.224612e-006,1.206717e-005
1.405588e+000,-6.881819e-006,1.206717e-005
1.406382e+000,-3.524834e-006,1.207071e-005
1.407176e+000,-2.853437e-006,1.207205e-005
1.407971e+000,-4.867628e-006,1.206907e-005
1.408765e+000,-1.158160e-005,1.206532e-005
1.409559e+000,-1.426719e-005,1.207095e-005
1.410353e+000,-1.560998e-005,1.208812e-005
1.411147e+000,-1.762417e-005,1.210728e-005
1.411941e+000,-1.963836e-005,1.213606e-005
1.412735e+000,-1.695277e-005,1.218152e-005
1.413529e+000,-1.560998e-005,1.220624e-005
1.414324e+000,-1.560998e-005,1.221623e-005
1.415118e+000,-1.779202e-005,1.222390e-005
1.415912e+000,-1.896696e-005,1.223060e-005
1.416706e+000,-1.829557e-005,1.224221e-005
1.417500e+000,-1.980621e-005,1.226619e-005
1.418294e+000,-1.863127e-005,1.231089e-005
1.419088e+000,-1.628138e-005,1.235395e-005
1.419882e+000,-1.628138e-005,1.238807e-005
1.420676e+000,-1.560998e-005,1.242105e-005
1.421471e+000,-1.577783e-005,1.244677e-005
1.422265e+000,-1.309224e-005,1.246519e-005
1.423059e+000,-1.527428e-005,1.247539e-005
1.423853e+000,-1.191730e-005,1.249178e-005
1.424647e+000,-1.191730e-005,1.248859e-005
1.425441e+000,-1.493858e-005,1.247562e-005
1.426235e+000,-1.661708e-005,1.247562e-005
1.427029e+000,-1.577783e-005,1.247633e-005
1.427824e+000,-1.158160e-005,1.245008e-005
1.428618e+000,-1.023880e-005,1.240904e-005
1.429412e+000,-5.874723e-006,1.237951e-005
1.430206e+000,-8.392462e-007,1.234982e-005
1.431000e+000,5.035477e-007,1.230825e-005
1.431794e+000,5.035477e-007,1.227671e-005
1.432588e+000,-2.182040e-006,1.224372e-005
1.433382e+000,-4.867628e-006,1.221784e-005
1.434176e+000,-8.896010e-006,1.219049e-005
1.434971e+000,-9.567407e-006,1.216829e-005
1.435765e+000,-8.224612e-006,1.215362e-005
1.436559e+000,-8.392462e-006,1.214875e-005
1.437353e+000,-1.493858e-005,1.214424e-005
1.438147e+000,-1.560998e-005,1.216388e-005
1.438941e+000,-1.292439e-005,1.218540e-005
1.439735e+000,-1.376364e-005,1.220103e-005
1.440529e+000,-1.359579e-005,1.221206e-005
1.441324e+000,-1.493858e-005,1.222423e-005
1.442118e+000,-1.493858e-005,1.224927e-005
1.442912e+000,-1.393149e-005,1.227085e-005
1.443706e+000,-1.493858e-005,1.228415e-005
1.444500e+000,-1.695277e-005,1.230356e-005
1.445294e+000,-1.628138e-005,1.233398e-005
1.446088e+000,-1.426719e-005,1.235636e-005
1.446882e+000,-9.567407e-006,1.236725e-005
1.447676e+000,-9.567407e-006,1.235863e-005
1.448471e+000,-1.091020e-005,1.233901e-005
1.449265e+000,-1.258869e-005,1.231726e-005
1.450059e+000,-9.063859e-006,1.230487e-005
1.450853e+000,-9.567407e-006,1.227828e-005
1.451647e+000,-1.158160e-005,1.225576e-005
1.452441e+000,-1.393149e-005,1.224917e-005
1.453235e+000,-1.493858e-005,1.226331e-005
1.454029e+000,-1.426719e-005,1.227279e-005
1.454824e+000,-1.594568e-005,1.227089e-005
1.455618e+000,-1.493858e-005,1.228440e-005
1.456412e+000,-1.460288e-005,1.229789e-005
1.457206e+000,-1.359579e-005,1.231874e-005
1.458000e+000,-9.567407e-006,1.233388e-005
1.458794e+000,-1.158160e-005,1.233696e-005
1.459588e+000,-1.158160e-005,1.234406e-005
1.460382e+000,-1.225299e-005,1.234600e-005
1.461176e+000,-1.225299e-005,1.234906e-005
1.461971e+000,-1.158160e-005,1.235577e-005
1.462765e+000,-1.023880e-005,1.235370e-005
1.463559e+000,-8.560311e-006,1.234568e-005
1.464353e+000,-7.049668e-006,1.233358e-005
1.465147e+000,-9.567407e-006,1.231786e-005
1.465941e+000,-9.735256e-006,1.231028e-005
1.466735e+000,-6.881819e-006,1.230715e-005
1.467529e+000,-1.040665e-005,1.230101e-005
1.468324e+000,-6.210422e-006,1.229866e-005
1.469118e+000,-3.524834e-006,1.229180e-005
1.469912e+000,-4.531929e-006,1.228315e-005
1.470706e+000,-7.217518e-006,1.227222e-005
1.471500e+000,-6.210422e-006,1.226305e-005
1.472294e+000,-8.560311e-006,1.225013e-005
1.473088e+000,-1.091020e-005,1.223562e-005
1.473882e+000,-1.091020e-005,1.223157e-005
1.474676e+000,-1.426719e-005,1.222417e-005
1.475471e+000,-1.728847e-005,1.222540e-005
1.476265e+000,-1.795987e-005,1.223782e-005
1.477059e+000,-1.728847e-005,1.226128e-005
1.477853e+000,-1.426719e-005,1.228734e-005
1.478647e+000,-1.795987e-005,1.229633e-005
1.479441e+000,-1.846342e-005,1.231295e-005
1.480235e+000,-1.762417e-005,1.232276e-005
1.481029e+000,-1.258869e-005,1.234240e-005
1.481824e+000,-1.493858e-005,1.233658e-005
1.482618e+000,-1.359579e-005,1.233658e-005
1.483412e+000,-1.426719e-005,1.232622e-005
1.484206e+000,-1.426719e-005,1.231238e-005
1.485000e+000,-1.258869e-005,1.230005e-005
1.485794e+000,-1.258869e-005,1.228764e-005
1.486588e+000,-1.292439e-005,1.227382e-005
1.487382e+000,-8.896010e-006,1.227706e-005
1.488176e+000,-8.896010e-006,1.228118e-005
1.488971e+000,-1.158160e-005,1.228530e-005
1.489765e+000,-1.225299e-005,1.229624e-005
1.490559e+000,-1.191730e-005,1.230298e-005
1.491353e+000,-8.224612e-006,1.231398e-005
1.492147e+000,-3.021286e-006,1.231875e-005
1.492941e+000,-4.364080e-006,1.231495e-005
1.493735e+000,-6.210422e-006,1.231003e-005
1.494529e+000,-7.217518e-006,1.230318e-005
1.495324e+000,-8.224612e-006,1.229545e-005
1.496118e+000,-9.567407e-006,1.228683e-005
1.496912e+000,-8.224612e-006,1.227815e-005
1.497706e+000,-7.217518e-006,1.226235e-005
1.498500e+000,-1.124590e-005,1.223026e-005
1.499294e+000,-1.695277e-005,1.221499e-005
1.500088e+000,-1.594568e-005,1.222591e-005
1.500882e+000,-1.577783e-005,1.224155e-005
1.501676e+000,-1.930266e-005,1.224224e-005
1.502471e+000,-1.426719e-005,1.225899e-005
1.503265e+000,-8.224612e-006,1.226022e-005
1.504059e+000,-6.210422e-006,1.224731e-005
1.504853e+000,-6.210422e-006,1.223488e-005
1.505647e+000,-6.210422e-006,1.223373e-005
1.506441e+000,-6.881819e-006,1.223831e-005
1.507235e+000,-1.158160e-005,1.224444e-005
1.508029e+000,-1.628138e-005,1.226185e-005
1.508824e+000,-1.560998e-005,1.229605e-005
1.509618e+000,-1.023880e-005,1.232311e-005
1.510412e+000,-1.091020e-005,1.231725e-005
1.511206e+000,-1.292439e-005,1.230991e-005
1.512000e+000,-1.258869e-005,1.231967e-005
1.512794e+000,-1.359579e-005,1.232832e-005
1.513588e+000,-1.560998e-005,1.233062e-005
1.514382e+000,-1.460288e-005,1.233580e-005
1.515176e+000,-1.292439e-005,1.233827e-005
1.515971e+000,-1.091020e-005,1.233356e-005
1.516765e+000,-1.527428e-005,1.232506e-005
1.517559e+000,-1.829557e-005,1.233526e-005
1.518353e+000,-1.896696e-005,1.235689e-005
1.519147e+000,-2.030976e-005,1.238114e-005
1.519941e+000,-1.896696e-005,1.240798e-005
1.520735e+000,-1.896696e-005,1.241579e-005
1.521529e+000,-1.829557e-005,1.242056e-005
1.522324e+000,-1.443504e-005,1.244148e-005
1.523118e+000,-1.359579e-005,1.244148e-005
1.523912e+000,-1.158160e-005,1.244089e-005
1.524706e+000,-7.888914e-006,1.244282e-005
1.525500e+000,-1.292439e-005,1.244213e-005
1.526294e+000,-1.292439e-005,1.245744e-005
1.527088e+000,-8.896010e-006,1.247013e-005
1.527882e+000,-8.224612e-006,1.247531e-005
1.528676e+000,-8.896010e-006,1.248003e-005
1.529471e+000,-5.539025e-006,1.248150e-005
1.530265e+000,-3.189136e-006,1.247937e-005
1.531059e+000,-7.553216e-006,1.247721e-005
1.531853e+000,-7.217518e-006,1.247845e-005
1.532647e+000,-4.196231e-006,1.247500e-005
1.533441e+000,-3.189136e-006,1.245911e-005
1.534235e+000,-3.189136e-006,1.243904e-005
1.535029e+000,-4.867628e-006,1.241894e-005
1.535824e+000,-5.874723e-006,1.240272e-005
1.536618e+000,-5.539025e-006,1.238100e-005
1.537412e+000,-6.881819e-006,1.234794e-005
1.538206e+000,-9.567407e-006,1.231983e-005
1.539000e+000,-1.091020e-005,1.229300e-005
1.539794e+000,-1.023880e-005,1.227117e-005
1.540588e+000,-1.158160e-005,1.225314e-005
1.541382e+000,-1.174945e-005,1.223321e-005
1.542176e+000,-1.560998e-005,1.221945e-005
1.542971e+000,-1.493858e-005,1.221666e-005
1.543765e+000,-1.426719e-005,1.220828e-005
1.544559e+000,-1.762417e-005,1.221072e-005
1.545353e+000,-1.560998e-005,1.222711e-005
1.546147e+000,-1.426719e-005,1.223929e-005
1.546941e+000,-1.695277e-005,1.224172e-005
1.547735e+000,-2.131685e-005,1.225446e-005
1.548529e+000,-2.165255e-005,1.228181e-005
1.549324e+000,-1.762417e-005,1.231097e-005
1.550118e+000,-1.258869e-005,1.232096e-005
1.550912e+000,-1.023880e-005,1.231636e-005
1.551706e+000,-1.124590e-005,1.230482e-005
1.552500e+000,-1.242084e-005,1.229956e-005
1.553294e+000,-1.225299e-005,1.230768e-005
1.554088e+000,-6.881819e-006,1.231608e-005
1.554882e+000,-4.867628e-006,1.231037e-005
1.555676e+000,-7.049668e-006,1.230280e-005
1.556471e+000,-1.225299e-005,1.230617e-005
1.557265e+000,-1.326009e-005,1.231290e-005
1.558059e+000,-1.091020e-005,1.232208e-005
1.558853e+000,-1.057450e-005,1.232836e-005
1.559647e+000,-1.023880e-005,1.233406e-005
1.560441e+000,-1.225299e-005,1.234023e-005
1.561235e+000,-1.023880e-005,1.235462e-005
1.562029e+000,-7.553216e-006,1.236202e-005
1.562824e+000,-8.896010e-006,1.236202e-005
1.563618e+000,-1.191730e-005,1.236698e-005
1.564412e+000,-1.225299e-005,1.238131e-005
1.565206e+000,-8.224612e-006,1.239756e-005
1.566000e+000,-9.567407e-006,1.239530e-005
1.566794e+000,-1.242084e-005,1.238982e-005
1.567588e+000,-1.628138e-005,1.239435e-005
1.568382e+000,-1.426719e-005,1.240911e-005
1.569176e+000,-1.560998e-005,1.241380e-005
1.569971e+000,-1.560998e-005,1.242882e-005
1.570765e+000,-1.258869e-005,1.244235e-005
1.571559e+000,-1.292439e-005,1.244832e-005
1.572353e+000,-1.258869e-005,1.245048e-005
1.573147e+000,-1.258869e-005,1.244938e-005
1.573941e+000,-1.493858e-005,1.245624e-005
1.574735e+000,-1.023880e-005,1.247464e-005
1.575529e+000,-8.224612e-006,1.247464e-005
1.576324e+000,-1.225299e-005,1.247464e-005
1.577118e+000,-1.057450e-005,1.248042e-005
1.577912e+000,-1.091020e-005,1.247110e-005
1.578706e+000,-1.292439e-005,1.245650e-005
1.579500e+000,-1.292439e-005,1.244803e-005
1.580294e+000,-9.567407e-006,1.243262e-005
1.581088e+000,-1.091020e-005,1.241827e-005
1.581882e+000,-1.124590e-005,1.241211e-005
1.582676e+000,-1.292439e-005,1.241489e-005
1.583471e+000,-1.040665e-005,1.242104e-005
1.584265e+000,-9.903105e-006,1.241004e-005
1.585059e+000,-1.091020e-005,1.239771e-005
1.585853e+000,-1.359579e-005,1.239042e-005
1.586647e+000,-1.225299e-005,1.238285e-005
1.587441e+000,-1.258869e-005,1.238068e-005
1.588235e+000,-1.107805e-005,1.237729e-005
1.589029e+000,-1.124590e-005,1.236689e-005
1.589824e+000,-1.426719e-005,1.235312e-005
1.590618e+000,-1.728847e-005,1.235669e-005
1.591412e+000,-1.577783e-005,1.238498e-005
1.592206e+000,-1.292439e-005,1.240963e-005
1.593000e+000,-5.539025e-006,1.241180e-005
1.593794e+000,5.035477e-007,1.239646e-005
1.594588e+000,1.174945e-006,1.236649e-005
1.595382e+000,-3.524834e-006,1.232961e-005
1.596176e+000,-5.874723e-006,1.228467e-005
1.596971e+000,-3.524834e-006,1.223197e-005
1.597765e+000,-6.378271e-006,1.218242e-005
1.598559e+000,-1.158160e-005,1.217020e-005
1.599353e+000,-1.695277e-005,1.218543e-005
1.600147e+000,-1.829557e-005,1.222290e-005
1.600941e+000,-1.728847e-005,1.226561e-005
1.601735e+000,-1.628138e-005,1.230013e-005
1.602529e+000,-1.594568e-005,1.232969e-005
1.603324e+000,-1.712062e-005,1.234618e-005
1.604118e+000,-1.393149e-005,1.234238e-005
1.604912e+000,-1.091020e-005,1.233863e-005
1.605706e+000,-8.896010e-006,1.233462e-005
1.606500e+000,-1.258869e-005,1.232751e-005
1.607294e+000,-1.493858e-005,1.232351e-005
1.608088e+000,-1.040665e-005,1.233076e-005
1.608882e+000,-1.091020e-005,1.232317e-005
1.609676e+000,-1.359579e-005,1.231347e-005
1.610471e+000,-1.091020e-005,1.232198e-005
1.611265e+000,-9.567407e-006,1.232553e-005
1.612059e+000,-7.217518e-006,1.232635e-005
1.612853e+000,-9.567407e-006,1.232361e-005
1.613647e+000,-1.091020e-005,1.232361e-005
1.614441e+000,-1.359579e-005,1.232454e-005
1.615235e+000,-1.359579e-005,1.233895e-005
1.616029e+000,-9.903105e-006,1.235099e-005
1.616824e+000,-1.158160e-005,1.234828e-005
1.617618e+000,-1.225299e-005,1.234404e-005
1.618412e+000,-1.376364e-005,1.234296e-005
1.619206e+000,-1.124590e-005,1.235387e-005
1.620000e+000,-1.258869e-005,1.235483e-005
1.620794e+000,-1.023880e-005,1.235746e-005
1.621588e+000,-1.359579e-005,1.235055e-005
1.622382e+000,-1.393149e-005,1.235502e-005
1.623176e+000,-1.292439e-005,1.235907e-005
1.623971e+000,-1.292439e-005,1.235677e-005
1.624765e+000,-1.292439e-005,1.235082e-005
1.625559e+000,-1.326009e-005,1.233075e-005
1.626353e+000,-1.258869e-005,1.231633e-005
1.627147e+000,-1.091020e-005,1.229352e-005
1.627941e+000,-8.224612e-006,1.225894e-005
1.628735e+000,-6.210422e-006,1.222734e-005
1.629529e+000,-9.567407e-006,1.220945e-005
1.630324e+000,-8.392462e-006,1.219728e-005
1.631118e+000,-1.057450e-005,1.218351e-005
1.631912e+000,-1.258869e-005,1.218208e-005
1.632706e+000,-1.225299e-005,1.219533e-005
1.633500e+000,-1.292439e-005,1.220715e-005
1.634294e+000,-1.091020e-005,1.221937e-005
1.635088e+000,-1.258869e-005,1.221937e-005
1.635882e+000,-1.628138e-005,1.222354e-005
1.636676e+000,-1.930266e-005,1.224774e-005
1.637471e+000,-1.728847e-005,1.229109e-005
1.638265e+000,-1.829557e-005,1.232579e-005
1.639059e+000,-1.896696e-005,1.236476e-005
1.639853e+000,-1.829557e-005,1.240707e-005
1.640647e+000,-1.829557e-005,1.244554e-005
1.641441e+000,-1.527428e-005,1.248225e-005
1.642235e+000,-1.124590e-005,1.250653e-005
1.643029e+000,-1.258869e-005,1.251401e-005
1.643824e+000,-1.225299e-005,1.252253e-005
1.644618e+000,-1.124590e-005,1.253301e-005
1.645412e+000,-1.107805e-005,1.253825e-005
1.646206e+000,-8.224612e-006,1.253424e-005
1.647000e+000,-7.553216e-006,1.251447e-005
1.647794e+000,-6.210422e-006,1.249332e-005
1.648588e+000,-4.531929e-006,1.247909e-005
1.649382e+000,-5.203327e-006,1.246833e-005
1.650176e+000,-6.881819e-006,1.245658e-005
1.650971e+000,-5.539025e-006,1.245716e-005
1.651765e+000,-6.210422e-006,1.245378e-005
1.652559e+000,-9.567407e-006,1.244860e-005
1.653353e+000,-8.728161e-006,1.245129e-005
1.654147e+000,-1.023880e-005,1.244933e-005
1.654941e+000,-9.567407e-006,1.245409e-005
1.655735e+000,-9.231709e-006,1.245973e-005
1.656529e+000,-1.158160e-005,1.246903e-005
1.657324e+000,-1.359579e-005,1.248511e-005
1.658118e+000,-1.359579e-005,1.250565e-005
1.658912e+000,-1.359579e-005,1.251211e-005
1.659706e+000,-1.460288e-005,1.250972e-005
1.660500e+000,-1.493858e-005,1.250585e-005
1.661294e+000,-1.393149e-005,1.249471e-005
1.662088e+000,-1.560998e-005,1.247027e-005
1.662882e+000,-1.560998e-005,1.246469e-005
1.663676e+000,-1.292439e-005,1.246469e-005
1.664471e+000,-1.225299e-005,1.245489e-005
1.665265e+000,-1.393149e-005,1.243360e-005
1.666059e+000,-1.493858e-005,1.241236e-005
1.666853e+000,-1.292439e-005,1.239804e-005
1.667647e+000,-9.903105e-006,1.236908e-005
1.668441e+000,-1.023880e-005,1.233698e-005
1.669235e+000,-1.091020e-005,1.231627e-005
1.670029e+000,-1.225299e-005,1.229738e-005
1.670824e+000,-1.091020e-005,1.228526e-005
1.671618e+000,-1.158160e-005,1.226841e-005
1.672412e+000,-1.426719e-005,1.226357e-005
1.673206e+000,-1.560998e-005,1.225971e-005
1.674000e+000,-1.644922e-005,1.227290e-005
1.674794e+000,-1.661708e-005,1.228957e-005
1.675588e+000,-1.560998e-005,1.229643e-005
1.676382e+000,-1.426719e-005,1.229223e-005
1.677176e+000,-1.560998e-005,1.228635e-005
1.677971e+000,-1.326009e-005,1.230054e-005
1.678765e+000,-1.158160e-005,1.230972e-005
1.679559e+000,-6.210422e-006,1.232260e-005
1.680353e+000,-4.196231e-006,1.232750e-005
1.681147e+000,-5.539025e-006,1.232974e-005
1.681941e+000,-5.874723e-006,1.233367e-005
1.682735e+000,-4.364080e-006,1.233751e-005
1.683529e+000,-3.189136e-006,1.233691e-005
1.684324e+000,-1.007095e-006,1.232800e-005
1.685118e+000,-2.182040e-006,1.231630e-005
1.685912e+000,-1.007095e-006,1.230817e-005
1.686706e+000,-7.049668e-006,1.229919e-005
1.687500e+000,-7.217518e-006,1.227671e-005
1.688294e+000,-9.231709e-006,1.225183e-005
1.689088e+000,-1.091020e-005,1.224120e-005
1.689882e+000,-1.057450e-005,1.223203e-005
1.690676e+000,-1.292439e-005,1.222252e-005
1.691471e+000,-1.460288e-005,1.221521e-005
1.692265e+000,-1.795987e-005,1.221392e-005
1.693059e+000,-1.913481e-005,1.223066e-005
1.693853e+000,-1.091020e-005,1.224926e-005
1.694647e+000,-4.196231e-006,1.222735e-005
1.695441e+000,-3.021286e-006,1.219508e-005
1.696235e+000,-4.196231e-006,1.216967e-005
1.697029e+000,-9.735256e-006,1.215999e-005
1.697824e+000,-1.225299e-005,1.216041e-005
1.698618e+000,-1.359579e-005,1.216448e-005
1.699412e+000,-1.309224e-005,1.216794e-005
1.700206e+000,-1.695277e-005,1.217961e-005
1.701000e+000,-1.896696e-005,1.220519e-005
1.701794e+000,-2.030976e-005,1.223459e-005
1.702588e+000,-2.131685e-005,1.226298e-005
1.703382e+000,-1.896696e-005,1.229297e-005
1.704176e+000,-1.661708e-005,1.231319e-005
1.704971e+000,-1.829557e-005,1.231602e-005
1.705765e+000,-1.829557e-005,1.233043e-005
1.706559e+000,-1.863127e-005,1.234611e-005
1.707353e+000,-2.030976e-005,1.236702e-005
1.708147e+000,-2.098116e-005,1.240828e-005
1.708941e+000,-1.963836e-005,1.244750e-005
1.709735e+000,-1.493858e-005,1.247963e-005
1.710529e+000,-1.460288e-005,1.248895e-005
1.711324e+000,-1.191730e-005,1.249699e-005
1.712118e+000,-8.224612e-006,1.249800e-005
1.712912e+000,-6.210422e-006,1.249326e-005
1.713706e+000,-7.217518e-006,1.248883e-005
1.714500e+000,-8.224612e-006,1.248914e-005
1.715294e+000,-6.881819e-006,1.248609e-005
1.716088e+000,-1.510643e-006,1.248004e-005
1.716882e+000,-1.007095e-006,1.247429e-005
1.717676e+000,-1.846342e-006,1.246059e-005
1.718471e+000,-2.853437e-006,1.245609e-005
1.719265e+000,-6.210422e-006,1.245554e-005
1.720059e+000,-6.881819e-006,1.245785e-005
1.720853e+000,-4.196231e-006,1.245724e-005
1.721647e+000,-7.217518e-006,1.245456e-005
1.722441e+000,-8.224612e-006,1.245186e-005
1.723235e+000,-7.217518e-006,1.244528e-005
1.724029e+000,-6.881819e-006,1.243672e-005
1.724824e+000,-6.881819e-006,1.241670e-005
1.725618e+000,-8.896010e-006,1.238440e-005
1.726412e+000,-1.124590e-005,1.235306e-005
1.727206e+000,-1.292439e-005,1.233082e-005
1.728000e+000,-1.510643e-005,1.232610e-005
1.728794e+000,-1.460288e-005,1.231391e-005
1.729588e+000,-1.443504e-005,1.229739e-005
1.730382e+000,-1.426719e-005,1.228414e-005
1.731176e+000,-1.661708e-005,1.228998e-005
1.731971e+000,-1.896696e-005,1.229684e-005
1.732765e+000,-2.098116e-005,1.231947e-005
1.733559e+000,-1.963836e-005,1.235002e-005
1.734353e+000,-1.695277e-005,1.237348e-005
1.735147e+000,-1.930266e-005,1.239006e-005
1.735941e+000,-1.896696e-005,1.241755e-005
1.736735e+000,-1.527428e-005,1.244224e-005
1.737529e+000,-1.795987e-005,1.246195e-005
1.738324e+000,-1.930266e-005,1.249302e-005
1.739118e+000,-1.225299e-005,1.252337e-005
1.739912e+000,-1.174945e-005,1.252337e-005
1.740706e+000,-1.359579e-005,1.252287e-005
1.741500e+000,-1.258869e-005,1.253776e-005
1.742294e+000,-1.158160e-005,1.255671e-005
1.743088e+000,-1.040665e-005,1.257130e-005
1.743882e+000,-1.023880e-005,1.258013e-005
1.744676e+000,-1.158160e-005,1.258680e-005
1.745471e+000,-1.158160e-005,1.259521e-005
1.746265e+000,-1.376364e-005,1.260060e-005
1.747059e+000,-1.527428e-005,1.261598e-005
1.747853e+000,-1.426719e-005,1.263883e-005
1.748647e+000,-1.292439e-005,1.264854e-005
1.749441e+000,-1.158160e-005,1.263338e-005
1.750235e+000,-1.158160e-005,1.261823e-005
1.751029e+000,-1.158160e-005,1.260373e-005
1.751824e+000,-8.392462e-006,1.257357e-005
1.752618e+000,-9.567407e-006,1.255670e-005
1.753412e+000,-1.158160e-005,1.255973e-005
1.754206e+000,-9.567407e-006,1.257184e-005
1.755000e+000,-9.567407e-006,1.257854e-005
1.755794e+000,-1.091020e-005,1.258525e-005
1.756588e+000,-9.567407e-006,1.259431e-005
1.757382e+000,-1.023880e-005,1.258892e-005
1.758176e+000,-1.359579e-005,1.256864e-005
1.758971e+000,-1.292439e-005,1.256118e-005
1.759765e+000,-1.023880e-005,1.256907e-005
1.760559e+000,-9.735256e-006,1.256727e-005
1.761353e+000,-7.217518e-006,1.255811e-005
1.762147e+000,-8.224612e-006,1.254461e-005
1.762941e+000,-6.210422e-006,1.252973e-005
1.763735e+000,-5.874723e-006,1.250363e-005
1.764529e+000,-9.903105e-006,1.248085e-005
1.765324e+000,-1.057450e-005,1.247205e-005
1.766118e+000,-1.023880e-005,1.247113e-005
1.766912e+000,-1.124590e-005,1.245471e-005
1.767706e+000,-1.258869e-005,1.242806e-005
1.768500e+000,-1.158160e-005,1.240224e-005
1.769294e+000,-1.359579e-005,1.236645e-005
1.770088e+000,-1.359579e-005,1.234391e-005
1.770882e+000,-1.426719e-005,1.232133e-005
1.771676e+000,-1.728847e-005,1.230437e-005
1.772471e+000,-1.393149e-005,1.231607e-005
1.773265e+000,-6.210422e-006,1.231727e-005
1.774059e+000,-1.510643e-006,1.230491e-005
1.774853e+000,-1.007095e-006,1.229715e-005
1.775647e+000,-3.189136e-006,1.227563e-005
1.776441e+000,-4.867628e-006,1.225526e-005
1.777235e+000,-5.874723e-006,1.224806e-005
1.778029e+000,-8.896010e-006,1.224375e-005
1.778824e+000,-1.091020e-005,1.224375e-005
1.779618e+000,-1.292439e-005,1.225524e-005
1.780412e+000,-1.544213e-005,1.227560e-005
1.781206e+000,-1.661708e-005,1.229911e-005
1.782000e+000,-1.762417e-005,1.232808e-005
1.782794e+000,-1.393149e-005,1.236587e-005
1.783588e+000,-1.359579e-005,1.238953e-005
1.784382e+000,-1.661708e-005,1.241196e-005
1.785176e+000,-1.493858e-005,1.244430e-005
1.785971e+000,-1.225299e-005,1.246842e-005
1.786765e+000,-1.174945e-005,1.248367e-005
1.787559e+000,-8.728161e-006,1.249523e-005
1.788353e+000,-1.091020e-005,1.249327e-005
1.789147e+000,-1.158160e-005,1.249327e-005
1.789941e+000,-1.628138e-005,1.249701e-005
1.790735e+000,-1.863127e-005,1.251368e-005
1.791529e+000,-1.426719e-005,1.254026e-005
1.792324e+000,-1.376364e-005,1.253516e-005
1.793118e+000,-1.426719e-005,1.253088e-005
1.793912e+000,-1.292439e-005,1.253088e-005
1.794706e+000,-9.903105e-006,1.251262e-005
1.795500e+000,-1.124590e-005,1.249408e-005
1.796294e+000,-1.426719e-005,1.248425e-005
1.797088e+000,-1.493858e-005,1.247355e-005
1.797882e+000,-1.426719e-005,1.244399e-005
1.798676e+000,-1.359579e-005,1.241000e-005
1.799471e+000,-9.735256e-006,1.239385e-005
1.800265e+000,-8.224612e-006,1.238567e-005
1.801059e+000,-1.107805e-005,1.238088e-005
1.801853e+000,-7.553216e-006,1.238040e-005
1.802647e+000,-7.217518e-006,1.236789e-005
1.803441e+000,-7.217518e-006,1.235526e-005
1.804235e+000,-8.560311e-006,1.235587e-005
1.805029e+000,-7.553216e-006,1.236226e-005
1.805824e+000,-3.524834e-006,1.236321e-005
1.806618e+000,-5.539025e-006,1.234546e-005
1.807412e+000,-7.553216e-006,1.232672e-005
1.808206e+000,-1.091020e-005,1.231871e-005
1.809000e+000,-9.903105e-006,1.231964e-005
1.809794e+000,-1.023880e-005,1.231877e-005
1.810588e+000,-1.091020e-005,1.231291e-005
1.811382e+000,-1.191730e-005,1.231475e-005
1.812176e+000,-9.567407e-006,1.232573e-005
1.812971e+000,-1.258869e-005,1.232733e-005
1.813765e+000,-1.762417e-005,1.232946e-005
1.814559e+000,-1.359579e-005,1.235016e-005
1.815353e+000,-1.376364e-005,1.236527e-005
1.816147e+000,-1.963836e-005,1.237787e-005
1.816941e+000,-1.846342e-005,1.240760e-005
1.817735e+000,-1.594568e-005,1.241733e-005
1.818529e+000,-1.594568e-005,1.242383e-005
1.819324e+000,-1.376364e-005,1.242518e-005
1.820118e+000,-9.567407e-006,1.241823e-005
1.820912e+000,-9.903105e-006,1.240965e-005
1.821706e+000,-1.158160e-005,1.240079e-005
1.822500e+000,-1.158160e-005,1.239767e-005
1.823294e+000,-1.091020e-005,1.239454e-005
1.824088e+000,-1.107805e-005,1.238116e-005
1.824882e+000,-1.359579e-005,1.238346e-005
1.825676e+000,-1.359579e-005,1.239852e-005
1.826471e+000,-1.527428e-005,1.240297e-005
1.827265e+000,-1.795987e-005,1.241856e-005
1.828059e+000,-1.863127e-005,1.244463e-005
1.828853e+000,-1.628138e-005,1.246765e-005
1.829647e+000,-1.628138e-005,1.248017e-005
1.830441e+000,-1.712062e-005,1.250229e-005
1.831235e+000,-1.762417e-005,1.252444e-005
1.832029e+000,-1.762417e-005,1.254783e-005
1.832824e+000,-1.258869e-005,1.256604e-005
1.833618e+000,-1.023880e-005,1.257240e-005
1.834412e+000,-1.124590e-005,1.257325e-005
1.835206e+000,-1.191730e-005,1.257420e-005
1.836000e+000,-1.091020e-005,1.256877e-005
1.836794e+000,-8.896010e-006,1.256483e-005
1.837588e+000,-8.896010e-006,1.255477e-005
1.838382e+000,-6.546120e-006,1.254924e-005
1.839176e+000,-3.189136e-006,1.253863e-005
1.839971e+000,-5.539025e-006,1.251404e-005
1.840765e+000,-1.023880e-005,1.247987e-005
1.841559e+000,-9.231709e-006,1.246147e-005
1.842353e+000,-1.091020e-005,1.245101e-005
1.843147e+000,-1.158160e-005,1.246230e-005
1.843941e+000,-1.107805e-005,1.247940e-005
1.844735e+000,-9.567407e-006,1.249487e-005
1.845529e+000,-6.881819e-006,1.250495e-005
1.846324e+000,-7.553216e-006,1.250659e-005
1.847118e+000,-1.023880e-005,1.251227e-005
1.847912e+000,-8.224612e-006,1.252043e-005
1.848706e+000,-8.896010e-006,1.251197e-005
1.849500e+000,-9.735256e-006,1.248544e-005
1.850294e+000,-8.560311e-006,1.245480e-005
1.851088e+000,-7.721065e-006,1.242592e-005
1.851882e+000,-7.888914e-006,1.239956e-005
1.852676e+000,-6.881819e-006,1.237488e-005
1.853471e+000,-7.217518e-006,1.234321e-005
1.854265e+000,-7.553216e-006,1.232488e-005
1.855059e+000,-8.560311e-006,1.231687e-005
1.855853e+000,-8.224612e-006,1.231611e-005
1.856647e+000,-7.721065e-006,1.230436e-005
1.857441e+000,-1.057450e-005,1.228318e-005
1.858235e+000,-1.124590e-005,1.228364e-005
1.859029e+000,-1.628138e-005,1.228460e-005
1.859824e+000,-2.131685e-005,1.229500e-005
1.860618e+000,-1.930266e-005,1.233835e-005
1.861412e+000,-1.225299e-005,1.237457e-005
1.862206e+000,-9.567407e-006,1.238718e-005
1.863000e+000,-5.539025e-006,1.238718e-005
1.863794e+000,-3.692683e-006,1.237582e-005
1.864588e+000,-1.091020e-005,1.235377e-005
1.865382e+000,-1.359579e-005,1.234529e-005
1.866176e+000,-1.527428e-005,1.235647e-005
1.866971e+000,-1.326009e-005,1.236925e-005
1.867765e+000,-1.644922e-005,1.237255e-005
1.868559e+000,-1.762417e-005,1.238299e-005
1.869353e+000,-1.560998e-005,1.240665e-005
1.870147e+000,-1.963836e-005,1.241758e-005
1.870941e+000,-1.930266e-005,1.245354e-005
1.871735e+000,-1.896696e-005,1.247752e-005
1.872529e+000,-1.896696e-005,1.249865e-005
1.873324e+000,-1.762417e-005,1.252317e-005
1.874118e+000,-1.644922e-005,1.254142e-005
1.874912e+000,-1.510643e-005,1.255455e-005
1.875706e+000,-1.258869e-005,1.256120e-005
1.876500e+000,-1.158160e-005,1.256120e-005
1.877294e+000,-1.359579e-005,1.256311e-005
1.878088e+000,-1.091020e-005,1.257796e-005
1.878882e+000,-9.567407e-006,1.258814e-005
1.879676e+000,-9.567407e-006,1.258814e-005
1.880471e+000,-1.057450e-005,1.259081e-005
1.881265e+000,-1.225299e-005,1.259081e-005
1.882059e+000,-1.091020e-005,1.258975e-005
1.882853e+000,-9.567407e-006,1.258582e-005
1.883647e+000,-1.225299e-005,1.257626e-005
1.884441e+000,-1.225299e-005,1.258020e-005
1.885235e+000,-1.023880e-005,1.257914e-005
1.886029e+000,-1.057450e-005,1.255884e-005
1.886824e+000,-8.560311e-006,1.252573e-005
1.887618e+000,-9.903105e-006,1.249702e-005
1.888412e+000,-8.896010e-006,1.246683e-005
1.889206e+000,-6.881819e-006,1.243094e-005
1.890000e+000,-7.217518e-006,1.239407e-005
1.890794e+000,-9.903105e-006,1.235770e-005
1.891588e+000,-1.225299e-005,1.234027e-005
1.892382e+000,-1.124590e-005,1.234332e-005
1.893176e+000,-9.567407e-006,1.233919e-005
1.893971e+000,-7.553216e-006,1.233162e-005
1.894765e+000,-8.560311e-006,1.232266e-005
1.895559e+000,-7.553216e-006,1.231627e-005
1.896353e+000,-1.091020e-005,1.231490e-005
1.897147e+000,-1.057450e-005,1.232291e-005
1.897941e+000,-7.553216e-006,1.233237e-005
1.898735e+000,-6.210422e-006,1.233708e-005
1.899529e+000,-8.896010e-006,1.233857e-005
1.900324e+000,-1.023880e-005,1.234267e-005
1.901118e+000,-9.903105e-006,1.235223e-005
1.901912e+000,-1.057450e-005,1.235990e-005
1.902706e+000,-1.225299e-005,1.236251e-005
1.903500e+000,-1.376364e-005,1.237203e-005
1.904294e+000,-1.174945e-005,1.238292e-005
1.905088e+000,-1.376364e-005,1.238890e-005
1.905882e+000,-1.493858e-005,1.240229e-005
1.906676e+000,-1.091020e-005,1.241371e-005
1.907471e+000,-1.174945e-005,1.240527e-005
1.908265e+000,-1.292439e-005,1.239926e-005
1.909059e+000,-1.191730e-005,1.239697e-005
1.909853e+000,-1.560998e-005,1.238782e-005
1.910647e+000,-1.225299e-005,1.239046e-005
1.911441e+000,-1.225299e-005,1.238481e-005
1.912235e+000,-1.225299e-005,1.237277e-005
1.913029e+000,-1.326009e-005,1.236073e-005
1.913824e+000,-1.225299e-005,1.236186e-005
1.914618e+000,-1.023880e-005,1.236186e-005
1.915412e+000,-1.242084e-005,1.235036e-005
1.916206e+000,-1.560998e-005,1.234147e-005
1.917000e+000,-1.527428e-005,1.235136e-005
1.917794e+000,-1.829557e-005,1.236878e-005
1.918588e+000,-1.628138e-005,1.239834e-005
1.919382e+000,-1.191730e-005,1.241709e-005
1.920176e+000,-1.091020e-005,1.241605e-005
1.920971e+000,-9.567407e-006,1.241605e-005
1.921765e+000,-1.091020e-005,1.241058e-005
1.922559e+000,-1.292439e-005,1.239973e-005
1.923353e+000,-1.359579e-005,1.238989e-005
1.924147e+000,-1.326009e-005,1.237886e-005
1.924941e+000,-1.158160e-005,1.236596e-005
1.925735e+000,-9.567407e-006,1.235184e-005
1.926529e+000,-1.124590e-005,1.233739e-005
1.927324e+000,-1.124590e-005,1.232226e-005
1.928118e+000,-1.107805e-005,1.231588e-005
1.928912e+000,-1.040665e-005,1.231440e-005
1.929706e+000,-9.903105e-006,1.232341e-005
1.930500e+000,-1.091020e-005,1.233381e-005
1.931294e+000,-9.567407e-006,1.234521e-005
1.932088e+000,-9.567407e-006,1.235256e-005
1.932882e+000,-1.040665e-005,1.236190e-005
1.933676e+000,-6.378271e-006,1.237454e-005
1.934471e+000,-6.881819e-006,1.237964e-005
1.935265e+000,-1.158160e-005,1.238512e-005
1.936059e+000,-1.023880e-005,1.240222e-005
1.936853e+000,-8.896010e-006,1.240930e-005
1.937647e+000,-1.426719e-005,1.241277e-005
1.938441e+000,-1.393149e-005,1.242794e-005
1.939235e+000,-1.225299e-005,1.243755e-005
1.940029e+000,-1.258869e-005,1.244246e-005
1.940824e+000,-1.158160e-005,1.244136e-005
1.941618e+000,-9.903105e-006,1.243123e-005
1.942412e+000,-1.258869e-005,1.240244e-005
1.943206e+000,-1.225299e-005,1.237575e-005
1.944000e+000,-1.460288e-005,1.237975e-005
1.944794e+000,-1.560998e-005,1.240489e-005
1.945588e+000,-1.695277e-005,1.243496e-005
1.946382e+000,-1.661708e-005,1.246946e-005
1.947176e+000,-1.896696e-005,1.249260e-005
1.947971e+000,-1.493858e-005,1.251929e-005
1.948765e+000,-7.888914e-006,1.252416e-005
1.949559e+000,-1.510643e-006,1.251027e-005
1.950353e+000,-1.007095e-006,1.247393e-005
1.951147e+000,-4.196231e-006,1.242805e-005
1.951941e+000,-6.210422e-006,1.237735e-005
1.952735e+000,-7.721065e-006,1.232374e-005
1.953529e+000,-1.091020e-005,1.228490e-005
1.954324e+000,-1.359579e-005,1.226452e-005
1.955118e+000,-1.409934e-005,1.224504e-005
1.955912e+000,-1.510643e-005,1.222735e-005
1.956706e+000,-1.560998e-005,1.221186e-005
1.957500e+000,-1.493858e-005,1.218982e-005
1.958294e+000,-1.174945e-005,1.216144e-005
1.959088e+000,-1.242084e-005,1.212897e-005
1.959882e+000,-1.225299e-005,1.211993e-005
1.960676e+000,-1.359579e-005,1.211163e-005
1.961471e+000,-1.426719e-005,1.211726e-005
1.962265e+000,-1.393149e-005,1.213511e-005
1.963059e+000,-1.359579e-005,1.215550e-005
1.963853e+000,-1.292439e-005,1.217288e-005
1.964647e+000,-1.359579e-005,1.218587e-005
1.965441e+000,-1.661708e-005,1.220382e-005
1.966235e+000,-1.460288e-005,1.223950e-005
1.967029e+000,-1.174945e-005,1.226708e-005
1.967824e+000,-1.242084e-005,1.228455e-005
1.968618e+000,-1.292439e-005,1.230348e-005
1.969412e+000,-1.258869e-005,1.232009e-005
1.970206e+000,-7.888914e-006,1.233444e-005
1.971000e+000,-1.023880e-005,1.234020e-005
1.971794e+000,-1.359579e-005,1.234701e-005
1.972588e+000,-1.426719e-005,1.236211e-005
1.973382e+000,-1.426719e-005,1.238161e-005
1.974176e+000,-1.376364e-005,1.240168e-005
1.974971e+000,-1.023880e-005,1.241991e-005
1.975765e+000,-1.141375e-005,1.242320e-005
1.976559e+000,-1.393149e-005,1.242369e-005
1.977353e+000,-1.359579e-005,1.242715e-005
1.978147e+000,-1.275654e-005,1.242160e-005
1.978941e+000,-1.091020e-005,1.241512e-005
1.979735e+000,-9.567407e-006,1.240366e-005
1.980529e+000,-7.217518e-006,1.238927e-005
1.981324e+000,-9.567407e-006,1.236044e-005
1.982118e+000,-9.903105e-006,1.232584e-005
1.982912e+000,-9.903105e-006,1.228156e-005
1.983706e+000,-1.174945e-005,1.224421e-005
1.984500e+000,-8.896010e-006,1.222478e-005
1.985294e+000,-8.224612e-006,1.218649e-005
1.986088e+000,-6.210422e-006,1.214827e-005
1.986882e+000,-5.874723e-006,1.212271e-005
1.987676e+000,-5.539025e-006,1.208482e-005
1.988471e+000,-5.874723e-006,1.203968e-005
1.989265e+000,-9.567407e-006,1.202438e-005
1.990059e+000,-8.560311e-006,1.201822e-005
1.990853e+000,-4.867628e-006,1.200343e-005
1.991647e+000,-5.874723e-006,1.198553e-005
1.992441e+000,-1.023880e-005,1.197229e-005
1.993235e+000,-8.896010e-006,1.197183e-005
1.994029e+000,-1.091020e-005,1.196841e-005
1.994824e+000,-1.258869e-005,1.196640e-005
1.995618e+000,-1.661708e-005,1.196964e-005
1.996412e+000,-1.292439e-005,1.198117e-005
1.997206e+000,-9.735256e-006,1.197236e-005
1.998000e+000,-8.896010e-006,1.195788e-005
1.998794e+000,-1.225299e-005,1.194617e-005
1.999588e+000,-1.359579e-005,1.194830e-005
2.000382e+000,-1.359579e-005,1.195506e-005
2.001176e+000,-1.124590e-005,1.196181e-005
2.001971e+000,-1.225299e-005,1.196927e-005
2.002765e+000,-1.443504e-005,1.197706e-005
2.003559e+000,-1.762417e-005,1.198693e-005
2.004353e+000,-1.896696e-005,1.201600e-005
2.005147e+000,-2.098116e-005,1.205149e-005
2.005941e+000,-2.064546e-005,1.209385e-005
2.006735e+000,-1.762417e-005,1.213784e-005
2.007529e+000,-1.896696e-005,1.216481e-005
2.008324e+000,-1.795987e-005,1.218768e-005
2.009118e+000,-1.393149e-005,1.220798e-005
2.009912e+000,-1.225299e-005,1.221962e-005
2.010706e+000,-1.493858e-005,1.222683e-005
2.011500e+000,-1.225299e-005,1.224909e-005
2.012294e+000,-8.896010e-006,1.225981e-005
2.013088e+000,-7.217518e-006,1.226507e-005
2.013882e+000,-6.881819e-006,1.226736e-005
2.014676e+000,-9.735256e-006,1.226077e-005
2.015471e+000,-1.225299e-005,1.225856e-005
2.016265e+000,-9.903105e-006,1.226444e-005
2.017059e+000,-9.903105e-006,1.226075e-005
2.017853e+000,-1.326009e-005,1.225291e-005
2.018647e+000,-9.567407e-006,1.225832e-005
2.019441e+000,-8.224612e-006,1.224620e-005
2.020235e+000,-1.158160e-005,1.223095e-005
2.021029e+000,-1.443504e-005,1.222191e-005
2.021824e+000,-1.359579e-005,1.221011e-005
2.022618e+000,-1.225299e-005,1.220890e-005
2.023412e+000,-1.326009e-005,1.222345e-005
2.024206e+000,-1.426719e-005,1.224603e-005
2.025000e+000,-1.376364e-005,1.227234e-005
2.025794e+000,-1.359579e-005,1.229558e-005
2.026588e+000,-1.359579e-005,1.231643e-005
2.027382e+000,-1.359579e-005,1.233585e-005
2.028176e+000,-1.460288e-005,1.234949e-005
2.028971e+000,-1.728847e-005,1.236163e-005
2.029765e+000,-1.158160e-005,1.237860e-005
2.030559e+000,-4.196231e-006,1.236518e-005
2.031353e+000,-2.182040e-006,1.233184e-005
2.032147e+000,-1.174945e-006,1.229228e-005
2.032941e+000,-3.021286e-006,1.226729e-005
2.033735e+000,-6.210422e-006,1.224446e-005
2.034529e+000,-8.224612e-006,1.221353e-005
2.035324e+000,-1.258869e-005,1.219324e-005
2.036118e+000,-1.426719e-005,1.219433e-005
2.036912e+000,-1.023880e-005,1.220288e-005
2.037706e+000,-1.158160e-005,1.220662e-005
2.038500e+000,-1.426719e-005,1.220859e-005
2.039294e+000,-1.560998e-005,1.221764e-005
2.040088e+000,-1.326009e-005,1.221485e-005
2.040882e+000,-8.896010e-006,1.219249e-005
2.041676e+000,-5.539025e-006,1.217624e-005
2.042471e+000,-4.531929e-006,1.215546e-005
2.043265e+000,-8.896010e-006,1.213146e-005
2.044059e+000,-1.158160e-005,1.211991e-005
2.044853e+000,-1.158160e-005,1.212465e-005
2.045647e+000,-1.158160e-005,1.212566e-005
2.046441e+000,-1.023880e-005,1.211654e-005
2.047235e+000,-6.881819e-006,1.210098e-005
2.048029e+000,-6.378271e-006,1.208041e-005
2.048824e+000,-5.539025e-006,1.206139e-005
2.049618e+000,-8.224612e-006,1.205293e-005
2.050412e+000,-1.359579e-005,1.205293e-005
2.051206e+000,-1.225299e-005,1.206113e-005
2.052000e+000,-1.225299e-005,1.207341e-005
2.052794e+000,-1.225299e-005,1.208634e-005
2.053588e+000,-1.628138e-005,1.209925e-005
2.054382e+000,-1.896696e-005,1.212446e-005
2.055176e+000,-1.628138e-005,1.216415e-005
2.055971e+000,-1.795987e-005,1.219718e-005
2.056765e+000,-1.963836e-005,1.223523e-005
2.057559e+000,-1.493858e-005,1.227792e-005
2.058353e+000,-1.628138e-005,1.229142e-005
2.059147e+000,-1.225299e-005,1.231304e-005
2.059941e+000,-1.158160e-005,1.231889e-005
2.060735e+000,-1.359579e-005,1.232085e-005
2.061529e+000,-9.567407e-006,1.232638e-005
2.062324e+000,-8.224612e-006,1.232638e-005
2.063118e+000,-1.124590e-005,1.231464e-005
2.063912e+000,-9.567407e-006,1.229081e-005
2.064706e+000,-9.735256e-006,1.227871e-005
2.065500e+000,-1.023880e-005,1.226643e-005
2.066294e+000,-9.567407e-006,1.222992e-005
2.067088e+000,-1.091020e-005,1.219741e-005
2.067882e+000,-1.023880e-005,1.217974e-005
2.068676e+000,-8.224612e-006,1.216019e-005
2.069471e+000,-9.567407e-006,1.214423e-005
2.070265e+000,-1.124590e-005,1.214423e-005
2.071059e+000,-9.903105e-006,1.214795e-005
2.071853e+000,-8.896010e-006,1.214323e-005
2.072647e+000,-9.903105e-006,1.213601e-005
2.073441e+000,-9.903105e-006,1.213326e-005
2.074235e+000,-1.292439e-005,1.213003e-005
2.075029e+000,-1.376364e-005,1.212769e-005
2.075824e+000,-1.443504e-005,1.212829e-005
2.076618e+000,-1.158160e-005,1.212502e-005
2.077412e+000,-1.258869e-005,1.210025e-005
2.078206e+000,-1.443504e-005,1.207540e-005
2.079000e+000,-1.359579e-005,1.206791e-005
2.079794e+000,-1.225299e-005,1.205732e-005
2.080588e+000,-1.376364e-005,1.203842e-005
2.081382e+000,-1.393149e-005,1.202239e-005
2.082176e+000,-1.393149e-005,1.200694e-005
2.082971e+000,-1.594568e-005,1.201166e-005
2.083765e+000,-1.292439e-005,1.203146e-005
2.084559e+000,-1.460288e-005,1.203683e-005
2.085353e+000,-1.628138e-005,1.204624e-005
2.086147e+000,-1.560998e-005,1.206553e-005
2.086941e+000,-1.393149e-005,1.208723e-005
2.087735e+000,-1.292439e-005,1.210236e-005
2.088529e+000,-1.292439e-005,1.211869e-005
2.089324e+000,-1.174945e-005,1.213929e-005
2.090118e+000,-1.292439e-005,1.215336e-005
2.090912e+000,-1.560998e-005,1.216151e-005
2.091706e+000,-1.661708e-005,1.218224e-005
2.092500e+000,-1.560998e-005,1.220276e-005
2.093294e+000,-1.426719e-005,1.221704e-005
2.094088e+000,-1.225299e-005,1.222757e-005
2.094882e+000,-9.567407e-006,1.223520e-005
2.095676e+000,-8.728161e-006,1.224095e-005
2.096471e+000,-1.091020e-005,1.224344e-005
2.097265e+000,-1.023880e-005,1.224528e-005
2.098059e+000,-9.231709e-006,1.225012e-005
2.098853e+000,-9.231709e-006,1.225091e-005
2.099647e+000,-9.567407e-006,1.224967e-005
2.100441e+000,-9.567407e-006,1.225204e-005
2.101235e+000,-1.158160e-005,1.225619e-005
2.102029e+000,-1.292439e-005,1.226553e-005
2.102824e+000,-1.527428e-005,1.228106e-005
2.103618e+000,-1.426719e-005,1.230453e-005
2.104412e+000,-1.426719e-005,1.232347e-005
2.105206e+000,-1.493858e-005,1.234030e-005
2.106000e+000,-1.158160e-005,1.236035e-005
2.106794e+000,-1.258869e-005,1.236994e-005
2.107588e+000,-1.040665e-005,1.237595e-005
2.108382e+000,-1.124590e-005,1.237361e-005
2.109176e+000,-1.225299e-005,1.235576e-005
2.109971e+000,-8.896010e-006,1.231648e-005
2.110765e+000,-8.392462e-006,1.227848e-005
2.111559e+000,-1.040665e-005,1.226814e-005
2.112353e+000,-1.124590e-005,1.227032e-005
2.113147e+000,-1.242084e-005,1.228274e-005
2.113941e+000,-5.539025e-006,1.230096e-005
2.114735e+000,-1.678492e-007,1.228952e-005
2.115529e+000,4.531929e-006,1.226555e-005
2.116324e+000,2.517739e-006,1.223790e-005
2.117118e+000,1.174945e-006,1.221582e-005
2.117912e+000,-1.678492e-007,1.218068e-005
2.118706e+000,-2.853437e-006,1.214001e-005
2.119500e+000,-5.874723e-006,1.210908e-005
2.120294e+000,-7.553216e-006,1.206281e-005
2.121088e+000,-1.158160e-005,1.202109e-005
2.121882e+000,-1.191730e-005,1.199117e-005
2.122676e+000,-1.493858e-005,1.196222e-005
2.123471e+000,-1.426719e-005,1.195057e-005
2.124265e+000,-1.107805e-005,1.194164e-005
2.125059e+000,-1.292439e-005,1.192756e-005
2.125853e+000,-1.728847e-005,1.192871e-005
2.126647e+000,-1.628138e-005,1.195068e-005
2.127441e+000,-1.594568e-005,1.196137e-005
2.128235e+000,-1.695277e-005,1.197936e-005
2.129029e+000,-1.460288e-005,1.200536e-005
2.129824e+000,-1.628138e-005,1.202150e-005
2.130618e+000,-1.527428e-005,1.204178e-005
2.131412e+000,-1.560998e-005,1.205277e-005
2.132206e+000,-1.661708e-005,1.206923e-005
2.133000e+000,-1.728847e-005,1.209356e-005
2.133794e+000,-1.712062e-005,1.211313e-005
2.134588e+000,-1.728847e-005,1.213191e-005
2.135382e+000,-1.577783e-005,1.215735e-005
2.136176e+000,-1.560998e-005,1.217530e-005
2.136971e+000,-1.795987e-005,1.219757e-005
2.137765e+000,-1.460288e-005,1.222684e-005
2.138559e+000,-1.225299e-005,1.224429e-005
2.139353e+000,-8.560311e-006,1.225765e-005
2.140147e+000,-1.023880e-005,1.226040e-005
2.140941e+000,-8.560311e-006,1.226128e-005
2.141735e+000,-6.210422e-006,1.225129e-005
2.142529e+000,-5.539025e-006,1.223986e-005
2.143324e+000,-4.867628e-006,1.223194e-005
2.144118e+000,-5.874723e-006,1.222760e-005
2.144912e+000,-1.091020e-005,1.222255e-005
2.145706e+000,-8.224612e-006,1.223062e-005
2.146500e+000,-5.874723e-006,1.222393e-005
2.147294e+000,-1.040665e-005,1.221386e-005
2.148088e+000,-1.124590e-005,1.222053e-005
2.148882e+000,-1.057450e-005,1.223198e-005
2.149676e+000,-1.426719e-005,1.223624e-005
2.150471e+000,-1.359579e-005,1.224908e-005
2.151265e+000,-1.091020e-005,1.226035e-005
2.152059e+000,-1.225299e-005,1.226129e-005
2.152853e+000,-1.628138e-005,1.226129e-005
2.153647e+000,-1.795987e-005,1.227111e-005
2.154441e+000,-1.594568e-005,1.229503e-005
2.155235e+000,-1.376364e-005,1.230342e-005
2.156029e+000,-1.493858e-005,1.229906e-005
2.156824e+000,-1.493858e-005,1.231253e-005
2.157618e+000,-1.359579e-005,1.232353e-005
2.158412e+000,-1.023880e-005,1.232583e-005
2.159206e+000,-1.158160e-005,1.232103e-005
2.160000e+000,-1.393149e-005,1.230686e-005
2.160794e+000,-1.292439e-005,1.231255e-005
2.161588e+000,-1.258869e-005,1.231473e-005
2.162382e+000,-1.359579e-005,1.231581e-005
2.163176e+000,-1.493858e-005,1.231698e-005
2.163971e+000,-1.309224e-005,1.232642e-005
2.164765e+000,-1.359579e-005,1.233501e-005
2.165559e+000,-1.493858e-005,1.233896e-005
