X [s],L DELTOID POSTERIOR: EMG 5 [V],L DELTOID POSTERIOR: EMG 5->filter (FilterSlidingRMS45) [V]
0.000000e+000,0.000000e+000,0.000000e+000
7.941176e-004,0.000000e+000,0.000000e+000
1.588235e-003,0.000000e+000,0.000000e+000
2.382353e-003,0.000000e+000,0.000000e+000
3.176471e-003,0.000000e+000,0.000000e+000
3.970588e-003,0.000000e+000,0.000000e+000
4.764706e-003,0.000000e+000,0.000000e+000
5.558824e-003,0.000000e+000,0.000000e+000
6.352941e-003,0.000000e+000,0.000000e+000
7.147059e-003,0.000000e+000,0.000000e+000
7.941176e-003,0.000000e+000,0.000000e+000
8.735294e-003,0.000000e+000,0.000000e+000
9.529412e-003,0.000000e+000,0.000000e+000
1.032353e-002,0.000000e+000,0.000000e+000
1.111765e-002,0.000000e+000,0.000000e+000
1.191176e-002,0.000000e+000,0.000000e+000
1.270588e-002,0.000000e+000,0.000000e+000
1.350000e-002,0.000000e+000,0.000000e+000
1.429412e-002,0.000000e+000,0.000000e+000
1.508824e-002,0.000000e+000,0.000000e+000
1.588235e-002,0.000000e+000,0.000000e+000
1.667647e-002,0.000000e+000,0.000000e+000
1.747059e-002,0.000000e+000,0.000000e+000
1.826471e-002,0.000000e+000,0.000000e+000
1.905882e-002,0.000000e+000,0.000000e+000
1.985294e-002,0.000000e+000,0.000000e+000
2.064706e-002,0.000000e+000,0.000000e+000
2.144118e-002,0.000000e+000,0.000000e+000
2.223529e-002,0.000000e+000,0.000000e+000
2.302941e-002,0.000000e+000,0.000000e+000
2.382353e-002,0.000000e+000,0.000000e+000
2.461765e-002,0.000000e+000,0.000000e+000
2.541176e-002,0.000000e+000,0.000000e+000
2.620588e-002,0.000000e+000,0.000000e+000
2.700000e-002,0.000000e+000,0.000000e+000
2.779412e-002,0.000000e+000,0.000000e+000
2.858824e-002,0.000000e+000,0.000000e+000
2.938235e-002,0.000000e+000,0.000000e+000
3.017647e-002,0.000000e+000,0.000000e+000
3.097059e-002,0.000000e+000,0.000000e+000
3.176471e-002,0.000000e+000,0.000000e+000
3.255882e-002,0.000000e+000,0.000000e+000
3.335294e-002,0.000000e+000,0.000000e+000
3.414706e-002,0.000000e+000,0.000000e+000
3.494118e-002,0.000000e+000,0.000000e+000
3.573529e-002,0.000000e+000,0.000000e+000
3.652941e-002,0.000000e+000,0.000000e+000
3.732353e-002,0.000000e+000,0.000000e+000
3.811765e-002,0.000000e+000,0.000000e+000
3.891176e-002,0.000000e+000,0.000000e+000
3.970588e-002,0.000000e+000,0.000000e+000
4.050000e-002,0.000000e+000,0.000000e+000
4.129412e-002,0.000000e+000,0.000000e+000
4.208824e-002,0.000000e+000,0.000000e+000
4.288235e-002,0.000000e+000,0.000000e+000
4.367647e-002,0.000000e+000,0.000000e+000
4.447059e-002,0.000000e+000,0.000000e+000
4.526471e-002,0.000000e+000,0.000000e+000
4.605882e-002,0.000000e+000,0.000000e+000
4.685294e-002,0.000000e+000,0.000000e+000
4.764706e-002,0.000000e+000,0.000000e+000
4.844118e-002,0.000000e+000,0.000000e+000
4.923529e-002,0.000000e+000,0.000000e+000
5.002941e-002,0.000000e+000,0.000000e+000
5.082353e-002,0.000000e+000,0.000000e+000
5.161765e-002,0.000000e+000,0.000000e+000
5.241176e-002,0.000000e+000,0.000000e+000
5.320588e-002,0.000000e+000,0.000000e+000
5.400000e-002,0.000000e+000,0.000000e+000
5.479412e-002,0.000000e+000,0.000000e+000
5.558824e-002,0.000000e+000,0.000000e+000
5.638235e-002,0.000000e+000,0.000000e+000
5.717647e-002,0.000000e+000,0.000000e+000
5.797059e-002,0.000000e+000,0.000000e+000
5.876471e-002,0.000000e+000,0.000000e+000
5.955882e-002,0.000000e+000,0.000000e+000
6.035294e-002,0.000000e+000,0.000000e+000
6.114706e-002,0.000000e+000,0.000000e+000
6.194118e-002,0.000000e+000,0.000000e+000
6.273529e-002,0.000000e+000,0.000000e+000
6.352941e-002,0.000000e+000,0.000000e+000
6.432353e-002,0.000000e+000,0.000000e+000
6.511765e-002,0.000000e+000,0.000000e+000
6.591176e-002,0.000000e+000,0.000000e+000
6.670588e-002,0.000000e+000,0.000000e+000
6.750000e-002,0.000000e+000,0.000000e+000
6.829412e-002,0.000000e+000,0.000000e+000
6.908824e-002,0.000000e+000,0.000000e+000
6.988235e-002,0.000000e+000,0.000000e+000
7.067647e-002,0.000000e+000,0.000000e+000
7.147059e-002,0.000000e+000,0.000000e+000
7.226471e-002,0.000000e+000,0.000000e+000
7.305882e-002,0.000000e+000,0.000000e+000
7.385294e-002,0.000000e+000,0.000000e+000
7.464706e-002,0.000000e+000,0.000000e+000
7.544118e-002,0.000000e+000,0.000000e+000
7.623529e-002,0.000000e+000,0.000000e+000
7.702941e-002,0.000000e+000,0.000000e+000
7.782353e-002,0.000000e+000,0.000000e+000
7.861765e-002,0.000000e+000,0.000000e+000
7.941176e-002,0.000000e+000,0.000000e+000
8.020588e-002,0.000000e+000,0.000000e+000
8.100000e-002,0.000000e+000,0.000000e+000
8.179412e-002,0.000000e+000,0.000000e+000
8.258824e-002,0.000000e+000,0.000000e+000
8.338235e-002,0.000000e+000,0.000000e+000
8.417647e-002,0.000000e+000,0.000000e+000
8.497059e-002,0.000000e+000,0.000000e+000
8.576471e-002,0.000000e+000,0.000000e+000
8.655882e-002,0.000000e+000,0.000000e+000
8.735294e-002,0.000000e+000,0.000000e+000
8.814706e-002,0.000000e+000,0.000000e+000
8.894118e-002,0.000000e+000,0.000000e+000
8.973529e-002,0.000000e+000,0.000000e+000
9.052941e-002,0.000000e+000,0.000000e+000
9.132353e-002,0.000000e+000,0.000000e+000
9.211765e-002,0.000000e+000,0.000000e+000
9.291176e-002,0.000000e+000,0.000000e+000
9.370588e-002,0.000000e+000,0.000000e+000
9.450000e-002,-1.795987e-005,0.000000e+000
9.529412e-002,-1.393149e-005,0.000000e+000
9.608824e-002,-1.560998e-005,0.000000e+000
9.688235e-002,-1.527428e-005,0.000000e+000
9.767647e-002,-1.695277e-005,0.000000e+000
9.847059e-002,-1.393149e-005,0.000000e+000
9.926471e-002,-1.225299e-005,0.000000e+000
1.000588e-001,-1.057450e-005,0.000000e+000
1.008529e-001,-1.091020e-005,0.000000e+000
1.016471e-001,-1.040665e-005,0.000000e+000
1.024412e-001,-1.124590e-005,0.000000e+000
1.032353e-001,-1.225299e-005,0.000000e+000
1.040294e-001,-1.091020e-005,0.000000e+000
1.048235e-001,-1.174945e-005,0.000000e+000
1.056176e-001,-1.158160e-005,0.000000e+000
1.064118e-001,-1.628138e-005,0.000000e+000
1.072059e-001,-1.376364e-005,0.000000e+000
1.080000e-001,-1.326009e-005,0.000000e+000
1.087941e-001,-1.225299e-005,0.000000e+000
1.095882e-001,-1.393149e-005,0.000000e+000
1.103824e-001,-1.644922e-005,0.000000e+000
1.111765e-001,-1.527428e-005,0.000000e+000
1.119706e-001,-1.225299e-005,0.000000e+000
1.127647e-001,-1.359579e-005,0.000000e+000
1.135588e-001,-1.225299e-005,0.000000e+000
1.143529e-001,-1.258869e-005,0.000000e+000
1.151471e-001,-1.393149e-005,0.000000e+000
1.159412e-001,-1.527428e-005,0.000000e+000
1.167353e-001,-1.376364e-005,0.000000e+000
1.175294e-001,-1.309224e-005,0.000000e+000
1.183235e-001,-1.091020e-005,0.000000e+000
1.191176e-001,-1.359579e-005,0.000000e+000
1.199118e-001,-1.225299e-005,0.000000e+000
1.207059e-001,-1.158160e-005,0.000000e+000
1.215000e-001,-1.359579e-005,0.000000e+000
1.222941e-001,-1.493858e-005,0.000000e+000
1.230882e-001,-1.359579e-005,0.000000e+000
1.238824e-001,-1.359579e-005,0.000000e+000
1.246765e-001,-1.292439e-005,0.000000e+000
1.254706e-001,-1.393149e-005,0.000000e+000
1.262647e-001,-1.376364e-005,0.000000e+000
1.270588e-001,-1.628138e-005,0.000000e+000
1.278529e-001,-1.493858e-005,0.000000e+000
1.286471e-001,-1.493858e-005,0.000000e+000
1.294412e-001,-1.493858e-005,0.000000e+000
1.302353e-001,-1.493858e-005,0.000000e+000
1.310294e-001,-1.762417e-005,0.000000e+000
1.318235e-001,-1.527428e-005,0.000000e+000
1.326176e-001,-1.258869e-005,0.000000e+000
1.334118e-001,-1.242084e-005,0.000000e+000
1.342059e-001,-1.493858e-005,0.000000e+000
1.350000e-001,-1.560998e-005,0.000000e+000
1.357941e-001,-1.376364e-005,0.000000e+000
1.365882e-001,-1.359579e-005,0.000000e+000
1.373824e-001,-1.359579e-005,0.000000e+000
1.381765e-001,-1.124590e-005,0.000000e+000
1.389706e-001,-1.191730e-005,0.000000e+000
1.397647e-001,-1.359579e-005,0.000000e+000
1.405588e-001,-1.560998e-005,0.000000e+000
1.413529e-001,-1.628138e-005,0.000000e+000
1.421471e-001,-1.493858e-005,0.000000e+000
1.429412e-001,-1.493858e-005,0.000000e+000
1.437353e-001,-1.493858e-005,0.000000e+000
1.445294e-001,-1.560998e-005,0.000000e+000
1.453235e-001,-1.393149e-005,0.000000e+000
1.461176e-001,-1.124590e-005,0.000000e+000
1.469118e-001,-1.057450e-005,0.000000e+000
1.477059e-001,-1.057450e-005,0.000000e+000
1.485000e-001,-9.567407e-006,0.000000e+000
1.492941e-001,-1.225299e-005,0.000000e+000
1.500882e-001,-1.426719e-005,0.000000e+000
1.508824e-001,-1.091020e-005,0.000000e+000
1.516765e-001,-1.393149e-005,0.000000e+000
1.524706e-001,-1.594568e-005,0.000000e+000
1.532647e-001,-1.225299e-005,0.000000e+000
1.540588e-001,-1.258869e-005,0.000000e+000
1.548529e-001,-1.359579e-005,0.000000e+000
1.556471e-001,-1.174945e-005,0.000000e+000
1.564412e-001,-1.359579e-005,0.000000e+000
1.572353e-001,-1.359579e-005,0.000000e+000
1.580294e-001,-1.359579e-005,0.000000e+000
1.588235e-001,-1.393149e-005,0.000000e+000
1.596176e-001,-1.359579e-005,0.000000e+000
1.604118e-001,-1.493858e-005,0.000000e+000
1.612059e-001,-1.527428e-005,0.000000e+000
1.620000e-001,-1.426719e-005,0.000000e+000
1.627941e-001,-1.292439e-005,0.000000e+000
1.635882e-001,-1.628138e-005,0.000000e+000
1.643824e-001,-1.527428e-005,0.000000e+000
1.651765e-001,-1.426719e-005,0.000000e+000
1.659706e-001,-1.527428e-005,0.000000e+000
1.667647e-001,-1.225299e-005,0.000000e+000
1.675588e-001,-1.493858e-005,0.000000e+000
1.683529e-001,-1.460288e-005,0.000000e+000
1.691471e-001,-1.426719e-005,0.000000e+000
1.699412e-001,-1.225299e-005,0.000000e+000
1.707353e-001,-1.359579e-005,0.000000e+000
1.715294e-001,-1.426719e-005,0.000000e+000
1.723235e-001,-1.628138e-005,0.000000e+000
1.731176e-001,-1.393149e-005,0.000000e+000
1.739118e-001,-1.309224e-005,0.000000e+000
1.747059e-001,-1.359579e-005,0.000000e+000
1.755000e-001,-1.292439e-005,0.000000e+000
1.762941e-001,-1.191730e-005,0.000000e+000
1.770882e-001,-1.158160e-005,0.000000e+000
1.778824e-001,-1.091020e-005,0.000000e+000
1.786765e-001,-1.644922e-005,0.000000e+000
1.794706e-001,-1.661708e-005,0.000000e+000
1.802647e-001,-1.493858e-005,0.000000e+000
1.810588e-001,-1.527428e-005,0.000000e+000
1.818529e-001,-1.661708e-005,0.000000e+000
1.826471e-001,-1.628138e-005,0.000000e+000
1.834412e-001,-1.292439e-005,0.000000e+000
1.842353e-001,-1.091020e-005,0.000000e+000
1.850294e-001,-1.359579e-005,0.000000e+000
1.858235e-001,-1.124590e-005,0.000000e+000
1.866176e-001,-8.896010e-006,0.000000e+000
1.874118e-001,-1.191730e-005,0.000000e+000
1.882059e-001,-9.903105e-006,0.000000e+000
1.890000e-001,-1.091020e-005,0.000000e+000
1.897941e-001,-8.224612e-006,0.000000e+000
1.905882e-001,-9.567407e-006,0.000000e+000
1.913824e-001,-1.124590e-005,0.000000e+000
1.921765e-001,-1.107805e-005,0.000000e+000
1.929706e-001,-1.091020e-005,0.000000e+000
1.937647e-001,-1.225299e-005,0.000000e+000
1.945588e-001,-1.258869e-005,0.000000e+000
1.953529e-001,-1.426719e-005,0.000000e+000
1.961471e-001,-1.359579e-005,0.000000e+000
1.969412e-001,-1.225299e-005,0.000000e+000
1.977353e-001,-1.023880e-005,0.000000e+000
1.985294e-001,-1.057450e-005,0.000000e+000
1.993235e-001,-1.426719e-005,0.000000e+000
2.001176e-001,-1.292439e-005,0.000000e+000
2.009118e-001,-8.896010e-006,0.000000e+000
2.017059e-001,-9.567407e-006,0.000000e+000
2.025000e-001,-1.225299e-005,0.000000e+000
2.032941e-001,-1.158160e-005,0.000000e+000
2.040882e-001,-1.292439e-005,0.000000e+000
2.048824e-001,-1.527428e-005,0.000000e+000
2.056765e-001,-1.560998e-005,0.000000e+000
2.064706e-001,-1.628138e-005,0.000000e+000
2.072647e-001,-1.594568e-005,0.000000e+000
2.080588e-001,-1.644922e-005,0.000000e+000
2.088529e-001,-2.131685e-005,0.000000e+000
2.096471e-001,-2.299535e-005,0.000000e+000
2.104412e-001,-2.383459e-005,0.000000e+000
2.112353e-001,-2.366674e-005,0.000000e+000
2.120294e-001,-2.098116e-005,0.000000e+000
2.128235e-001,-1.930266e-005,0.000000e+000
2.136176e-001,-2.030976e-005,0.000000e+000
2.144118e-001,-2.333104e-005,0.000000e+000
2.152059e-001,-2.064546e-005,0.000000e+000
2.160000e-001,-1.795987e-005,0.000000e+000
2.167941e-001,-1.930266e-005,0.000000e+000
2.175882e-001,-1.829557e-005,0.000000e+000
2.183824e-001,-1.695277e-005,0.000000e+000
2.191765e-001,-1.661708e-005,0.000000e+000
2.199706e-001,-1.560998e-005,0.000000e+000
2.207647e-001,-1.443504e-005,0.000000e+000
2.215588e-001,-1.426719e-005,0.000000e+000
2.223529e-001,-1.779202e-005,0.000000e+000
2.231471e-001,-1.762417e-005,0.000000e+000
2.239412e-001,-1.292439e-005,0.000000e+000
2.247353e-001,-1.292439e-005,0.000000e+000
2.255294e-001,-1.225299e-005,0.000000e+000
2.263235e-001,-9.231709e-006,0.000000e+000
2.271176e-001,-6.881819e-006,0.000000e+000
2.279118e-001,-5.539025e-006,0.000000e+000
2.287059e-001,-9.231709e-006,0.000000e+000
2.295000e-001,-8.224612e-006,0.000000e+000
2.302941e-001,-8.560311e-006,0.000000e+000
2.310882e-001,-9.903105e-006,0.000000e+000
2.318824e-001,-8.224612e-006,0.000000e+000
2.326765e-001,-8.896010e-006,0.000000e+000
2.334706e-001,-6.881819e-006,0.000000e+000
2.342647e-001,-2.853437e-006,0.000000e+000
2.350588e-001,-7.553216e-006,0.000000e+000
2.358529e-001,-8.392462e-006,0.000000e+000
2.366471e-001,-6.881819e-006,0.000000e+000
2.374412e-001,-1.191730e-005,0.000000e+000
2.382353e-001,-1.225299e-005,0.000000e+000
2.390294e-001,-1.158160e-005,0.000000e+000
2.398235e-001,-1.359579e-005,0.000000e+000
2.406176e-001,-1.527428e-005,0.000000e+000
2.414118e-001,-1.242084e-005,0.000000e+000
2.422059e-001,-9.735256e-006,0.000000e+000
2.430000e-001,-1.023880e-005,0.000000e+000
2.437941e-001,-1.493858e-005,0.000000e+000
2.445882e-001,-1.493858e-005,0.000000e+000
2.453824e-001,-1.527428e-005,0.000000e+000
2.461765e-001,-1.628138e-005,0.000000e+000
2.469706e-001,-1.527428e-005,0.000000e+000
2.477647e-001,-1.628138e-005,0.000000e+000
2.485588e-001,-1.443504e-005,0.000000e+000
2.493529e-001,-1.460288e-005,1.096863e-005
2.501471e-001,-1.527428e-005,1.099955e-005
2.509412e-001,-1.762417e-005,1.103327e-005
2.517353e-001,-1.527428e-005,1.107801e-005
2.525294e-001,-1.560998e-005,1.111149e-005
2.533235e-001,-1.493858e-005,1.114636e-005
2.541176e-001,-1.460288e-005,1.117819e-005
2.549118e-001,-1.493858e-005,1.120853e-005
2.557059e-001,-1.560998e-005,1.124018e-005
2.565000e-001,-1.493858e-005,1.127465e-005
2.572941e-001,-1.359579e-005,1.130613e-005
2.580882e-001,-1.510643e-005,1.133213e-005
2.588824e-001,-1.393149e-005,1.136415e-005
2.596765e-001,-1.728847e-005,1.139131e-005
2.604706e-001,-1.628138e-005,1.143302e-005
2.612647e-001,-1.426719e-005,1.146988e-005
2.620588e-001,-1.628138e-005,1.149810e-005
2.628529e-001,-1.292439e-005,1.153476e-005
2.636471e-001,-1.359579e-005,1.155779e-005
2.644412e-001,-1.359579e-005,1.158323e-005
2.652353e-001,-1.359579e-005,1.160861e-005
2.660294e-001,-1.326009e-005,1.163394e-005
2.668235e-001,-1.376364e-005,1.165798e-005
2.676176e-001,-1.393149e-005,1.168383e-005
2.684118e-001,-9.903105e-006,1.171025e-005
2.692059e-001,-7.553216e-006,1.172358e-005
2.700000e-001,-1.158160e-005,1.173132e-005
2.707941e-001,-1.426719e-005,1.174952e-005
2.715882e-001,-1.359579e-005,1.177707e-005
2.723824e-001,-1.258869e-005,1.180204e-005
2.731765e-001,-1.393149e-005,1.182340e-005
2.739706e-001,-1.460288e-005,1.184951e-005
2.747647e-001,-1.376364e-005,1.187813e-005
2.755588e-001,-1.242084e-005,1.190350e-005
2.763529e-001,-8.896010e-006,1.192412e-005
2.771471e-001,-9.903105e-006,1.193468e-005
2.779412e-001,-1.426719e-005,1.194776e-005
2.787353e-001,-1.225299e-005,1.197486e-005
2.795294e-001,-1.376364e-005,1.199481e-005
2.803235e-001,-1.393149e-005,1.201993e-005
2.811176e-001,-1.426719e-005,1.204561e-005
2.819118e-001,-1.594568e-005,1.207249e-005
2.827059e-001,-1.560998e-005,1.210598e-005
2.835000e-001,-1.560998e-005,1.213799e-005
2.842941e-001,-1.359579e-005,1.216992e-005
2.850882e-001,-1.493858e-005,1.219408e-005
2.858824e-001,-1.661708e-005,1.222318e-005
2.866765e-001,-1.695277e-005,1.225910e-005
2.874706e-001,-1.443504e-005,1.229638e-005
2.882647e-001,-1.158160e-005,1.232333e-005
2.890588e-001,-1.258869e-005,1.234065e-005
2.898529e-001,-1.527428e-005,1.236108e-005
2.906471e-001,-1.393149e-005,1.239110e-005
2.914412e-001,-1.057450e-005,1.241602e-005
2.922353e-001,-1.242084e-005,1.243035e-005
2.930294e-001,-1.158160e-005,1.245010e-005
2.938235e-001,-1.292439e-005,1.246724e-005
2.946176e-001,-1.376364e-005,1.248856e-005
2.954118e-001,-1.158160e-005,1.251269e-005
2.962059e-001,-1.628138e-005,1.252975e-005
2.970000e-001,-1.560998e-005,1.256339e-005
2.977941e-001,-1.493858e-005,1.259424e-005
2.985882e-001,-1.309224e-005,1.262242e-005
2.993824e-001,-1.460288e-005,1.264403e-005
3.001765e-001,-1.426719e-005,1.267085e-005
3.009706e-001,-1.359579e-005,1.269641e-005
3.017647e-001,-1.376364e-005,1.271957e-005
3.025588e-001,-1.225299e-005,1.274326e-005
3.033529e-001,-1.091020e-005,1.276201e-005
3.041471e-001,-1.426719e-005,1.277685e-005
3.049412e-001,-1.258869e-005,1.280220e-005
3.057353e-001,-1.594568e-005,1.282189e-005
3.065294e-001,-1.795987e-005,1.285343e-005
3.073235e-001,-1.426719e-005,1.289333e-005
3.081176e-001,-1.560998e-005,1.291844e-005
3.089118e-001,-1.712062e-005,1.294845e-005
3.097059e-001,-1.560998e-005,1.298444e-005
3.105000e-001,-1.292439e-005,1.301429e-005
3.112941e-001,-1.359579e-005,1.303472e-005
3.120882e-001,-1.460288e-005,1.305728e-005
3.128824e-001,-1.426719e-005,1.308326e-005
3.136765e-001,-1.628138e-005,1.310801e-005
3.144706e-001,-1.527428e-005,1.314017e-005
3.152647e-001,-1.174945e-005,1.316841e-005
3.160588e-001,-9.231709e-006,1.318509e-005
3.168529e-001,-1.158160e-005,1.319538e-005
3.176471e-001,-1.225299e-005,1.321156e-005
3.184412e-001,-1.426719e-005,1.322964e-005
3.192353e-001,-1.359579e-005,1.325412e-005
3.200294e-001,-1.359579e-005,1.327631e-005
3.208235e-001,-1.225299e-005,1.329846e-005
3.216176e-001,-1.493858e-005,1.331643e-005
3.224118e-001,-1.460288e-005,1.334308e-005
3.232059e-001,-1.527428e-005,1.336851e-005
3.240000e-001,-1.493858e-005,1.339627e-005
3.247941e-001,-1.560998e-005,1.342277e-005
3.255882e-001,-1.963836e-005,1.345164e-005
3.263824e-001,-1.829557e-005,1.349722e-005
3.271765e-001,-1.292439e-005,1.353665e-005
3.279706e-001,-1.309224e-005,1.355629e-005
3.287647e-001,-1.426719e-005,1.357641e-005
3.295588e-001,-1.493858e-005,1.360026e-005
3.303529e-001,-1.426719e-005,1.362636e-005
3.311471e-001,-1.023880e-005,1.365013e-005
3.319412e-001,-9.735256e-006,1.366235e-005
3.327353e-001,-1.393149e-005,1.367340e-005
3.335294e-001,-1.678492e-005,1.369598e-005
3.343235e-001,-1.493858e-005,1.372870e-005
3.351176e-001,-1.376364e-005,1.375456e-005
3.359118e-001,-1.258869e-005,1.377647e-005
3.367059e-001,-1.091020e-005,1.379477e-005
3.375000e-001,-1.426719e-005,1.380851e-005
3.382941e-001,-1.326009e-005,1.383196e-005
3.390882e-001,-1.225299e-005,1.385219e-005
3.398824e-001,-1.091020e-005,1.386943e-005
3.406765e-001,-1.158160e-005,1.388309e-005
3.414706e-001,-1.225299e-005,1.389847e-005
3.422647e-001,-1.174945e-005,1.391566e-005
3.430588e-001,-1.426719e-005,1.393145e-005
3.438529e-001,-1.762417e-005,1.395470e-005
3.446471e-001,-1.795987e-005,1.395333e-005
3.454412e-001,-1.762417e-005,1.396799e-005
3.462353e-001,-1.728847e-005,1.397562e-005
3.470294e-001,-1.577783e-005,1.398309e-005
3.478235e-001,-1.359579e-005,1.397871e-005
3.486176e-001,-1.023880e-005,1.397765e-005
3.494118e-001,-1.091020e-005,1.397249e-005
3.502059e-001,-1.258869e-005,1.397331e-005
3.510000e-001,-1.493858e-005,1.397781e-005
3.517941e-001,-1.426719e-005,1.399089e-005
3.525882e-001,-1.242084e-005,1.399966e-005
3.533824e-001,-9.903105e-006,1.400013e-005
3.541765e-001,-8.392462e-006,1.399774e-005
3.549706e-001,-7.217518e-006,1.399005e-005
3.557647e-001,-5.203327e-006,1.398071e-005
3.565588e-001,-5.874723e-006,1.395358e-005
3.573529e-001,-1.107805e-005,1.393588e-005
3.581471e-001,-1.292439e-005,1.392981e-005
3.589412e-001,-1.124590e-005,1.393175e-005
3.597353e-001,-9.903105e-006,1.392402e-005
3.605294e-001,-1.124590e-005,1.390427e-005
3.613235e-001,-1.057450e-005,1.389203e-005
3.621176e-001,-6.881819e-006,1.388764e-005
3.629118e-001,-7.217518e-006,1.387187e-005
3.637059e-001,-1.225299e-005,1.386061e-005
3.645000e-001,-1.762417e-005,1.385965e-005
3.652941e-001,-1.577783e-005,1.387303e-005
3.660882e-001,-1.191730e-005,1.387483e-005
3.668824e-001,-1.124590e-005,1.386938e-005
3.676765e-001,-1.292439e-005,1.386423e-005
3.684706e-001,-1.829557e-005,1.386974e-005
3.692647e-001,-1.829557e-005,1.388693e-005
3.700588e-001,-1.829557e-005,1.390808e-005
3.708529e-001,-1.762417e-005,1.393103e-005
3.716471e-001,-1.628138e-005,1.394540e-005
3.724412e-001,-1.695277e-005,1.395019e-005
3.732353e-001,-1.846342e-005,1.396189e-005
3.740294e-001,-1.544213e-005,1.397967e-005
3.748235e-001,-1.510643e-005,1.398781e-005
3.756176e-001,-1.762417e-005,1.399169e-005
3.764118e-001,-1.779202e-005,1.400547e-005
3.772059e-001,-1.695277e-005,1.401132e-005
3.780000e-001,-1.628138e-005,1.401862e-005
3.787941e-001,-1.829557e-005,1.402338e-005
3.795882e-001,-1.527428e-005,1.403605e-005
3.803824e-001,-1.174945e-005,1.403720e-005
3.811765e-001,-1.359579e-005,1.401761e-005
3.819706e-001,-1.527428e-005,1.401210e-005
3.827647e-001,-1.493858e-005,1.402060e-005
3.835588e-001,-1.326009e-005,1.402842e-005
3.843529e-001,-1.225299e-005,1.402305e-005
3.851471e-001,-9.567407e-006,1.401243e-005
3.859412e-001,-1.158160e-005,1.400130e-005
3.867353e-001,-1.158160e-005,1.399553e-005
3.875294e-001,-1.426719e-005,1.398976e-005
3.883235e-001,-1.426719e-005,1.399853e-005
3.891176e-001,-1.359579e-005,1.400552e-005
3.899118e-001,-1.510643e-005,1.400552e-005
3.907059e-001,-1.426719e-005,1.400377e-005
3.915000e-001,-1.527428e-005,1.399677e-005
3.922941e-001,-1.493858e-005,1.399792e-005
3.930882e-001,-1.023880e-005,1.399792e-005
3.938824e-001,-1.225299e-005,1.398445e-005
3.946765e-001,-1.510643e-005,1.397380e-005
3.954706e-001,-1.309224e-005,1.397769e-005
3.962647e-001,-1.225299e-005,1.398280e-005
3.970588e-001,-1.158160e-005,1.398717e-005
3.978529e-001,-1.023880e-005,1.398971e-005
3.986471e-001,-1.393149e-005,1.399122e-005
3.994412e-001,-1.628138e-005,1.399622e-005
4.002353e-001,-1.527428e-005,1.400322e-005
4.010294e-001,-1.628138e-005,1.401621e-005
4.018235e-001,-1.493858e-005,1.402427e-005
4.026176e-001,-1.426719e-005,1.402074e-005
4.034118e-001,-1.326009e-005,1.402681e-005
4.042059e-001,-1.158160e-005,1.402878e-005
4.050000e-001,-1.493858e-005,1.402302e-005
4.057941e-001,-1.628138e-005,1.403268e-005
4.065882e-001,-1.158160e-005,1.404178e-005
4.073824e-001,-1.225299e-005,1.403603e-005
4.081765e-001,-1.258869e-005,1.403209e-005
4.089706e-001,-1.326009e-005,1.402805e-005
4.097647e-001,-1.107805e-005,1.402702e-005
4.105588e-001,-7.888914e-006,1.401562e-005
4.113529e-001,-8.560311e-006,1.399617e-005
4.121471e-001,-1.091020e-005,1.398134e-005
4.129412e-001,-1.023880e-005,1.397587e-005
4.137353e-001,-1.091020e-005,1.395760e-005
4.145294e-001,-1.158160e-005,1.394456e-005
4.153235e-001,-1.258869e-005,1.393663e-005
4.161176e-001,-1.292439e-005,1.392808e-005
4.169118e-001,-1.359579e-005,1.393001e-005
4.177059e-001,-1.359579e-005,1.392563e-005
4.185000e-001,-1.023880e-005,1.392238e-005
4.192941e-001,-1.309224e-005,1.391109e-005
4.200882e-001,-1.493858e-005,1.391352e-005
4.208824e-001,-1.560998e-005,1.391791e-005
4.216765e-001,-1.493858e-005,1.392249e-005
4.224706e-001,-1.460288e-005,1.391770e-005
4.232647e-001,-1.560998e-005,1.391989e-005
4.240588e-001,-1.795987e-005,1.392815e-005
4.248529e-001,-1.896696e-005,1.394389e-005
4.256471e-001,-1.795987e-005,1.396588e-005
4.264412e-001,-1.510643e-005,1.398645e-005
4.272353e-001,-1.510643e-005,1.399715e-005
4.280294e-001,-1.795987e-005,1.400957e-005
4.288235e-001,-1.661708e-005,1.401548e-005
4.296176e-001,-1.712062e-005,1.401548e-005
4.304118e-001,-1.560998e-005,1.402342e-005
4.312059e-001,-1.493858e-005,1.402460e-005
4.320000e-001,-1.594568e-005,1.401858e-005
4.327941e-001,-1.493858e-005,1.401735e-005
4.335882e-001,-1.191730e-005,1.402373e-005
4.343824e-001,-1.040665e-005,1.402634e-005
4.351765e-001,-1.091020e-005,1.401764e-005
4.359706e-001,-1.258869e-005,1.401680e-005
4.367647e-001,-1.426719e-005,1.402581e-005
4.375588e-001,-1.225299e-005,1.403279e-005
4.383529e-001,-1.326009e-005,1.403870e-005
4.391471e-001,-1.309224e-005,1.404514e-005
4.399412e-001,-1.359579e-005,1.405690e-005
4.407353e-001,-1.124590e-005,1.406747e-005
4.415294e-001,-9.567407e-006,1.406747e-005
4.423235e-001,-7.721065e-006,1.406393e-005
4.431176e-001,-7.049668e-006,1.405721e-005
4.439118e-001,-7.888914e-006,1.404583e-005
4.447059e-001,-1.091020e-005,1.403491e-005
4.455000e-001,-1.040665e-005,1.402532e-005
4.462941e-001,-1.225299e-005,1.401662e-005
4.470882e-001,-1.560998e-005,1.401662e-005
4.478824e-001,-1.393149e-005,1.403239e-005
4.486765e-001,-1.359579e-005,1.404172e-005
4.494706e-001,-1.661708e-005,1.403960e-005
4.502647e-001,-1.695277e-005,1.405197e-005
4.510588e-001,-1.661708e-005,1.407555e-005
4.518529e-001,-1.695277e-005,1.409641e-005
4.526471e-001,-1.393149e-005,1.411191e-005
4.534412e-001,-1.695277e-005,1.411867e-005
4.542353e-001,-1.762417e-005,1.413224e-005
4.550294e-001,-1.460288e-005,1.414095e-005
4.558235e-001,-1.493858e-005,1.413752e-005
4.566176e-001,-1.560998e-005,1.413280e-005
4.574118e-001,-1.124590e-005,1.413161e-005
4.582059e-001,-1.091020e-005,1.411536e-005
4.590000e-001,-1.594568e-005,1.407747e-005
4.597941e-001,-1.628138e-005,1.404639e-005
4.605882e-001,-1.527428e-005,1.401200e-005
4.613824e-001,-1.560998e-005,1.397481e-005
4.621765e-001,-1.628138e-005,1.395240e-005
4.629706e-001,-1.795987e-005,1.394012e-005
4.637647e-001,-1.661708e-005,1.392984e-005
4.645588e-001,-1.560998e-005,1.389915e-005
4.653529e-001,-1.359579e-005,1.387822e-005
4.661471e-001,-1.258869e-005,1.386241e-005
4.669412e-001,-1.225299e-005,1.383779e-005
4.677353e-001,-1.124590e-005,1.381653e-005
4.685294e-001,-7.553216e-006,1.379798e-005
4.693235e-001,-9.231709e-006,1.377267e-005
4.701176e-001,-1.124590e-005,1.375434e-005
4.709118e-001,-1.124590e-005,1.374485e-005
4.717059e-001,-1.292439e-005,1.373592e-005
4.725000e-001,-1.460288e-005,1.371858e-005
4.732941e-001,-1.242084e-005,1.370727e-005
4.740882e-001,-1.258869e-005,1.370579e-005
4.748824e-001,-1.359579e-005,1.370479e-005
4.756765e-001,-1.661708e-005,1.370883e-005
4.764706e-001,-1.560998e-005,1.373098e-005
4.772647e-001,-1.493858e-005,1.375373e-005
4.780588e-001,-1.292439e-005,1.377600e-005
4.788529e-001,-1.426719e-005,1.378545e-005
4.796471e-001,-1.493858e-005,1.380114e-005
4.804412e-001,-1.628138e-005,1.381842e-005
4.812353e-001,-1.728847e-005,1.383765e-005
4.820294e-001,-1.326009e-005,1.386424e-005
4.828235e-001,-1.426719e-005,1.387534e-005
4.836176e-001,-1.359579e-005,1.389325e-005
4.844118e-001,-1.091020e-005,1.391349e-005
4.852059e-001,-9.903105e-006,1.392058e-005
4.860000e-001,-1.493858e-005,1.392374e-005
4.867941e-001,-1.527428e-005,1.394383e-005
4.875882e-001,-1.426719e-005,1.395425e-005
4.883824e-001,-1.628138e-005,1.396035e-005
4.891765e-001,-1.460288e-005,1.397528e-005
4.899706e-001,-1.393149e-005,1.397851e-005
4.907647e-001,-1.023880e-005,1.397405e-005
4.915588e-001,-8.896010e-006,1.396841e-005
4.923529e-001,-9.567407e-006,1.396663e-005
4.931471e-001,-1.091020e-005,1.396511e-005
4.939412e-001,-1.225299e-005,1.395323e-005
4.947353e-001,-1.023880e-005,1.394490e-005
4.955294e-001,-9.231709e-006,1.393022e-005
4.963235e-001,-1.124590e-005,1.390964e-005
4.971176e-001,-1.158160e-005,1.389741e-005
4.979118e-001,-1.057450e-005,1.388240e-005
4.987059e-001,-1.242084e-005,1.387132e-005
4.995000e-001,-1.527428e-005,1.386455e-005
5.002941e-001,-1.628138e-005,1.386455e-005
5.010882e-001,-1.795987e-005,1.385932e-005
5.018824e-001,-1.829557e-005,1.386957e-005
5.026765e-001,-1.762417e-005,1.388002e-005
5.034706e-001,-1.628138e-005,1.389005e-005
5.042647e-001,-1.426719e-005,1.389599e-005
5.050588e-001,-1.628138e-005,1.389374e-005
5.058529e-001,-1.493858e-005,1.389619e-005
5.066471e-001,-1.158160e-005,1.389619e-005
5.074412e-001,-1.460288e-005,1.389038e-005
5.082353e-001,-1.225299e-005,1.388867e-005
5.090294e-001,-1.158160e-005,1.388363e-005
5.098235e-001,-1.460288e-005,1.386472e-005
5.106176e-001,-1.258869e-005,1.385876e-005
5.114118e-001,-1.124590e-005,1.385358e-005
5.122059e-001,-1.023880e-005,1.383764e-005
5.130000e-001,-1.124590e-005,1.383048e-005
5.137941e-001,-1.292439e-005,1.382376e-005
5.145882e-001,-1.560998e-005,1.382171e-005
5.153824e-001,-1.258869e-005,1.382848e-005
5.161765e-001,-1.091020e-005,1.382648e-005
5.169706e-001,-1.091020e-005,1.381837e-005
5.177647e-001,-9.567407e-006,1.380972e-005
5.185588e-001,-8.896010e-006,1.380897e-005
5.193529e-001,-1.191730e-005,1.381151e-005
5.201471e-001,-1.393149e-005,1.381242e-005
5.209412e-001,-1.359579e-005,1.381133e-005
5.217353e-001,-1.594568e-005,1.381133e-005
5.225294e-001,-1.493858e-005,1.382237e-005
5.233235e-001,-1.560998e-005,1.382572e-005
5.241176e-001,-1.795987e-005,1.382922e-005
5.249118e-001,-1.896696e-005,1.384454e-005
5.257059e-001,-1.628138e-005,1.386816e-005
5.265000e-001,-1.493858e-005,1.388949e-005
5.272941e-001,-1.493858e-005,1.390382e-005
5.280882e-001,-1.527428e-005,1.390607e-005
5.288824e-001,-1.309224e-005,1.391559e-005
5.296765e-001,-1.560998e-005,1.391353e-005
5.304706e-001,-1.292439e-005,1.391920e-005
5.312647e-001,-1.493858e-005,1.391502e-005
5.320588e-001,-2.114900e-005,1.391146e-005
5.328529e-001,-1.762417e-005,1.393475e-005
5.336471e-001,-1.493858e-005,1.394239e-005
5.344412e-001,-1.426719e-005,1.394677e-005
5.352353e-001,-1.359579e-005,1.394453e-005
5.360294e-001,-1.292439e-005,1.393410e-005
5.368235e-001,-1.493858e-005,1.392034e-005
5.376176e-001,-1.628138e-005,1.392203e-005
5.384118e-001,-1.359579e-005,1.393700e-005
5.392059e-001,-1.359579e-005,1.394002e-005
5.400000e-001,-1.393149e-005,1.393448e-005
5.407941e-001,-1.359579e-005,1.393448e-005
5.415882e-001,-1.661708e-005,1.394282e-005
5.423824e-001,-1.359579e-005,1.395673e-005
5.431765e-001,-1.493858e-005,1.396252e-005
5.439706e-001,-1.326009e-005,1.396891e-005
5.447647e-001,-1.158160e-005,1.396736e-005
5.455588e-001,-1.443504e-005,1.396736e-005
5.463529e-001,-1.393149e-005,1.396090e-005
5.471471e-001,-1.460288e-005,1.395524e-005
5.479412e-001,-1.091020e-005,1.395411e-005
5.487353e-001,-8.896010e-006,1.394813e-005
5.495294e-001,-8.392462e-006,1.393281e-005
5.503235e-001,-1.040665e-005,1.391759e-005
5.511176e-001,-1.091020e-005,1.390883e-005
5.519118e-001,-8.896010e-006,1.390077e-005
5.527059e-001,-8.392462e-006,1.389263e-005
5.535000e-001,-1.091020e-005,1.388706e-005
5.542941e-001,-1.091020e-005,1.387736e-005
5.550882e-001,-1.426719e-005,1.387284e-005
5.558824e-001,-1.426719e-005,1.386701e-005
5.566765e-001,-1.326009e-005,1.385334e-005
5.574706e-001,-1.493858e-005,1.385016e-005
5.582647e-001,-1.560998e-005,1.384780e-005
5.590588e-001,-1.695277e-005,1.384211e-005
5.598529e-001,-1.628138e-005,1.384714e-005
5.606471e-001,-1.258869e-005,1.385841e-005
5.614412e-001,-1.359579e-005,1.385538e-005
5.622353e-001,-1.426719e-005,1.385211e-005
5.630294e-001,-1.695277e-005,1.385211e-005
5.638235e-001,-1.829557e-005,1.385468e-005
5.646176e-001,-1.963836e-005,1.386633e-005
5.654118e-001,-1.560998e-005,1.389474e-005
5.662059e-001,-1.762417e-005,1.391288e-005
5.670000e-001,-1.493858e-005,1.393307e-005
5.677941e-001,-1.359579e-005,1.394141e-005
5.685882e-001,-1.695277e-005,1.393927e-005
5.693824e-001,-1.393149e-005,1.395098e-005
5.701765e-001,-1.359579e-005,1.395204e-005
5.709706e-001,-1.359579e-005,1.395600e-005
5.717647e-001,-1.292439e-005,1.395163e-005
5.725588e-001,-1.359579e-005,1.394635e-005
5.733529e-001,-1.191730e-005,1.394082e-005
5.741471e-001,-1.191730e-005,1.393155e-005
5.749412e-001,-1.158160e-005,1.391992e-005
5.757353e-001,-1.225299e-005,1.389112e-005
5.765294e-001,-1.023880e-005,1.386994e-005
5.773235e-001,-1.359579e-005,1.386280e-005
5.781176e-001,-1.292439e-005,1.386434e-005
5.789118e-001,-1.359579e-005,1.386015e-005
5.797059e-001,-1.493858e-005,1.385575e-005
5.805000e-001,-1.527428e-005,1.385800e-005
5.812941e-001,-1.393149e-005,1.387275e-005
5.820882e-001,-1.124590e-005,1.388415e-005
5.828824e-001,-1.326009e-005,1.387639e-005
5.836765e-001,-1.225299e-005,1.386423e-005
5.844706e-001,-1.292439e-005,1.385584e-005
5.852647e-001,-1.359579e-005,1.385327e-005
5.860588e-001,-1.493858e-005,1.385630e-005
5.868529e-001,-1.594568e-005,1.386826e-005
5.876471e-001,-1.426719e-005,1.387408e-005
5.884412e-001,-1.225299e-005,1.387727e-005
5.892353e-001,-1.258869e-005,1.387727e-005
5.900294e-001,-1.292439e-005,1.388179e-005
5.908235e-001,-1.091020e-005,1.388556e-005
5.916176e-001,-1.158160e-005,1.388200e-005
5.924118e-001,-1.158160e-005,1.388155e-005
5.932059e-001,-1.158160e-005,1.387358e-005
5.940000e-001,-1.225299e-005,1.385331e-005
5.947941e-001,-1.292439e-005,1.383348e-005
5.955882e-001,-1.510643e-005,1.381694e-005
5.963824e-001,-1.560998e-005,1.380880e-005
5.971765e-001,-1.829557e-005,1.380819e-005
5.979706e-001,-1.762417e-005,1.382546e-005
5.987647e-001,-1.695277e-005,1.384914e-005
5.995588e-001,-1.661708e-005,1.386849e-005
6.003529e-001,-1.762417e-005,1.388199e-005
6.011471e-001,-1.695277e-005,1.389202e-005
6.019412e-001,-1.695277e-005,1.390162e-005
6.027353e-001,-1.460288e-005,1.391686e-005
6.035294e-001,-1.326009e-005,1.393004e-005
6.043235e-001,-1.091020e-005,1.394208e-005
6.051176e-001,-1.359579e-005,1.394972e-005
6.059118e-001,-1.560998e-005,1.396772e-005
6.067059e-001,-1.359579e-005,1.399154e-005
6.075000e-001,-9.735256e-006,1.399861e-005
6.082941e-001,-1.225299e-005,1.399039e-005
6.090882e-001,-1.493858e-005,1.399308e-005
6.098824e-001,-1.493858e-005,1.400731e-005
6.106765e-001,-1.695277e-005,1.401830e-005
6.114706e-001,-1.124590e-005,1.403823e-005
6.122647e-001,-8.224612e-006,1.404720e-005
6.130588e-001,-8.224612e-006,1.404896e-005
6.138529e-001,-1.091020e-005,1.403961e-005
6.146471e-001,-1.124590e-005,1.401786e-005
6.154412e-001,-7.217518e-006,1.400394e-005
6.162353e-001,-6.881819e-006,1.399372e-005
6.170294e-001,-9.567407e-006,1.398471e-005
6.178235e-001,-1.258869e-005,1.397611e-005
6.186176e-001,-1.292439e-005,1.395602e-005
6.194118e-001,-1.124590e-005,1.393687e-005
6.202059e-001,-1.225299e-005,1.391306e-005
6.210000e-001,-1.628138e-005,1.389468e-005
6.217941e-001,-1.527428e-005,1.389468e-005
6.225882e-001,-1.560998e-005,1.388848e-005
6.233824e-001,-1.560998e-005,1.387732e-005
6.241765e-001,-1.309224e-005,1.387792e-005
6.249706e-001,-1.493858e-005,1.387140e-005
6.257647e-001,-1.560998e-005,1.386136e-005
6.265588e-001,-1.661708e-005,1.385298e-005
6.273529e-001,-1.728847e-005,1.385169e-005
6.281471e-001,-1.560998e-005,1.385558e-005
6.289412e-001,-1.560998e-005,1.384511e-005
6.297353e-001,-1.628138e-005,1.384630e-005
6.305294e-001,-1.527428e-005,1.386090e-005
6.313235e-001,-1.493858e-005,1.386647e-005
6.321176e-001,-1.762417e-005,1.386530e-005
6.329118e-001,-1.628138e-005,1.387534e-005
6.337059e-001,-1.493858e-005,1.388558e-005
6.345000e-001,-1.594568e-005,1.389395e-005
6.352941e-001,-1.628138e-005,1.391259e-005
6.360882e-001,-1.359579e-005,1.392757e-005
6.368824e-001,-1.225299e-005,1.393337e-005
6.376765e-001,-1.225299e-005,1.392726e-005
6.384706e-001,-1.292439e-005,1.392115e-005
6.392647e-001,-1.292439e-005,1.391911e-005
6.400588e-001,-1.393149e-005,1.391211e-005
6.408529e-001,-1.393149e-005,1.391103e-005
6.416471e-001,-1.527428e-005,1.390654e-005
6.424412e-001,-1.644922e-005,1.390770e-005
6.432353e-001,-1.258869e-005,1.392667e-005
6.440294e-001,-1.158160e-005,1.392762e-005
6.448235e-001,-1.040665e-005,1.391686e-005
6.456176e-001,-1.057450e-005,1.390964e-005
6.464118e-001,-8.224612e-006,1.390525e-005
6.472059e-001,-1.091020e-005,1.389764e-005
6.480000e-001,-1.326009e-005,1.389926e-005
6.487941e-001,-1.292439e-005,1.389717e-005
6.495882e-001,-1.695277e-005,1.388593e-005
6.503824e-001,-1.493858e-005,1.389214e-005
6.511765e-001,-1.510643e-005,1.388733e-005
6.519706e-001,-1.426719e-005,1.388791e-005
6.527647e-001,-1.292439e-005,1.388791e-005
6.535588e-001,-1.292439e-005,1.388690e-005
6.543529e-001,-1.191730e-005,1.389067e-005
6.551471e-001,-1.393149e-005,1.388137e-005
6.559412e-001,-1.762417e-005,1.387322e-005
6.567353e-001,-1.560998e-005,1.389346e-005
6.575294e-001,-1.695277e-005,1.390418e-005
6.583235e-001,-1.661708e-005,1.391894e-005
6.591176e-001,-1.527428e-005,1.393041e-005
6.599118e-001,-1.124590e-005,1.394304e-005
6.607059e-001,-1.158160e-005,1.395037e-005
6.615000e-001,-1.493858e-005,1.395732e-005
6.622941e-001,-1.124590e-005,1.396919e-005
6.630882e-001,-1.107805e-005,1.397166e-005
6.638824e-001,-1.376364e-005,1.397208e-005
6.646765e-001,-1.376364e-005,1.397838e-005
6.654706e-001,-1.225299e-005,1.398191e-005
6.662647e-001,-8.896010e-006,1.397998e-005
6.670588e-001,-1.023880e-005,1.396794e-005
6.678529e-001,-1.292439e-005,1.395881e-005
6.686471e-001,-1.560998e-005,1.396591e-005
6.694412e-001,-1.644922e-005,1.397415e-005
6.702353e-001,-1.393149e-005,1.397955e-005
6.710294e-001,-1.426719e-005,1.397390e-005
6.718235e-001,-1.560998e-005,1.397166e-005
6.726176e-001,-1.393149e-005,1.397513e-005
6.734118e-001,-1.560998e-005,1.396948e-005
6.742059e-001,-1.493858e-005,1.396048e-005
6.750000e-001,-1.762417e-005,1.394490e-005
6.757941e-001,-1.779202e-005,1.394353e-005
6.765882e-001,-1.359579e-005,1.395362e-005
6.773824e-001,-1.493858e-005,1.394867e-005
6.781765e-001,-1.762417e-005,1.393732e-005
6.789706e-001,-1.695277e-005,1.394126e-005
6.797647e-001,-1.712062e-005,1.394060e-005
6.805588e-001,-1.695277e-005,1.394625e-005
6.813529e-001,-1.292439e-005,1.395358e-005
6.821471e-001,-1.225299e-005,1.394363e-005
6.829412e-001,-1.091020e-005,1.393528e-005
6.837353e-001,-1.158160e-005,1.393266e-005
6.845294e-001,-1.191730e-005,1.393561e-005
6.853235e-001,-1.158160e-005,1.393824e-005
6.861176e-001,-1.023880e-005,1.393545e-005
6.869118e-001,-1.091020e-005,1.392417e-005
6.877059e-001,-1.359579e-005,1.392061e-005
6.885000e-001,-1.225299e-005,1.392164e-005
6.892941e-001,-1.426719e-005,1.391921e-005
6.900882e-001,-1.292439e-005,1.392135e-005
6.908824e-001,-1.023880e-005,1.392599e-005
6.916765e-001,-9.231709e-006,1.392751e-005
6.924706e-001,-1.174945e-005,1.393044e-005
6.932647e-001,-1.174945e-005,1.394053e-005
6.940588e-001,-1.493858e-005,1.394919e-005
6.948529e-001,-1.795987e-005,1.396107e-005
6.956471e-001,-1.426719e-005,1.398549e-005
6.964412e-001,-1.628138e-005,1.399157e-005
6.972353e-001,-2.064546e-005,1.399401e-005
6.980294e-001,-1.930266e-005,1.402040e-005
6.988235e-001,-1.712062e-005,1.404170e-005
6.996176e-001,-1.795987e-005,1.404363e-005
7.004118e-001,-1.628138e-005,1.404762e-005
7.012059e-001,-1.292439e-005,1.404636e-005
7.020000e-001,-1.292439e-005,1.403271e-005
7.027941e-001,-1.091020e-005,1.402964e-005
7.035882e-001,-1.057450e-005,1.401052e-005
7.043824e-001,-1.158160e-005,1.398791e-005
7.051765e-001,-1.091020e-005,1.397890e-005
7.059706e-001,-1.258869e-005,1.396703e-005
7.067647e-001,-1.292439e-005,1.395732e-005
7.075588e-001,-1.443504e-005,1.396195e-005
7.083529e-001,-1.258869e-005,1.397213e-005
7.091471e-001,-1.225299e-005,1.396121e-005
7.099412e-001,-1.460288e-005,1.394809e-005
7.107353e-001,-1.359579e-005,1.394580e-005
7.115294e-001,-1.359579e-005,1.393909e-005
7.123235e-001,-1.023880e-005,1.392992e-005
7.131176e-001,-1.225299e-005,1.390501e-005
7.139118e-001,-1.661708e-005,1.389057e-005
7.147059e-001,-1.930266e-005,1.389429e-005
7.155000e-001,-1.527428e-005,1.391579e-005
7.162941e-001,-1.292439e-005,1.392435e-005
7.170882e-001,-1.326009e-005,1.392628e-005
7.178824e-001,-1.359579e-005,1.393193e-005
7.186765e-001,-1.493858e-005,1.394653e-005
7.194706e-001,-1.359579e-005,1.396227e-005
7.202647e-001,-1.258869e-005,1.396892e-005
7.210588e-001,-1.091020e-005,1.397257e-005
7.218529e-001,-1.057450e-005,1.396710e-005
7.226471e-001,-1.443504e-005,1.395553e-005
7.234412e-001,-1.426719e-005,1.396170e-005
7.242353e-001,-1.695277e-005,1.396684e-005
7.250294e-001,-1.795987e-005,1.397853e-005
7.258235e-001,-1.560998e-005,1.398382e-005
7.266176e-001,-1.225299e-005,1.398381e-005
7.274118e-001,-1.225299e-005,1.397550e-005
7.282059e-001,-1.258869e-005,1.397357e-005
7.290000e-001,-1.426719e-005,1.396843e-005
7.297941e-001,-1.493858e-005,1.396620e-005
7.305882e-001,-1.292439e-005,1.396142e-005
7.313824e-001,-1.560998e-005,1.394637e-005
7.321765e-001,-1.527428e-005,1.395412e-005
7.329706e-001,-1.275654e-005,1.395751e-005
7.337647e-001,-1.426719e-005,1.395499e-005
7.345588e-001,-1.225299e-005,1.396463e-005
7.353529e-001,-9.903105e-006,1.397056e-005
7.361471e-001,-1.023880e-005,1.395630e-005
7.369412e-001,-8.224612e-006,1.394163e-005
7.377353e-001,-1.292439e-005,1.392610e-005
7.385294e-001,-1.493858e-005,1.391489e-005
7.393235e-001,-1.359579e-005,1.391602e-005
7.401176e-001,-1.460288e-005,1.391496e-005
7.409118e-001,-1.376364e-005,1.392736e-005
7.417059e-001,-1.695277e-005,1.393997e-005
7.425000e-001,-1.762417e-005,1.396232e-005
7.432941e-001,-1.225299e-005,1.398415e-005
7.440882e-001,-1.326009e-005,1.398415e-005
7.448824e-001,-1.628138e-005,1.399224e-005
7.456765e-001,-1.594568e-005,1.401269e-005
7.464706e-001,-1.695277e-005,1.402720e-005
7.472647e-001,-1.560998e-005,1.404459e-005
7.480588e-001,-1.577783e-005,1.405953e-005
7.488529e-001,-1.628138e-005,1.407025e-005
7.496471e-001,-1.426719e-005,1.407385e-005
7.504412e-001,-1.393149e-005,1.406688e-005
7.512353e-001,-1.628138e-005,1.405233e-005
7.520294e-001,-1.661708e-005,1.404444e-005
7.528235e-001,-1.393149e-005,1.404053e-005
7.536176e-001,-9.567407e-006,1.403247e-005
7.544118e-001,-9.231709e-006,1.401976e-005
7.552059e-001,-1.359579e-005,1.399931e-005
7.560000e-001,-1.124590e-005,1.399496e-005
7.567941e-001,-1.023880e-005,1.399408e-005
7.575882e-001,-1.326009e-005,1.398174e-005
7.583824e-001,-1.292439e-005,1.398467e-005
7.591765e-001,-1.493858e-005,1.398841e-005
7.599706e-001,-1.594568e-005,1.398954e-005
7.607647e-001,-1.560998e-005,1.400044e-005
7.615588e-001,-1.393149e-005,1.401377e-005
7.623529e-001,-1.326009e-005,1.402390e-005
7.631471e-001,-9.567407e-006,1.402951e-005
7.639412e-001,-7.217518e-006,1.402093e-005
7.647353e-001,-9.231709e-006,1.399916e-005
7.655294e-001,-1.258869e-005,1.399083e-005
7.663235e-001,-1.493858e-005,1.399532e-005
7.671176e-001,-1.594568e-005,1.400716e-005
7.679118e-001,-1.393149e-005,1.402565e-005
7.687059e-001,-1.393149e-005,1.403869e-005
7.695000e-001,-1.359579e-005,1.404459e-005
7.702941e-001,-1.376364e-005,1.404354e-005
7.710882e-001,-1.292439e-005,1.404407e-005
7.718824e-001,-1.426719e-005,1.403417e-005
7.726765e-001,-1.493858e-005,1.403195e-005
7.734706e-001,-1.560998e-005,1.402962e-005
7.742647e-001,-1.174945e-005,1.402066e-005
7.750588e-001,-1.661708e-005,1.399546e-005
7.758529e-001,-1.829557e-005,1.399672e-005
7.766471e-001,-1.695277e-005,1.400940e-005
7.774412e-001,-1.896696e-005,1.401670e-005
7.782353e-001,-1.695277e-005,1.403106e-005
7.790294e-001,-1.628138e-005,1.404422e-005
7.798235e-001,-1.661708e-005,1.404664e-005
7.806176e-001,-1.292439e-005,1.405901e-005
7.814118e-001,-1.141375e-005,1.405265e-005
7.822059e-001,-9.567407e-006,1.401668e-005
7.830000e-001,-1.141375e-005,1.399177e-005
7.837941e-001,-1.225299e-005,1.398120e-005
7.845882e-001,-1.107805e-005,1.397511e-005
7.853824e-001,-8.224612e-006,1.396803e-005
7.861765e-001,-8.560311e-006,1.395669e-005
7.869706e-001,-1.242084e-005,1.393958e-005
7.877647e-001,-1.359579e-005,1.392692e-005
7.885588e-001,-1.292439e-005,1.392692e-005
7.893529e-001,-1.560998e-005,1.392488e-005
7.901471e-001,-1.695277e-005,1.393055e-005
7.909412e-001,-1.628138e-005,1.394227e-005
7.917353e-001,-1.661708e-005,1.394101e-005
7.925294e-001,-1.661708e-005,1.395143e-005
7.933235e-001,-1.560998e-005,1.395747e-005
7.941176e-001,-1.359579e-005,1.396521e-005
7.949118e-001,-1.527428e-005,1.397099e-005
7.957059e-001,-1.527428e-005,1.397383e-005
7.965000e-001,-1.158160e-005,1.397830e-005
7.972941e-001,-1.225299e-005,1.396929e-005
7.980882e-001,-1.292439e-005,1.397283e-005
7.988824e-001,-9.567407e-006,1.398285e-005
7.996765e-001,-8.896010e-006,1.398525e-005
8.004706e-001,-9.567407e-006,1.398193e-005
8.012647e-001,-1.091020e-005,1.397880e-005
8.020588e-001,-9.903105e-006,1.398334e-005
8.028529e-001,-9.567407e-006,1.398649e-005
8.036471e-001,-1.158160e-005,1.398336e-005
8.044412e-001,-1.158160e-005,1.398508e-005
8.052353e-001,-1.091020e-005,1.397717e-005
8.060294e-001,-1.124590e-005,1.396754e-005
8.068235e-001,-1.258869e-005,1.396191e-005
8.076176e-001,-1.426719e-005,1.395453e-005
8.084118e-001,-1.309224e-005,1.394995e-005
8.092059e-001,-1.426719e-005,1.393671e-005
8.100000e-001,-1.225299e-005,1.392967e-005
8.107941e-001,-1.292439e-005,1.392872e-005
8.115882e-001,-1.493858e-005,1.392668e-005
8.123824e-001,-1.762417e-005,1.392893e-005
8.131765e-001,-1.426719e-005,1.393158e-005
8.139706e-001,-1.359579e-005,1.391658e-005
8.147647e-001,-1.460288e-005,1.389358e-005
8.155588e-001,-1.376364e-005,1.389009e-005
8.163529e-001,-1.359579e-005,1.387620e-005
8.171471e-001,-1.443504e-005,1.387180e-005
8.179412e-001,-1.695277e-005,1.387450e-005
8.187353e-001,-1.762417e-005,1.387450e-005
8.195294e-001,-1.762417e-005,1.388787e-005
8.203235e-001,-1.695277e-005,1.390228e-005
8.211176e-001,-1.762417e-005,1.391402e-005
8.219118e-001,-1.460288e-005,1.393044e-005
8.227059e-001,-1.695277e-005,1.393369e-005
8.235000e-001,-1.661708e-005,1.395029e-005
8.242941e-001,-1.594568e-005,1.396559e-005
8.250882e-001,-1.426719e-005,1.397928e-005
8.258824e-001,-1.258869e-005,1.398536e-005
8.266765e-001,-1.493858e-005,1.399147e-005
8.274706e-001,-1.493858e-005,1.399583e-005
8.282647e-001,-1.426719e-005,1.400221e-005
8.290588e-001,-1.258869e-005,1.400434e-005
8.298529e-001,-1.527428e-005,1.399698e-005
8.306471e-001,-1.426719e-005,1.399698e-005
8.314412e-001,-1.527428e-005,1.399806e-005
8.322353e-001,-1.225299e-005,1.401021e-005
8.330294e-001,-1.174945e-005,1.400729e-005
8.338235e-001,-1.292439e-005,1.400591e-005
8.346176e-001,-1.124590e-005,1.400591e-005
8.354118e-001,-1.292439e-005,1.399927e-005
8.362059e-001,-9.567407e-006,1.399289e-005
8.370000e-001,-6.546120e-006,1.397436e-005
8.377941e-001,-1.107805e-005,1.395603e-005
8.385882e-001,-1.174945e-005,1.395291e-005
8.393824e-001,-1.359579e-005,1.395058e-005
8.401765e-001,-1.091020e-005,1.395261e-005
8.409706e-001,-1.107805e-005,1.395261e-005
8.417647e-001,-1.158160e-005,1.395130e-005
8.425588e-001,-1.242084e-005,1.395130e-005
8.433529e-001,-9.063859e-006,1.395360e-005
8.441471e-001,-9.567407e-006,1.394584e-005
8.449412e-001,-9.903105e-006,1.393722e-005
8.457353e-001,-9.903105e-006,1.392234e-005
8.465294e-001,-1.091020e-005,1.390568e-005
8.473235e-001,-1.225299e-005,1.388096e-005
8.481176e-001,-1.174945e-005,1.386254e-005
8.489118e-001,-1.124590e-005,1.384537e-005
8.497059e-001,-1.628138e-005,1.382815e-005
8.505000e-001,-1.628138e-005,1.382291e-005
8.512941e-001,-1.527428e-005,1.382033e-005
8.520882e-001,-1.695277e-005,1.381410e-005
8.528824e-001,-1.896696e-005,1.382265e-005
8.536765e-001,-1.695277e-005,1.384382e-005
8.544706e-001,-1.628138e-005,1.386317e-005
8.552647e-001,-1.493858e-005,1.387238e-005
8.560588e-001,-1.695277e-005,1.387003e-005
8.568529e-001,-1.762417e-005,1.388180e-005
8.576471e-001,-1.896696e-005,1.390653e-005
8.584412e-001,-1.628138e-005,1.393051e-005
8.592353e-001,-1.359579e-005,1.393530e-005
8.600294e-001,-1.661708e-005,1.393092e-005
8.608235e-001,-2.131685e-005,1.392964e-005
8.616176e-001,-2.165255e-005,1.396707e-005
8.624118e-001,-1.695277e-005,1.401274e-005
8.632059e-001,-1.762417e-005,1.403769e-005
8.640000e-001,-2.098116e-005,1.405940e-005
8.647941e-001,-1.762417e-005,1.409489e-005
8.655882e-001,-1.426719e-005,1.412407e-005
8.663824e-001,-1.560998e-005,1.414166e-005
8.671765e-001,-1.493858e-005,1.415879e-005
8.679706e-001,-1.493858e-005,1.416606e-005
8.687647e-001,-1.426719e-005,1.417236e-005
8.695588e-001,-1.292439e-005,1.418102e-005
8.703529e-001,-1.426719e-005,1.418292e-005
8.711471e-001,-1.560998e-005,1.417601e-005
8.719412e-001,-1.393149e-005,1.417718e-005
8.727353e-001,-1.326009e-005,1.417160e-005
8.735294e-001,-1.493858e-005,1.416398e-005
8.743235e-001,-1.527428e-005,1.416980e-005
8.751176e-001,-1.762417e-005,1.417094e-005
8.759118e-001,-1.527428e-005,1.417846e-005
8.767059e-001,-1.023880e-005,1.417365e-005
8.775000e-001,-1.091020e-005,1.415183e-005
8.782941e-001,-8.560311e-006,1.413780e-005
8.790882e-001,-6.881819e-006,1.411859e-005
8.798824e-001,-8.896010e-006,1.409401e-005
8.806765e-001,-1.023880e-005,1.407659e-005
8.814706e-001,-9.567407e-006,1.406319e-005
8.822647e-001,-9.567407e-006,1.403837e-005
8.830588e-001,-1.023880e-005,1.401867e-005
8.838529e-001,-1.191730e-005,1.400522e-005
8.846471e-001,-1.225299e-005,1.399245e-005
8.854412e-001,-8.896010e-006,1.397937e-005
8.862353e-001,-7.888914e-006,1.396732e-005
8.870294e-001,-1.158160e-005,1.395729e-005
8.878235e-001,-8.896010e-006,1.395547e-005
8.886176e-001,-8.896010e-006,1.394544e-005
8.894118e-001,-1.292439e-005,1.393540e-005
8.902059e-001,-1.393149e-005,1.393230e-005
8.910000e-001,-1.359579e-005,1.393230e-005
8.917941e-001,-1.359579e-005,1.392676e-005
8.925882e-001,-1.510643e-005,1.391696e-005
8.933824e-001,-1.493858e-005,1.392494e-005
8.941765e-001,-1.695277e-005,1.393511e-005
8.949706e-001,-1.795987e-005,1.395556e-005
8.957647e-001,-1.695277e-005,1.397959e-005
8.965588e-001,-1.560998e-005,1.400460e-005
8.973529e-001,-1.829557e-005,1.401876e-005
8.981471e-001,-1.896696e-005,1.403680e-005
8.989412e-001,-1.359579e-005,1.405864e-005
8.997353e-001,-1.560998e-005,1.404702e-005
9.005294e-001,-1.493858e-005,1.404935e-005
9.013235e-001,-1.191730e-005,1.404877e-005
9.021176e-001,-8.392462e-006,1.404180e-005
9.029118e-001,-1.191730e-005,1.403084e-005
9.037059e-001,-1.225299e-005,1.402800e-005
9.045000e-001,-1.191730e-005,1.402892e-005
9.052941e-001,-1.426719e-005,1.402301e-005
9.060882e-001,-1.091020e-005,1.401085e-005
9.068824e-001,-1.023880e-005,1.399668e-005
9.076765e-001,-1.225299e-005,1.397589e-005
9.084706e-001,-1.292439e-005,1.396153e-005
9.092647e-001,-1.258869e-005,1.395397e-005
9.100588e-001,-1.292439e-005,1.395762e-005
9.108529e-001,-1.560998e-005,1.396137e-005
9.116471e-001,-1.493858e-005,1.396371e-005
9.124412e-001,-1.158160e-005,1.397473e-005
9.132353e-001,-9.063859e-006,1.397603e-005
9.140294e-001,-1.242084e-005,1.396381e-005
9.148235e-001,-1.225299e-005,1.395980e-005
9.156176e-001,-1.393149e-005,1.395980e-005
9.164118e-001,-1.527428e-005,1.397290e-005
9.172059e-001,-1.628138e-005,1.398753e-005
9.180000e-001,-1.426719e-005,1.399869e-005
9.187941e-001,-1.174945e-005,1.399413e-005
9.195882e-001,-1.376364e-005,1.397904e-005
9.203824e-001,-1.225299e-005,1.397851e-005
9.211765e-001,-1.426719e-005,1.397242e-005
9.219706e-001,-1.577783e-005,1.396785e-005
9.227647e-001,-1.426719e-005,1.397410e-005
9.235588e-001,-1.695277e-005,1.396953e-005
9.243529e-001,-1.695277e-005,1.397685e-005
9.251471e-001,-1.493858e-005,1.397420e-005
9.259412e-001,-1.393149e-005,1.396356e-005
9.267353e-001,-1.326009e-005,1.396461e-005
9.275294e-001,-1.443504e-005,1.395921e-005
9.283235e-001,-1.393149e-005,1.394755e-005
9.291176e-001,-1.292439e-005,1.393689e-005
9.299118e-001,-1.359579e-005,1.392248e-005
9.307059e-001,-1.393149e-005,1.391074e-005
9.315000e-001,-1.493858e-005,1.391384e-005
9.322941e-001,-1.695277e-005,1.392219e-005
9.330882e-001,-1.762417e-005,1.394144e-005
9.338824e-001,-1.309224e-005,1.396158e-005
9.346765e-001,-1.292439e-005,1.396493e-005
9.354706e-001,-1.493858e-005,1.396868e-005
9.362647e-001,-1.158160e-005,1.398216e-005
9.370588e-001,-1.426719e-005,1.398388e-005
9.378529e-001,-1.493858e-005,1.398601e-005
9.386471e-001,-1.426719e-005,1.399432e-005
9.394412e-001,-1.225299e-005,1.399432e-005
9.402353e-001,-1.493858e-005,1.399240e-005
9.410294e-001,-1.661708e-005,1.400586e-005
9.418235e-001,-1.762417e-005,1.402755e-005
9.426176e-001,-1.527428e-005,1.404712e-005
9.434118e-001,-1.359579e-005,1.405792e-005
9.442059e-001,-1.426719e-005,1.405358e-005
9.450000e-001,-1.326009e-005,1.404009e-005
9.457941e-001,-8.896010e-006,1.403694e-005
9.465882e-001,-9.567407e-006,1.401583e-005
9.473824e-001,-1.493858e-005,1.397775e-005
9.481765e-001,-1.728847e-005,1.396072e-005
9.489706e-001,-1.393149e-005,1.396138e-005
9.497647e-001,-1.158160e-005,1.394672e-005
9.505588e-001,-9.567407e-006,1.393176e-005
9.513529e-001,-1.107805e-005,1.392313e-005
9.521471e-001,-1.292439e-005,1.391806e-005
9.529412e-001,-1.225299e-005,1.392355e-005
9.537353e-001,-1.292439e-005,1.392793e-005
9.545294e-001,-1.426719e-005,1.393169e-005
9.553235e-001,-1.359579e-005,1.394135e-005
9.561176e-001,-1.326009e-005,1.394436e-005
9.569118e-001,-1.225299e-005,1.394536e-005
9.577059e-001,-1.292439e-005,1.393871e-005
9.585000e-001,-1.359579e-005,1.393970e-005
9.592941e-001,-1.292439e-005,1.394366e-005
9.600882e-001,-1.091020e-005,1.393838e-005
9.608824e-001,-9.567407e-006,1.393086e-005
9.616765e-001,-1.091020e-005,1.392019e-005
9.624706e-001,-1.292439e-005,1.392182e-005
9.632647e-001,-1.393149e-005,1.392375e-005
9.640588e-001,-1.040665e-005,1.391436e-005
9.648529e-001,-1.191730e-005,1.388409e-005
9.656471e-001,-1.359579e-005,1.387361e-005
9.664412e-001,-1.577783e-005,1.387566e-005
9.672353e-001,-1.695277e-005,1.388404e-005
9.680294e-001,-1.628138e-005,1.389580e-005
9.688235e-001,-1.393149e-005,1.390060e-005
9.696176e-001,-1.493858e-005,1.390166e-005
9.704118e-001,-1.359579e-005,1.390907e-005
9.712059e-001,-1.292439e-005,1.391660e-005
9.720000e-001,-1.225299e-005,1.392292e-005
9.727941e-001,-1.309224e-005,1.391626e-005
9.735882e-001,-1.628138e-005,1.391258e-005
9.743824e-001,-1.846342e-005,1.391002e-005
9.751765e-001,-1.628138e-005,1.391212e-005
9.759706e-001,-1.661708e-005,1.391457e-005
9.767647e-001,-1.292439e-005,1.392898e-005
9.775588e-001,-1.292439e-005,1.393092e-005
9.783529e-001,-1.225299e-005,1.393190e-005
9.791471e-001,-1.225299e-005,1.392579e-005
9.799412e-001,-1.359579e-005,1.391744e-005
9.807353e-001,-9.567407e-006,1.391947e-005
9.815294e-001,-1.091020e-005,1.390206e-005
9.823235e-001,-1.426719e-005,1.388896e-005
9.831176e-001,-1.527428e-005,1.389364e-005
9.839118e-001,-1.376364e-005,1.389705e-005
9.847059e-001,-1.560998e-005,1.390156e-005
9.855000e-001,-1.493858e-005,1.391822e-005
9.862941e-001,-1.023880e-005,1.393175e-005
9.870882e-001,-1.040665e-005,1.393600e-005
9.878824e-001,-1.309224e-005,1.392929e-005
9.886765e-001,-1.225299e-005,1.392337e-005
9.894706e-001,-1.359579e-005,1.391940e-005
9.902647e-001,-1.158160e-005,1.391615e-005
9.910588e-001,-1.091020e-005,1.390982e-005
9.918529e-001,-1.191730e-005,1.389054e-005
9.926471e-001,-1.426719e-005,1.387120e-005
9.934412e-001,-1.359579e-005,1.387733e-005
9.942353e-001,-1.292439e-005,1.387836e-005
9.950294e-001,-1.527428e-005,1.386711e-005
9.958235e-001,-1.594568e-005,1.386470e-005
9.966176e-001,-1.292439e-005,1.386090e-005
9.974118e-001,-1.359579e-005,1.385209e-005
9.982059e-001,-1.393149e-005,1.384472e-005
9.990000e-001,-1.258869e-005,1.383655e-005
9.997941e-001,-1.292439e-005,1.383136e-005
1.000588e+000,-1.158160e-005,1.382825e-005
1.001382e+000,-1.023880e-005,1.381316e-005
1.002176e+000,-1.091020e-005,1.379340e-005
1.002971e+000,-1.141375e-005,1.378473e-005
1.003765e+000,-9.903105e-006,1.378921e-005
1.004559e+000,-1.443504e-005,1.379069e-005
1.005353e+000,-1.493858e-005,1.379341e-005
1.006147e+000,-1.359579e-005,1.380456e-005
1.006941e+000,-1.527428e-005,1.381379e-005
1.007735e+000,-1.493858e-005,1.382042e-005
1.008529e+000,-1.493858e-005,1.382688e-005
1.009324e+000,-1.628138e-005,1.382688e-005
1.010118e+000,-1.695277e-005,1.382812e-005
1.010912e+000,-1.594568e-005,1.383316e-005
1.011706e+000,-1.577783e-005,1.384009e-005
1.012500e+000,-1.493858e-005,1.384849e-005
1.013294e+000,-1.158160e-005,1.386362e-005
1.014088e+000,-1.023880e-005,1.387304e-005
1.014882e+000,-1.158160e-005,1.387529e-005
1.015676e+000,-1.225299e-005,1.387250e-005
1.016471e+000,-1.426719e-005,1.386411e-005
1.017265e+000,-1.124590e-005,1.385829e-005
1.018059e+000,-1.393149e-005,1.385052e-005
1.018853e+000,-1.359579e-005,1.385052e-005
1.019647e+000,-1.225299e-005,1.385052e-005
1.020441e+000,-1.426719e-005,1.384600e-005
1.021235e+000,-1.728847e-005,1.385020e-005
1.022029e+000,-1.661708e-005,1.386115e-005
1.022824e+000,-1.510643e-005,1.386724e-005
1.023618e+000,-1.359579e-005,1.386546e-005
1.024412e+000,-1.292439e-005,1.387083e-005
1.025206e+000,-1.359579e-005,1.385830e-005
1.026000e+000,-1.326009e-005,1.384107e-005
1.026794e+000,-1.258869e-005,1.382823e-005
1.027588e+000,-1.510643e-005,1.380503e-005
1.028382e+000,-1.292439e-005,1.379820e-005
1.029176e+000,-1.326009e-005,1.378688e-005
1.029971e+000,-1.661708e-005,1.377530e-005
1.030765e+000,-1.493858e-005,1.378790e-005
1.031559e+000,-1.376364e-005,1.379862e-005
1.032353e+000,-1.527428e-005,1.380992e-005
1.033147e+000,-1.779202e-005,1.382179e-005
1.033941e+000,-1.628138e-005,1.384095e-005
1.034735e+000,-1.762417e-005,1.385732e-005
1.035529e+000,-1.762417e-005,1.388521e-005
1.036324e+000,-1.309224e-005,1.391240e-005
1.037118e+000,-1.527428e-005,1.391436e-005
1.037912e+000,-1.560998e-005,1.391991e-005
1.038706e+000,-1.158160e-005,1.392867e-005
1.039500e+000,-1.091020e-005,1.391614e-005
1.040294e+000,-1.158160e-005,1.389686e-005
1.041088e+000,-1.242084e-005,1.388185e-005
1.041882e+000,-1.292439e-005,1.386787e-005
1.042676e+000,-1.560998e-005,1.385534e-005
1.043471e+000,-1.426719e-005,1.385534e-005
1.044265e+000,-1.443504e-005,1.385749e-005
1.045059e+000,-1.527428e-005,1.385462e-005
1.045853e+000,-1.359579e-005,1.385462e-005
1.046647e+000,-1.258869e-005,1.386045e-005
1.047441e+000,-1.091020e-005,1.386141e-005
1.048235e+000,-1.309224e-005,1.385589e-005
1.049029e+000,-1.426719e-005,1.386507e-005
1.049824e+000,-1.493858e-005,1.387935e-005
1.050618e+000,-1.560998e-005,1.389444e-005
1.051412e+000,-1.560998e-005,1.390872e-005
1.052206e+000,-1.359579e-005,1.392538e-005
1.053000e+000,-1.091020e-005,1.393604e-005
1.053794e+000,-1.426719e-005,1.393432e-005
1.054588e+000,-1.158160e-005,1.394225e-005
1.055382e+000,-9.903105e-006,1.394397e-005
1.056176e+000,-1.091020e-005,1.394073e-005
1.056971e+000,-1.326009e-005,1.393622e-005
1.057765e+000,-1.225299e-005,1.393305e-005
1.058559e+000,-1.124590e-005,1.393062e-005
1.059353e+000,-1.426719e-005,1.392181e-005
1.060147e+000,-1.493858e-005,1.392792e-005
1.060941e+000,-1.225299e-005,1.393433e-005
1.061735e+000,-1.426719e-005,1.392598e-005
1.062529e+000,-1.628138e-005,1.391374e-005
1.063324e+000,-1.359579e-005,1.392078e-005
1.064118e+000,-1.124590e-005,1.392078e-005
1.064912e+000,-1.426719e-005,1.391085e-005
1.065706e+000,-1.560998e-005,1.391246e-005
1.066500e+000,-1.242084e-005,1.391920e-005
1.067294e+000,-1.359579e-005,1.391301e-005
1.068088e+000,-1.258869e-005,1.390126e-005
1.068882e+000,-9.063859e-006,1.388383e-005
1.069676e+000,-1.191730e-005,1.385760e-005
1.070471e+000,-1.007095e-005,1.384088e-005
1.071265e+000,-8.896010e-006,1.381680e-005
1.072059e+000,-1.493858e-005,1.380133e-005
1.072853e+000,-1.258869e-005,1.379392e-005
1.073647e+000,-1.359579e-005,1.378033e-005
1.074441e+000,-1.258869e-005,1.377231e-005
1.075235e+000,-9.567407e-006,1.376709e-005
1.076029e+000,-1.158160e-005,1.375935e-005
1.076824e+000,-1.393149e-005,1.374904e-005
1.077618e+000,-1.628138e-005,1.374567e-005
1.078412e+000,-1.393149e-005,1.375280e-005
1.079206e+000,-1.393149e-005,1.375692e-005
1.080000e+000,-1.712062e-005,1.375238e-005
1.080794e+000,-1.628138e-005,1.376275e-005
1.081588e+000,-1.493858e-005,1.376643e-005
1.082382e+000,-1.510643e-005,1.377487e-005
1.083176e+000,-1.628138e-005,1.378529e-005
1.083971e+000,-1.896696e-005,1.379661e-005
1.084765e+000,-1.896696e-005,1.382351e-005
1.085559e+000,-1.493858e-005,1.384569e-005
1.086353e+000,-1.577783e-005,1.386082e-005
1.087147e+000,-1.712062e-005,1.388447e-005
1.087941e+000,-1.493858e-005,1.390400e-005
1.088735e+000,-1.644922e-005,1.391374e-005
1.089529e+000,-1.359579e-005,1.392355e-005
1.090324e+000,-1.493858e-005,1.393108e-005
1.091118e+000,-1.527428e-005,1.394255e-005
1.091912e+000,-1.426719e-005,1.395387e-005
1.092706e+000,-1.292439e-005,1.395950e-005
1.093500e+000,-1.225299e-005,1.396918e-005
1.094294e+000,-1.091020e-005,1.397585e-005
1.095088e+000,-9.903105e-006,1.397824e-005
1.095882e+000,-1.057450e-005,1.397824e-005
1.096676e+000,-1.091020e-005,1.397742e-005
1.097471e+000,-1.258869e-005,1.397388e-005
1.098265e+000,-1.158160e-005,1.397620e-005
1.099059e+000,-9.903105e-006,1.397708e-005
1.099853e+000,-1.158160e-005,1.395804e-005
1.100647e+000,-1.023880e-005,1.394309e-005
1.101441e+000,-1.091020e-005,1.392841e-005
1.102235e+000,-1.359579e-005,1.390915e-005
1.103029e+000,-1.359579e-005,1.388911e-005
1.103824e+000,-1.493858e-005,1.387735e-005
1.104618e+000,-1.091020e-005,1.387254e-005
1.105412e+000,-9.567407e-006,1.386058e-005
1.106206e+000,-1.359579e-005,1.383806e-005
1.107000e+000,-1.628138e-005,1.382358e-005
1.107794e+000,-1.762417e-005,1.381267e-005
1.108588e+000,-1.661708e-005,1.381792e-005
1.109382e+000,-1.359579e-005,1.382843e-005
1.110176e+000,-1.158160e-005,1.381792e-005
1.110971e+000,-1.191730e-005,1.378096e-005
1.111765e+000,-1.225299e-005,1.374315e-005
1.112559e+000,-1.091020e-005,1.372723e-005
1.113353e+000,-1.158160e-005,1.370499e-005
1.114147e+000,-1.460288e-005,1.366939e-005
1.114941e+000,-1.258869e-005,1.365804e-005
1.115735e+000,-1.510643e-005,1.365278e-005
1.116529e+000,-1.695277e-005,1.365098e-005
1.117324e+000,-1.510643e-005,1.365847e-005
1.118118e+000,-1.426719e-005,1.365906e-005
1.118912e+000,-1.225299e-005,1.365906e-005
1.119706e+000,-1.493858e-005,1.365709e-005
1.120500e+000,-1.829557e-005,1.365937e-005
1.121294e+000,-1.426719e-005,1.366998e-005
1.122088e+000,-1.493858e-005,1.367108e-005
1.122882e+000,-1.393149e-005,1.367660e-005
1.123676e+000,-9.903105e-006,1.367321e-005
1.124471e+000,-1.493858e-005,1.365745e-005
1.125265e+000,-1.560998e-005,1.364725e-005
1.126059e+000,-1.762417e-005,1.364846e-005
1.126853e+000,-1.393149e-005,1.367245e-005
1.127647e+000,-1.292439e-005,1.368119e-005
1.128441e+000,-1.695277e-005,1.369210e-005
1.129235e+000,-1.695277e-005,1.371998e-005
1.130029e+000,-1.829557e-005,1.374413e-005
1.130824e+000,-1.896696e-005,1.377074e-005
1.131618e+000,-1.493858e-005,1.380172e-005
1.132412e+000,-1.359579e-005,1.381690e-005
1.133206e+000,-1.594568e-005,1.382612e-005
1.134000e+000,-1.158160e-005,1.383904e-005
1.134794e+000,-9.567407e-006,1.383720e-005
1.135588e+000,-1.225299e-005,1.383862e-005
1.136382e+000,-1.326009e-005,1.384873e-005
1.137176e+000,-1.225299e-005,1.385353e-005
1.137971e+000,-1.225299e-005,1.386169e-005
1.138765e+000,-1.426719e-005,1.386984e-005
1.139559e+000,-1.426719e-005,1.387403e-005
1.140353e+000,-1.628138e-005,1.387512e-005
1.141147e+000,-1.628138e-005,1.388432e-005
1.141941e+000,-1.023880e-005,1.389352e-005
1.142735e+000,-1.158160e-005,1.387937e-005
1.143529e+000,-1.292439e-005,1.386916e-005
1.144324e+000,-1.225299e-005,1.385533e-005
1.145118e+000,-1.326009e-005,1.383550e-005
1.145912e+000,-1.225299e-005,1.382265e-005
1.146706e+000,-1.191730e-005,1.381187e-005
1.147500e+000,-1.628138e-005,1.378964e-005
1.148294e+000,-1.661708e-005,1.377870e-005
1.149088e+000,-1.359579e-005,1.378925e-005
1.149882e+000,-1.258869e-005,1.378245e-005
1.150676e+000,-1.124590e-005,1.377498e-005
1.151471e+000,-1.091020e-005,1.377318e-005
1.152265e+000,-1.292439e-005,1.377880e-005
1.153059e+000,-1.091020e-005,1.378169e-005
1.153853e+000,-1.023880e-005,1.377809e-005
1.154647e+000,-1.091020e-005,1.377380e-005
1.155441e+000,-9.903105e-006,1.376402e-005
1.156235e+000,-1.023880e-005,1.376160e-005
1.157029e+000,-1.158160e-005,1.376160e-005
1.157824e+000,-1.258869e-005,1.375975e-005
1.158618e+000,-1.359579e-005,1.375875e-005
1.159412e+000,-1.393149e-005,1.376181e-005
1.160206e+000,-1.493858e-005,1.376493e-005
1.161000e+000,-1.326009e-005,1.376256e-005
1.161794e+000,-1.158160e-005,1.375708e-005
1.162588e+000,-1.124590e-005,1.375708e-005
1.163382e+000,-1.091020e-005,1.376221e-005
1.164176e+000,-1.225299e-005,1.375813e-005
1.164971e+000,-1.225299e-005,1.375813e-005
1.165765e+000,-8.560311e-006,1.375305e-005
1.166559e+000,-1.326009e-005,1.373451e-005
1.167353e+000,-1.376364e-005,1.372415e-005
1.168147e+000,-1.225299e-005,1.372252e-005
1.168941e+000,-1.493858e-005,1.372392e-005
1.169735e+000,-1.560998e-005,1.372783e-005
1.170529e+000,-1.913481e-005,1.373868e-005
1.171324e+000,-1.846342e-005,1.375751e-005
1.172118e+000,-1.930266e-005,1.376815e-005
1.172912e+000,-1.795987e-005,1.378768e-005
1.173706e+000,-1.762417e-005,1.379174e-005
1.174500e+000,-1.594568e-005,1.379442e-005
1.175294e+000,-1.493858e-005,1.379801e-005
1.176088e+000,-1.577783e-005,1.380137e-005
1.176882e+000,-1.292439e-005,1.380980e-005
1.177676e+000,-1.527428e-005,1.380503e-005
1.178471e+000,-1.560998e-005,1.380956e-005
1.179265e+000,-1.695277e-005,1.381839e-005
1.180059e+000,-1.577783e-005,1.383020e-005
1.180853e+000,-1.124590e-005,1.383652e-005
1.181647e+000,-9.567407e-006,1.382538e-005
1.182441e+000,-1.158160e-005,1.380281e-005
1.183235e+000,-1.158160e-005,1.378243e-005
1.184029e+000,-1.258869e-005,1.377813e-005
1.184824e+000,-1.493858e-005,1.377714e-005
1.185618e+000,-1.527428e-005,1.377714e-005
1.186412e+000,-1.628138e-005,1.378859e-005
1.187206e+000,-1.393149e-005,1.379570e-005
1.188000e+000,-1.057450e-005,1.379234e-005
1.188794e+000,-1.225299e-005,1.378175e-005
1.189588e+000,-1.326009e-005,1.378175e-005
1.190382e+000,-1.225299e-005,1.377628e-005
1.191176e+000,-1.225299e-005,1.376171e-005
1.191971e+000,-1.225299e-005,1.374313e-005
1.192765e+000,-1.292439e-005,1.373349e-005
1.193559e+000,-1.527428e-005,1.373142e-005
1.194353e+000,-1.493858e-005,1.373487e-005
1.195147e+000,-1.628138e-005,1.374036e-005
1.195941e+000,-1.493858e-005,1.376189e-005
1.196735e+000,-1.258869e-005,1.377711e-005
1.197529e+000,-1.292439e-005,1.376963e-005
1.198324e+000,-1.292439e-005,1.375438e-005
1.199118e+000,-1.359579e-005,1.375124e-005
1.199912e+000,-1.393149e-005,1.375712e-005
1.200706e+000,-1.661708e-005,1.376898e-005
1.201500e+000,-1.795987e-005,1.378671e-005
1.202294e+000,-1.695277e-005,1.380466e-005
1.203088e+000,-1.695277e-005,1.382048e-005
1.203882e+000,-1.393149e-005,1.383434e-005
1.204676e+000,-1.393149e-005,1.383325e-005
1.205471e+000,-1.292439e-005,1.383432e-005
1.206265e+000,-1.426719e-005,1.383331e-005
1.207059e+000,-1.191730e-005,1.383945e-005
1.207853e+000,-1.376364e-005,1.383658e-005
1.208647e+000,-1.443504e-005,1.383710e-005
1.209441e+000,-1.493858e-005,1.384186e-005
1.210235e+000,-1.359579e-005,1.385383e-005
1.211029e+000,-1.023880e-005,1.386455e-005
1.211824e+000,-1.091020e-005,1.386292e-005
1.212618e+000,-1.091020e-005,1.385741e-005
1.213412e+000,-1.091020e-005,1.384878e-005
1.214206e+000,-1.359579e-005,1.385002e-005
1.215000e+000,-1.628138e-005,1.385494e-005
1.215794e+000,-1.527428e-005,1.386416e-005
1.216588e+000,-1.426719e-005,1.386236e-005
1.217382e+000,-1.460288e-005,1.385273e-005
1.218176e+000,-1.762417e-005,1.384677e-005
1.218971e+000,-1.544213e-005,1.386016e-005
1.219765e+000,-1.628138e-005,1.386192e-005
1.220559e+000,-1.628138e-005,1.387113e-005
1.221353e+000,-1.594568e-005,1.388238e-005
1.222147e+000,-1.393149e-005,1.389432e-005
1.222941e+000,-1.107805e-005,1.389692e-005
1.223735e+000,-9.735256e-006,1.388060e-005
1.224529e+000,-1.091020e-005,1.385233e-005
1.225324e+000,-9.063859e-006,1.383553e-005
1.226118e+000,-1.258869e-005,1.381319e-005
1.226912e+000,-1.158160e-005,1.381220e-005
1.227706e+000,-1.225299e-005,1.380841e-005
1.228500e+000,-1.560998e-005,1.380841e-005
1.229294e+000,-1.174945e-005,1.381919e-005
1.230088e+000,-1.158160e-005,1.381380e-005
1.230882e+000,-1.393149e-005,1.381871e-005
1.231676e+000,-1.493858e-005,1.382735e-005
1.232471e+000,-1.225299e-005,1.382961e-005
1.233265e+000,-1.326009e-005,1.382003e-005
1.234059e+000,-1.628138e-005,1.381847e-005
1.234853e+000,-1.426719e-005,1.382093e-005
1.235647e+000,-1.359579e-005,1.381867e-005
1.236441e+000,-1.426719e-005,1.382789e-005
1.237235e+000,-1.393149e-005,1.383885e-005
1.238029e+000,-1.460288e-005,1.384146e-005
1.238824e+000,-1.359579e-005,1.384872e-005
1.239618e+000,-1.158160e-005,1.384872e-005
1.240412e+000,-9.567407e-006,1.384872e-005
1.241206e+000,-8.896010e-006,1.384556e-005
1.242000e+000,-8.896010e-006,1.383833e-005
1.242794e+000,-1.091020e-005,1.382400e-005
1.243588e+000,-1.107805e-005,1.381642e-005
1.244382e+000,-1.493858e-005,1.381131e-005
1.245176e+000,-1.628138e-005,1.381014e-005
1.245971e+000,-1.292439e-005,1.381139e-005
1.246765e+000,-1.091020e-005,1.381139e-005
1.247559e+000,-1.174945e-005,1.380380e-005
1.248353e+000,-1.393149e-005,1.379733e-005
1.249147e+000,-1.225299e-005,1.380144e-005
1.249941e+000,-1.091020e-005,1.379949e-005
1.250735e+000,-1.577783e-005,1.379775e-005
1.251529e+000,-1.258869e-005,1.381437e-005
1.252324e+000,-1.493858e-005,1.381892e-005
1.253118e+000,-1.829557e-005,1.382962e-005
1.253912e+000,-1.695277e-005,1.385684e-005
1.254706e+000,-1.762417e-005,1.386592e-005
1.255500e+000,-1.560998e-005,1.387596e-005
1.256294e+000,-1.393149e-005,1.388271e-005
1.257088e+000,-1.762417e-005,1.387821e-005
1.257882e+000,-1.628138e-005,1.388824e-005
1.258676e+000,-1.359579e-005,1.389304e-005
1.259471e+000,-1.628138e-005,1.388384e-005
1.260265e+000,-1.795987e-005,1.388129e-005
1.261059e+000,-1.762417e-005,1.388912e-005
1.261853e+000,-1.695277e-005,1.389619e-005
1.262647e+000,-1.493858e-005,1.390354e-005
1.263441e+000,-1.527428e-005,1.391374e-005
1.264235e+000,-1.426719e-005,1.392843e-005
1.265029e+000,-1.359579e-005,1.393637e-005
1.265824e+000,-1.560998e-005,1.394033e-005
1.266618e+000,-1.560998e-005,1.394491e-005
1.267412e+000,-1.594568e-005,1.395829e-005
1.268206e+000,-1.493858e-005,1.396515e-005
1.269000e+000,-1.493858e-005,1.396952e-005
1.269794e+000,-1.258869e-005,1.397784e-005
1.270588e+000,-1.225299e-005,1.397270e-005
1.271382e+000,-1.057450e-005,1.395574e-005
1.272176e+000,-1.124590e-005,1.393698e-005
1.272971e+000,-1.107805e-005,1.392535e-005
1.273765e+000,-9.567407e-006,1.391825e-005
1.274559e+000,-1.292439e-005,1.390961e-005
1.275353e+000,-1.359579e-005,1.390757e-005
1.276147e+000,-1.527428e-005,1.390860e-005
1.276941e+000,-1.829557e-005,1.391717e-005
1.277735e+000,-1.628138e-005,1.392935e-005
1.278529e+000,-1.762417e-005,1.394055e-005
1.279324e+000,-1.225299e-005,1.395594e-005
1.280118e+000,-1.225299e-005,1.394156e-005
1.280912e+000,-1.225299e-005,1.393321e-005
1.281706e+000,-1.091020e-005,1.392872e-005
1.282500e+000,-9.903105e-006,1.391565e-005
1.283294e+000,-1.191730e-005,1.389063e-005
1.284088e+000,-1.124590e-005,1.387651e-005
1.284882e+000,-1.091020e-005,1.385537e-005
1.285676e+000,-1.091020e-005,1.383333e-005
1.286471e+000,-1.091020e-005,1.382730e-005
1.287265e+000,-1.023880e-005,1.381414e-005
1.288059e+000,-1.158160e-005,1.379812e-005
1.288853e+000,-1.242084e-005,1.379812e-005
1.289647e+000,-1.393149e-005,1.380219e-005
1.290441e+000,-1.258869e-005,1.380910e-005
1.291235e+000,-1.359579e-005,1.380959e-005
1.292029e+000,-1.124590e-005,1.381164e-005
1.292824e+000,-1.174945e-005,1.379812e-005
1.293618e+000,-9.903105e-006,1.379056e-005
1.294412e+000,-1.091020e-005,1.377782e-005
1.295206e+000,-1.124590e-005,1.376461e-005
1.296000e+000,-1.426719e-005,1.375785e-005
1.296794e+000,-1.258869e-005,1.376307e-005
1.297588e+000,-1.393149e-005,1.376763e-005
1.298382e+000,-1.762417e-005,1.377025e-005
1.299176e+000,-1.695277e-005,1.378263e-005
1.299971e+000,-1.628138e-005,1.379005e-005
1.300765e+000,-1.560998e-005,1.379252e-005
1.301559e+000,-1.527428e-005,1.379252e-005
1.302353e+000,-1.628138e-005,1.379811e-005
1.303147e+000,-1.493858e-005,1.381496e-005
1.303941e+000,-1.493858e-005,1.381722e-005
1.304735e+000,-1.376364e-005,1.382747e-005
1.305529e+000,-1.728847e-005,1.383799e-005
1.306324e+000,-1.644922e-005,1.385867e-005
1.307118e+000,-1.493858e-005,1.386956e-005
1.307912e+000,-1.628138e-005,1.387794e-005
1.308706e+000,-1.628138e-005,1.389383e-005
1.309500e+000,-1.661708e-005,1.390088e-005
1.310294e+000,-1.896696e-005,1.390695e-005
1.311088e+000,-1.359579e-005,1.393093e-005
1.311882e+000,-9.063859e-006,1.392879e-005
1.312676e+000,-1.158160e-005,1.390786e-005
1.313471e+000,-1.191730e-005,1.390205e-005
1.314265e+000,-1.359579e-005,1.390383e-005
1.315059e+000,-1.560998e-005,1.390169e-005
1.315853e+000,-1.309224e-005,1.390169e-005
1.316647e+000,-1.359579e-005,1.390365e-005
1.317441e+000,-1.359579e-005,1.390365e-005
1.318235e+000,-9.567407e-006,1.390667e-005
1.319029e+000,-1.040665e-005,1.390775e-005
1.319824e+000,-1.309224e-005,1.390389e-005
1.320618e+000,-1.443504e-005,1.391190e-005
1.321412e+000,-1.393149e-005,1.392668e-005
1.322206e+000,-1.158160e-005,1.392336e-005
1.323000e+000,-1.258869e-005,1.392057e-005
1.323794e+000,-1.258869e-005,1.391756e-005
1.324588e+000,-1.527428e-005,1.391756e-005
1.325382e+000,-1.493858e-005,1.393377e-005
1.326176e+000,-1.426719e-005,1.394394e-005
1.326971e+000,-1.443504e-005,1.394502e-005
1.327765e+000,-1.409934e-005,1.393854e-005
1.328559e+000,-1.426719e-005,1.393908e-005
1.329353e+000,-1.829557e-005,1.394016e-005
1.330147e+000,-1.292439e-005,1.394491e-005
1.330941e+000,-1.326009e-005,1.393371e-005
1.331735e+000,-1.292439e-005,1.392830e-005
1.332529e+000,-1.091020e-005,1.392131e-005
1.333324e+000,-1.124590e-005,1.390459e-005
1.334118e+000,-7.553216e-006,1.387785e-005
1.334912e+000,-8.896010e-006,1.384308e-005
1.335706e+000,-1.158160e-005,1.382650e-005
1.336500e+000,-1.225299e-005,1.381327e-005
1.337294e+000,-1.426719e-005,1.379678e-005
1.338088e+000,-1.359579e-005,1.379452e-005
1.338882e+000,-1.628138e-005,1.378462e-005
1.339676e+000,-1.493858e-005,1.379388e-005
1.340471e+000,-1.292439e-005,1.379388e-005
1.341265e+000,-1.493858e-005,1.378623e-005
1.342059e+000,-1.695277e-005,1.378849e-005
1.342853e+000,-1.510643e-005,1.380239e-005
1.343647e+000,-1.527428e-005,1.381139e-005
1.344441e+000,-1.527428e-005,1.382456e-005
1.345235e+000,-1.628138e-005,1.384013e-005
1.346029e+000,-1.829557e-005,1.385775e-005
1.346824e+000,-1.695277e-005,1.388251e-005
1.347618e+000,-1.628138e-005,1.389729e-005
1.348412e+000,-1.460288e-005,1.391229e-005
1.349206e+000,-1.359579e-005,1.392546e-005
1.350000e+000,-1.023880e-005,1.393126e-005
1.350794e+000,-6.210422e-006,1.393126e-005
1.351588e+000,-6.210422e-006,1.392206e-005
1.352382e+000,-1.258869e-005,1.390532e-005
1.353176e+000,-1.225299e-005,1.390230e-005
1.353971e+000,-1.057450e-005,1.389393e-005
1.354765e+000,-1.225299e-005,1.389311e-005
1.355559e+000,-1.393149e-005,1.389982e-005
1.356353e+000,-1.426719e-005,1.390088e-005
1.357147e+000,-1.292439e-005,1.389383e-005
1.357941e+000,-1.225299e-005,1.387737e-005
1.358735e+000,-1.426719e-005,1.386290e-005
1.359529e+000,-1.426719e-005,1.386505e-005
1.360324e+000,-1.443504e-005,1.387302e-005
1.361118e+000,-1.493858e-005,1.388063e-005
1.361912e+000,-1.426719e-005,1.388901e-005
1.362706e+000,-1.426719e-005,1.389870e-005
1.363500e+000,-1.225299e-005,1.390665e-005
1.364294e+000,-9.903105e-006,1.389942e-005
1.365088e+000,-9.567407e-006,1.389250e-005
1.365882e+000,-1.493858e-005,1.387682e-005
1.366676e+000,-1.628138e-005,1.386945e-005
1.367471e+000,-1.493858e-005,1.387368e-005
1.368265e+000,-1.359579e-005,1.387593e-005
1.369059e+000,-1.225299e-005,1.387992e-005
1.369853e+000,-1.527428e-005,1.387154e-005
1.370647e+000,-1.628138e-005,1.385989e-005
1.371441e+000,-1.695277e-005,1.386696e-005
1.372235e+000,-1.628138e-005,1.387433e-005
1.373029e+000,-1.594568e-005,1.388248e-005
1.373824e+000,-1.527428e-005,1.390038e-005
1.374618e+000,-1.661708e-005,1.390154e-005
1.375412e+000,-1.493858e-005,1.390526e-005
1.376206e+000,-1.594568e-005,1.389524e-005
1.377000e+000,-1.393149e-005,1.390214e-005
1.377794e+000,-1.493858e-005,1.390523e-005
1.378588e+000,-1.359579e-005,1.389787e-005
1.379382e+000,-1.023880e-005,1.388612e-005
1.380176e+000,-1.292439e-005,1.385973e-005
1.380971e+000,-1.393149e-005,1.383757e-005
1.381765e+000,-1.359579e-005,1.383423e-005
1.382559e+000,-1.292439e-005,1.383423e-005
1.383353e+000,-1.393149e-005,1.382418e-005
1.384147e+000,-1.225299e-005,1.383109e-005
1.384941e+000,-1.091020e-005,1.383783e-005
1.385735e+000,-1.359579e-005,1.383425e-005
1.386529e+000,-1.460288e-005,1.383529e-005
1.387324e+000,-1.292439e-005,1.384255e-005
1.388118e+000,-1.225299e-005,1.384450e-005
1.388912e+000,-1.393149e-005,1.383835e-005
1.389706e+000,-1.762417e-005,1.383726e-005
1.390500e+000,-1.560998e-005,1.384250e-005
1.391294e+000,-1.158160e-005,1.384004e-005
1.392088e+000,-1.376364e-005,1.384341e-005
1.392882e+000,-1.560998e-005,1.384977e-005
1.393676e+000,-1.225299e-005,1.385858e-005
1.394471e+000,-1.124590e-005,1.385858e-005
1.395265e+000,-1.124590e-005,1.385290e-005
1.396059e+000,-1.057450e-005,1.385018e-005
1.396853e+000,-1.359579e-005,1.384671e-005
1.397647e+000,-1.493858e-005,1.383748e-005
1.398441e+000,-1.493858e-005,1.383138e-005
1.399235e+000,-1.560998e-005,1.383580e-005
1.400029e+000,-1.426719e-005,1.384560e-005
1.400824e+000,-1.359579e-005,1.385446e-005
1.401618e+000,-1.493858e-005,1.386202e-005
1.402412e+000,-1.443504e-005,1.386847e-005
1.403206e+000,-1.695277e-005,1.387872e-005
1.404000e+000,-1.510643e-005,1.389965e-005
1.404794e+000,-1.560998e-005,1.391215e-005
1.405588e+000,-1.460288e-005,1.392881e-005
1.406382e+000,-1.460288e-005,1.394119e-005
1.407176e+000,-1.393149e-005,1.395023e-005
1.407971e+000,-1.124590e-005,1.395429e-005
1.408765e+000,-7.553216e-006,1.394763e-005
1.409559e+000,-6.881819e-006,1.393198e-005
1.410353e+000,-8.224612e-006,1.391187e-005
1.411147e+000,-9.903105e-006,1.389948e-005
1.411941e+000,-1.258869e-005,1.389535e-005
1.412735e+000,-1.393149e-005,1.389901e-005
1.413529e+000,-1.829557e-005,1.390761e-005
1.414324e+000,-1.661708e-005,1.392873e-005
1.415118e+000,-1.762417e-005,1.394312e-005
1.415912e+000,-1.695277e-005,1.397020e-005
1.416706e+000,-1.728847e-005,1.398291e-005
1.417500e+000,-1.594568e-005,1.399537e-005
1.418294e+000,-1.359579e-005,1.400722e-005
1.419088e+000,-1.493858e-005,1.400286e-005
1.419882e+000,-1.544213e-005,1.400053e-005
1.420676e+000,-1.258869e-005,1.398600e-005
1.421471e+000,-1.493858e-005,1.396521e-005
1.422265e+000,-1.225299e-005,1.394816e-005
1.423059e+000,-1.158160e-005,1.392846e-005
1.423853e+000,-1.107805e-005,1.390827e-005
1.424647e+000,-1.292439e-005,1.389321e-005
1.425441e+000,-1.661708e-005,1.388677e-005
1.426235e+000,-1.829557e-005,1.388989e-005
1.427029e+000,-1.560998e-005,1.390910e-005
1.427824e+000,-1.460288e-005,1.391029e-005
1.428618e+000,-1.628138e-005,1.390680e-005
1.429412e+000,-1.527428e-005,1.390425e-005
1.430206e+000,-1.359579e-005,1.390246e-005
1.431000e+000,-1.359579e-005,1.390914e-005
1.431794e+000,-1.158160e-005,1.391982e-005
1.432588e+000,-1.158160e-005,1.391982e-005
1.433382e+000,-1.225299e-005,1.391982e-005
1.434176e+000,-1.158160e-005,1.391887e-005
1.434971e+000,-1.426719e-005,1.390868e-005
1.435765e+000,-1.376364e-005,1.390527e-005
1.436559e+000,-1.225299e-005,1.389661e-005
1.437353e+000,-1.225299e-005,1.389157e-005
1.438147e+000,-1.124590e-005,1.389596e-005
1.438941e+000,-1.158160e-005,1.389325e-005
1.439735e+000,-1.258869e-005,1.388847e-005
1.440529e+000,-1.359579e-005,1.388942e-005
1.441324e+000,-1.359579e-005,1.389340e-005
1.442118e+000,-1.124590e-005,1.389738e-005
1.442912e+000,-1.124590e-005,1.389273e-005
1.443706e+000,-1.107805e-005,1.388048e-005
1.444500e+000,-9.735256e-006,1.386895e-005
1.445294e+000,-1.158160e-005,1.384939e-005
1.446088e+000,-1.426719e-005,1.383915e-005
1.446882e+000,-1.124590e-005,1.384433e-005
1.447676e+000,-1.359579e-005,1.383967e-005
1.448471e+000,-1.460288e-005,1.384171e-005
1.449265e+000,-1.426719e-005,1.384498e-005
1.450059e+000,-1.628138e-005,1.384607e-005
1.450853e+000,-1.359579e-005,1.384480e-005
1.451647e+000,-1.292439e-005,1.382895e-005
1.452441e+000,-1.527428e-005,1.381509e-005
1.453235e+000,-1.510643e-005,1.380885e-005
1.454029e+000,-1.359579e-005,1.381278e-005
1.454824e+000,-1.158160e-005,1.381172e-005
1.455618e+000,-1.292439e-005,1.380792e-005
1.456412e+000,-1.091020e-005,1.380371e-005
1.457206e+000,-1.023880e-005,1.380106e-005
1.458000e+000,-8.224612e-006,1.379129e-005
1.458794e+000,-1.258869e-005,1.377504e-005
1.459588e+000,-1.460288e-005,1.376756e-005
1.460382e+000,-1.292439e-005,1.377084e-005
1.461176e+000,-1.560998e-005,1.377803e-005
1.461971e+000,-1.695277e-005,1.379243e-005
1.462765e+000,-1.426719e-005,1.381185e-005
1.463559e+000,-1.292439e-005,1.382159e-005
1.464353e+000,-1.359579e-005,1.381954e-005
1.465147e+000,-1.594568e-005,1.381029e-005
1.465941e+000,-1.426719e-005,1.381271e-005
1.466735e+000,-1.359579e-005,1.381271e-005
1.467529e+000,-1.695277e-005,1.380944e-005
1.468324e+000,-1.863127e-005,1.380676e-005
1.469118e+000,-1.560998e-005,1.381929e-005
1.469912e+000,-1.460288e-005,1.381682e-005
1.470706e+000,-1.426719e-005,1.381084e-005
1.471500e+000,-1.510643e-005,1.380500e-005
1.472294e+000,-1.560998e-005,1.380893e-005
1.473088e+000,-1.560998e-005,1.382287e-005
1.473882e+000,-1.628138e-005,1.384001e-005
1.474676e+000,-1.560998e-005,1.385681e-005
1.475471e+000,-1.393149e-005,1.387535e-005
1.476265e+000,-1.124590e-005,1.387944e-005
1.477059e+000,-1.225299e-005,1.387856e-005
1.477853e+000,-1.376364e-005,1.387856e-005
1.478647e+000,-1.426719e-005,1.387234e-005
1.479441e+000,-1.393149e-005,1.387986e-005
1.480235e+000,-1.393149e-005,1.388673e-005
1.481029e+000,-1.225299e-005,1.388673e-005
1.481824e+000,-1.158160e-005,1.387836e-005
1.482618e+000,-1.309224e-005,1.387652e-005
1.483412e+000,-1.309224e-005,1.387601e-005
1.484206e+000,-1.527428e-005,1.386526e-005
1.485000e+000,-1.560998e-005,1.386867e-005
1.485794e+000,-1.292439e-005,1.387543e-005
1.486588e+000,-1.258869e-005,1.387124e-005
1.487382e+000,-1.091020e-005,1.386715e-005
1.488176e+000,-1.309224e-005,1.385632e-005
1.488971e+000,-1.225299e-005,1.385478e-005
1.489765e+000,-1.040665e-005,1.385662e-005
1.490559e+000,-1.225299e-005,1.385855e-005
1.491353e+000,-1.426719e-005,1.386670e-005
1.492147e+000,-1.527428e-005,1.388098e-005
1.492941e+000,-1.292439e-005,1.389408e-005
1.493735e+000,-1.292439e-005,1.389916e-005
1.494529e+000,-1.594568e-005,1.389273e-005
1.495324e+000,-1.628138e-005,1.389149e-005
1.496118e+000,-1.560998e-005,1.390272e-005
1.496912e+000,-1.560998e-005,1.391699e-005
1.497706e+000,-1.560998e-005,1.392907e-005
1.498500e+000,-1.359579e-005,1.393474e-005
1.499294e+000,-1.460288e-005,1.393870e-005
1.500088e+000,-1.376364e-005,1.394946e-005
1.500882e+000,-1.393149e-005,1.394267e-005
1.501676e+000,-1.795987e-005,1.394673e-005
1.502471e+000,-1.628138e-005,1.395808e-005
1.503265e+000,-1.460288e-005,1.395013e-005
1.504059e+000,-1.628138e-005,1.394166e-005
1.504853e+000,-1.628138e-005,1.393646e-005
1.505647e+000,-1.376364e-005,1.393891e-005
1.506441e+000,-1.393149e-005,1.393838e-005
1.507235e+000,-1.493858e-005,1.392506e-005
1.508029e+000,-1.577783e-005,1.392026e-005
1.508824e+000,-9.735256e-006,1.392760e-005
1.509618e+000,-1.023880e-005,1.390811e-005
1.510412e+000,-9.903105e-006,1.388316e-005
1.511206e+000,-9.231709e-006,1.385876e-005
1.512000e+000,-7.553216e-006,1.383551e-005
1.512794e+000,-5.539025e-006,1.381638e-005
1.513588e+000,-7.217518e-006,1.379301e-005
1.514382e+000,-7.553216e-006,1.377551e-005
1.515176e+000,-7.553216e-006,1.376073e-005
1.515971e+000,-8.224612e-006,1.373912e-005
1.516765e+000,-1.023880e-005,1.371870e-005
1.517559e+000,-1.091020e-005,1.370135e-005
1.518353e+000,-1.023880e-005,1.368924e-005
1.519147e+000,-8.224612e-006,1.367547e-005
1.519941e+000,-6.210422e-006,1.366489e-005
1.520735e+000,-1.225299e-005,1.365188e-005
1.521529e+000,-9.903105e-006,1.365635e-005
1.522324e+000,-9.567407e-006,1.365304e-005
1.523118e+000,-1.091020e-005,1.364940e-005
1.523912e+000,-1.225299e-005,1.365261e-005
1.524706e+000,-1.493858e-005,1.365064e-005
1.525500e+000,-1.695277e-005,1.365510e-005
1.526294e+000,-2.165255e-005,1.366141e-005
1.527088e+000,-1.930266e-005,1.367703e-005
1.527882e+000,-1.560998e-005,1.368954e-005
1.528676e+000,-2.198825e-005,1.368176e-005
1.529471e+000,-2.030976e-005,1.372050e-005
1.530265e+000,-1.762417e-005,1.375091e-005
1.531059e+000,-1.829557e-005,1.376948e-005
1.531853e+000,-1.963836e-005,1.379440e-005
1.532647e+000,-2.198825e-005,1.382756e-005
1.533441e+000,-2.232395e-005,1.386683e-005
1.534235e+000,-2.265965e-005,1.390947e-005
1.535029e+000,-2.165255e-005,1.395455e-005
1.535824e+000,-2.047761e-005,1.399441e-005
1.536618e+000,-2.333104e-005,1.402854e-005
1.537412e+000,-2.030976e-005,1.407833e-005
1.538206e+000,-1.560998e-005,1.410978e-005
1.539000e+000,-1.326009e-005,1.411987e-005
1.539794e+000,-1.326009e-005,1.411781e-005
1.540588e+000,-1.158160e-005,1.411977e-005
1.541382e+000,-1.191730e-005,1.411405e-005
1.542176e+000,-1.460288e-005,1.411580e-005
1.542971e+000,-1.393149e-005,1.412428e-005
1.543765e+000,-1.292439e-005,1.413510e-005
1.544559e+000,-1.426719e-005,1.414051e-005
1.545353e+000,-1.493858e-005,1.414919e-005
1.546147e+000,-1.577783e-005,1.415139e-005
1.546941e+000,-1.393149e-005,1.416157e-005
1.547735e+000,-8.896010e-006,1.416157e-005
1.548529e+000,-1.174945e-005,1.413552e-005
1.549324e+000,-1.359579e-005,1.411868e-005
1.550118e+000,-1.326009e-005,1.410963e-005
1.550912e+000,-1.091020e-005,1.410197e-005
1.551706e+000,-1.023880e-005,1.408906e-005
1.552500e+000,-1.091020e-005,1.407094e-005
1.553294e+000,-1.091020e-005,1.405915e-005
1.554088e+000,-1.174945e-005,1.404735e-005
1.554882e+000,-1.124590e-005,1.404153e-005
1.555676e+000,-1.023880e-005,1.402196e-005
1.556471e+000,-1.158160e-005,1.400312e-005
1.557265e+000,-1.225299e-005,1.399300e-005
1.558059e+000,-1.091020e-005,1.397991e-005
1.558853e+000,-1.225299e-005,1.396326e-005
1.559647e+000,-9.567407e-006,1.394889e-005
1.560441e+000,-1.057450e-005,1.391824e-005
1.561235e+000,-1.091020e-005,1.390988e-005
1.562029e+000,-6.881819e-006,1.391410e-005
1.562824e+000,-8.896010e-006,1.390417e-005
1.563618e+000,-8.896010e-006,1.389696e-005
1.564412e+000,-1.107805e-005,1.388485e-005
1.565206e+000,-1.158160e-005,1.387097e-005
1.566000e+000,-1.158160e-005,1.386669e-005
1.566794e+000,-1.242084e-005,1.386086e-005
1.567588e+000,-1.158160e-005,1.385735e-005
1.568382e+000,-1.493858e-005,1.386225e-005
1.569176e+000,-1.292439e-005,1.387543e-005
1.569971e+000,-1.326009e-005,1.387493e-005
1.570765e+000,-1.359579e-005,1.387120e-005
1.571559e+000,-1.158160e-005,1.387014e-005
1.572353e+000,-1.628138e-005,1.387014e-005
1.573147e+000,-1.695277e-005,1.388237e-005
1.573941e+000,-1.560998e-005,1.389715e-005
1.574735e+000,-1.292439e-005,1.389834e-005
1.575529e+000,-1.292439e-005,1.389191e-005
1.576324e+000,-1.091020e-005,1.388772e-005
1.577118e+000,-1.107805e-005,1.387747e-005
1.577912e+000,-1.493858e-005,1.386874e-005
1.578706e+000,-1.661708e-005,1.387099e-005
1.579500e+000,-1.359579e-005,1.386427e-005
1.580294e+000,-1.258869e-005,1.386631e-005
1.581088e+000,-1.359579e-005,1.386432e-005
1.581882e+000,-1.426719e-005,1.386636e-005
1.582676e+000,-1.309224e-005,1.387607e-005
1.583471e+000,-1.292439e-005,1.388122e-005
1.584265e+000,-1.225299e-005,1.389383e-005
1.585059e+000,-1.124590e-005,1.390197e-005
1.585853e+000,-1.460288e-005,1.390109e-005
1.586647e+000,-1.359579e-005,1.390832e-005
1.587441e+000,-1.258869e-005,1.390618e-005
1.588235e+000,-1.292439e-005,1.390316e-005
1.589029e+000,-1.158160e-005,1.389192e-005
1.589824e+000,-1.158160e-005,1.388171e-005
1.590618e+000,-1.174945e-005,1.387794e-005
1.591412e+000,-1.225299e-005,1.386817e-005
1.592206e+000,-1.225299e-005,1.385240e-005
1.593000e+000,-1.326009e-005,1.384342e-005
1.593794e+000,-1.292439e-005,1.383681e-005
1.594588e+000,-1.527428e-005,1.382918e-005
1.595382e+000,-1.493858e-005,1.382552e-005
1.596176e+000,-1.191730e-005,1.381267e-005
1.596971e+000,-1.493858e-005,1.379590e-005
1.597765e+000,-1.661708e-005,1.379106e-005
1.598559e+000,-1.762417e-005,1.379832e-005
1.599353e+000,-1.863127e-005,1.381282e-005
1.600147e+000,-1.762417e-005,1.384073e-005
1.600941e+000,-1.644922e-005,1.387199e-005
1.601735e+000,-1.728847e-005,1.389860e-005
1.602529e+000,-1.493858e-005,1.391467e-005
1.603324e+000,-1.527428e-005,1.392303e-005
1.604118e+000,-1.460288e-005,1.393691e-005
1.604912e+000,-1.393149e-005,1.394412e-005
1.605706e+000,-1.577783e-005,1.394412e-005
1.606500e+000,-1.393149e-005,1.394930e-005
1.607294e+000,-1.258869e-005,1.395239e-005
1.608088e+000,-1.560998e-005,1.395334e-005
1.608882e+000,-1.896696e-005,1.395792e-005
1.609676e+000,-1.829557e-005,1.397573e-005
1.610471e+000,-1.930266e-005,1.399012e-005
1.611265e+000,-2.030976e-005,1.400712e-005
1.612059e+000,-1.795987e-005,1.403085e-005
1.612853e+000,-1.695277e-005,1.404435e-005
1.613647e+000,-1.158160e-005,1.405990e-005
1.614441e+000,-9.567407e-006,1.406398e-005
1.615235e+000,-8.224612e-006,1.406398e-005
1.616029e+000,-1.191730e-005,1.404637e-005
1.616824e+000,-1.393149e-005,1.403241e-005
1.617618e+000,-1.393149e-005,1.402911e-005
1.618412e+000,-1.124590e-005,1.403016e-005
1.619206e+000,-8.896010e-006,1.402747e-005
1.620000e+000,-8.896010e-006,1.400996e-005
1.620794e+000,-1.091020e-005,1.398881e-005
1.621588e+000,-9.567407e-006,1.396963e-005
1.622382e+000,-8.896010e-006,1.394984e-005
1.623176e+000,-9.567407e-006,1.392983e-005
1.623971e+000,-8.224612e-006,1.391361e-005
1.624765e+000,-1.359579e-005,1.388973e-005
1.625559e+000,-1.628138e-005,1.388534e-005
1.626353e+000,-1.628138e-005,1.388658e-005
1.627147e+000,-1.695277e-005,1.389472e-005
1.627941e+000,-1.896696e-005,1.390208e-005
1.628735e+000,-1.795987e-005,1.392210e-005
1.629529e+000,-1.628138e-005,1.394698e-005
1.630324e+000,-1.359579e-005,1.395817e-005
1.631118e+000,-1.510643e-005,1.395711e-005
1.631912e+000,-1.560998e-005,1.396206e-005
1.632706e+000,-1.443504e-005,1.397080e-005
1.633500e+000,-1.326009e-005,1.397243e-005
1.634294e+000,-1.258869e-005,1.397535e-005
1.635088e+000,-8.560311e-006,1.397985e-005
1.635882e+000,-1.091020e-005,1.396713e-005
1.636676e+000,-1.359579e-005,1.395639e-005
1.637471e+000,-1.661708e-005,1.395842e-005
1.638265e+000,-1.326009e-005,1.397278e-005
1.639059e+000,-1.426719e-005,1.397070e-005
1.639853e+000,-1.124590e-005,1.395850e-005
1.640647e+000,-1.191730e-005,1.394512e-005
1.641441e+000,-1.376364e-005,1.394602e-005
1.642235e+000,-1.594568e-005,1.394602e-005
1.643029e+000,-1.896696e-005,1.394723e-005
1.643824e+000,-1.695277e-005,1.397114e-005
1.644618e+000,-1.997406e-005,1.398947e-005
1.645412e+000,-2.064546e-005,1.402045e-005
1.646206e+000,-1.762417e-005,1.405612e-005
1.647000e+000,-1.560998e-005,1.407036e-005
1.647794e+000,-1.158160e-005,1.407268e-005
1.648588e+000,-1.091020e-005,1.406260e-005
1.649382e+000,-1.023880e-005,1.404848e-005
1.650176e+000,-8.896010e-006,1.403729e-005
1.650971e+000,-1.023880e-005,1.402529e-005
1.651765e+000,-1.091020e-005,1.401185e-005
1.652559e+000,-9.567407e-006,1.400169e-005
1.653353e+000,-9.567407e-006,1.397940e-005
1.654147e+000,-1.426719e-005,1.396382e-005
1.654941e+000,-1.426719e-005,1.395925e-005
1.655735e+000,-1.426719e-005,1.395814e-005
1.656529e+000,-1.560998e-005,1.395704e-005
1.657324e+000,-1.443504e-005,1.396269e-005
1.658118e+000,-1.628138e-005,1.397203e-005
1.658912e+000,-1.695277e-005,1.399572e-005
1.659706e+000,-1.997406e-005,1.402300e-005
1.660500e+000,-1.762417e-005,1.406057e-005
1.661294e+000,-1.493858e-005,1.408462e-005
1.662088e+000,-1.426719e-005,1.409193e-005
1.662882e+000,-1.661708e-005,1.409300e-005
1.663676e+000,-1.493858e-005,1.408638e-005
1.664471e+000,-1.628138e-005,1.408039e-005
1.665265e+000,-1.795987e-005,1.407524e-005
1.666059e+000,-1.560998e-005,1.407922e-005
1.666853e+000,-1.359579e-005,1.407297e-005
1.667647e+000,-1.493858e-005,1.406512e-005
1.668441e+000,-1.225299e-005,1.406945e-005
1.669235e+000,-1.225299e-005,1.406119e-005
1.670029e+000,-1.577783e-005,1.405118e-005
1.670824e+000,-1.426719e-005,1.406143e-005
1.671618e+000,-1.225299e-005,1.405921e-005
1.672412e+000,-1.158160e-005,1.405921e-005
1.673206e+000,-6.210422e-006,1.405921e-005
1.674000e+000,-1.510643e-006,1.404967e-005
1.674794e+000,3.189136e-006,1.403099e-005
1.675588e+000,8.392462e-007,1.400077e-005
1.676382e+000,-5.035477e-007,1.396273e-005
1.677176e+000,-8.392462e-007,1.393494e-005
1.677971e+000,-6.210422e-006,1.391063e-005
1.678765e+000,-1.091020e-005,1.388468e-005
1.679559e+000,-1.225299e-005,1.387157e-005
1.680353e+000,-1.359579e-005,1.386759e-005
1.681147e+000,-1.493858e-005,1.386759e-005
1.681941e+000,-1.460288e-005,1.387780e-005
1.682735e+000,-1.695277e-005,1.388688e-005
1.683529e+000,-1.628138e-005,1.390261e-005
1.684324e+000,-1.695277e-005,1.391760e-005
1.685118e+000,-1.628138e-005,1.392719e-005
1.685912e+000,-1.728847e-005,1.393584e-005
1.686706e+000,-1.628138e-005,1.395282e-005
1.687500e+000,-1.695277e-005,1.396593e-005
1.688294e+000,-2.098116e-005,1.398427e-005
1.689088e+000,-2.232395e-005,1.401908e-005
1.689882e+000,-1.963836e-005,1.405763e-005
1.690676e+000,-1.963836e-005,1.408036e-005
1.691471e+000,-2.030976e-005,1.410305e-005
1.692265e+000,-1.829557e-005,1.413531e-005
1.693059e+000,-1.628138e-005,1.415875e-005
1.693853e+000,-1.426719e-005,1.417475e-005
1.694647e+000,-1.426719e-005,1.418697e-005
1.695441e+000,-1.393149e-005,1.419476e-005
1.696235e+000,-1.359579e-005,1.419369e-005
1.697029e+000,-1.174945e-005,1.420024e-005
1.697824e+000,-1.191730e-005,1.419499e-005
1.698618e+000,-9.903105e-006,1.418700e-005
1.699412e+000,-9.567407e-006,1.417516e-005
1.700206e+000,-9.735256e-006,1.415565e-005
1.701000e+000,-1.158160e-005,1.414551e-005
1.701794e+000,-1.628138e-005,1.414181e-005
1.702588e+000,-1.594568e-005,1.414539e-005
1.703382e+000,-1.359579e-005,1.414832e-005
1.704176e+000,-1.091020e-005,1.414832e-005
1.704971e+000,-9.567407e-006,1.414662e-005
1.705765e+000,-8.224612e-006,1.413812e-005
1.706559e+000,-7.553216e-006,1.413233e-005
1.707353e+000,-1.225299e-005,1.412695e-005
1.708147e+000,-1.158160e-005,1.413624e-005
1.708941e+000,-1.393149e-005,1.413350e-005
1.709735e+000,-1.577783e-005,1.413134e-005
1.710529e+000,-1.628138e-005,1.414057e-005
1.711324e+000,-1.460288e-005,1.414298e-005
1.712118e+000,-1.493858e-005,1.413463e-005
1.712912e+000,-1.577783e-005,1.413683e-005
1.713706e+000,-1.695277e-005,1.414606e-005
1.714500e+000,-1.560998e-005,1.415759e-005
1.715294e+000,-1.628138e-005,1.415640e-005
1.716088e+000,-1.762417e-005,1.416332e-005
1.716882e+000,-1.846342e-005,1.417746e-005
1.717676e+000,-2.064546e-005,1.418346e-005
1.718471e+000,-2.030976e-005,1.419234e-005
1.719265e+000,-1.762417e-005,1.421127e-005
1.720059e+000,-1.560998e-005,1.422218e-005
1.720853e+000,-1.560998e-005,1.422667e-005
1.721647e+000,-1.695277e-005,1.422840e-005
1.722441e+000,-1.695277e-005,1.423329e-005
1.723235e+000,-1.225299e-005,1.423818e-005
1.724029e+000,-1.493858e-005,1.422532e-005
1.724824e+000,-1.661708e-005,1.422303e-005
1.725618e+000,-1.762417e-005,1.423221e-005
1.726412e+000,-1.359579e-005,1.425280e-005
1.727206e+000,-1.560998e-005,1.425667e-005
1.728000e+000,-1.493858e-005,1.426273e-005
1.728794e+000,-1.225299e-005,1.426492e-005
1.729588e+000,-9.231709e-006,1.426001e-005
1.730382e+000,-8.224612e-006,1.424785e-005
1.731176e+000,-7.217518e-006,1.423863e-005
1.731971e+000,-1.225299e-005,1.422945e-005
1.732765e+000,-1.158160e-005,1.422707e-005
1.733559e+000,-6.546120e-006,1.422290e-005
1.734353e+000,-6.881819e-006,1.420156e-005
1.735147e+000,-8.560311e-006,1.417953e-005
1.735941e+000,-1.124590e-005,1.416900e-005
1.736735e+000,-9.903105e-006,1.416540e-005
1.737529e+000,-1.023880e-005,1.416304e-005
1.738324e+000,-1.225299e-005,1.415556e-005
1.739118e+000,-1.493858e-005,1.415556e-005
1.739912e+000,-1.628138e-005,1.416847e-005
1.740706e+000,-1.728847e-005,1.418138e-005
1.741500e+000,-1.930266e-005,1.419208e-005
1.742294e+000,-1.728847e-005,1.420770e-005
1.743088e+000,-1.225299e-005,1.422247e-005
1.743882e+000,-1.292439e-005,1.422058e-005
1.744676e+000,-1.359579e-005,1.421081e-005
1.745471e+000,-1.510643e-005,1.420182e-005
1.746265e+000,-1.628138e-005,1.420008e-005
1.747059e+000,-1.544213e-005,1.420248e-005
1.747853e+000,-1.628138e-005,1.420190e-005
1.748647e+000,-1.560998e-005,1.421089e-005
1.749441e+000,-1.359579e-005,1.421430e-005
1.750235e+000,-1.460288e-005,1.421379e-005
1.751029e+000,-1.393149e-005,1.421593e-005
1.751824e+000,-1.527428e-005,1.420153e-005
1.752618e+000,-1.896696e-005,1.419797e-005
1.753412e+000,-1.829557e-005,1.421439e-005
1.754206e+000,-1.795987e-005,1.422219e-005
1.755000e+000,-1.829557e-005,1.422862e-005
1.755794e+000,-1.728847e-005,1.424488e-005
1.756588e+000,-1.628138e-005,1.425659e-005
1.757382e+000,-1.795987e-005,1.426127e-005
1.758176e+000,-1.426719e-005,1.426949e-005
1.758971e+000,-1.158160e-005,1.428162e-005
1.759765e+000,-8.392462e-006,1.428489e-005
1.760559e+000,-4.196231e-006,1.428180e-005
1.761353e+000,-4.196231e-006,1.427426e-005
1.762147e+000,-8.896010e-006,1.426986e-005
1.762941e+000,-9.567407e-006,1.427527e-005
1.763735e+000,-6.881819e-006,1.427967e-005
1.764529e+000,-6.546120e-006,1.427859e-005
1.765324e+000,-9.231709e-006,1.427700e-005
1.766118e+000,-9.903105e-006,1.427896e-005
1.766912e+000,-1.258869e-005,1.427821e-005
1.767706e+000,-1.560998e-005,1.428261e-005
1.768500e+000,-1.712062e-005,1.429808e-005
1.769294e+000,-1.560998e-005,1.432317e-005
1.770088e+000,-1.560998e-005,1.434595e-005
1.770882e+000,-1.376364e-005,1.435633e-005
1.771676e+000,-1.258869e-005,1.436646e-005
1.772471e+000,-1.091020e-005,1.437388e-005
1.773265e+000,-1.091020e-005,1.437388e-005
1.774059e+000,-1.292439e-005,1.437043e-005
1.774853e+000,-1.359579e-005,1.436421e-005
1.775647e+000,-1.359579e-005,1.435284e-005
1.776441e+000,-1.762417e-005,1.432130e-005
1.777235e+000,-1.728847e-005,1.431441e-005
1.778029e+000,-1.930266e-005,1.432055e-005
1.778824e+000,-1.963836e-005,1.430821e-005
1.779618e+000,-1.779202e-005,1.430523e-005
1.780412e+000,-1.493858e-005,1.430589e-005
1.781206e+000,-1.460288e-005,1.429346e-005
1.782000e+000,-1.527428e-005,1.427424e-005
1.782794e+000,-1.326009e-005,1.424631e-005
1.783588e+000,-1.493858e-005,1.421021e-005
1.784382e+000,-1.695277e-005,1.417764e-005
1.785176e+000,-1.493858e-005,1.415725e-005
1.785971e+000,-1.091020e-005,1.413517e-005
1.786765e+000,-1.225299e-005,1.408717e-005
1.787559e+000,-1.057450e-005,1.405749e-005
1.788353e+000,-1.158160e-005,1.404254e-005
1.789147e+000,-1.225299e-005,1.403782e-005
1.789941e+000,-1.460288e-005,1.403490e-005
1.790735e+000,-1.225299e-005,1.404387e-005
1.791529e+000,-1.124590e-005,1.404479e-005
1.792324e+000,-1.292439e-005,1.403495e-005
1.793118e+000,-1.359579e-005,1.403188e-005
1.793912e+000,-1.225299e-005,1.403391e-005
1.794706e+000,-1.510643e-005,1.402784e-005
1.795500e+000,-1.628138e-005,1.402842e-005
1.796294e+000,-2.098116e-005,1.403025e-005
1.797088e+000,-2.030976e-005,1.405815e-005
1.797882e+000,-1.896696e-005,1.409586e-005
1.798676e+000,-2.131685e-005,1.412088e-005
1.799471e+000,-2.232395e-005,1.415125e-005
1.800265e+000,-2.030976e-005,1.418749e-005
1.801059e+000,-2.098116e-005,1.422039e-005
1.801853e+000,-1.980621e-005,1.425790e-005
1.802647e+000,-1.930266e-005,1.428838e-005
1.803441e+000,-2.165255e-005,1.431661e-005
1.804235e+000,-2.064546e-005,1.435336e-005
1.805029e+000,-1.560998e-005,1.438657e-005
1.805824e+000,-1.107805e-005,1.440193e-005
1.806618e+000,-1.091020e-005,1.440067e-005
1.807412e+000,-7.553216e-006,1.439723e-005
1.808206e+000,1.174945e-006,1.439037e-005
1.809000e+000,4.867628e-006,1.437390e-005
1.809794e+000,4.531929e-006,1.436639e-005
1.810588e+000,3.189136e-006,1.435627e-005
1.811382e+000,2.182040e-006,1.434419e-005
1.812176e+000,1.174945e-006,1.433946e-005
1.812971e+000,-5.035477e-007,1.433082e-005
1.813765e+000,-8.392462e-007,1.432205e-005
1.814559e+000,-4.196231e-006,1.430848e-005
1.815353e+000,-7.553216e-006,1.429550e-005
1.816147e+000,-9.567407e-006,1.428692e-005
1.816941e+000,-1.359579e-005,1.427992e-005
1.817735e+000,-1.493858e-005,1.428558e-005
1.818529e+000,-1.661708e-005,1.428558e-005
1.819324e+000,-1.829557e-005,1.429773e-005
1.820118e+000,-1.762417e-005,1.431542e-005
1.820912e+000,-1.896696e-005,1.432940e-005
1.821706e+000,-2.165255e-005,1.435445e-005
1.822500e+000,-1.963836e-005,1.437703e-005
1.823294e+000,-2.182040e-005,1.438791e-005
1.824088e+000,-2.030976e-005,1.441362e-005
1.824882e+000,-1.913481e-005,1.444071e-005
1.825676e+000,-1.930266e-005,1.446264e-005
1.826471e+000,-2.198825e-005,1.449054e-005
1.827265e+000,-2.198825e-005,1.453012e-005
1.828059e+000,-1.913481e-005,1.455863e-005
1.828853e+000,-1.829557e-005,1.456847e-005
1.829647e+000,-1.510643e-005,1.458484e-005
1.830441e+000,-1.644922e-005,1.459245e-005
1.831235e+000,-1.628138e-005,1.460180e-005
1.832029e+000,-1.493858e-005,1.460851e-005
1.832824e+000,-1.242084e-005,1.461415e-005
1.833618e+000,-8.224612e-006,1.461276e-005
1.834412e+000,-8.224612e-006,1.460377e-005
1.835206e+000,-9.567407e-006,1.459735e-005
1.836000e+000,-7.888914e-006,1.458407e-005
1.836794e+000,-8.224612e-006,1.457068e-005
1.837588e+000,-1.158160e-005,1.456075e-005
1.838382e+000,-1.258869e-005,1.455715e-005
1.839176e+000,-1.158160e-005,1.455981e-005
1.839971e+000,-1.426719e-005,1.455981e-005
1.840765e+000,-8.896010e-006,1.456697e-005
1.841559e+000,-8.896010e-006,1.455921e-005
1.842353e+000,-1.174945e-005,1.455144e-005
1.843147e+000,-1.309224e-005,1.454731e-005
1.843941e+000,-1.628138e-005,1.454779e-005
1.844735e+000,-1.762417e-005,1.455127e-005
1.845529e+000,-1.846342e-005,1.456083e-005
1.846324e+000,-2.232395e-005,1.458257e-005
1.847118e+000,-2.198825e-005,1.461258e-005
1.847912e+000,-2.165255e-005,1.463516e-005
1.848706e+000,-2.702373e-005,1.465237e-005
1.849500e+000,-2.433814e-005,1.469395e-005
1.850294e+000,-2.098116e-005,1.472445e-005
1.851088e+000,-1.913481e-005,1.474278e-005
1.851882e+000,-1.577783e-005,1.475004e-005
1.852676e+000,-1.762417e-005,1.475283e-005
1.853471e+000,-1.661708e-005,1.476117e-005
1.854265e+000,-1.091020e-005,1.476795e-005
1.855059e+000,-6.210422e-006,1.475986e-005
1.855853e+000,-5.874723e-006,1.473714e-005
1.856647e+000,-3.189136e-006,1.471989e-005
1.857441e+000,-7.217518e-006,1.470384e-005
1.858235e+000,-1.023880e-005,1.468308e-005
1.859029e+000,-1.174945e-005,1.465541e-005
1.859824e+000,-1.158160e-005,1.463402e-005
1.860618e+000,-1.493858e-005,1.460805e-005
1.861412e+000,-1.493858e-005,1.458740e-005
1.862206e+000,-1.628138e-005,1.457655e-005
1.863000e+000,-1.628138e-005,1.457411e-005
1.863794e+000,-1.527428e-005,1.458841e-005
1.864588e+000,-1.359579e-005,1.460387e-005
1.865382e+000,-1.359579e-005,1.461665e-005
1.866176e+000,-1.258869e-005,1.462131e-005
1.866971e+000,-1.091020e-005,1.461743e-005
1.867765e+000,-8.896010e-006,1.460926e-005
1.868559e+000,-7.553216e-006,1.460410e-005
1.869353e+000,-9.567407e-006,1.460169e-005
1.870147e+000,-1.124590e-005,1.460304e-005
1.870941e+000,-1.292439e-005,1.460385e-005
1.871735e+000,-1.242084e-005,1.461208e-005
1.872529e+000,-1.242084e-005,1.462027e-005
1.873324e+000,-1.225299e-005,1.462710e-005
1.874118e+000,-1.359579e-005,1.463608e-005
1.874912e+000,-1.527428e-005,1.463608e-005
1.875706e+000,-1.712062e-005,1.463262e-005
1.876500e+000,-1.863127e-005,1.463567e-005
1.877294e+000,-1.695277e-005,1.464216e-005
1.878088e+000,-1.644922e-005,1.463429e-005
1.878882e+000,-1.829557e-005,1.462864e-005
1.879676e+000,-1.628138e-005,1.463622e-005
1.880471e+000,-1.863127e-005,1.464494e-005
1.881265e+000,-1.963836e-005,1.465787e-005
1.882059e+000,-1.963836e-005,1.467328e-005
1.882853e+000,-1.628138e-005,1.469251e-005
1.883647e+000,-1.628138e-005,1.470218e-005
1.884441e+000,-1.527428e-005,1.471372e-005
1.885235e+000,-1.963836e-005,1.473103e-005
1.886029e+000,-2.366674e-005,1.475983e-005
1.886824e+000,-2.114900e-005,1.480026e-005
1.887618e+000,-2.030976e-005,1.481866e-005
1.888412e+000,-2.433814e-005,1.484407e-005
1.889206e+000,-2.198825e-005,1.488572e-005
1.890000e+000,-2.165255e-005,1.492386e-005
1.890794e+000,-2.165255e-005,1.495869e-005
1.891588e+000,-1.359579e-005,1.498840e-005
1.892382e+000,-7.888914e-006,1.498102e-005
1.893176e+000,-3.692683e-006,1.494937e-005
1.893971e+000,-2.349889e-006,1.492018e-005
1.894765e+000,1.174945e-006,1.487813e-005
1.895559e+000,1.846342e-006,1.483259e-005
1.896353e+000,1.846342e-006,1.479957e-005
1.897147e+000,-8.392462e-007,1.477370e-005
1.897941e+000,-1.510643e-006,1.475931e-005
1.898735e+000,-5.539025e-006,1.474671e-005
1.899529e+000,-9.903105e-006,1.473870e-005
1.900324e+000,-1.091020e-005,1.474074e-005
1.901118e+000,-5.035477e-006,1.474228e-005
1.901912e+000,-1.510643e-006,1.473216e-005
1.902706e+000,-1.510643e-006,1.472251e-005
1.903500e+000,-6.546120e-006,1.471285e-005
1.904294e+000,-7.217518e-006,1.469544e-005
1.905088e+000,-7.553216e-006,1.467902e-005
1.905882e+000,-1.023880e-005,1.466312e-005
1.906676e+000,-1.359579e-005,1.464804e-005
1.907471e+000,-1.628138e-005,1.464548e-005
1.908265e+000,-1.426719e-005,1.464548e-005
1.909059e+000,-1.158160e-005,1.463636e-005
1.909853e+000,-1.107805e-005,1.460752e-005
1.910647e+000,-8.224612e-006,1.458702e-005
1.911441e+000,-5.539025e-006,1.457004e-005
1.912235e+000,-6.881819e-006,1.455113e-005
1.913029e+000,-9.567407e-006,1.452607e-005
1.913824e+000,-1.628138e-005,1.451164e-005
1.914618e+000,-2.064546e-005,1.451164e-005
1.915412e+000,-2.299535e-005,1.452301e-005
1.916206e+000,-2.870222e-005,1.455424e-005
1.917000e+000,-3.105211e-005,1.462398e-005
1.917794e+000,-3.138781e-005,1.470445e-005
1.918588e+000,-3.306630e-005,1.479460e-005
1.919382e+000,-3.172351e-005,1.489578e-005
1.920176e+000,-3.306630e-005,1.497653e-005
1.920971e+000,-3.407340e-005,1.507084e-005
1.921765e+000,-4.112306e-005,1.517727e-005
1.922559e+000,-4.045167e-005,1.533976e-005
1.923353e+000,-3.843748e-005,1.550473e-005
1.924147e+000,-3.508049e-005,1.565549e-005
1.924941e+000,-3.105211e-005,1.577914e-005
1.925735e+000,-2.702373e-005,1.587608e-005
1.926529e+000,-2.366674e-005,1.594913e-005
1.927324e+000,-1.527428e-005,1.600489e-005
1.928118e+000,-4.867628e-006,1.602425e-005
1.928912e+000,5.203327e-006,1.601477e-005
1.929706e+000,1.359579e-005,1.600253e-005
1.930500e+000,1.544213e-005,1.600253e-005
1.931294e+000,1.695277e-005,1.600405e-005
1.932088e+000,1.863127e-005,1.601143e-005
1.932882e+000,2.265965e-005,1.601737e-005
1.933676e+000,2.232395e-005,1.604204e-005
1.934471e+000,2.333104e-005,1.606297e-005
1.935265e+000,2.114900e-005,1.609063e-005
1.936059e+000,1.292439e-005,1.610531e-005
1.936853e+000,3.189136e-006,1.609561e-005
1.937647e+000,-1.678492e-007,1.606816e-005
1.938441e+000,-2.853437e-006,1.602448e-005
1.939235e+000,-1.359579e-005,1.597569e-005
1.940029e+000,-2.198825e-005,1.595566e-005
1.940824e+000,-2.333104e-005,1.596542e-005
1.941618e+000,-2.870222e-005,1.597857e-005
1.942412e+000,-3.407340e-005,1.602723e-005
1.943206e+000,-3.273060e-005,1.611600e-005
1.944000e+000,-3.373770e-005,1.620151e-005
1.944794e+000,-3.474479e-005,1.629312e-005
1.945588e+000,-3.038071e-005,1.639183e-005
1.946382e+000,-3.004501e-005,1.646338e-005
1.947176e+000,-2.769513e-005,1.653717e-005
1.947971e+000,-2.383459e-005,1.659725e-005
1.948765e+000,-2.198825e-005,1.664228e-005
1.949559e+000,-2.316319e-005,1.667974e-005
1.950353e+000,-1.963836e-005,1.672186e-005
1.951147e+000,-2.098116e-005,1.674579e-005
1.951941e+000,-2.064546e-005,1.676244e-005
1.952735e+000,-2.030976e-005,1.677877e-005
1.953529e+000,-1.460288e-005,1.680036e-005
1.954324e+000,-1.493858e-005,1.680928e-005
1.955118e+000,-1.695277e-005,1.682175e-005
1.955912e+000,-1.762417e-005,1.684254e-005
1.956706e+000,-1.896696e-005,1.686649e-005
1.957500e+000,-1.846342e-005,1.688627e-005
1.958294e+000,-1.225299e-005,1.690576e-005
1.959088e+000,-6.881819e-006,1.690161e-005
1.959882e+000,-4.196231e-006,1.688261e-005
1.960676e+000,-3.524834e-006,1.685926e-005
1.961471e+000,-1.678492e-007,1.684028e-005
1.962265e+000,-1.007095e-006,1.681917e-005
1.963059e+000,-4.867628e-006,1.679568e-005
1.963853e+000,-7.553216e-006,1.677066e-005
1.964647e+000,-1.091020e-005,1.675293e-005
1.965441e+000,-1.023880e-005,1.673904e-005
1.966235e+000,-1.124590e-005,1.671945e-005
1.967029e+000,-1.292439e-005,1.669902e-005
1.967824e+000,-1.292439e-005,1.667428e-005
1.968618e+000,-1.225299e-005,1.665083e-005
1.969412e+000,-1.158160e-005,1.663547e-005
1.970206e+000,-9.567407e-006,1.662499e-005
1.971000e+000,-1.158160e-005,1.661041e-005
1.971794e+000,-1.359579e-005,1.659571e-005
1.972588e+000,-1.359579e-005,1.658587e-005
1.973382e+000,-1.560998e-005,1.658920e-005
1.974176e+000,-1.762417e-005,1.659117e-005
1.974971e+000,-1.896696e-005,1.659448e-005
1.975765e+000,-1.829557e-005,1.659919e-005
1.976559e+000,-1.359579e-005,1.661356e-005
1.977353e+000,-1.695277e-005,1.660792e-005
1.978147e+000,-2.098116e-005,1.661408e-005
1.978941e+000,-2.098116e-005,1.664186e-005
1.979735e+000,-1.762417e-005,1.667579e-005
1.980529e+000,-2.232395e-005,1.669898e-005
1.981324e+000,-1.829557e-005,1.674148e-005
1.982118e+000,-1.560998e-005,1.675902e-005
1.982912e+000,-1.359579e-005,1.676943e-005
1.983706e+000,-1.560998e-005,1.678291e-005
1.984500e+000,-1.628138e-005,1.680152e-005
1.985294e+000,-1.292439e-005,1.681969e-005
1.986088e+000,-1.426719e-005,1.682353e-005
1.986882e+000,-1.628138e-005,1.683351e-005
1.987676e+000,-1.510643e-005,1.684866e-005
1.988471e+000,-1.527428e-005,1.685604e-005
1.989265e+000,-1.124590e-005,1.685700e-005
1.990059e+000,-8.224612e-006,1.684390e-005
1.990853e+000,-1.023880e-005,1.682202e-005
1.991647e+000,-1.057450e-005,1.679666e-005
1.992441e+000,-1.091020e-005,1.677891e-005
1.993235e+000,-1.158160e-005,1.677596e-005
1.994029e+000,-1.393149e-005,1.677284e-005
1.994824e+000,-1.560998e-005,1.677372e-005
1.995618e+000,-1.359579e-005,1.677519e-005
1.996412e+000,-1.493858e-005,1.676757e-005
1.997206e+000,-1.913481e-005,1.676611e-005
1.998000e+000,-2.131685e-005,1.677571e-005
1.998794e+000,-2.450599e-005,1.679570e-005
1.999588e+000,-2.198825e-005,1.683507e-005
2.000382e+000,-1.896696e-005,1.686061e-005
2.001176e+000,-1.628138e-005,1.687625e-005
2.001971e+000,-1.795987e-005,1.687924e-005
2.002765e+000,-1.762417e-005,1.687574e-005
2.003559e+000,-1.560998e-005,1.687346e-005
2.004353e+000,-1.124590e-005,1.686601e-005
2.005147e+000,-5.874723e-006,1.684634e-005
2.005941e+000,3.356985e-007,1.682133e-005
2.006735e+000,-1.678492e-007,1.679623e-005
2.007529e+000,-3.524834e-006,1.676563e-005
2.008324e+000,-8.392462e-007,1.674746e-005
2.009118e+000,2.182040e-006,1.673477e-005
2.009912e+000,6.210422e-006,1.672852e-005
2.010706e+000,8.896010e-006,1.673052e-005
2.011500e+000,1.292439e-005,1.673637e-005
2.012294e+000,1.510643e-005,1.674473e-005
2.013088e+000,1.460288e-005,1.675773e-005
2.013882e+000,1.158160e-005,1.677348e-005
2.014676e+000,1.158160e-005,1.678214e-005
2.015471e+000,1.846342e-006,1.678678e-005
2.016265e+000,-6.881819e-006,1.677780e-005
2.017059e+000,-1.527428e-005,1.676725e-005
2.017853e+000,-2.265965e-005,1.676627e-005
2.018647e+000,-2.702373e-005,1.678718e-005
2.019441e+000,-3.239490e-005,1.683328e-005
2.020235e+000,-3.508049e-005,1.690933e-005
2.021029e+000,-3.407340e-005,1.700709e-005
2.021824e+000,-3.038071e-005,1.710070e-005
2.022618e+000,-2.970932e-005,1.717540e-005
2.023412e+000,-2.836652e-005,1.724605e-005
2.024206e+000,-2.970932e-005,1.730482e-005
2.025000e+000,-3.038071e-005,1.736891e-005
2.025794e+000,-2.836652e-005,1.743645e-005
2.026588e+000,-2.652018e-005,1.748151e-005
2.027382e+000,-2.601663e-005,1.751831e-005
2.028176e+000,-2.500954e-005,1.754595e-005
2.028971e+000,-2.433814e-005,1.756770e-005
2.029765e+000,-2.366674e-005,1.759268e-005
2.030559e+000,-2.366674e-005,1.762315e-005
2.031353e+000,-1.829557e-005,1.765446e-005
2.032147e+000,-1.779202e-005,1.766361e-005
2.032941e+000,-1.359579e-005,1.767629e-005
2.033735e+000,-7.217518e-006,1.767284e-005
2.034529e+000,-8.224612e-006,1.765163e-005
2.035324e+000,-6.546120e-006,1.763759e-005
2.036118e+000,-8.224612e-006,1.763071e-005
2.036912e+000,-8.728161e-006,1.762326e-005
2.037706e+000,-3.860533e-006,1.762004e-005
2.038500e+000,-1.510643e-006,1.760926e-005
2.039294e+000,1.174945e-006,1.759589e-005
2.040088e+000,2.517739e-006,1.757670e-005
2.040882e+000,5.203327e-006,1.756367e-005
2.041676e+000,9.903105e-006,1.755466e-005
2.042471e+000,3.860533e-006,1.754840e-005
2.043265e+000,-6.042573e-006,1.753297e-005
2.044059e+000,-9.903105e-006,1.752265e-005
2.044853e+000,-1.762417e-005,1.751082e-005
2.045647e+000,-2.467384e-005,1.751496e-005
2.046441e+000,-2.937362e-005,1.753028e-005
2.047235e+000,-3.205920e-005,1.757114e-005
2.048029e+000,-3.172351e-005,1.763157e-005
2.048824e+000,-3.138781e-005,1.768135e-005
2.049618e+000,-3.457694e-005,1.772514e-005
2.050412e+000,-3.440909e-005,1.779535e-005
2.051206e+000,-2.920577e-005,1.786178e-005
2.052000e+000,-2.702373e-005,1.790281e-005
2.052794e+000,-2.299535e-005,1.793459e-005
2.053588e+000,-2.333104e-005,1.793991e-005
2.054382e+000,-2.299535e-005,1.795039e-005
2.055176e+000,-2.500954e-005,1.797567e-005
2.055971e+000,-2.635233e-005,1.802015e-005
2.056765e+000,-2.584878e-005,1.807092e-005
2.057559e+000,-1.829557e-005,1.812469e-005
2.058353e+000,-9.903105e-006,1.815396e-005
2.059147e+000,-6.881819e-006,1.816048e-005
2.059941e+000,-1.678492e-007,1.816283e-005
2.060735e+000,2.182040e-006,1.816194e-005
2.061529e+000,5.035477e-007,1.816194e-005
2.062324e+000,3.860533e-006,1.816184e-005
2.063118e+000,5.706874e-006,1.816313e-005
2.063912e+000,1.124590e-005,1.816592e-005
2.064706e+000,1.191730e-005,1.817546e-005
2.065500e+000,1.258869e-005,1.818291e-005
2.066294e+000,7.888914e-006,1.818877e-005
2.067088e+000,-1.174945e-006,1.817803e-005
2.067882e+000,-1.091020e-005,1.815859e-005
2.068676e+000,-1.762417e-005,1.814481e-005
2.069471e+000,-2.265965e-005,1.814269e-005
2.070265e+000,-2.903792e-005,1.816049e-005
2.071059e+000,-3.575189e-005,1.820283e-005
2.071853e+000,-4.313725e-005,1.827349e-005
2.072647e+000,-5.152972e-005,1.840159e-005
2.073441e+000,-5.522240e-005,1.858921e-005
2.074235e+000,-5.857939e-005,1.881374e-005
2.075029e+000,-5.992218e-005,1.907143e-005
2.075824e+000,-5.690089e-005,1.933825e-005
2.076618e+000,-5.186542e-005,1.956372e-005
2.077412e+000,-4.850843e-005,1.974251e-005
2.078206e+000,-3.340200e-005,1.990212e-005
2.079000e+000,-1.963836e-005,1.996451e-005
2.079794e+000,-7.888914e-006,1.997706e-005
2.080588e+000,3.524834e-006,1.996045e-005
2.081382e+000,1.393149e-005,1.994028e-005
2.082176e+000,2.836652e-005,1.993796e-005
2.082971e+000,4.179446e-005,1.998983e-005
2.083765e+000,5.824369e-005,2.012315e-005
2.084559e+000,7.167162e-005,2.038453e-005
2.085353e+000,6.697185e-005,2.077491e-005
2.086147e+000,5.354391e-005,2.111120e-005
2.086941e+000,4.951553e-005,2.132130e-005
2.087735e+000,4.414435e-005,2.149370e-005
2.088529e+000,3.239490e-005,2.162592e-005
2.089324e+000,1.594568e-005,2.169321e-005
2.090118e+000,8.560311e-006,2.169693e-005
2.090912e+000,5.035477e-006,2.169650e-005
2.091706e+000,-2.182040e-006,2.169256e-005
2.092500e+000,-9.735256e-006,2.168277e-005
2.093294e+000,-1.762417e-005,2.167714e-005
2.094088e+000,-2.232395e-005,2.168049e-005
2.094882e+000,-2.870222e-005,2.169427e-005
2.095676e+000,-3.843748e-005,2.172969e-005
2.096471e+000,-5.052262e-005,2.180132e-005
2.097265e+000,-5.522240e-005,2.195192e-005
2.098059e+000,-5.387960e-005,2.213833e-005
2.098853e+000,-5.387960e-005,2.229406e-005
2.099647e+000,-5.320821e-005,2.245849e-005
2.100441e+000,-5.052262e-005,2.262738e-005
2.101235e+000,-4.951553e-005,2.278072e-005
2.102029e+000,-4.582284e-005,2.293418e-005
2.102824e+000,-4.129091e-005,2.305807e-005
2.103618e+000,-3.743038e-005,2.315653e-005
2.104412e+000,-3.205920e-005,2.324452e-005
2.105206e+000,-2.970932e-005,2.331219e-005
2.106000e+000,-3.038071e-005,2.337005e-005
2.106794e+000,-2.702373e-005,2.343216e-005
2.107588e+000,-2.333104e-005,2.347820e-005
2.108382e+000,-2.030976e-005,2.350799e-005
2.109176e+000,-1.695277e-005,2.352658e-005
2.109971e+000,-1.359579e-005,2.353695e-005
2.110765e+000,-1.560998e-005,2.353435e-005
2.111559e+000,-1.292439e-005,2.353574e-005
2.112353e+000,-1.292439e-005,2.352911e-005
2.113147e+000,-1.359579e-005,2.352247e-005
2.113941e+000,-1.426719e-005,2.351919e-005
2.114735e+000,-1.191730e-005,2.352046e-005
2.115529e+000,-1.124590e-005,2.351756e-005
2.116324e+000,-1.023880e-005,2.351539e-005
2.117118e+000,-1.091020e-005,2.351443e-005
2.117912e+000,-5.539025e-006,2.351713e-005
2.118706e+000,-7.217518e-006,2.351535e-005
2.119500e+000,-8.896010e-006,2.351267e-005
2.120294e+000,-8.560311e-006,2.350947e-005
2.121088e+000,-1.242084e-005,2.350312e-005
2.121882e+000,-1.359579e-005,2.350312e-005
2.122676e+000,-1.426719e-005,2.350519e-005
2.123471e+000,-1.493858e-005,2.350880e-005
2.124265e+000,-1.359579e-005,2.351140e-005
2.125059e+000,-1.393149e-005,2.350812e-005
2.125853e+000,-1.292439e-005,2.350141e-005
2.126647e+000,-1.258869e-005,2.348920e-005
2.127441e+000,-1.359579e-005,2.348046e-005
2.128235e+000,-1.560998e-005,2.347465e-005
2.129029e+000,-1.527428e-005,2.346847e-005
2.129824e+000,-1.225299e-005,2.346631e-005
2.130618e+000,-9.903105e-006,2.345294e-005
2.131412e+000,-5.874723e-006,2.343341e-005
2.132206e+000,-5.539025e-006,2.340954e-005
2.133000e+000,-4.867628e-006,2.339358e-005
2.133794e+000,-6.546120e-006,2.337715e-005
2.134588e+000,-1.359579e-005,2.336417e-005
2.135382e+000,-1.779202e-005,2.335048e-005
2.136176e+000,-1.930266e-005,2.333387e-005
2.136971e+000,-2.299535e-005,2.332877e-005
2.137765e+000,-2.030976e-005,2.333670e-005
2.138559e+000,-1.762417e-005,2.332443e-005
2.139353e+000,-1.493858e-005,2.331262e-005
2.140147e+000,-1.628138e-005,2.329584e-005
2.140941e+000,-1.426719e-005,2.328191e-005
2.141735e+000,-8.224612e-006,2.328319e-005
2.142529e+000,-4.196231e-006,2.328356e-005
2.143324e+000,-3.524834e-006,2.328383e-005
2.144118e+000,1.678492e-007,2.328430e-005
2.144912e+000,9.903105e-006,2.328421e-005
2.145706e+000,2.098116e-005,2.329068e-005
2.146500e+000,2.652018e-005,2.332052e-005
2.147294e+000,1.795987e-005,2.336845e-005
2.148088e+000,8.392462e-007,2.339026e-005
2.148882e+000,-5.874723e-006,2.338822e-005
2.149676e+000,-1.091020e-005,2.338390e-005
2.150471e+000,-1.829557e-005,2.338390e-005
2.151265e+000,-1.728847e-005,2.340495e-005
2.152059e+000,-1.460288e-005,2.342512e-005
2.152853e+000,-1.560998e-005,2.343946e-005
2.153647e+000,-2.047761e-005,2.345310e-005
2.154441e+000,-1.829557e-005,2.347802e-005
2.155235e+000,-2.232395e-005,2.349684e-005
2.156029e+000,-2.635233e-005,2.352350e-005
2.156824e+000,-3.105211e-005,2.355797e-005
2.157618e+000,-3.709468e-005,2.360518e-005
2.158412e+000,-3.642328e-005,2.368414e-005
2.159206e+000,-3.743038e-005,2.376418e-005
2.160000e+000,-3.692683e-005,2.384968e-005
2.160794e+000,-3.575189e-005,2.393605e-005
2.161588e+000,-3.709468e-005,2.401890e-005
2.162382e+000,-3.877317e-005,2.410682e-005
2.163176e+000,-3.877317e-005,2.419990e-005
2.163971e+000,-3.910887e-005,2.428124e-005
2.164765e+000,-3.743038e-005,2.435349e-005
2.165559e+000,-3.239490e-005,2.441045e-005
2.166353e+000,-3.038071e-005,2.442517e-005
