X [s],L DELTOID POSTERIOR: EMG 5 [V],L DELTOID POSTERIOR: EMG 5->filter (FilterSlidingRMS45) [V]
0.000000e+000,0.000000e+000,0.000000e+000
7.941176e-004,0.000000e+000,0.000000e+000
1.588235e-003,0.000000e+000,0.000000e+000
2.382353e-003,0.000000e+000,0.000000e+000
3.176471e-003,0.000000e+000,0.000000e+000
3.970588e-003,0.000000e+000,0.000000e+000
4.764706e-003,0.000000e+000,0.000000e+000
5.558824e-003,0.000000e+000,0.000000e+000
6.352941e-003,0.000000e+000,0.000000e+000
7.147059e-003,0.000000e+000,0.000000e+000
7.941176e-003,0.000000e+000,0.000000e+000
8.735294e-003,0.000000e+000,0.000000e+000
9.529412e-003,0.000000e+000,0.000000e+000
1.032353e-002,0.000000e+000,0.000000e+000
1.111765e-002,0.000000e+000,0.000000e+000
1.191176e-002,0.000000e+000,0.000000e+000
1.270588e-002,0.000000e+000,0.000000e+000
1.350000e-002,0.000000e+000,0.000000e+000
1.429412e-002,0.000000e+000,0.000000e+000
1.508824e-002,0.000000e+000,0.000000e+000
1.588235e-002,0.000000e+000,0.000000e+000
1.667647e-002,0.000000e+000,0.000000e+000
1.747059e-002,0.000000e+000,0.000000e+000
1.826471e-002,0.000000e+000,0.000000e+000
1.905882e-002,0.000000e+000,0.000000e+000
1.985294e-002,0.000000e+000,0.000000e+000
2.064706e-002,0.000000e+000,0.000000e+000
2.144118e-002,0.000000e+000,0.000000e+000
2.223529e-002,0.000000e+000,0.000000e+000
2.302941e-002,0.000000e+000,0.000000e+000
2.382353e-002,0.000000e+000,0.000000e+000
2.461765e-002,0.000000e+000,0.000000e+000
2.541176e-002,0.000000e+000,0.000000e+000
2.620588e-002,0.000000e+000,0.000000e+000
2.700000e-002,0.000000e+000,0.000000e+000
2.779412e-002,0.000000e+000,0.000000e+000
2.858824e-002,0.000000e+000,0.000000e+000
2.938235e-002,0.000000e+000,0.000000e+000
3.017647e-002,0.000000e+000,0.000000e+000
3.097059e-002,0.000000e+000,0.000000e+000
3.176471e-002,0.000000e+000,0.000000e+000
3.255882e-002,0.000000e+000,0.000000e+000
3.335294e-002,0.000000e+000,0.000000e+000
3.414706e-002,0.000000e+000,0.000000e+000
3.494118e-002,0.000000e+000,0.000000e+000
3.573529e-002,0.000000e+000,0.000000e+000
3.652941e-002,0.000000e+000,0.000000e+000
3.732353e-002,0.000000e+000,0.000000e+000
3.811765e-002,0.000000e+000,0.000000e+000
3.891176e-002,0.000000e+000,0.000000e+000
3.970588e-002,0.000000e+000,0.000000e+000
4.050000e-002,0.000000e+000,0.000000e+000
4.129412e-002,0.000000e+000,0.000000e+000
4.208824e-002,0.000000e+000,0.000000e+000
4.288235e-002,0.000000e+000,0.000000e+000
4.367647e-002,0.000000e+000,0.000000e+000
4.447059e-002,0.000000e+000,0.000000e+000
4.526471e-002,0.000000e+000,0.000000e+000
4.605882e-002,0.000000e+000,0.000000e+000
4.685294e-002,0.000000e+000,0.000000e+000
4.764706e-002,0.000000e+000,0.000000e+000
4.844118e-002,0.000000e+000,0.000000e+000
4.923529e-002,0.000000e+000,0.000000e+000
5.002941e-002,0.000000e+000,0.000000e+000
5.082353e-002,0.000000e+000,0.000000e+000
5.161765e-002,0.000000e+000,0.000000e+000
5.241176e-002,0.000000e+000,0.000000e+000
5.320588e-002,0.000000e+000,0.000000e+000
5.400000e-002,0.000000e+000,0.000000e+000
5.479412e-002,0.000000e+000,0.000000e+000
5.558824e-002,0.000000e+000,0.000000e+000
5.638235e-002,0.000000e+000,0.000000e+000
5.717647e-002,0.000000e+000,0.000000e+000
5.797059e-002,0.000000e+000,0.000000e+000
5.876471e-002,0.000000e+000,0.000000e+000
5.955882e-002,0.000000e+000,0.000000e+000
6.035294e-002,0.000000e+000,0.000000e+000
6.114706e-002,0.000000e+000,0.000000e+000
6.194118e-002,0.000000e+000,0.000000e+000
6.273529e-002,0.000000e+000,0.000000e+000
6.352941e-002,0.000000e+000,0.000000e+000
6.432353e-002,0.000000e+000,0.000000e+000
6.511765e-002,0.000000e+000,0.000000e+000
6.591176e-002,0.000000e+000,0.000000e+000
6.670588e-002,0.000000e+000,0.000000e+000
6.750000e-002,0.000000e+000,0.000000e+000
6.829412e-002,0.000000e+000,0.000000e+000
6.908824e-002,0.000000e+000,0.000000e+000
6.988235e-002,0.000000e+000,0.000000e+000
7.067647e-002,0.000000e+000,0.000000e+000
7.147059e-002,0.000000e+000,0.000000e+000
7.226471e-002,0.000000e+000,0.000000e+000
7.305882e-002,0.000000e+000,0.000000e+000
7.385294e-002,0.000000e+000,0.000000e+000
7.464706e-002,0.000000e+000,0.000000e+000
7.544118e-002,0.000000e+000,0.000000e+000
7.623529e-002,0.000000e+000,0.000000e+000
7.702941e-002,0.000000e+000,0.000000e+000
7.782353e-002,0.000000e+000,0.000000e+000
7.861765e-002,0.000000e+000,0.000000e+000
7.941176e-002,0.000000e+000,0.000000e+000
8.020588e-002,0.000000e+000,0.000000e+000
8.100000e-002,0.000000e+000,0.000000e+000
8.179412e-002,0.000000e+000,0.000000e+000
8.258824e-002,0.000000e+000,0.000000e+000
8.338235e-002,0.000000e+000,0.000000e+000
8.417647e-002,0.000000e+000,0.000000e+000
8.497059e-002,0.000000e+000,0.000000e+000
8.576471e-002,0.000000e+000,0.000000e+000
8.655882e-002,0.000000e+000,0.000000e+000
8.735294e-002,0.000000e+000,0.000000e+000
8.814706e-002,0.000000e+000,0.000000e+000
8.894118e-002,0.000000e+000,0.000000e+000
8.973529e-002,0.000000e+000,0.000000e+000
9.052941e-002,0.000000e+000,0.000000e+000
9.132353e-002,0.000000e+000,0.000000e+000
9.211765e-002,0.000000e+000,0.000000e+000
9.291176e-002,0.000000e+000,0.000000e+000
9.370588e-002,0.000000e+000,0.000000e+000
9.450000e-002,-3.524834e-005,0.000000e+000
9.529412e-002,-3.038071e-005,0.000000e+000
9.608824e-002,-3.038071e-005,0.000000e+000
9.688235e-002,-3.138781e-005,0.000000e+000
9.767647e-002,-2.903792e-005,0.000000e+000
9.847059e-002,-2.030976e-005,0.000000e+000
9.926471e-002,-1.695277e-005,0.000000e+000
1.000588e-001,-1.829557e-005,0.000000e+000
1.008529e-001,-1.896696e-005,0.000000e+000
1.016471e-001,-1.376364e-005,0.000000e+000
1.024412e-001,-1.040665e-005,0.000000e+000
1.032353e-001,-1.225299e-005,0.000000e+000
1.040294e-001,-1.292439e-005,0.000000e+000
1.048235e-001,-1.292439e-005,0.000000e+000
1.056176e-001,-8.224612e-006,0.000000e+000
1.064118e-001,-6.210422e-006,0.000000e+000
1.072059e-001,-4.867628e-006,0.000000e+000
1.080000e-001,-1.846342e-006,0.000000e+000
1.087941e-001,2.517739e-006,0.000000e+000
1.095882e-001,3.860533e-006,0.000000e+000
1.103824e-001,3.860533e-006,0.000000e+000
1.111765e-001,-1.678492e-007,0.000000e+000
1.119706e-001,-7.049668e-006,0.000000e+000
1.127647e-001,-1.023880e-005,0.000000e+000
1.135588e-001,-1.023880e-005,0.000000e+000
1.143529e-001,-1.158160e-005,0.000000e+000
1.151471e-001,-1.628138e-005,0.000000e+000
1.159412e-001,-1.493858e-005,0.000000e+000
1.167353e-001,-1.426719e-005,0.000000e+000
1.175294e-001,-1.460288e-005,0.000000e+000
1.183235e-001,-1.359579e-005,0.000000e+000
1.191176e-001,-1.628138e-005,0.000000e+000
1.199118e-001,-1.997406e-005,0.000000e+000
1.207059e-001,-2.433814e-005,0.000000e+000
1.215000e-001,-2.568093e-005,0.000000e+000
1.222941e-001,-2.769513e-005,0.000000e+000
1.230882e-001,-3.105211e-005,0.000000e+000
1.238824e-001,-2.769513e-005,0.000000e+000
1.246765e-001,-2.433814e-005,0.000000e+000
1.254706e-001,-1.594568e-005,0.000000e+000
1.262647e-001,-1.124590e-005,0.000000e+000
1.270588e-001,-3.021286e-006,0.000000e+000
1.278529e-001,5.035477e-007,0.000000e+000
1.286471e-001,3.860533e-006,0.000000e+000
1.294412e-001,1.460288e-005,0.000000e+000
1.302353e-001,2.786297e-005,0.000000e+000
1.310294e-001,2.098116e-005,0.000000e+000
1.318235e-001,1.577783e-005,0.000000e+000
1.326176e-001,3.524834e-006,0.000000e+000
1.334118e-001,-7.217518e-006,0.000000e+000
1.342059e-001,-1.527428e-005,0.000000e+000
1.350000e-001,-2.366674e-005,0.000000e+000
1.357941e-001,-2.467384e-005,0.000000e+000
1.365882e-001,-3.038071e-005,0.000000e+000
1.373824e-001,-3.944457e-005,0.000000e+000
1.381765e-001,-4.380865e-005,0.000000e+000
1.389706e-001,-4.179446e-005,0.000000e+000
1.397647e-001,-3.910887e-005,0.000000e+000
1.405588e-001,-3.306630e-005,0.000000e+000
1.413529e-001,-3.105211e-005,0.000000e+000
1.421471e-001,-2.450599e-005,0.000000e+000
1.429412e-001,-1.124590e-005,0.000000e+000
1.437353e-001,4.531929e-006,0.000000e+000
1.445294e-001,1.107805e-005,0.000000e+000
1.453235e-001,1.191730e-005,0.000000e+000
1.461176e-001,1.124590e-005,0.000000e+000
1.469118e-001,6.210422e-006,0.000000e+000
1.477059e-001,2.517739e-006,0.000000e+000
1.485000e-001,-5.539025e-006,0.000000e+000
1.492941e-001,-8.560311e-006,0.000000e+000
1.500882e-001,-1.225299e-005,0.000000e+000
1.508824e-001,-1.963836e-005,0.000000e+000
1.516765e-001,-2.568093e-005,0.000000e+000
1.524706e-001,-2.836652e-005,0.000000e+000
1.532647e-001,-2.098116e-005,0.000000e+000
1.540588e-001,-1.695277e-005,0.000000e+000
1.548529e-001,-1.309224e-005,0.000000e+000
1.556471e-001,-8.560311e-006,0.000000e+000
1.564412e-001,-7.553216e-006,0.000000e+000
1.572353e-001,-8.896010e-006,0.000000e+000
1.580294e-001,-3.356985e-006,0.000000e+000
1.588235e-001,5.874723e-006,0.000000e+000
1.596176e-001,2.517739e-006,0.000000e+000
1.604118e-001,-1.678492e-007,0.000000e+000
1.612059e-001,-3.189136e-006,0.000000e+000
1.620000e-001,-4.531929e-006,0.000000e+000
1.627941e-001,-8.896010e-006,0.000000e+000
1.635882e-001,-1.443504e-005,0.000000e+000
1.643824e-001,-1.829557e-005,0.000000e+000
1.651765e-001,-2.433814e-005,0.000000e+000
1.659706e-001,-2.870222e-005,0.000000e+000
1.667647e-001,-3.239490e-005,0.000000e+000
1.675588e-001,-3.239490e-005,0.000000e+000
1.683529e-001,-3.508049e-005,0.000000e+000
1.691471e-001,-3.709468e-005,0.000000e+000
1.699412e-001,-3.205920e-005,0.000000e+000
1.707353e-001,-2.299535e-005,0.000000e+000
1.715294e-001,-1.023880e-005,0.000000e+000
1.723235e-001,-8.392462e-007,0.000000e+000
1.731176e-001,5.035477e-007,0.000000e+000
1.739118e-001,-8.392462e-007,0.000000e+000
1.747059e-001,1.174945e-006,0.000000e+000
1.755000e-001,1.057450e-005,0.000000e+000
1.762941e-001,2.299535e-005,0.000000e+000
1.770882e-001,2.047761e-005,0.000000e+000
1.778824e-001,1.124590e-005,0.000000e+000
1.786765e-001,1.510643e-006,0.000000e+000
1.794706e-001,-6.881819e-006,0.000000e+000
1.802647e-001,-1.225299e-005,0.000000e+000
1.810588e-001,-1.560998e-005,0.000000e+000
1.818529e-001,-1.795987e-005,0.000000e+000
1.826471e-001,-2.198825e-005,0.000000e+000
1.834412e-001,-2.635233e-005,0.000000e+000
1.842353e-001,-3.038071e-005,0.000000e+000
1.850294e-001,-3.373770e-005,0.000000e+000
1.858235e-001,-3.508049e-005,0.000000e+000
1.866176e-001,-3.071641e-005,0.000000e+000
1.874118e-001,-2.836652e-005,0.000000e+000
1.882059e-001,-2.903792e-005,0.000000e+000
1.890000e-001,-3.239490e-005,0.000000e+000
1.897941e-001,-3.138781e-005,0.000000e+000
1.905882e-001,-2.853437e-005,0.000000e+000
1.913824e-001,-2.198825e-005,0.000000e+000
1.921765e-001,-1.644922e-005,0.000000e+000
1.929706e-001,-1.040665e-005,0.000000e+000
1.937647e-001,-4.867628e-006,0.000000e+000
1.945588e-001,-4.196231e-006,0.000000e+000
1.953529e-001,-9.567407e-006,0.000000e+000
1.961471e-001,-1.359579e-005,0.000000e+000
1.969412e-001,-1.661708e-005,0.000000e+000
1.977353e-001,-2.064546e-005,0.000000e+000
1.985294e-001,-1.896696e-005,0.000000e+000
1.993235e-001,-1.829557e-005,0.000000e+000
2.001176e-001,-1.695277e-005,0.000000e+000
2.009118e-001,-1.359579e-005,0.000000e+000
2.017059e-001,-1.258869e-005,0.000000e+000
2.025000e-001,-9.567407e-006,0.000000e+000
2.032941e-001,-8.224612e-006,0.000000e+000
2.040882e-001,-6.210422e-006,0.000000e+000
2.048824e-001,-3.189136e-006,0.000000e+000
2.056765e-001,-8.224612e-006,0.000000e+000
2.064706e-001,-9.567407e-006,0.000000e+000
2.072647e-001,-9.567407e-006,0.000000e+000
2.080588e-001,-1.628138e-005,0.000000e+000
2.088529e-001,-1.829557e-005,0.000000e+000
2.096471e-001,-1.963836e-005,0.000000e+000
2.104412e-001,-2.114900e-005,0.000000e+000
2.112353e-001,-1.896696e-005,0.000000e+000
2.120294e-001,-2.098116e-005,0.000000e+000
2.128235e-001,-2.299535e-005,0.000000e+000
2.136176e-001,-2.366674e-005,0.000000e+000
2.144118e-001,-2.098116e-005,0.000000e+000
2.152059e-001,-2.836652e-005,0.000000e+000
2.160000e-001,-3.457694e-005,0.000000e+000
2.167941e-001,-2.500954e-005,0.000000e+000
2.175882e-001,-1.493858e-005,0.000000e+000
2.183824e-001,-1.460288e-005,0.000000e+000
2.191765e-001,-1.376364e-005,0.000000e+000
2.199706e-001,-5.706874e-006,0.000000e+000
2.207647e-001,3.524834e-006,0.000000e+000
2.215588e-001,2.333104e-005,0.000000e+000
2.223529e-001,4.280156e-005,0.000000e+000
2.231471e-001,4.347295e-005,0.000000e+000
2.239412e-001,4.095522e-005,0.000000e+000
2.247353e-001,3.591974e-005,0.000000e+000
2.255294e-001,3.004501e-005,0.000000e+000
2.263235e-001,2.098116e-005,0.000000e+000
2.271176e-001,1.493858e-005,0.000000e+000
2.279118e-001,1.443504e-005,0.000000e+000
2.287059e-001,9.063859e-006,0.000000e+000
2.295000e-001,-7.217518e-006,0.000000e+000
2.302941e-001,-1.527428e-005,0.000000e+000
2.310882e-001,-2.064546e-005,0.000000e+000
2.318824e-001,-2.450599e-005,0.000000e+000
2.326765e-001,-2.769513e-005,0.000000e+000
2.334706e-001,-2.903792e-005,0.000000e+000
2.342647e-001,-3.038071e-005,0.000000e+000
2.350588e-001,-3.239490e-005,0.000000e+000
2.358529e-001,-3.373770e-005,0.000000e+000
2.366471e-001,-3.205920e-005,0.000000e+000
2.374412e-001,-2.853437e-005,0.000000e+000
2.382353e-001,-2.467384e-005,0.000000e+000
2.390294e-001,-2.433814e-005,0.000000e+000
2.398235e-001,-2.232395e-005,0.000000e+000
2.406176e-001,-2.500954e-005,0.000000e+000
2.414118e-001,-2.500954e-005,0.000000e+000
2.422059e-001,-2.366674e-005,0.000000e+000
2.430000e-001,-2.400244e-005,0.000000e+000
2.437941e-001,-2.719158e-005,0.000000e+000
2.445882e-001,-2.635233e-005,0.000000e+000
2.453824e-001,-2.333104e-005,0.000000e+000
2.461765e-001,-2.517739e-005,0.000000e+000
2.469706e-001,-2.702373e-005,0.000000e+000
2.477647e-001,-2.433814e-005,0.000000e+000
2.485588e-001,-2.098116e-005,0.000000e+000
2.493529e-001,-2.165255e-005,1.673475e-005
2.501471e-001,-2.433814e-005,1.677930e-005
2.509412e-001,-2.467384e-005,1.683542e-005
2.517353e-001,-2.131685e-005,1.689290e-005
2.525294e-001,-1.896696e-005,1.693568e-005
2.533235e-001,-1.762417e-005,1.696947e-005
2.541176e-001,-1.460288e-005,1.699860e-005
2.549118e-001,-1.426719e-005,1.701856e-005
2.557059e-001,-1.695277e-005,1.703760e-005
2.565000e-001,-1.527428e-005,1.706443e-005
2.572941e-001,-8.560311e-006,1.708619e-005
2.580882e-001,-4.531929e-006,1.709302e-005
2.588824e-001,-4.867628e-006,1.709493e-005
2.596765e-001,-4.196231e-006,1.709714e-005
2.604706e-001,-7.888914e-006,1.709878e-005
2.612647e-001,-3.860533e-006,1.710457e-005
2.620588e-001,5.035477e-007,1.710596e-005
2.628529e-001,6.881819e-006,1.710598e-005
2.636471e-001,1.594568e-005,1.711039e-005
2.644412e-001,1.326009e-005,1.713404e-005
2.652353e-001,3.189136e-006,1.715037e-005
2.660294e-001,-3.524834e-006,1.715132e-005
2.668235e-001,-9.903105e-006,1.715247e-005
2.676176e-001,-1.560998e-005,1.716157e-005
2.684118e-001,-2.500954e-005,1.718417e-005
2.692059e-001,-3.541619e-005,1.724203e-005
2.700000e-001,-3.743038e-005,1.735748e-005
2.707941e-001,-3.340200e-005,1.748554e-005
2.715882e-001,-3.373770e-005,1.758685e-005
2.723824e-001,-2.702373e-005,1.768961e-005
2.731765e-001,-1.560998e-005,1.775522e-005
2.739706e-001,-1.091020e-005,1.777706e-005
2.747647e-001,-1.258869e-005,1.778772e-005
2.755588e-001,8.392462e-007,1.780190e-005
2.763529e-001,1.695277e-005,1.780196e-005
2.771471e-001,1.728847e-005,1.782765e-005
2.779412e-001,1.191730e-005,1.785433e-005
2.787353e-001,5.874723e-006,1.786699e-005
2.795294e-001,-2.182040e-006,1.787007e-005
2.803235e-001,-7.049668e-006,1.787049e-005
2.811176e-001,-9.231709e-006,1.787492e-005
2.819118e-001,-1.258869e-005,1.788251e-005
2.827059e-001,-1.493858e-005,1.789661e-005
2.835000e-001,-1.560998e-005,1.791646e-005
2.842941e-001,-1.527428e-005,1.793810e-005
2.850882e-001,-1.795987e-005,1.795880e-005
2.858824e-001,-2.114900e-005,1.798738e-005
2.866765e-001,-2.601663e-005,1.802693e-005
2.874706e-001,-2.568093e-005,1.808662e-005
2.882647e-001,-2.803082e-005,1.814459e-005
2.890588e-001,-2.769513e-005,1.821342e-005
2.898529e-001,-3.004501e-005,1.828035e-005
2.906471e-001,-2.668803e-005,1.835882e-005
2.914412e-001,-1.930266e-005,1.842049e-005
2.922353e-001,-1.292439e-005,1.845267e-005
2.930294e-001,-9.903105e-006,1.846708e-005
2.938235e-001,-9.567407e-006,1.847553e-005
2.946176e-001,-1.023880e-005,1.848342e-005
2.954118e-001,-1.191730e-005,1.849245e-005
2.962059e-001,-1.930266e-005,1.850468e-005
2.970000e-001,-2.098116e-005,1.853671e-005
2.977941e-001,-7.888914e-006,1.857449e-005
2.985882e-001,1.846342e-006,1.857982e-005
2.993824e-001,-2.517739e-006,1.858011e-005
3.001765e-001,1.174945e-006,1.858066e-005
3.009706e-001,1.393149e-005,1.858077e-005
3.017647e-001,1.426719e-005,1.859740e-005
3.025588e-001,1.158160e-005,1.861482e-005
3.033529e-001,7.888914e-006,1.862629e-005
3.041471e-001,-2.349889e-006,1.863161e-005
3.049412e-001,-1.426719e-005,1.863208e-005
3.057353e-001,-2.903792e-005,1.864947e-005
3.065294e-001,-3.457694e-005,1.872133e-005
3.073235e-001,-3.541619e-005,1.882274e-005
3.081176e-001,-3.457694e-005,1.892856e-005
3.089118e-001,-4.011597e-005,1.902887e-005
3.097059e-001,-4.246586e-005,1.916306e-005
3.105000e-001,-3.172351e-005,1.931233e-005
3.112941e-001,-2.333104e-005,1.939513e-005
3.120882e-001,-2.064546e-005,1.943977e-005
3.128824e-001,-1.829557e-005,1.947466e-005
3.136765e-001,-3.071641e-005,1.950200e-005
3.144706e-001,-3.373770e-005,1.957889e-005
3.152647e-001,-2.735943e-005,1.967125e-005
3.160588e-001,-1.695277e-005,1.973175e-005
3.168529e-001,-8.392462e-007,1.975493e-005
3.176471e-001,2.265965e-005,1.975498e-005
3.184412e-001,4.448005e-005,1.979633e-005
3.192353e-001,6.630045e-005,1.995484e-005
3.200294e-001,7.737850e-005,2.030258e-005
3.208235e-001,7.083238e-005,2.076687e-005
3.216176e-001,5.085832e-005,2.114808e-005
3.224118e-001,3.390555e-005,2.134195e-005
3.232059e-001,2.400244e-005,2.142755e-005
3.240000e-001,1.393149e-005,2.147032e-005
3.247941e-001,-6.546120e-006,2.148471e-005
3.255882e-001,-2.467384e-005,2.148789e-005
3.263824e-001,-3.843748e-005,2.153295e-005
3.271765e-001,-4.347295e-005,2.164194e-005
3.279706e-001,-4.599069e-005,2.178055e-005
3.287647e-001,-4.582284e-005,2.193464e-005
3.295588e-001,-4.515145e-005,2.208654e-005
3.303529e-001,-4.850843e-005,2.223304e-005
3.311471e-001,-5.119402e-005,2.240093e-005
3.319412e-001,-5.203327e-005,2.258646e-005
3.327353e-001,-4.800488e-005,2.277654e-005
3.335294e-001,-4.582284e-005,2.293709e-005
3.343235e-001,-4.414435e-005,2.308239e-005
3.351176e-001,-3.860533e-005,2.321644e-005
3.359118e-001,-3.407340e-005,2.331844e-005
3.367059e-001,-3.205920e-005,2.339758e-005
3.375000e-001,-3.038071e-005,2.346743e-005
3.382941e-001,-2.786297e-005,2.352997e-005
3.390882e-001,-2.500954e-005,2.358245e-005
3.398824e-001,-1.930266e-005,2.362465e-005
3.406765e-001,-1.426719e-005,2.364975e-005
3.414706e-001,-1.594568e-005,2.366345e-005
3.422647e-001,-1.795987e-005,2.368055e-005
3.430588e-001,-1.779202e-005,2.370223e-005
3.438529e-001,-1.292439e-005,2.372349e-005
3.446471e-001,-1.158160e-005,2.365120e-005
3.454412e-001,-1.225299e-005,2.359803e-005
3.462353e-001,-1.292439e-005,2.354582e-005
3.470294e-001,-1.493858e-005,2.349042e-005
3.478235e-001,-9.567407e-006,2.344835e-005
3.486176e-001,-9.567407e-006,2.342655e-005
3.494118e-001,-8.896010e-006,2.341323e-005
3.502059e-001,-1.091020e-005,2.339584e-005
3.510000e-001,-1.124590e-005,2.337945e-005
3.517941e-001,-5.539025e-006,2.337516e-005
3.525882e-001,-5.706874e-006,2.336987e-005
3.533824e-001,-1.510643e-006,2.336186e-005
3.541765e-001,2.182040e-006,2.335063e-005
3.549706e-001,1.174945e-006,2.333956e-005
3.557647e-001,-4.196231e-006,2.333504e-005
3.565588e-001,-8.224612e-006,2.333361e-005
3.573529e-001,-5.874723e-006,2.333661e-005
3.581471e-001,-3.524834e-006,2.333873e-005
3.589412e-001,-7.888914e-006,2.333915e-005
3.597353e-001,-8.560311e-006,2.334237e-005
3.605294e-001,-1.074235e-005,2.334636e-005
3.613235e-001,-1.359579e-005,2.335423e-005
3.621176e-001,-1.158160e-005,2.336344e-005
3.629118e-001,-1.124590e-005,2.336543e-005
3.637059e-001,-1.493858e-005,2.336691e-005
3.645000e-001,-1.896696e-005,2.337298e-005
3.652941e-001,-2.030976e-005,2.337942e-005
3.660882e-001,-2.232395e-005,2.339231e-005
3.668824e-001,-2.165255e-005,2.341237e-005
3.676765e-001,-1.712062e-005,2.342975e-005
3.684706e-001,-1.795987e-005,2.343711e-005
3.692647e-001,-1.762417e-005,2.344101e-005
3.700588e-001,-1.493858e-005,2.343501e-005
3.708529e-001,-1.527428e-005,2.340991e-005
3.716471e-001,-1.661708e-005,2.338090e-005
3.724412e-001,-1.292439e-005,2.334745e-005
3.732353e-001,-1.023880e-005,2.329301e-005
3.740294e-001,-1.376364e-005,2.324770e-005
3.748235e-001,-1.762417e-005,2.322009e-005
3.756176e-001,-1.695277e-005,2.322395e-005
3.764118e-001,-1.091020e-005,2.323498e-005
3.772059e-001,-6.378271e-006,2.324251e-005
3.780000e-001,3.021286e-006,2.324528e-005
3.787941e-001,2.182040e-006,2.324489e-005
3.795882e-001,-5.035477e-007,2.323060e-005
3.803824e-001,1.040665e-005,2.317734e-005
3.811765e-001,1.930266e-005,2.315453e-005
3.819706e-001,1.594568e-005,2.316303e-005
3.827647e-001,9.903105e-006,2.317965e-005
3.835588e-001,7.049668e-006,2.318281e-005
3.843529e-001,8.392462e-007,2.317019e-005
3.851471e-001,-4.196231e-006,2.313171e-005
3.859412e-001,-8.224612e-006,2.309098e-005
3.867353e-001,-7.888914e-006,2.303192e-005
3.875294e-001,-1.057450e-005,2.292842e-005
3.883235e-001,-1.426719e-005,2.280256e-005
3.891176e-001,-1.560998e-005,2.269453e-005
3.899118e-001,-1.913481e-005,2.260413e-005
3.907059e-001,-2.232395e-005,2.255284e-005
3.915000e-001,-2.500954e-005,2.251993e-005
3.922941e-001,-2.299535e-005,2.252169e-005
3.930882e-001,-1.963836e-005,2.255012e-005
3.938824e-001,-1.795987e-005,2.257588e-005
3.946765e-001,-2.400244e-005,2.258998e-005
3.954706e-001,-3.105211e-005,2.262056e-005
3.962647e-001,-3.440909e-005,2.267945e-005
3.970588e-001,-4.112306e-005,2.275973e-005
3.978529e-001,-4.330510e-005,2.287730e-005
3.986471e-001,-4.347295e-005,2.300534e-005
3.994412e-001,-4.599069e-005,2.313074e-005
4.002353e-001,-4.515145e-005,2.326562e-005
4.010294e-001,-4.414435e-005,2.337848e-005
4.018235e-001,-4.078737e-005,2.346613e-005
4.026176e-001,-3.138781e-005,2.352434e-005
4.034118e-001,-1.124590e-005,2.356120e-005
4.042059e-001,5.874723e-006,2.355032e-005
4.050000e-001,5.874723e-006,2.354106e-005
4.057941e-001,1.242084e-005,2.353844e-005
4.065882e-001,6.546120e-006,2.354502e-005
4.073824e-001,-5.035477e-007,2.354256e-005
4.081765e-001,7.888914e-006,2.354182e-005
4.089706e-001,1.174945e-006,2.354369e-005
4.097647e-001,-2.165255e-005,2.354336e-005
4.105588e-001,-3.743038e-005,2.357504e-005
4.113529e-001,-4.515145e-005,2.366880e-005
4.121471e-001,-4.649424e-005,2.380419e-005
4.129412e-001,-3.457694e-005,2.394309e-005
4.137353e-001,-1.594568e-005,2.400866e-005
4.145294e-001,1.846342e-006,2.400332e-005
4.153235e-001,2.534523e-005,2.396422e-005
4.161176e-001,5.220111e-005,2.395216e-005
4.169118e-001,7.335011e-005,2.406329e-005
4.177059e-001,6.764325e-005,2.434819e-005
4.185000e-001,4.934768e-005,2.456598e-005
4.192941e-001,3.457694e-005,2.463454e-005
4.200882e-001,2.333104e-005,2.464538e-005
4.208824e-001,1.560998e-005,2.464639e-005
4.216765e-001,9.231709e-006,2.465535e-005
4.224706e-001,1.191730e-005,2.466081e-005
4.232647e-001,1.124590e-005,2.466996e-005
4.240588e-001,4.531929e-006,2.467808e-005
4.248529e-001,-5.539025e-006,2.467932e-005
4.256471e-001,-1.258869e-005,2.467408e-005
4.264412e-001,-2.299535e-005,2.465017e-005
4.272353e-001,-3.457694e-005,2.465724e-005
4.280294e-001,-3.776608e-005,2.472619e-005
4.288235e-001,-4.045167e-005,2.481772e-005
4.296176e-001,-4.448005e-005,2.491947e-005
4.304118e-001,-4.481575e-005,2.503602e-005
4.312059e-001,-4.045167e-005,2.514802e-005
4.320000e-001,-3.927672e-005,2.523107e-005
4.327941e-001,-4.011597e-005,2.529782e-005
4.335882e-001,-4.179446e-005,2.535534e-005
4.343824e-001,-3.978027e-005,2.540703e-005
4.351765e-001,-3.843748e-005,2.543485e-005
4.359706e-001,-3.575189e-005,2.545030e-005
4.367647e-001,-3.273060e-005,2.547123e-005
4.375588e-001,-2.870222e-005,2.548790e-005
4.383529e-001,-2.433814e-005,2.548668e-005
4.391471e-001,-2.601663e-005,2.545811e-005
4.399412e-001,-2.467384e-005,2.543882e-005
4.407353e-001,-2.165255e-005,2.542596e-005
4.415294e-001,-2.030976e-005,2.542504e-005
4.423235e-001,-1.829557e-005,2.543393e-005
4.431176e-001,-1.628138e-005,2.544810e-005
4.439118e-001,-1.628138e-005,2.546320e-005
4.447059e-001,-1.560998e-005,2.547867e-005
4.455000e-001,-1.460288e-005,2.548818e-005
4.462941e-001,-1.493858e-005,2.548995e-005
4.470882e-001,-1.393149e-005,2.548664e-005
4.478824e-001,-9.231709e-006,2.547213e-005
4.486765e-001,-1.057450e-005,2.545496e-005
4.494706e-001,-1.091020e-005,2.544102e-005
4.502647e-001,-8.896010e-006,2.543048e-005
4.510588e-001,-9.903105e-006,2.542386e-005
4.518529e-001,-1.107805e-005,2.542007e-005
4.526471e-001,-8.224612e-006,2.542203e-005
4.534412e-001,-7.888914e-006,2.542203e-005
4.542353e-001,-5.706874e-006,2.542351e-005
4.550294e-001,-7.553216e-006,2.542491e-005
4.558235e-001,-8.224612e-006,2.542425e-005
4.566176e-001,-7.553216e-006,2.542275e-005
4.574118e-001,-4.364080e-006,2.542059e-005
4.582059e-001,-4.531929e-006,2.540518e-005
4.590000e-001,-5.539025e-006,2.538547e-005
4.597941e-001,-1.023880e-005,2.536320e-005
4.605882e-001,-1.258869e-005,2.534169e-005
4.613824e-001,-1.426719e-005,2.532904e-005
4.621765e-001,-1.863127e-005,2.531416e-005
4.629706e-001,-2.098116e-005,2.530273e-005
4.637647e-001,-2.198825e-005,2.529518e-005
4.645588e-001,-2.165255e-005,2.529790e-005
4.653529e-001,-2.182040e-005,2.527676e-005
4.661471e-001,-2.131685e-005,2.523139e-005
4.669412e-001,-1.896696e-005,2.522060e-005
4.677353e-001,-1.493858e-005,2.522922e-005
4.685294e-001,-1.023880e-005,2.522984e-005
4.693235e-001,-7.553216e-006,2.522450e-005
4.701176e-001,-4.196231e-006,2.522605e-005
4.709118e-001,-3.189136e-006,2.522637e-005
4.717059e-001,-7.217518e-006,2.519263e-005
4.725000e-001,-5.539025e-006,2.507988e-005
4.732941e-001,-7.217518e-006,2.496156e-005
4.740882e-001,-1.426719e-005,2.485766e-005
4.748824e-001,-1.091020e-005,2.478795e-005
4.756765e-001,-4.364080e-006,2.473756e-005
4.764706e-001,-8.896010e-006,2.471043e-005
4.772647e-001,-1.712062e-005,2.470115e-005
4.780588e-001,-2.030976e-005,2.470661e-005
4.788529e-001,-2.030976e-005,2.472789e-005
4.796471e-001,-2.316319e-005,2.475109e-005
4.804412e-001,-2.198825e-005,2.477059e-005
4.812353e-001,-1.560998e-005,2.477427e-005
4.820294e-001,-1.661708e-005,2.475132e-005
4.828235e-001,-1.896696e-005,2.471972e-005
4.836176e-001,-1.728847e-005,2.468856e-005
4.844118e-001,-1.191730e-005,2.464827e-005
4.852059e-001,-4.867628e-006,2.458958e-005
4.860000e-001,-5.035477e-006,2.451730e-005
4.867941e-001,-1.292439e-005,2.445211e-005
4.875882e-001,-1.846342e-005,2.440993e-005
4.883824e-001,-1.930266e-005,2.439244e-005
4.891765e-001,-2.299535e-005,2.437809e-005
4.899706e-001,-2.903792e-005,2.438008e-005
4.907647e-001,-3.340200e-005,2.439430e-005
4.915588e-001,-2.836652e-005,2.442628e-005
4.923529e-001,-1.091020e-005,2.444221e-005
4.931471e-001,7.888914e-006,2.441241e-005
4.939412e-001,1.560998e-005,2.436821e-005
4.947353e-001,2.030976e-005,2.433873e-005
4.955294e-001,3.474479e-005,2.433011e-005
4.963235e-001,3.608759e-005,2.436760e-005
4.971176e-001,3.105211e-005,2.440495e-005
4.979118e-001,3.105211e-005,2.442920e-005
4.987059e-001,2.803082e-005,2.446334e-005
4.995000e-001,2.232395e-005,2.448395e-005
5.002941e-001,1.644922e-005,2.447784e-005
5.010882e-001,1.846342e-006,2.445583e-005
5.018824e-001,-1.158160e-005,2.442644e-005
5.026765e-001,-1.577783e-005,2.441173e-005
5.034706e-001,-2.047761e-005,2.440771e-005
5.042647e-001,-2.769513e-005,2.442115e-005
5.050588e-001,-2.903792e-005,2.445786e-005
5.058529e-001,-3.138781e-005,2.449402e-005
5.066471e-001,-3.407340e-005,2.454285e-005
5.074412e-001,-3.138781e-005,2.461333e-005
5.082353e-001,-3.239490e-005,2.467566e-005
5.090294e-001,-3.239490e-005,2.474176e-005
5.098235e-001,-3.239490e-005,2.480808e-005
5.106176e-001,-3.205920e-005,2.487136e-005
5.114118e-001,-3.138781e-005,2.493613e-005
5.122059e-001,-3.407340e-005,2.499894e-005
5.130000e-001,-3.105211e-005,2.506978e-005
5.137941e-001,-3.138781e-005,2.511483e-005
5.145882e-001,-2.836652e-005,2.516610e-005
5.153824e-001,-2.433814e-005,2.521632e-005
5.161765e-001,-2.098116e-005,2.525291e-005
5.169706e-001,-1.829557e-005,2.527448e-005
5.177647e-001,-2.030976e-005,2.528021e-005
5.185588e-001,-2.098116e-005,2.526679e-005
5.193529e-001,-2.299535e-005,2.521544e-005
5.201471e-001,-2.232395e-005,2.516029e-005
5.209412e-001,-1.997406e-005,2.512119e-005
5.217353e-001,-1.762417e-005,2.507429e-005
5.225294e-001,-1.728847e-005,2.504762e-005
5.233235e-001,-1.762417e-005,2.505113e-005
5.241176e-001,-1.393149e-005,2.506331e-005
5.249118e-001,-7.217518e-006,2.506557e-005
5.257059e-001,-8.896010e-006,2.506883e-005
5.265000e-001,-1.124590e-005,2.505560e-005
5.272941e-001,-1.762417e-005,2.504464e-005
5.280882e-001,-1.930266e-005,2.505536e-005
5.288824e-001,-2.165255e-005,2.507684e-005
5.296765e-001,-2.836652e-005,2.510629e-005
5.304706e-001,-3.205920e-005,2.515412e-005
5.312647e-001,-3.927672e-005,2.521372e-005
5.320588e-001,-5.253681e-005,2.530099e-005
5.328529e-001,-4.582284e-005,2.546015e-005
5.336471e-001,-2.836652e-005,2.557597e-005
5.344412e-001,-1.510643e-005,2.561152e-005
5.352353e-001,-4.196231e-006,2.560566e-005
5.360294e-001,7.888914e-006,2.557892e-005
5.368235e-001,1.863127e-005,2.554063e-005
5.376176e-001,4.716563e-005,2.552115e-005
5.384118e-001,6.697185e-005,2.561077e-005
5.392059e-001,5.992218e-005,2.584091e-005
5.400000e-001,5.622950e-005,2.600602e-005
5.407941e-001,4.179446e-005,2.615558e-005
5.415882e-001,2.937362e-005,2.623910e-005
5.423824e-001,1.997406e-005,2.628129e-005
5.431765e-001,3.860533e-006,2.629952e-005
5.439706e-001,-7.049668e-006,2.629488e-005
5.447647e-001,-1.493858e-005,2.629154e-005
5.455588e-001,-2.131685e-005,2.629645e-005
5.463529e-001,-2.635233e-005,2.630141e-005
5.471471e-001,-2.836652e-005,2.631679e-005
5.479412e-001,-2.903792e-005,2.636168e-005
5.487353e-001,-2.836652e-005,2.641236e-005
5.495294e-001,-3.071641e-005,2.646044e-005
5.503235e-001,-3.373770e-005,2.651707e-005
5.511176e-001,-3.105211e-005,2.657371e-005
5.519118e-001,-3.038071e-005,2.661925e-005
5.527059e-001,-3.239490e-005,2.666640e-005
5.535000e-001,-2.970932e-005,2.672529e-005
5.542941e-001,-2.769513e-005,2.677750e-005
5.550882e-001,-2.517739e-005,2.681098e-005
5.558824e-001,-2.702373e-005,2.679855e-005
5.566765e-001,-2.165255e-005,2.677089e-005
5.574706e-001,-2.232395e-005,2.672413e-005
5.582647e-001,-2.198825e-005,2.668255e-005
5.590588e-001,-2.064546e-005,2.661528e-005
5.598529e-001,-1.829557e-005,2.653276e-005
5.606471e-001,-1.695277e-005,2.649242e-005
5.614412e-001,-1.493858e-005,2.647697e-005
5.622353e-001,-1.258869e-005,2.646476e-005
5.630294e-001,-1.158160e-005,2.645415e-005
5.638235e-001,-1.577783e-005,2.640539e-005
5.646176e-001,-1.158160e-005,2.635170e-005
5.654118e-001,-1.393149e-005,2.631455e-005
5.662059e-001,-1.829557e-005,2.630890e-005
5.670000e-001,-1.460288e-005,2.632911e-005
5.677941e-001,-1.393149e-005,2.631095e-005
5.685882e-001,-1.863127e-005,2.620274e-005
5.693824e-001,-2.601663e-005,2.595553e-005
5.701765e-001,-2.970932e-005,2.562766e-005
5.709706e-001,-2.903792e-005,2.536946e-005
5.717647e-001,-2.903792e-005,2.525980e-005
5.725588e-001,-2.769513e-005,2.524048e-005
5.733529e-001,-2.601663e-005,2.525252e-005
5.741471e-001,-2.030976e-005,2.528294e-005
5.749412e-001,-1.225299e-005,2.530621e-005
5.757353e-001,-3.524834e-006,2.527733e-005
5.765294e-001,8.896010e-006,2.518488e-005
5.773235e-001,1.191730e-005,2.507013e-005
5.781176e-001,2.265965e-005,2.494449e-005
5.789118e-001,2.668803e-005,2.484302e-005
5.797059e-001,2.450599e-005,2.475786e-005
5.805000e-001,1.930266e-005,2.464488e-005
5.812941e-001,1.712062e-005,2.449919e-005
5.820882e-001,9.903105e-006,2.434176e-005
5.828824e-001,1.846342e-006,2.419699e-005
5.836765e-001,-6.210422e-006,2.405864e-005
5.844706e-001,-8.560311e-006,2.393188e-005
5.852647e-001,-1.225299e-005,2.383741e-005
5.860588e-001,-1.762417e-005,2.376978e-005
5.868529e-001,-1.795987e-005,2.372169e-005
5.876471e-001,-1.795987e-005,2.368135e-005
5.884412e-001,-1.863127e-005,2.365082e-005
5.892353e-001,-2.265965e-005,2.363207e-005
5.900294e-001,-2.500954e-005,2.364156e-005
5.908235e-001,-2.333104e-005,2.366996e-005
5.916176e-001,-2.299535e-005,2.368947e-005
5.924118e-001,-2.366674e-005,2.370333e-005
5.932059e-001,-2.769513e-005,2.371968e-005
5.940000e-001,-3.642328e-005,2.375993e-005
5.947941e-001,-4.448005e-005,2.383971e-005
5.955882e-001,-5.421531e-005,2.396152e-005
5.963824e-001,-6.126497e-005,2.414505e-005
5.971765e-001,-6.529335e-005,2.437676e-005
5.979706e-001,-6.227207e-005,2.464776e-005
5.987647e-001,-4.985122e-005,2.489116e-005
5.995588e-001,-3.373770e-005,2.504461e-005
6.003529e-001,-1.359579e-005,2.510933e-005
6.011471e-001,1.644922e-005,2.511303e-005
6.019412e-001,4.061952e-005,2.512824e-005
6.027353e-001,4.213016e-005,2.523052e-005
6.035294e-001,5.018692e-005,2.534215e-005
6.043235e-001,6.831464e-005,2.549962e-005
6.051176e-001,6.529335e-005,2.578932e-005
6.059118e-001,4.515145e-005,2.605015e-005
6.067059e-001,2.786297e-005,2.617035e-005
6.075000e-001,1.560998e-005,2.621545e-005
6.082941e-001,8.392462e-007,2.622949e-005
6.090882e-001,-8.896010e-006,2.622576e-005
6.098824e-001,-1.393149e-005,2.622611e-005
6.106765e-001,-1.963836e-005,2.623089e-005
6.114706e-001,-2.735943e-005,2.624308e-005
6.122647e-001,-3.172351e-005,2.628033e-005
6.130588e-001,-3.709468e-005,2.633359e-005
6.138529e-001,-3.642328e-005,2.640321e-005
6.146471e-001,-3.407340e-005,2.646146e-005
6.154412e-001,-3.239490e-005,2.650646e-005
6.162353e-001,-3.306630e-005,2.653955e-005
6.170294e-001,-3.440909e-005,2.657700e-005
6.178235e-001,-3.105211e-005,2.663032e-005
6.186176e-001,-3.172351e-005,2.666866e-005
6.194118e-001,-3.323415e-005,2.671017e-005
6.202059e-001,-3.121996e-005,2.676266e-005
6.210000e-001,-2.836652e-005,2.680674e-005
6.217941e-001,-2.769513e-005,2.683811e-005
6.225882e-001,-2.903792e-005,2.687369e-005
6.233824e-001,-2.735943e-005,2.691740e-005
6.241765e-001,-2.568093e-005,2.695046e-005
6.249706e-001,-1.980621e-005,2.697107e-005
6.257647e-001,-1.644922e-005,2.697726e-005
6.265588e-001,-1.762417e-005,2.698620e-005
6.273529e-001,-1.728847e-005,2.700212e-005
6.281471e-001,-1.527428e-005,2.701921e-005
6.289412e-001,-1.560998e-005,2.703267e-005
6.297353e-001,-1.493858e-005,2.704701e-005
6.305294e-001,-1.057450e-005,2.705377e-005
6.313235e-001,-9.903105e-006,2.703842e-005
6.321176e-001,-9.903105e-006,2.702921e-005
6.329118e-001,-6.210422e-006,2.702921e-005
6.337059e-001,-5.203327e-006,2.702856e-005
6.345000e-001,-1.124590e-005,2.703012e-005
6.352941e-001,-1.695277e-005,2.703653e-005
6.360882e-001,-9.903105e-006,2.704947e-005
6.368824e-001,5.203327e-006,2.705158e-005
6.376765e-001,1.057450e-005,2.704659e-005
6.384706e-001,3.524834e-006,2.704119e-005
6.392647e-001,3.860533e-006,2.702757e-005
6.400588e-001,2.517739e-006,2.700686e-005
6.408529e-001,-2.182040e-006,2.697784e-005
6.416471e-001,-3.189136e-006,2.694118e-005
6.424412e-001,-8.224612e-006,2.691051e-005
6.432353e-001,-1.091020e-005,2.689168e-005
6.440294e-001,-1.426719e-005,2.687963e-005
6.448235e-001,-1.577783e-005,2.685755e-005
6.456176e-001,-1.158160e-005,2.681511e-005
6.464118e-001,-7.553216e-006,2.675269e-005
6.472059e-001,-9.567407e-006,2.665525e-005
6.480000e-001,-8.224612e-006,2.654848e-005
6.487941e-001,-7.553216e-006,2.643895e-005
6.495882e-001,-1.225299e-005,2.631471e-005
6.503824e-001,-1.896696e-005,2.620018e-005
6.511765e-001,-1.829557e-005,2.610343e-005
6.519706e-001,-1.644922e-005,2.602224e-005
6.527647e-001,-1.762417e-005,2.597847e-005
6.535588e-001,-1.762417e-005,2.598976e-005
6.543529e-001,-1.695277e-005,2.600667e-005
6.551471e-001,-2.030976e-005,2.602215e-005
6.559412e-001,-1.896696e-005,2.603794e-005
6.567353e-001,-1.896696e-005,2.605731e-005
6.575294e-001,-2.165255e-005,2.607927e-005
6.583235e-001,-1.695277e-005,2.610409e-005
6.591176e-001,-1.359579e-005,2.612153e-005
6.599118e-001,-1.158160e-005,2.610421e-005
6.607059e-001,-1.393149e-005,2.602682e-005
6.615000e-001,-1.158160e-005,2.591372e-005
6.622941e-001,-1.091020e-005,2.578882e-005
6.630882e-001,-1.225299e-005,2.572227e-005
6.638824e-001,-1.023880e-005,2.571582e-005
6.646765e-001,-1.225299e-005,2.572210e-005
6.654706e-001,-1.560998e-005,2.569161e-005
6.662647e-001,-1.577783e-005,2.553736e-005
6.670588e-001,-1.393149e-005,2.521537e-005
6.678529e-001,-1.225299e-005,2.493714e-005
6.686471e-001,-1.577783e-005,2.479080e-005
6.694412e-001,-1.560998e-005,2.472992e-005
6.702353e-001,-1.628138e-005,2.471055e-005
6.710294e-001,-1.762417e-005,2.471193e-005
6.718235e-001,-1.762417e-005,2.472645e-005
6.726176e-001,-1.628138e-005,2.473731e-005
6.734118e-001,-1.560998e-005,2.474623e-005
6.742059e-001,-1.527428e-005,2.476058e-005
6.750000e-001,-1.225299e-005,2.477361e-005
6.757941e-001,-1.158160e-005,2.477307e-005
6.765882e-001,-1.225299e-005,2.474769e-005
6.773824e-001,-1.225299e-005,2.468033e-005
6.781765e-001,-1.309224e-005,2.459786e-005
6.789706e-001,-5.035477e-006,2.450284e-005
6.797647e-001,-7.553216e-006,2.437559e-005
6.805588e-001,-1.091020e-005,2.424777e-005
6.813529e-001,-1.510643e-005,2.414793e-005
6.821471e-001,-1.628138e-005,2.406109e-005
6.829412e-001,-8.896010e-006,2.397197e-005
6.837353e-001,-4.699779e-006,2.386094e-005
6.845294e-001,-4.196231e-006,2.375658e-005
6.853235e-001,-5.539025e-006,2.365853e-005
6.861176e-001,-1.107805e-005,2.357441e-005
6.869118e-001,-2.064546e-005,2.351025e-005
6.877059e-001,-3.373770e-005,2.348331e-005
6.885000e-001,-3.575189e-005,2.352030e-005
6.892941e-001,-3.642328e-005,2.356097e-005
6.900882e-001,-4.112306e-005,2.360944e-005
6.908824e-001,-3.642328e-005,2.369173e-005
6.916765e-001,-1.980621e-005,2.375309e-005
6.924706e-001,2.517739e-006,2.375695e-005
6.932647e-001,1.594568e-005,2.373960e-005
6.940588e-001,1.359579e-005,2.373888e-005
6.948529e-001,2.030976e-005,2.373493e-005
6.956471e-001,2.735943e-005,2.374829e-005
6.964412e-001,3.944457e-005,2.378349e-005
6.972353e-001,3.407340e-005,2.387449e-005
6.980294e-001,2.064546e-005,2.394614e-005
6.988235e-001,6.546120e-006,2.396704e-005
6.996176e-001,-2.853437e-006,2.396197e-005
7.004118e-001,-6.378271e-006,2.395725e-005
7.012059e-001,-1.225299e-005,2.395344e-005
7.020000e-001,-1.863127e-005,2.395526e-005
7.027941e-001,-2.568093e-005,2.397383e-005
7.035882e-001,-2.786297e-005,2.401347e-005
7.043824e-001,-2.568093e-005,2.406274e-005
7.051765e-001,-2.735943e-005,2.410258e-005
7.059706e-001,-3.038071e-005,2.414752e-005
7.067647e-001,-3.038071e-005,2.420456e-005
7.075588e-001,-2.568093e-005,2.426395e-005
7.083529e-001,-2.433814e-005,2.430585e-005
7.091471e-001,-2.198825e-005,2.434262e-005
7.099412e-001,-2.198825e-005,2.436737e-005
7.107353e-001,-2.333104e-005,2.438860e-005
7.115294e-001,-2.601663e-005,2.441084e-005
7.123235e-001,-2.433814e-005,2.443234e-005
7.131176e-001,-2.232395e-005,2.444226e-005
7.139118e-001,-2.500954e-005,2.444322e-005
7.147059e-001,-2.702373e-005,2.445343e-005
7.155000e-001,-2.568093e-005,2.446997e-005
7.162941e-001,-2.249180e-005,2.448332e-005
7.170882e-001,-2.030976e-005,2.449282e-005
7.178824e-001,-1.762417e-005,2.450512e-005
7.186765e-001,-1.930266e-005,2.451849e-005
7.194706e-001,-1.191730e-005,2.453897e-005
7.202647e-001,-4.531929e-006,2.454705e-005
7.210588e-001,-5.539025e-006,2.454772e-005
7.218529e-001,-3.356985e-006,2.454633e-005
7.226471e-001,-5.035477e-007,2.454507e-005
7.234412e-001,8.392462e-007,2.454171e-005
7.242353e-001,6.881819e-006,2.452854e-005
7.250294e-001,2.853437e-006,2.452389e-005
7.258235e-001,3.356985e-007,2.452318e-005
7.266176e-001,5.035477e-007,2.451805e-005
7.274118e-001,-2.853437e-006,2.449902e-005
7.282059e-001,-5.539025e-006,2.447273e-005
7.290000e-001,-7.553216e-006,2.444787e-005
7.297941e-001,-1.158160e-005,2.441662e-005
7.305882e-001,-1.292439e-005,2.439383e-005
7.313824e-001,-1.493858e-005,2.438883e-005
7.321765e-001,-1.762417e-005,2.438537e-005
7.329706e-001,-2.047761e-005,2.438216e-005
7.337647e-001,-1.896696e-005,2.439002e-005
7.345588e-001,-1.762417e-005,2.440423e-005
7.353529e-001,-2.232395e-005,2.442295e-005
7.361471e-001,-3.038071e-005,2.445377e-005
7.369412e-001,-4.213016e-005,2.450294e-005
7.377353e-001,-5.824369e-005,2.459596e-005
7.385294e-001,-6.495765e-005,2.479069e-005
7.393235e-001,-6.327916e-005,2.502663e-005
7.401176e-001,-5.522240e-005,2.522695e-005
7.409118e-001,-4.515145e-005,2.534872e-005
7.417059e-001,-3.373770e-005,2.542612e-005
7.425000e-001,-1.779202e-005,2.548987e-005
7.432941e-001,3.189136e-006,2.550575e-005
7.440882e-001,3.172351e-005,2.549117e-005
7.448824e-001,5.925078e-005,2.552824e-005
7.456765e-001,7.502861e-005,2.567152e-005
7.464706e-001,7.620356e-005,2.593853e-005
7.472647e-001,5.891508e-005,2.623414e-005
7.480588e-001,4.213016e-005,2.638585e-005
7.488529e-001,2.333104e-005,2.644549e-005
7.496471e-001,9.903105e-006,2.644826e-005
7.504412e-001,-1.678492e-007,2.643787e-005
7.512353e-001,-1.242084e-005,2.643766e-005
7.520294e-001,-2.030976e-005,2.643887e-005
7.528235e-001,-2.198825e-005,2.644872e-005
7.536176e-001,-2.433814e-005,2.645259e-005
7.544118e-001,-3.323415e-005,2.644207e-005
7.552059e-001,-4.515145e-005,2.645780e-005
7.560000e-001,-4.783703e-005,2.652113e-005
7.567941e-001,-4.582284e-005,2.658873e-005
7.575882e-001,-4.464790e-005,2.665539e-005
7.583824e-001,-3.978027e-005,2.671173e-005
7.591765e-001,-3.508049e-005,2.674349e-005
7.599706e-001,-3.172351e-005,2.675427e-005
7.607647e-001,-1.963836e-005,2.675300e-005
7.615588e-001,-3.189136e-006,2.671729e-005
7.623529e-001,1.007095e-006,2.664861e-005
7.631471e-001,-1.510643e-006,2.659099e-005
7.639412e-001,-3.524834e-006,2.653207e-005
7.647353e-001,-1.426719e-005,2.648448e-005
7.655294e-001,-2.433814e-005,2.646109e-005
7.663235e-001,-2.803082e-005,2.647025e-005
7.671176e-001,-2.870222e-005,2.649736e-005
7.679118e-001,-2.568093e-005,2.652207e-005
7.687059e-001,-2.769513e-005,2.653523e-005
7.695000e-001,-2.970932e-005,2.654953e-005
7.702941e-001,-2.702373e-005,2.657256e-005
7.710882e-001,-1.963836e-005,2.659241e-005
7.718824e-001,-4.196231e-006,2.659690e-005
7.726765e-001,4.531929e-006,2.658006e-005
7.734706e-001,1.174945e-006,2.656267e-005
7.742647e-001,-3.860533e-006,2.655112e-005
7.750588e-001,-6.210422e-006,2.654889e-005
7.758529e-001,-2.853437e-006,2.654646e-005
7.766471e-001,-4.867628e-006,2.653936e-005
7.774412e-001,-3.692683e-006,2.652214e-005
7.782353e-001,-4.196231e-006,2.650058e-005
7.790294e-001,-6.881819e-006,2.647345e-005
7.798235e-001,-2.769513e-005,2.642786e-005
7.806176e-001,-5.790799e-005,2.641214e-005
7.814118e-001,-6.831464e-005,2.652108e-005
7.822059e-001,-6.529335e-005,2.663532e-005
7.830000e-001,-5.455100e-005,2.676435e-005
7.837941e-001,-4.213016e-005,2.689321e-005
7.845882e-001,-2.702373e-005,2.698464e-005
7.853824e-001,-4.196231e-006,2.702666e-005
7.861765e-001,2.433814e-005,2.702403e-005
7.869706e-001,5.925078e-005,2.703848e-005
7.877647e-001,7.872129e-005,2.711411e-005
7.885588e-001,8.627451e-005,2.721446e-005
7.893529e-001,7.872129e-005,2.743895e-005
7.901471e-001,4.951553e-005,2.761454e-005
7.909412e-001,2.668803e-005,2.765516e-005
7.917353e-001,9.231709e-006,2.764649e-005
7.925294e-001,-1.023880e-005,2.762842e-005
7.933235e-001,-2.165255e-005,2.763360e-005
7.941176e-001,-2.568093e-005,2.765774e-005
7.949118e-001,-2.836652e-005,2.768285e-005
7.957059e-001,-2.937362e-005,2.770299e-005
7.965000e-001,-3.440909e-005,2.771267e-005
7.972941e-001,-3.575189e-005,2.773445e-005
7.980882e-001,-3.776608e-005,2.775942e-005
7.988824e-001,-3.407340e-005,2.779505e-005
7.996765e-001,-3.776608e-005,2.780751e-005
8.004706e-001,-4.280156e-005,2.782400e-005
8.012647e-001,-4.213016e-005,2.787362e-005
8.020588e-001,-3.675899e-005,2.792224e-005
8.028529e-001,-2.836652e-005,2.793945e-005
8.036471e-001,-2.769513e-005,2.793500e-005
8.044412e-001,-2.769513e-005,2.793500e-005
8.052353e-001,-2.500954e-005,2.794259e-005
8.060294e-001,-1.963836e-005,2.793662e-005
8.068235e-001,-1.980621e-005,2.793188e-005
8.076176e-001,-1.863127e-005,2.792583e-005
8.084118e-001,-1.309224e-005,2.791805e-005
8.092059e-001,-1.426719e-005,2.790352e-005
8.100000e-001,-1.594568e-005,2.789603e-005
8.107941e-001,-1.527428e-005,2.789414e-005
8.115882e-001,-1.460288e-005,2.789472e-005
8.123824e-001,-1.594568e-005,2.789784e-005
8.131765e-001,-1.628138e-005,2.790470e-005
8.139706e-001,-1.124590e-005,2.790562e-005
8.147647e-001,-7.553216e-006,2.790518e-005
8.155588e-001,-1.007095e-006,2.789736e-005
8.163529e-001,-4.867628e-006,2.787831e-005
8.171471e-001,-1.225299e-005,2.786748e-005
8.179412e-001,-9.903105e-006,2.786497e-005
8.187353e-001,-1.091020e-005,2.785073e-005
8.195294e-001,-1.963836e-005,2.781882e-005
8.203235e-001,-1.896696e-005,2.779036e-005
8.211176e-001,-1.258869e-005,2.776264e-005
8.219118e-001,-3.692683e-006,2.772334e-005
8.227059e-001,-7.888914e-006,2.768003e-005
8.235000e-001,-1.527428e-005,2.764465e-005
8.242941e-001,-1.863127e-005,2.763433e-005
8.250882e-001,-1.628138e-005,2.764568e-005
8.258824e-001,-9.903105e-006,2.766023e-005
8.266765e-001,-9.063859e-006,2.766132e-005
8.274706e-001,-7.049668e-006,2.765787e-005
8.282647e-001,-2.853437e-006,2.763116e-005
8.290588e-001,-1.678492e-007,2.759055e-005
8.298529e-001,-5.539025e-006,2.755587e-005
8.306471e-001,-4.196231e-006,2.753611e-005
8.314412e-001,-6.210422e-006,2.752017e-005
8.322353e-001,-8.896010e-006,2.751673e-005
8.330294e-001,-9.903105e-006,2.752111e-005
8.338235e-001,-1.493858e-005,2.752455e-005
8.346176e-001,-1.829557e-005,2.753322e-005
8.354118e-001,-1.896696e-005,2.754390e-005
8.362059e-001,-2.064546e-005,2.754674e-005
8.370000e-001,-2.299535e-005,2.755273e-005
8.377941e-001,-2.030976e-005,2.756465e-005
8.385882e-001,-1.527428e-005,2.756842e-005
8.393824e-001,-1.225299e-005,2.755223e-005
8.401765e-001,-1.158160e-005,2.752475e-005
8.409706e-001,-1.359579e-005,2.750101e-005
8.417647e-001,-1.661708e-005,2.748109e-005
8.425588e-001,-2.299535e-005,2.746463e-005
8.433529e-001,-3.038071e-005,2.745081e-005
8.441471e-001,-2.970932e-005,2.742738e-005
8.449412e-001,-2.769513e-005,2.736369e-005
8.457353e-001,-3.038071e-005,2.723699e-005
8.465294e-001,-3.155566e-005,2.707101e-005
8.473235e-001,-2.836652e-005,2.687812e-005
8.481176e-001,-2.232395e-005,2.669544e-005
8.489118e-001,-1.158160e-005,2.657666e-005
8.497059e-001,-5.203327e-006,2.651643e-005
8.505000e-001,-1.678492e-007,2.650696e-005
8.512941e-001,1.023880e-005,2.649070e-005
8.520882e-001,1.560998e-005,2.639766e-005
8.528824e-001,1.728847e-005,2.630513e-005
8.536765e-001,1.393149e-005,2.617041e-005
8.544706e-001,1.124590e-005,2.589682e-005
8.552647e-001,9.903105e-006,2.564120e-005
8.560588e-001,5.874723e-006,2.552040e-005
8.568529e-001,-1.174945e-006,2.547407e-005
8.576471e-001,-6.210422e-006,2.545892e-005
8.584412e-001,-1.091020e-005,2.546129e-005
8.592353e-001,-3.189136e-006,2.546379e-005
8.600294e-001,-2.517739e-006,2.545228e-005
8.608235e-001,-4.531929e-006,2.542854e-005
8.616176e-001,-4.196231e-006,2.538291e-005
8.624118e-001,-9.567407e-006,2.532081e-005
8.632059e-001,-1.359579e-005,2.523990e-005
8.640000e-001,-1.493858e-005,2.516776e-005
8.647941e-001,-2.047761e-005,2.510835e-005
8.655882e-001,-2.366674e-005,2.506836e-005
8.663824e-001,-2.265965e-005,2.503447e-005
8.671765e-001,-2.064546e-005,2.499178e-005
8.679706e-001,-2.182040e-005,2.495748e-005
8.687647e-001,-2.635233e-005,2.492362e-005
8.695588e-001,-2.903792e-005,2.489741e-005
8.703529e-001,-2.870222e-005,2.488900e-005
8.711471e-001,-2.769513e-005,2.489023e-005
8.719412e-001,-2.903792e-005,2.489023e-005
8.727353e-001,-3.306630e-005,2.489023e-005
8.735294e-001,-3.575189e-005,2.491228e-005
8.743235e-001,-3.373770e-005,2.495179e-005
8.751176e-001,-2.433814e-005,2.499935e-005
8.759118e-001,-1.560998e-005,2.501984e-005
8.767059e-001,-1.091020e-005,2.501558e-005
8.775000e-001,1.678492e-007,2.500413e-005
8.782941e-001,5.035477e-006,2.498927e-005
8.790882e-001,7.553216e-006,2.497535e-005
8.798824e-001,1.174945e-006,2.496476e-005
8.806765e-001,-1.007095e-006,2.495771e-005
8.814706e-001,-2.853437e-006,2.495152e-005
8.822647e-001,-5.874723e-006,2.494578e-005
8.830588e-001,-6.881819e-006,2.494552e-005
8.838529e-001,-4.196231e-006,2.494682e-005
8.846471e-001,-6.881819e-006,2.493987e-005
8.854412e-001,-6.881819e-006,2.492453e-005
8.862353e-001,-7.721065e-006,2.492130e-005
8.870294e-001,-3.189136e-006,2.492337e-005
8.878235e-001,3.524834e-006,2.491688e-005
8.886176e-001,1.863127e-005,2.491688e-005
8.894118e-001,3.205920e-005,2.493810e-005
8.902059e-001,1.795987e-005,2.500324e-005
8.910000e-001,1.846342e-006,2.502347e-005
8.917941e-001,-5.539025e-006,2.502304e-005
8.925882e-001,-1.628138e-005,2.502069e-005
8.933824e-001,-2.131685e-005,2.502998e-005
8.941765e-001,-2.030976e-005,2.504593e-005
8.949706e-001,-1.829557e-005,2.505633e-005
8.957647e-001,-2.165255e-005,2.506907e-005
8.965588e-001,-2.735943e-005,2.509522e-005
8.973529e-001,-3.239490e-005,2.513687e-005
8.981471e-001,-2.903792e-005,2.519899e-005
8.989412e-001,-2.568093e-005,2.524862e-005
8.997353e-001,-2.836652e-005,2.528072e-005
9.005294e-001,-2.903792e-005,2.530873e-005
9.013235e-001,-2.970932e-005,2.534070e-005
9.021176e-001,-3.105211e-005,2.537913e-005
9.029118e-001,-3.105211e-005,2.542011e-005
9.037059e-001,-3.071641e-005,2.546102e-005
9.045000e-001,-2.836652e-005,2.550202e-005
9.052941e-001,-2.568093e-005,2.552650e-005
9.060882e-001,-2.568093e-005,2.554519e-005
9.068824e-001,-2.433814e-005,2.556387e-005
9.076765e-001,-2.433814e-005,2.557156e-005
9.084706e-001,-2.702373e-005,2.559054e-005
9.092647e-001,-2.702373e-005,2.562446e-005
9.100588e-001,-2.433814e-005,2.566148e-005
9.108529e-001,-2.064546e-005,2.568618e-005
9.116471e-001,-1.762417e-005,2.570428e-005
9.124412e-001,-1.023880e-005,2.571615e-005
9.132353e-001,-4.531929e-006,2.571334e-005
9.140294e-001,-6.881819e-006,2.570812e-005
9.148235e-001,-4.531929e-006,2.570175e-005
9.156176e-001,-5.035477e-007,2.568793e-005
9.164118e-001,1.846342e-006,2.567251e-005
9.172059e-001,1.174945e-006,2.566068e-005
9.180000e-001,-5.035477e-007,2.565144e-005
9.187941e-001,3.860533e-006,2.563600e-005
9.195882e-001,7.217518e-006,2.562179e-005
9.203824e-001,4.364080e-006,2.560855e-005
9.211765e-001,-1.678492e-007,2.559041e-005
9.219706e-001,-1.174945e-006,2.557108e-005
9.227647e-001,-6.881819e-006,2.555465e-005
9.235588e-001,-1.527428e-005,2.554241e-005
9.243529e-001,-1.762417e-005,2.554242e-005
9.251471e-001,-1.930266e-005,2.555242e-005
9.259412e-001,-2.400244e-005,2.556727e-005
9.267353e-001,-2.568093e-005,2.559379e-005
9.275294e-001,-2.601663e-005,2.562546e-005
9.283235e-001,-2.668803e-005,2.565685e-005
9.291176e-001,-2.500954e-005,2.569945e-005
9.299118e-001,-1.594568e-005,2.573464e-005
9.307059e-001,-1.359579e-005,2.574301e-005
9.315000e-001,-1.426719e-005,2.574033e-005
9.322941e-001,-1.225299e-005,2.573652e-005
9.330882e-001,-5.539025e-006,2.574091e-005
9.338824e-001,3.189136e-006,2.574144e-005
9.346765e-001,9.231709e-006,2.574098e-005
9.354706e-001,9.231709e-006,2.574436e-005
9.362647e-001,6.881819e-006,2.574204e-005
9.370588e-001,6.546120e-006,2.571859e-005
9.378529e-001,1.846342e-006,2.565068e-005
9.386471e-001,-6.881819e-006,2.557142e-005
9.394412e-001,-6.881819e-006,2.549163e-005
9.402353e-001,-5.539025e-006,2.538875e-005
9.410294e-001,-1.292439e-005,2.530734e-005
9.418235e-001,-2.232395e-005,2.529316e-005
9.426176e-001,-2.450599e-005,2.532412e-005
9.434118e-001,-2.500954e-005,2.534588e-005
9.442059e-001,-3.239490e-005,2.537355e-005
9.450000e-001,-3.407340e-005,2.541349e-005
9.457941e-001,-3.105211e-005,2.543932e-005
9.465882e-001,-3.105211e-005,2.540226e-005
9.473824e-001,-3.172351e-005,2.538992e-005
9.481765e-001,-2.903792e-005,2.542628e-005
9.489706e-001,-2.232395e-005,2.547636e-005
9.497647e-001,-1.594568e-005,2.550698e-005
9.505588e-001,-1.091020e-005,2.552031e-005
9.513529e-001,-7.553216e-006,2.551837e-005
9.521471e-001,-5.539025e-006,2.550026e-005
9.529412e-001,-5.035477e-007,2.546096e-005
9.537353e-001,-1.510643e-006,2.541238e-005
9.545294e-001,-1.846342e-006,2.537116e-005
9.553235e-001,-3.524834e-006,2.532435e-005
9.561176e-001,8.392462e-007,2.526703e-005
9.569118e-001,1.510643e-006,2.520884e-005
9.577059e-001,4.531929e-006,2.516729e-005
9.585000e-001,6.378271e-006,2.513109e-005
9.592941e-001,1.174945e-006,2.510302e-005
9.600882e-001,-5.706874e-006,2.507242e-005
9.608824e-001,-8.392462e-006,2.503990e-005
9.616765e-001,-1.023880e-005,2.500130e-005
9.624706e-001,-1.493858e-005,2.497023e-005
9.632647e-001,-1.712062e-005,2.495267e-005
9.640588e-001,-1.896696e-005,2.493146e-005
9.648529e-001,-2.098116e-005,2.490778e-005
9.656471e-001,-2.182040e-005,2.489375e-005
9.664412e-001,-2.030976e-005,2.489185e-005
9.672353e-001,-2.265965e-005,2.489185e-005
9.680294e-001,-2.299535e-005,2.490482e-005
9.688235e-001,-2.366674e-005,2.491481e-005
9.696176e-001,-2.030976e-005,2.494152e-005
9.704118e-001,-1.896696e-005,2.496653e-005
9.712059e-001,-1.829557e-005,2.498751e-005
9.720000e-001,-1.460288e-005,2.500811e-005
9.727941e-001,-1.661708e-005,2.502167e-005
9.735882e-001,-1.695277e-005,2.503919e-005
9.743824e-001,-1.695277e-005,2.505445e-005
9.751765e-001,-1.829557e-005,2.507219e-005
9.759706e-001,-1.628138e-005,2.509343e-005
9.767647e-001,-1.695277e-005,2.511023e-005
9.775588e-001,-1.527428e-005,2.512793e-005
9.783529e-001,-1.359579e-005,2.514077e-005
9.791471e-001,-1.393149e-005,2.514886e-005
9.799412e-001,-1.426719e-005,2.515266e-005
9.807353e-001,-1.023880e-005,2.515497e-005
9.815294e-001,-1.225299e-005,2.514748e-005
9.823235e-001,-2.098116e-005,2.513731e-005
9.831176e-001,-2.165255e-005,2.513864e-005
9.839118e-001,-1.812772e-005,2.514555e-005
9.847059e-001,-1.728847e-005,2.514669e-005
9.855000e-001,-1.376364e-005,2.513405e-005
9.862941e-001,-1.309224e-005,2.508754e-005
9.870882e-001,-8.560311e-006,2.498555e-005
9.878824e-001,-8.896010e-006,2.477312e-005
9.886765e-001,-1.426719e-005,2.450554e-005
9.894706e-001,-1.628138e-005,2.425732e-005
9.902647e-001,-1.225299e-005,2.407384e-005
9.910588e-001,-1.023880e-005,2.394860e-005
9.918529e-001,-1.326009e-005,2.387979e-005
9.926471e-001,-1.560998e-005,2.387041e-005
9.934412e-001,-2.299535e-005,2.388598e-005
9.942353e-001,-2.500954e-005,2.385412e-005
9.950294e-001,-2.299535e-005,2.366073e-005
9.958235e-001,-2.165255e-005,2.331495e-005
9.966176e-001,-1.493858e-005,2.294747e-005
9.974118e-001,-1.661708e-005,2.272098e-005
9.982059e-001,-1.963836e-005,2.261569e-005
9.990000e-001,-1.426719e-005,2.260452e-005
9.997941e-001,-7.553216e-006,2.261195e-005
1.000588e+000,-1.158160e-005,2.261596e-005
1.001382e+000,-1.359579e-005,2.261454e-005
1.002176e+000,-9.903105e-006,2.259851e-005
1.002971e+000,-1.225299e-005,2.257134e-005
1.003765e+000,-5.203327e-006,2.254012e-005
1.004559e+000,-2.182040e-006,2.246387e-005
1.005353e+000,-4.867628e-006,2.231923e-005
1.006147e+000,-5.874723e-006,2.215707e-005
1.006941e+000,-7.553216e-006,2.200815e-005
1.007735e+000,-6.210422e-006,2.186760e-005
1.008529e+000,-9.231709e-006,2.175488e-005
1.009324e+000,-1.040665e-005,2.167088e-005
1.010118e+000,-8.224612e-006,2.160479e-005
1.010912e+000,-4.531929e-006,2.158134e-005
1.011706e+000,1.174945e-006,2.158210e-005
1.012500e+000,5.035477e-007,2.158213e-005
1.013294e+000,-1.426719e-005,2.158198e-005
1.014088e+000,-2.433814e-005,2.159608e-005
1.014882e+000,-1.896696e-005,2.162473e-005
1.015676e+000,-1.091020e-005,2.160759e-005
1.016471e+000,-1.594568e-005,2.155840e-005
1.017265e+000,-1.628138e-005,2.151629e-005
1.018059e+000,-4.196231e-006,2.148709e-005
1.018853e+000,-2.853437e-006,2.143148e-005
1.019647e+000,-9.903105e-006,2.136640e-005
1.020441e+000,-4.867628e-006,2.131923e-005
1.021235e+000,3.860533e-006,2.129218e-005
1.022029e+000,6.546120e-006,2.129198e-005
1.022824e+000,8.896010e-006,2.129365e-005
1.023618e+000,5.706874e-006,2.129946e-005
1.024412e+000,3.189136e-006,2.130078e-005
1.025206e+000,-5.874723e-006,2.129866e-005
1.026000e+000,-1.158160e-005,2.130063e-005
1.026794e+000,-1.426719e-005,2.130889e-005
1.027588e+000,-1.628138e-005,2.132307e-005
1.028382e+000,-1.896696e-005,2.134154e-005
1.029176e+000,-2.030976e-005,2.136484e-005
1.029971e+000,-1.896696e-005,2.133840e-005
1.030765e+000,-1.628138e-005,2.111382e-005
1.031559e+000,-1.326009e-005,2.077920e-005
1.032353e+000,-1.057450e-005,2.046357e-005
1.033147e+000,-1.863127e-005,2.023949e-005
1.033941e+000,-3.004501e-005,2.012684e-005
1.034735e+000,-3.508049e-005,2.014048e-005
1.035529e+000,-3.508049e-005,2.023615e-005
1.036324e+000,-3.121996e-005,2.028632e-005
1.037118e+000,-2.500954e-005,2.008627e-005
1.037912e+000,-2.165255e-005,1.963962e-005
1.038706e+000,-2.047761e-005,1.906575e-005
1.039500e+000,-1.829557e-005,1.857693e-005
1.040294e+000,-1.158160e-005,1.839457e-005
1.041088e+000,-9.567407e-006,1.834446e-005
1.041882e+000,-7.217518e-006,1.834501e-005
1.042676e+000,-8.896010e-006,1.834043e-005
1.043471e+000,-9.567407e-006,1.830656e-005
1.044265e+000,-1.191730e-005,1.825709e-005
1.045059e+000,-1.829557e-005,1.819921e-005
1.045853e+000,-2.165255e-005,1.815294e-005
1.046647e+000,-2.165255e-005,1.809010e-005
1.047441e+000,-1.896696e-005,1.801872e-005
1.048235e+000,-2.333104e-005,1.792422e-005
1.049029e+000,-2.198825e-005,1.786935e-005
1.049824e+000,-2.064546e-005,1.778514e-005
1.050618e+000,-1.846342e-005,1.765883e-005
1.051412e+000,-9.567407e-006,1.752904e-005
1.052206e+000,5.203327e-006,1.741423e-005
1.053000e+000,8.560311e-006,1.734298e-005
1.053794e+000,1.326009e-005,1.727917e-005
1.054588e+000,1.326009e-005,1.722460e-005
1.055382e+000,1.326009e-005,1.718299e-005
1.056176e+000,1.191730e-005,1.716353e-005
1.056971e+000,1.678492e-007,1.714029e-005
1.057765e+000,-8.896010e-006,1.710802e-005
1.058559e+000,-6.881819e-006,1.709943e-005
1.059353e+000,-1.091020e-005,1.708488e-005
1.060147e+000,-1.493858e-005,1.707227e-005
1.060941e+000,-1.628138e-005,1.707132e-005
1.061735e+000,-1.795987e-005,1.707616e-005
1.062529e+000,-1.997406e-005,1.708252e-005
1.063324e+000,-1.762417e-005,1.709500e-005
1.064118e+000,-1.762417e-005,1.711214e-005
1.064912e+000,-1.896696e-005,1.713572e-005
1.065706e+000,-1.896696e-005,1.716902e-005
1.066500e+000,-1.913481e-005,1.720016e-005
1.067294e+000,-1.963836e-005,1.722015e-005
1.068088e+000,-1.829557e-005,1.724672e-005
1.068882e+000,-1.628138e-005,1.726663e-005
1.069676e+000,-1.963836e-005,1.725550e-005
1.070471e+000,-1.829557e-005,1.725789e-005
1.071265e+000,-1.644922e-005,1.727415e-005
1.072059e+000,-1.292439e-005,1.729782e-005
1.072853e+000,-1.426719e-005,1.730746e-005
1.073647e+000,-1.695277e-005,1.730472e-005
1.074441e+000,-1.762417e-005,1.729923e-005
1.075235e+000,-1.594568e-005,1.730342e-005
1.076029e+000,-1.661708e-005,1.731779e-005
1.076824e+000,-1.829557e-005,1.733561e-005
1.077618e+000,-1.560998e-005,1.736177e-005
1.078412e+000,-1.359579e-005,1.738336e-005
1.079206e+000,-1.258869e-005,1.740028e-005
1.080000e+000,-1.359579e-005,1.741197e-005
1.080794e+000,-1.057450e-005,1.742726e-005
1.081588e+000,-7.553216e-006,1.743395e-005
1.082382e+000,-5.539025e-006,1.743194e-005
1.083176e+000,-1.275654e-005,1.742578e-005
1.083971e+000,-1.594568e-005,1.742026e-005
1.084765e+000,-1.426719e-005,1.741290e-005
1.085559e+000,-1.292439e-005,1.739861e-005
1.086353e+000,-1.795987e-005,1.737487e-005
1.087147e+000,-1.863127e-005,1.735596e-005
1.087941e+000,-1.661708e-005,1.734996e-005
1.088735e+000,-1.493858e-005,1.735389e-005
1.089529e+000,-1.225299e-005,1.736059e-005
1.090324e+000,-9.903105e-006,1.736206e-005
1.091118e+000,-8.896010e-006,1.735410e-005
1.091912e+000,-1.040665e-005,1.733602e-005
1.092706e+000,-1.258869e-005,1.729735e-005
1.093500e+000,-1.661708e-005,1.722683e-005
1.094294e+000,-1.779202e-005,1.717067e-005
1.095088e+000,-1.896696e-005,1.712885e-005
1.095882e+000,-1.510643e-005,1.707641e-005
1.096676e+000,-2.030976e-005,1.700468e-005
1.097471e+000,-2.635233e-005,1.696792e-005
1.098265e+000,-2.500954e-005,1.698631e-005
1.099059e+000,-2.433814e-005,1.703231e-005
1.099853e+000,-1.628138e-005,1.708507e-005
1.100647e+000,-1.460288e-005,1.710976e-005
1.101441e+000,-1.359579e-005,1.711985e-005
1.102235e+000,-1.091020e-005,1.711437e-005
1.103029e+000,-7.217518e-006,1.709763e-005
1.103824e+000,-4.531929e-006,1.708440e-005
1.104618e+000,-3.356985e-007,1.707452e-005
1.105412e+000,-1.678492e-007,1.706539e-005
1.106206e+000,-7.217518e-006,1.706217e-005
1.107000e+000,-2.182040e-006,1.706690e-005
1.107794e+000,-1.510643e-006,1.706375e-005
1.108588e+000,-1.023880e-005,1.705285e-005
1.109382e+000,-1.426719e-005,1.706169e-005
1.110176e+000,-1.124590e-005,1.708008e-005
1.110971e+000,-1.728847e-005,1.708995e-005
1.111765e+000,-2.081331e-005,1.711614e-005
1.112559e+000,-2.098116e-005,1.714790e-005
1.113353e+000,-2.400244e-005,1.717160e-005
1.114147e+000,-3.105211e-005,1.720429e-005
1.114941e+000,-2.836652e-005,1.725466e-005
1.115735e+000,-9.567407e-006,1.727721e-005
1.116529e+000,1.023880e-005,1.723828e-005
1.117324e+000,1.947051e-005,1.720856e-005
1.118118e+000,2.450599e-005,1.719958e-005
1.118912e+000,2.601663e-005,1.719089e-005
1.119706e+000,2.366674e-005,1.717547e-005
1.120500e+000,2.131685e-005,1.715101e-005
1.121294e+000,1.997406e-005,1.712196e-005
1.122088e+000,7.217518e-006,1.708059e-005
1.122882e+000,8.392462e-007,1.698324e-005
1.123676e+000,-7.888914e-006,1.686304e-005
1.124471e+000,-1.863127e-005,1.676113e-005
1.125265e+000,-2.568093e-005,1.673781e-005
1.126059e+000,-2.836652e-005,1.677733e-005
1.126853e+000,-2.970932e-005,1.684227e-005
1.127647e+000,-3.306630e-005,1.692551e-005
1.128441e+000,-3.105211e-005,1.702570e-005
1.129235e+000,-2.870222e-005,1.711033e-005
1.130029e+000,-3.172351e-005,1.718670e-005
1.130824e+000,-3.189136e-005,1.727960e-005
1.131618e+000,-2.769513e-005,1.737233e-005
1.132412e+000,-2.719158e-005,1.743934e-005
1.133206e+000,-2.735943e-005,1.750241e-005
1.134000e+000,-2.769513e-005,1.756879e-005
1.134794e+000,-2.467384e-005,1.763389e-005
1.135588e+000,-2.333104e-005,1.768452e-005
1.136382e+000,-2.249180e-005,1.772811e-005
1.137176e+000,-2.098116e-005,1.777258e-005
1.137971e+000,-1.762417e-005,1.781086e-005
1.138765e+000,-1.795987e-005,1.780760e-005
1.139559e+000,-1.728847e-005,1.774443e-005
1.140353e+000,-1.493858e-005,1.774230e-005
1.141147e+000,-1.594568e-005,1.776201e-005
1.141941e+000,-1.359579e-005,1.778205e-005
1.142735e+000,-1.191730e-005,1.777486e-005
1.143529e+000,-1.393149e-005,1.774685e-005
1.144324e+000,-1.426719e-005,1.772724e-005
1.145118e+000,-1.359579e-005,1.771546e-005
1.145912e+000,-1.560998e-005,1.768991e-005
1.146706e+000,-1.762417e-005,1.764441e-005
1.147500e+000,-1.426719e-005,1.757761e-005
1.148294e+000,-1.359579e-005,1.751957e-005
1.149088e+000,-1.443504e-005,1.747637e-005
1.149882e+000,-1.158160e-005,1.742195e-005
1.150676e+000,-1.225299e-005,1.735703e-005
1.151471e+000,-1.426719e-005,1.728969e-005
1.152265e+000,-1.057450e-005,1.721949e-005
1.153059e+000,-5.706874e-006,1.714049e-005
1.153853e+000,-3.021286e-006,1.705565e-005
1.154647e+000,-2.853437e-006,1.698122e-005
1.155441e+000,-6.210422e-006,1.692003e-005
1.156235e+000,-3.524834e-006,1.686149e-005
1.157029e+000,-4.196231e-006,1.680663e-005
1.157824e+000,-6.210422e-006,1.675209e-005
1.158618e+000,-7.553216e-006,1.668621e-005
1.159412e+000,-1.091020e-005,1.662184e-005
1.160206e+000,-1.359579e-005,1.657643e-005
1.161000e+000,-1.292439e-005,1.655323e-005
1.161794e+000,-1.292439e-005,1.653941e-005
1.162588e+000,-1.560998e-005,1.654540e-005
1.163382e+000,-1.426719e-005,1.656686e-005
1.164176e+000,-1.493858e-005,1.658187e-005
1.164971e+000,-1.695277e-005,1.660131e-005
1.165765e+000,-1.560998e-005,1.662883e-005
1.166559e+000,-1.560998e-005,1.665182e-005
1.167353e+000,-1.896696e-005,1.667498e-005
1.168147e+000,-1.997406e-005,1.670927e-005
1.168941e+000,-2.098116e-005,1.674583e-005
1.169735e+000,-2.114900e-005,1.678270e-005
1.170529e+000,-2.198825e-005,1.682328e-005
1.171324e+000,-2.568093e-005,1.686898e-005
1.172118e+000,-2.534523e-005,1.693099e-005
1.172912e+000,-2.702373e-005,1.698686e-005
1.173706e+000,-3.105211e-005,1.703338e-005
1.174500e+000,-2.517739e-005,1.709437e-005
1.175294e+000,-1.779202e-005,1.711870e-005
1.176088e+000,-1.628138e-005,1.709454e-005
1.176882e+000,-1.963836e-005,1.705776e-005
1.177676e+000,-1.930266e-005,1.703055e-005
1.178471e+000,-1.795987e-005,1.699876e-005
1.179265e+000,-1.158160e-005,1.697036e-005
1.180059e+000,-4.364080e-006,1.695909e-005
1.180853e+000,1.174945e-006,1.694351e-005
1.181647e+000,6.546120e-006,1.692450e-005
1.182441e+000,1.728847e-005,1.691441e-005
1.183235e+000,2.769513e-005,1.693964e-005
1.184029e+000,3.071641e-005,1.701063e-005
1.184824e+000,3.474479e-005,1.709079e-005
1.185618e+000,2.870222e-005,1.719501e-005
1.186412e+000,1.863127e-005,1.726676e-005
1.187206e+000,1.460288e-005,1.729480e-005
1.188000e+000,9.903105e-006,1.731411e-005
1.188794e+000,6.546120e-006,1.731877e-005
1.189588e+000,1.174945e-006,1.731835e-005
1.190382e+000,-6.546120e-006,1.731566e-005
1.191176e+000,-1.527428e-005,1.730424e-005
1.191971e+000,-2.903792e-005,1.727983e-005
1.192765e+000,-4.213016e-005,1.730218e-005
1.193559e+000,-4.582284e-005,1.740764e-005
1.194353e+000,-4.548714e-005,1.750345e-005
1.195147e+000,-4.599069e-005,1.758587e-005
1.195941e+000,-4.397650e-005,1.768978e-005
1.196735e+000,-3.474479e-005,1.777685e-005
1.197529e+000,-1.896696e-005,1.779483e-005
1.198324e+000,-1.091020e-005,1.775152e-005
1.199118e+000,-3.189136e-006,1.771746e-005
1.199912e+000,3.860533e-006,1.769551e-005
1.200706e+000,7.553216e-006,1.768613e-005
1.201500e+000,4.867628e-006,1.768613e-005
1.202294e+000,-5.874723e-006,1.768550e-005
1.203088e+000,-1.728847e-005,1.768859e-005
1.203882e+000,-1.930266e-005,1.771527e-005
1.204676e+000,-1.829557e-005,1.774842e-005
1.205471e+000,-2.098116e-005,1.777732e-005
1.206265e+000,-2.165255e-005,1.781664e-005
1.207059e+000,-1.913481e-005,1.785829e-005
1.207853e+000,-1.762417e-005,1.788908e-005
1.208647e+000,-2.165255e-005,1.791309e-005
1.209441e+000,-2.165255e-005,1.795460e-005
1.210235e+000,-1.460288e-005,1.799324e-005
1.211029e+000,-1.292439e-005,1.800588e-005
1.211824e+000,-1.426719e-005,1.801138e-005
1.212618e+000,-1.292439e-005,1.800964e-005
1.213412e+000,-1.359579e-005,1.799849e-005
1.214206e+000,-1.963836e-005,1.798301e-005
1.215000e+000,-1.762417e-005,1.797818e-005
1.215794e+000,-1.292439e-005,1.796352e-005
1.216588e+000,-1.712062e-005,1.794175e-005
1.217382e+000,-1.695277e-005,1.792218e-005
1.218176e+000,-2.030976e-005,1.790072e-005
1.218971e+000,-1.829557e-005,1.788758e-005
1.219765e+000,-1.661708e-005,1.788066e-005
1.220559e+000,-1.628138e-005,1.787321e-005
1.221353e+000,-1.896696e-005,1.786701e-005
1.222147e+000,-1.762417e-005,1.788006e-005
1.222941e+000,-1.661708e-005,1.788313e-005
1.223735e+000,-1.712062e-005,1.788212e-005
1.224529e+000,-1.728847e-005,1.788263e-005
1.225324e+000,-1.628138e-005,1.787944e-005
1.226118e+000,-1.460288e-005,1.787944e-005
1.226912e+000,-1.124590e-005,1.787284e-005
1.227706e+000,-7.888914e-006,1.786331e-005
1.228500e+000,-4.196231e-006,1.785238e-005
1.229294e+000,-7.553216e-006,1.783664e-005
1.230088e+000,-1.258869e-005,1.782355e-005
1.230882e+000,-1.359579e-005,1.782834e-005
1.231676e+000,-1.695277e-005,1.783144e-005
1.232471e+000,-1.577783e-005,1.781779e-005
1.233265e+000,-1.225299e-005,1.779813e-005
1.234059e+000,-1.225299e-005,1.778215e-005
1.234853e+000,-9.903105e-006,1.776883e-005
1.235647e+000,-5.539025e-006,1.776064e-005
1.236441e+000,-5.539025e-006,1.774802e-005
1.237235e+000,-8.224612e-006,1.774419e-005
1.238029e+000,-8.896010e-006,1.774316e-005
1.238824e+000,-1.292439e-005,1.773199e-005
1.239618e+000,-1.493858e-005,1.772319e-005
1.240412e+000,-8.896010e-006,1.772975e-005
1.241206e+000,-8.392462e-006,1.772744e-005
1.242000e+000,-1.376364e-005,1.771797e-005
1.242794e+000,-1.762417e-005,1.771310e-005
1.243588e+000,-2.098116e-005,1.769347e-005
1.244382e+000,-1.695277e-005,1.767679e-005
1.245176e+000,-1.560998e-005,1.765503e-005
1.245971e+000,-1.393149e-005,1.763471e-005
1.246765e+000,-1.728847e-005,1.763209e-005
1.247559e+000,-1.527428e-005,1.763414e-005
1.248353e+000,-1.393149e-005,1.762038e-005
1.249147e+000,-1.359579e-005,1.761952e-005
1.249941e+000,-5.874723e-006,1.763107e-005
1.250735e+000,-8.560311e-006,1.762207e-005
1.251529e+000,-1.594568e-005,1.761198e-005
1.252324e+000,-2.030976e-005,1.762610e-005
1.253118e+000,-1.963836e-005,1.764979e-005
1.253912e+000,-1.963836e-005,1.768211e-005
1.254706e+000,-2.064546e-005,1.771638e-005
1.255500e+000,-2.735943e-005,1.775252e-005
1.256294e+000,-3.474479e-005,1.781645e-005
1.257088e+000,-3.239490e-005,1.791895e-005
1.257882e+000,-2.165255e-005,1.800856e-005
1.258676e+000,-9.903105e-006,1.804244e-005
1.259471e+000,5.874723e-006,1.804154e-005
1.260265e+000,1.829557e-005,1.803862e-005
1.261059e+000,2.870222e-005,1.806633e-005
1.261853e+000,4.263371e-005,1.813867e-005
1.262647e+000,5.488670e-005,1.829752e-005
1.263441e+000,5.354391e-005,1.854037e-005
1.264235e+000,4.817273e-005,1.873471e-005
1.265029e+000,4.011597e-005,1.890064e-005
1.265824e+000,2.064546e-005,1.902577e-005
1.266618e+000,-2.853437e-006,1.904016e-005
1.267412e+000,-1.661708e-005,1.901866e-005
1.268206e+000,-2.836652e-005,1.904029e-005
1.269000e+000,-3.575189e-005,1.910679e-005
1.269794e+000,-3.944457e-005,1.920489e-005
1.270588e+000,-4.213016e-005,1.933151e-005
1.271382e+000,-5.052262e-005,1.947595e-005
1.272176e+000,-4.649424e-005,1.968007e-005
1.272971e+000,-4.179446e-005,1.984786e-005
1.273765e+000,-4.179446e-005,1.998492e-005
1.274559e+000,-4.011597e-005,2.012281e-005
1.275353e+000,-4.179446e-005,2.024704e-005
1.276147e+000,-3.843748e-005,2.037348e-005
1.276941e+000,-3.776608e-005,2.047280e-005
1.277735e+000,-3.709468e-005,2.056292e-005
1.278529e+000,-3.541619e-005,2.064147e-005
1.279324e+000,-3.038071e-005,2.070631e-005
1.280118e+000,-2.383459e-005,2.074958e-005
1.280912e+000,-2.030976e-005,2.077282e-005
1.281706e+000,-2.165255e-005,2.079095e-005
1.282500e+000,-2.131685e-005,2.081828e-005
1.283294e+000,-1.963836e-005,2.082648e-005
1.284088e+000,-1.829557e-005,2.078691e-005
1.284882e+000,-1.527428e-005,2.071817e-005
1.285676e+000,-1.023880e-005,2.064137e-005
1.286471e+000,-5.539025e-006,2.057416e-005
1.287265e+000,-1.510643e-006,2.052807e-005
1.288059e+000,-1.678492e-007,2.049185e-005
1.288853e+000,-5.035477e-007,2.045924e-005
1.289647e+000,-4.196231e-006,2.043319e-005
1.290441e+000,-1.158160e-005,2.042411e-005
1.291235e+000,-1.158160e-005,2.042743e-005
1.292029e+000,-1.158160e-005,2.043382e-005
1.292824e+000,-1.426719e-005,2.043811e-005
1.293618e+000,-1.829557e-005,2.044683e-005
1.294412e+000,-1.829557e-005,2.046184e-005
1.295206e+000,-1.829557e-005,2.046184e-005
1.296000e+000,-1.560998e-005,2.045140e-005
1.296794e+000,-1.426719e-005,2.043386e-005
1.297588e+000,-1.359579e-005,2.042168e-005
1.298382e+000,-1.426719e-005,2.039363e-005
1.299176e+000,-1.426719e-005,2.037176e-005
1.299971e+000,-1.292439e-005,2.035435e-005
1.300765e+000,-6.210422e-006,2.034075e-005
1.301559e+000,-3.524834e-006,2.033660e-005
1.302353e+000,2.853437e-006,2.033545e-005
1.303147e+000,9.063859e-006,2.033035e-005
1.303941e+000,1.124590e-005,2.032301e-005
1.304735e+000,6.881819e-006,2.031914e-005
1.305529e+000,5.035477e-007,2.030907e-005
1.306324e+000,-1.678492e-007,2.029796e-005
1.307118e+000,-3.524834e-006,2.029796e-005
1.307912e+000,-9.567407e-006,2.029272e-005
1.308706e+000,-1.225299e-005,2.029619e-005
1.309500e+000,-1.124590e-005,2.029863e-005
1.310294e+000,-1.158160e-005,2.029104e-005
1.311088e+000,-1.258869e-005,2.028076e-005
1.311882e+000,-1.393149e-005,2.026788e-005
1.312676e+000,-1.292439e-005,2.025177e-005
1.313471e+000,-1.359579e-005,2.024048e-005
1.314265e+000,-1.359579e-005,2.023059e-005
1.315059e+000,-1.258869e-005,2.021681e-005
1.315853e+000,-1.426719e-005,2.020095e-005
1.316647e+000,-1.393149e-005,2.018813e-005
1.317441e+000,-1.896696e-005,2.017302e-005
1.318235e+000,-1.930266e-005,2.017499e-005
1.319029e+000,-2.198825e-005,2.018348e-005
1.319824e+000,-2.299535e-005,2.019119e-005
1.320618e+000,-2.668803e-005,2.020649e-005
1.321412e+000,-3.373770e-005,2.024126e-005
1.322206e+000,-3.256275e-005,2.031752e-005
1.323000e+000,-2.970932e-005,2.038456e-005
1.323794e+000,-2.467384e-005,2.043101e-005
1.324588e+000,-1.762417e-005,2.045424e-005
1.325382e+000,-1.661708e-005,2.045862e-005
1.326176e+000,-8.896010e-006,2.045862e-005
1.326971e+000,5.035477e-007,2.043872e-005
1.327765e+000,8.896010e-006,2.041975e-005
1.328559e+000,5.539025e-006,2.041150e-005
1.329353e+000,5.035477e-007,2.040153e-005
1.330147e+000,-1.174945e-006,2.038712e-005
1.330941e+000,-5.539025e-006,2.037849e-005
1.331735e+000,-9.567407e-006,2.037643e-005
1.332529e+000,-9.735256e-006,2.038118e-005
1.333324e+000,-8.224612e-006,2.037587e-005
1.334118e+000,-1.091020e-005,2.036128e-005
1.334912e+000,-1.258869e-005,2.035467e-005
1.335706e+000,-1.628138e-005,2.035400e-005
1.336500e+000,-9.567407e-006,2.034951e-005
1.337294e+000,1.174945e-006,2.032949e-005
1.338088e+000,7.217518e-006,2.030796e-005
1.338882e+000,5.203327e-006,2.029455e-005
1.339676e+000,-1.678492e-007,2.028489e-005
1.340471e+000,-7.217518e-006,2.027719e-005
1.341265e+000,-1.091020e-005,2.027507e-005
1.342059e+000,-9.735256e-006,2.027591e-005
1.342853e+000,-1.174945e-006,2.027091e-005
1.343647e+000,1.174945e-006,2.024931e-005
1.344441e+000,-5.035477e-007,2.022451e-005
1.345235e+000,-5.539025e-006,2.019619e-005
1.346029e+000,-1.158160e-005,2.018061e-005
1.346824e+000,-1.426719e-005,2.015863e-005
1.347618e+000,-1.158160e-005,2.011982e-005
1.348412e+000,-6.210422e-006,2.008089e-005
1.349206e+000,-1.426719e-005,2.003693e-005
1.350000e+000,-2.568093e-005,2.003204e-005
1.350794e+000,-2.803082e-005,2.006749e-005
1.351588e+000,-2.652018e-005,2.011511e-005
1.352382e+000,-2.584878e-005,2.016131e-005
1.353176e+000,-2.568093e-005,2.020991e-005
1.353971e+000,-2.836652e-005,2.026019e-005
1.354765e+000,-2.903792e-005,2.032333e-005
1.355559e+000,-3.054856e-005,2.038928e-005
1.356353e+000,-3.105211e-005,2.045798e-005
1.357147e+000,-3.239490e-005,2.053253e-005
1.357941e+000,-3.038071e-005,2.061358e-005
1.358735e+000,-2.970932e-005,2.067668e-005
1.359529e+000,-2.652018e-005,2.072891e-005
1.360324e+000,-2.500954e-005,2.077318e-005
1.361118e+000,-2.198825e-005,2.079820e-005
1.361912e+000,-1.963836e-005,2.080204e-005
1.362706e+000,-2.333104e-005,2.079787e-005
1.363500e+000,-1.695277e-005,2.079544e-005
1.364294e+000,-1.292439e-005,2.074355e-005
1.365088e+000,-1.493858e-005,2.069454e-005
1.365882e+000,-1.258869e-005,2.070467e-005
1.366676e+000,-1.594568e-005,2.070879e-005
1.367471e+000,-1.712062e-005,2.069919e-005
1.368265e+000,-1.057450e-005,2.067553e-005
1.369059e+000,-8.224612e-006,2.063196e-005
1.369853e+000,-2.349889e-006,2.059392e-005
1.370647e+000,2.517739e-006,2.055918e-005
1.371441e+000,1.091020e-005,2.052875e-005
1.372235e+000,1.661708e-005,2.053394e-005
1.373029e+000,9.567407e-006,2.055529e-005
1.373824e+000,-1.678492e-006,2.055756e-005
1.374618e+000,-8.896010e-006,2.053087e-005
1.375412e+000,-9.903105e-006,2.048581e-005
1.376206e+000,-1.158160e-005,2.043081e-005
1.377000e+000,-1.292439e-005,2.037239e-005
1.377794e+000,-1.628138e-005,2.029986e-005
1.378588e+000,-1.896696e-005,2.024494e-005
1.379382e+000,-1.762417e-005,2.020840e-005
1.380176e+000,-1.560998e-005,2.015351e-005
1.380971e+000,-1.896696e-005,2.009231e-005
1.381765e+000,-2.098116e-005,2.006000e-005
1.382559e+000,-1.628138e-005,2.003624e-005
1.383353e+000,-1.326009e-005,1.999778e-005
1.384147e+000,-1.258869e-005,1.995065e-005
1.384941e+000,-1.426719e-005,1.991468e-005
1.385735e+000,-1.829557e-005,1.988741e-005
1.386529e+000,-2.467384e-005,1.987370e-005
1.387324e+000,-2.366674e-005,1.988721e-005
1.388118e+000,-2.450599e-005,1.990717e-005
1.388912e+000,-2.568093e-005,1.992940e-005
1.389706e+000,-2.433814e-005,1.995819e-005
1.390500e+000,-3.105211e-005,1.998762e-005
1.391294e+000,-3.407340e-005,2.004410e-005
1.392088e+000,-2.635233e-005,2.012150e-005
1.392882e+000,-2.114900e-005,2.016517e-005
1.393676e+000,-1.292439e-005,2.018516e-005
1.394471e+000,-1.510643e-006,2.018228e-005
1.395265e+000,1.124590e-005,2.016787e-005
1.396059e+000,2.534523e-005,2.015861e-005
1.396853e+000,3.054856e-005,2.018480e-005
1.397647e+000,3.810178e-005,2.024228e-005
1.398441e+000,3.843748e-005,2.034170e-005
1.399235e+000,3.205920e-005,2.044080e-005
1.400029e+000,2.450599e-005,2.051030e-005
1.400824e+000,8.560311e-006,2.054524e-005
1.401618e+000,-5.539025e-006,2.053514e-005
1.402412e+000,-1.292439e-005,2.052885e-005
1.403206e+000,-2.232395e-005,2.053927e-005
1.404000e+000,-2.299535e-005,2.057717e-005
1.404794e+000,-2.702373e-005,2.061742e-005
1.405588e+000,-3.642328e-005,2.067077e-005
1.406382e+000,-4.263371e-005,2.077177e-005
1.407176e+000,-4.112306e-005,2.090930e-005
1.407971e+000,-3.457694e-005,2.103477e-005
1.408765e+000,-2.836652e-005,2.112078e-005
1.409559e+000,-2.433814e-005,2.117241e-005
1.410353e+000,-2.719158e-005,2.120304e-005
1.411147e+000,-2.467384e-005,2.124598e-005
1.411941e+000,-2.232395e-005,2.127906e-005
1.412735e+000,-1.712062e-005,2.129811e-005
1.413529e+000,-1.560998e-005,2.130481e-005
1.414324e+000,-1.174945e-005,2.130634e-005
1.415118e+000,-1.091020e-005,2.129517e-005
1.415912e+000,-1.158160e-005,2.128585e-005
1.416706e+000,-1.560998e-005,2.127766e-005
1.417500e+000,-1.712062e-005,2.126897e-005
1.418294e+000,-1.158160e-005,2.126104e-005
1.419088e+000,-8.560311e-006,2.123811e-005
1.419882e+000,-1.560998e-005,2.121005e-005
1.420676e+000,-1.712062e-005,2.119204e-005
1.421471e+000,-1.661708e-005,2.116449e-005
1.422265e+000,-1.225299e-005,2.113691e-005
1.423059e+000,-1.040665e-005,2.109316e-005
1.423853e+000,-1.258869e-005,2.102845e-005
1.424647e+000,-1.191730e-005,2.099241e-005
1.425441e+000,-1.326009e-005,2.097917e-005
1.426235e+000,-1.359579e-005,2.097240e-005
1.427029e+000,-1.560998e-005,2.095714e-005
1.427824e+000,-2.165255e-005,2.094735e-005
1.428618e+000,-2.366674e-005,2.095846e-005
1.429412e+000,-1.661708e-005,2.099080e-005
1.430206e+000,-1.577783e-005,2.101030e-005
1.431000e+000,-1.661708e-005,2.102904e-005
1.431794e+000,-1.225299e-005,2.104670e-005
1.432588e+000,-1.225299e-005,2.103544e-005
1.433382e+000,-1.628138e-005,2.098869e-005
1.434176e+000,-1.560998e-005,2.093716e-005
1.434971e+000,-1.628138e-005,2.086375e-005
1.435765e+000,-1.560998e-005,2.082106e-005
1.436559e+000,-9.567407e-006,2.081315e-005
1.437353e+000,-9.231709e-006,2.080384e-005
1.438147e+000,-1.225299e-005,2.080285e-005
1.438941e+000,-1.359579e-005,2.081107e-005
1.439735e+000,-1.628138e-005,2.082510e-005
1.440529e+000,-1.426719e-005,2.084208e-005
1.441324e+000,-1.594568e-005,2.083981e-005
1.442118e+000,-1.829557e-005,2.079476e-005
1.442912e+000,-2.198825e-005,2.068418e-005
1.443706e+000,-2.635233e-005,2.055938e-005
1.444500e+000,-2.635233e-005,2.045263e-005
1.445294e+000,-2.702373e-005,2.034172e-005
1.446088e+000,-2.568093e-005,2.024728e-005
1.446882e+000,-1.628138e-005,2.020416e-005
1.447676e+000,-1.091020e-005,2.019670e-005
1.448471e+000,-8.560311e-006,2.019670e-005
1.449265e+000,2.517739e-006,2.020168e-005
1.450059e+000,1.091020e-005,2.020100e-005
1.450853e+000,1.191730e-005,2.020589e-005
1.451647e+000,1.191730e-005,2.021521e-005
1.452441e+000,1.594568e-005,2.022368e-005
1.453235e+000,8.896010e-006,2.022016e-005
1.454029e+000,5.035477e-007,2.019704e-005
1.454824e+000,-6.881819e-006,2.017065e-005
1.455618e+000,-5.874723e-006,2.013961e-005
1.456412e+000,-2.182040e-006,2.010525e-005
1.457206e+000,1.678492e-007,2.007660e-005
1.458000e+000,-8.392462e-007,2.005195e-005
1.458794e+000,-1.510643e-006,2.001475e-005
1.459588e+000,4.531929e-006,1.997759e-005
1.460382e+000,1.846342e-006,1.996223e-005
1.461176e+000,-4.867628e-006,1.994917e-005
1.461971e+000,1.174945e-006,1.993481e-005
1.462765e+000,-3.189136e-006,1.992157e-005
1.463559e+000,-1.393149e-005,1.990760e-005
1.464353e+000,-2.333104e-005,1.989227e-005
1.465147e+000,-3.373770e-005,1.991097e-005
1.465941e+000,-3.910887e-005,1.998849e-005
1.466735e+000,-3.256275e-005,2.008675e-005
1.467529e+000,-2.098116e-005,2.014793e-005
1.468324e+000,-1.829557e-005,2.015012e-005
1.469118e+000,-1.846342e-005,2.015012e-005
1.469912e+000,-1.560998e-005,2.015524e-005
1.470706e+000,-1.443504e-005,2.015355e-005
1.471500e+000,-1.242084e-005,2.014158e-005
1.472294e+000,-5.539025e-006,2.012922e-005
1.473088e+000,-1.846342e-006,2.010979e-005
1.473882e+000,-3.524834e-006,2.008684e-005
1.474676e+000,-6.881819e-006,2.006412e-005
1.475471e+000,-1.258869e-005,2.004683e-005
1.476265e+000,-1.829557e-005,2.004248e-005
1.477059e+000,-2.316319e-005,2.005902e-005
1.477853e+000,-2.735943e-005,2.009664e-005
1.478647e+000,-3.306630e-005,2.015447e-005
1.479441e+000,-3.407340e-005,2.023618e-005
1.480235e+000,-3.642328e-005,2.031492e-005
1.481029e+000,-3.709468e-005,2.040422e-005
1.481824e+000,-3.105211e-005,2.048900e-005
1.482618e+000,-2.853437e-005,2.054451e-005
1.483412e+000,-2.635233e-005,2.059592e-005
1.484206e+000,-2.064546e-005,2.063796e-005
1.485000e+000,-1.896696e-005,2.066326e-005
1.485794e+000,-1.829557e-005,2.068861e-005
1.486588e+000,-1.258869e-005,2.071200e-005
1.487382e+000,-7.721065e-006,2.071898e-005
1.488176e+000,-8.896010e-006,2.071748e-005
1.488971e+000,-8.392462e-006,2.071072e-005
1.489765e+000,-1.091020e-005,2.069897e-005
1.490559e+000,-1.292439e-005,2.070204e-005
1.491353e+000,-1.158160e-005,2.070947e-005
1.492147e+000,-1.091020e-005,2.070522e-005
1.492941e+000,-8.896010e-006,2.069048e-005
1.493735e+000,-2.853437e-006,2.066267e-005
1.494529e+000,5.035477e-007,2.064114e-005
1.495324e+000,2.349889e-006,2.062235e-005
1.496118e+000,1.174945e-006,2.060779e-005
1.496912e+000,-4.196231e-006,2.058479e-005
1.497706e+000,-1.107805e-005,2.056810e-005
1.498500e+000,-1.426719e-005,2.056257e-005
1.499294e+000,-1.628138e-005,2.056402e-005
1.500088e+000,-1.326009e-005,2.058187e-005
1.500882e+000,-1.124590e-005,2.058980e-005
1.501676e+000,-1.527428e-005,2.057991e-005
1.502471e+000,-1.359579e-005,2.056604e-005
1.503265e+000,-1.091020e-005,2.055049e-005
1.504059e+000,-1.426719e-005,2.052982e-005
1.504853e+000,-1.930266e-005,2.051254e-005
1.505647e+000,-2.098116e-005,2.048333e-005
1.506441e+000,-1.712062e-005,2.042362e-005
1.507235e+000,-1.762417e-005,2.036457e-005
1.508029e+000,-2.030976e-005,2.035219e-005
1.508824e+000,-2.249180e-005,2.037678e-005
1.509618e+000,-1.560998e-005,2.041358e-005
1.510412e+000,-1.225299e-005,2.040648e-005
1.511206e+000,-1.309224e-005,2.035384e-005
1.512000e+000,-8.224612e-006,2.022464e-005
1.512794e+000,-6.210422e-006,1.999143e-005
1.513588e+000,-3.189136e-006,1.976486e-005
1.514382e+000,-6.210422e-006,1.957784e-005
1.515176e+000,-1.560998e-005,1.944966e-005
1.515971e+000,-1.829557e-005,1.943471e-005
1.516765e+000,-2.165255e-005,1.946145e-005
1.517559e+000,-2.584878e-005,1.947721e-005
1.518353e+000,-3.038071e-005,1.946605e-005
1.519147e+000,-3.508049e-005,1.943697e-005
1.519941e+000,-2.836652e-005,1.941031e-005
1.520735e+000,-1.695277e-005,1.933054e-005
1.521529e+000,-1.258869e-005,1.914304e-005
1.522324e+000,-8.560311e-006,1.897568e-005
1.523118e+000,-6.546120e-006,1.883472e-005
1.523912e+000,-7.553216e-006,1.869011e-005
1.524706e+000,-1.678492e-007,1.855739e-005
1.525500e+000,1.124590e-005,1.840690e-005
1.526294e+000,1.057450e-005,1.828965e-005
1.527088e+000,8.224612e-006,1.817485e-005
1.527882e+000,1.393149e-005,1.805986e-005
1.528676e+000,1.896696e-005,1.796613e-005
1.529471e+000,1.560998e-005,1.791614e-005
1.530265e+000,1.393149e-005,1.788729e-005
1.531059e+000,7.888914e-006,1.786783e-005
1.531853e+000,3.860533e-006,1.783156e-005
1.532647e+000,6.546120e-006,1.779227e-005
1.533441e+000,1.326009e-005,1.776156e-005
1.534235e+000,1.107805e-005,1.774731e-005
1.535029e+000,1.174945e-006,1.773739e-005
1.535824e+000,-1.728847e-005,1.772810e-005
1.536618e+000,-3.105211e-005,1.775217e-005
1.537412e+000,-3.407340e-005,1.783825e-005
1.538206e+000,-2.970932e-005,1.794159e-005
1.539000e+000,-2.769513e-005,1.801973e-005
1.539794e+000,-2.769513e-005,1.808583e-005
1.540588e+000,-2.366674e-005,1.814147e-005
1.541382e+000,-1.896696e-005,1.817882e-005
1.542176e+000,-1.829557e-005,1.819857e-005
1.542971e+000,-1.493858e-005,1.821005e-005
1.543765e+000,-1.644922e-005,1.820029e-005
1.544559e+000,-1.560998e-005,1.819467e-005
1.545353e+000,-1.628138e-005,1.818670e-005
1.546147e+000,-2.064546e-005,1.818858e-005
1.546941e+000,-2.433814e-005,1.820806e-005
1.547735e+000,-2.601663e-005,1.824367e-005
1.548529e+000,-2.735943e-005,1.828493e-005
1.549324e+000,-2.870222e-005,1.833233e-005
1.550118e+000,-2.500954e-005,1.838929e-005
1.550912e+000,-2.584878e-005,1.844004e-005
1.551706e+000,-2.668803e-005,1.849658e-005
1.552500e+000,-2.668803e-005,1.855710e-005
1.553294e+000,-2.635233e-005,1.861108e-005
1.554088e+000,-2.500954e-005,1.865962e-005
1.554882e+000,-2.333104e-005,1.870889e-005
1.555676e+000,-1.896696e-005,1.875514e-005
1.556471e+000,-1.896696e-005,1.878565e-005
1.557265e+000,-1.930266e-005,1.881507e-005
1.558059e+000,-1.762417e-005,1.883884e-005
1.558853e+000,-1.560998e-005,1.885240e-005
1.559647e+000,-1.258869e-005,1.886230e-005
1.560441e+000,-1.359579e-005,1.886435e-005
1.561235e+000,-1.292439e-005,1.886658e-005
1.562029e+000,-1.510643e-005,1.886430e-005
1.562824e+000,-1.762417e-005,1.886946e-005
1.563618e+000,-1.493858e-005,1.888007e-005
1.564412e+000,-5.874723e-006,1.888330e-005
1.565206e+000,-2.853437e-006,1.887284e-005
1.566000e+000,-2.853437e-006,1.885635e-005
1.566794e+000,-3.524834e-006,1.884064e-005
1.567588e+000,-7.553216e-006,1.881126e-005
1.568382e+000,-1.040665e-005,1.878453e-005
1.569176e+000,-1.258869e-005,1.875270e-005
1.569971e+000,-1.091020e-005,1.872123e-005
1.570765e+000,-1.158160e-005,1.867071e-005
1.571559e+000,-1.712062e-005,1.858487e-005
1.572353e+000,-1.493858e-005,1.851902e-005
1.573147e+000,-8.224612e-006,1.846223e-005
1.573941e+000,-6.881819e-006,1.841550e-005
1.574735e+000,-1.023880e-005,1.839272e-005
1.575529e+000,-1.863127e-005,1.837788e-005
1.576324e+000,-1.963836e-005,1.840109e-005
1.577118e+000,-2.568093e-005,1.843441e-005
1.577912e+000,-3.843748e-005,1.848447e-005
1.578706e+000,-3.810178e-005,1.860869e-005
1.579500e+000,-3.407340e-005,1.873248e-005
1.580294e+000,-2.836652e-005,1.883080e-005
1.581088e+000,-1.023880e-005,1.889613e-005
1.581882e+000,6.546120e-006,1.889725e-005
1.582676e+000,1.191730e-005,1.889288e-005
1.583471e+000,2.400244e-005,1.889914e-005
1.584265e+000,3.541619e-005,1.893762e-005
1.585059e+000,3.440909e-005,1.902954e-005
1.585853e+000,3.407340e-005,1.910627e-005
1.586647e+000,2.198825e-005,1.919520e-005
1.587441e+000,9.231709e-006,1.923515e-005
1.588235e+000,1.510643e-006,1.923789e-005
1.589029e+000,-1.091020e-005,1.923584e-005
1.589824e+000,-2.030976e-005,1.924569e-005
1.590618e+000,-2.299535e-005,1.927548e-005
1.591412e+000,-1.980621e-005,1.930930e-005
1.592206e+000,-2.333104e-005,1.933382e-005
1.593000e+000,-2.232395e-005,1.937849e-005
1.593794e+000,-1.594568e-005,1.941929e-005
1.594588e+000,-1.124590e-005,1.944010e-005
1.595382e+000,-1.292439e-005,1.944795e-005
1.596176e+000,-1.594568e-005,1.945064e-005
1.596971e+000,-2.030976e-005,1.945479e-005
1.597765e+000,-2.635233e-005,1.947756e-005
1.598559e+000,-2.433814e-005,1.953111e-005
1.599353e+000,-2.165255e-005,1.956278e-005
1.600147e+000,-1.896696e-005,1.954725e-005
1.600941e+000,-1.762417e-005,1.951252e-005
1.601735e+000,-2.232395e-005,1.948045e-005
1.602529e+000,-2.467384e-005,1.946656e-005
1.603324e+000,-2.064546e-005,1.946242e-005
1.604118e+000,-1.493858e-005,1.943143e-005
1.604912e+000,-1.057450e-005,1.938055e-005
1.605706e+000,-5.539025e-006,1.931295e-005
1.606500e+000,-8.896010e-006,1.923582e-005
1.607294e+000,-1.426719e-005,1.915533e-005
1.608088e+000,-1.242084e-005,1.909543e-005
1.608882e+000,-1.242084e-005,1.903460e-005
1.609676e+000,-1.426719e-005,1.898861e-005
1.610471e+000,-1.275654e-005,1.895319e-005
1.611265e+000,-1.560998e-005,1.892623e-005
1.612059e+000,-2.098116e-005,1.891428e-005
1.612853e+000,-2.198825e-005,1.890551e-005
1.613647e+000,-2.903792e-005,1.892202e-005
1.614441e+000,-3.575189e-005,1.897883e-005
1.615235e+000,-3.575189e-005,1.906715e-005
1.616029e+000,-3.776608e-005,1.916043e-005
1.616824e+000,-3.978027e-005,1.925759e-005
1.617618e+000,-3.440909e-005,1.936391e-005
1.618412e+000,-3.038071e-005,1.945187e-005
1.619206e+000,-2.433814e-005,1.952177e-005
1.620000e+000,-1.829557e-005,1.956957e-005
1.620794e+000,-1.493858e-005,1.959628e-005
1.621588e+000,-9.903105e-006,1.960473e-005
1.622382e+000,2.517739e-006,1.959027e-005
1.623176e+000,4.364080e-006,1.958334e-005
1.623971e+000,1.191730e-005,1.958466e-005
1.624765e+000,2.467384e-005,1.958977e-005
1.625559e+000,2.534523e-005,1.963124e-005
1.626353e+000,1.527428e-005,1.967242e-005
1.627147e+000,9.231709e-006,1.967779e-005
1.627941e+000,4.196231e-006,1.966323e-005
1.628735e+000,4.531929e-006,1.963550e-005
1.629529e+000,1.174945e-006,1.961197e-005
1.630324e+000,-2.182040e-006,1.959228e-005
1.631118e+000,-5.874723e-006,1.956341e-005
1.631912e+000,-1.225299e-005,1.953036e-005
1.632706e+000,-1.527428e-005,1.952099e-005
1.633500e+000,-1.258869e-005,1.952567e-005
1.634294e+000,-1.225299e-005,1.952567e-005
1.635088e+000,-1.779202e-005,1.952132e-005
1.635882e+000,-2.400244e-005,1.951983e-005
1.636676e+000,-2.165255e-005,1.951717e-005
1.637471e+000,-1.829557e-005,1.950972e-005
1.638265e+000,-1.493858e-005,1.948801e-005
1.639059e+000,-1.124590e-005,1.945233e-005
1.639853e+000,-1.258869e-005,1.941415e-005
1.640647e+000,-1.493858e-005,1.934795e-005
1.641441e+000,-1.141375e-005,1.927061e-005
1.642235e+000,-1.158160e-005,1.922393e-005
1.643029e+000,-1.393149e-005,1.919798e-005
1.643824e+000,-1.376364e-005,1.920022e-005
1.644618e+000,-1.560998e-005,1.921574e-005
1.645412e+000,-1.560998e-005,1.922545e-005
1.646206e+000,-1.695277e-005,1.919240e-005
1.647000e+000,-2.030976e-005,1.913874e-005
1.647794e+000,-1.997406e-005,1.905208e-005
1.648588e+000,-2.467384e-005,1.896172e-005
1.649382e+000,-2.299535e-005,1.892650e-005
1.650176e+000,-2.433814e-005,1.892047e-005
1.650971e+000,-2.249180e-005,1.896410e-005
1.651765e+000,-2.165255e-005,1.900396e-005
1.652559e+000,-2.433814e-005,1.902923e-005
1.653353e+000,-2.098116e-005,1.903709e-005
1.654147e+000,-1.896696e-005,1.902968e-005
1.654941e+000,-2.114900e-005,1.899865e-005
1.655735e+000,-1.527428e-005,1.892480e-005
1.656529e+000,-1.426719e-005,1.879102e-005
1.657324e+000,-1.628138e-005,1.866454e-005
1.658118e+000,-1.493858e-005,1.858499e-005
1.658912e+000,-1.158160e-005,1.853510e-005
1.659706e+000,-1.560998e-005,1.849569e-005
1.660500e+000,-1.661708e-005,1.845297e-005
1.661294e+000,-1.963836e-005,1.842424e-005
1.662088e+000,-2.165255e-005,1.841449e-005
1.662882e+000,-1.712062e-005,1.842968e-005
1.663676e+000,-2.568093e-005,1.843395e-005
1.664471e+000,-2.803082e-005,1.847894e-005
1.665265e+000,-2.198825e-005,1.853630e-005
1.666059e+000,-1.930266e-005,1.856629e-005
1.666853e+000,-9.063859e-006,1.857735e-005
1.667647e+000,9.567407e-006,1.855925e-005
1.668441e+000,2.131685e-005,1.855560e-005
1.669235e+000,1.426719e-005,1.858828e-005
1.670029e+000,2.299535e-005,1.858484e-005
1.670824e+000,3.205920e-005,1.860502e-005
1.671618e+000,2.903792e-005,1.866924e-005
1.672412e+000,2.182040e-005,1.872826e-005
1.673206e+000,1.560998e-005,1.875951e-005
1.674000e+000,1.023880e-005,1.876674e-005
1.674794e+000,-1.678492e-007,1.876359e-005
1.675588e+000,-1.091020e-005,1.874866e-005
1.676382e+000,-1.527428e-005,1.874307e-005
1.677176e+000,-1.594568e-005,1.874219e-005
1.677971e+000,-1.762417e-005,1.872395e-005
1.678765e+000,-2.030976e-005,1.870272e-005
1.679559e+000,-2.635233e-005,1.871433e-005
1.680353e+000,-3.004501e-005,1.875220e-005
1.681147e+000,-3.038071e-005,1.880533e-005
1.681941e+000,-3.121996e-005,1.887065e-005
1.682735e+000,-3.306630e-005,1.894011e-005
1.683529e+000,-3.575189e-005,1.900961e-005
1.684324e+000,-3.239490e-005,1.909608e-005
1.685118e+000,-3.172351e-005,1.916137e-005
1.685912e+000,-3.239490e-005,1.922465e-005
1.686706e+000,-3.239490e-005,1.930382e-005
1.687500e+000,-2.970932e-005,1.938320e-005
1.688294e+000,-2.568093e-005,1.944328e-005
1.689088e+000,-2.316319e-005,1.948212e-005
1.689882e+000,-1.896696e-005,1.950429e-005
1.690676e+000,-1.963836e-005,1.951704e-005
1.691471e+000,-1.829557e-005,1.952776e-005
1.692265e+000,-1.426719e-005,1.952776e-005
1.693059e+000,-9.567407e-006,1.950492e-005
1.693853e+000,-1.091020e-005,1.945563e-005
1.694647e+000,-1.292439e-005,1.940848e-005
1.695441e+000,-1.258869e-005,1.936222e-005
1.696235e+000,-1.023880e-005,1.932097e-005
1.697029e+000,-4.867628e-006,1.930776e-005
1.697824e+000,-1.174945e-006,1.929989e-005
1.698618e+000,-8.392462e-007,1.929396e-005
1.699412e+000,-6.881819e-006,1.929349e-005
1.700206e+000,-8.224612e-006,1.928758e-005
1.701000e+000,-7.217518e-006,1.928144e-005
1.701794e+000,-7.553216e-006,1.927401e-005
1.702588e+000,-8.896010e-006,1.925771e-005
1.703382e+000,-1.191730e-005,1.925771e-005
1.704176e+000,-6.546120e-006,1.926943e-005
1.704971e+000,-4.531929e-006,1.926905e-005
1.705765e+000,-8.896010e-006,1.926790e-005
1.706559e+000,-1.158160e-005,1.927404e-005
1.707353e+000,-1.628138e-005,1.928512e-005
1.708147e+000,-1.762417e-005,1.930694e-005
1.708941e+000,-2.030976e-005,1.933235e-005
1.709735e+000,-2.198825e-005,1.936461e-005
1.710529e+000,-1.963836e-005,1.940404e-005
1.711324e+000,-2.299535e-005,1.943373e-005
1.712118e+000,-1.963836e-005,1.947689e-005
1.712912e+000,-1.359579e-005,1.950757e-005
1.713706e+000,-9.231709e-006,1.950681e-005
1.714500e+000,-9.567407e-006,1.946930e-005
1.715294e+000,-1.091020e-005,1.938350e-005
1.716088e+000,-6.210422e-006,1.926729e-005
1.716882e+000,-1.678492e-006,1.918265e-005
1.717676e+000,-1.174945e-006,1.914631e-005
1.718471e+000,-8.392462e-007,1.911857e-005
1.719265e+000,-8.224612e-006,1.909021e-005
1.720059e+000,-1.359579e-005,1.907553e-005
1.720853e+000,-1.493858e-005,1.907356e-005
1.721647e+000,-1.728847e-005,1.907931e-005
1.722441e+000,-2.265965e-005,1.910168e-005
1.723235e+000,-2.232395e-005,1.914415e-005
1.724029e+000,-2.232395e-005,1.918453e-005
1.724824e+000,-2.450599e-005,1.922193e-005
1.725618e+000,-2.064546e-005,1.925851e-005
1.726412e+000,-1.359579e-005,1.926608e-005
1.727206e+000,-1.091020e-005,1.923699e-005
1.728000e+000,-8.224612e-006,1.918481e-005
1.728794e+000,-6.881819e-006,1.909949e-005
1.729588e+000,-8.392462e-006,1.900641e-005
1.730382e+000,-1.258869e-005,1.890087e-005
1.731176e+000,-1.393149e-005,1.879802e-005
1.731971e+000,-1.225299e-005,1.873267e-005
1.732765e+000,-4.867628e-006,1.867613e-005
1.733559e+000,2.517739e-006,1.861885e-005
1.734353e+000,5.203327e-006,1.858291e-005
1.735147e+000,6.546120e-006,1.855438e-005
1.735941e+000,4.364080e-006,1.852931e-005
1.736735e+000,8.392462e-007,1.851733e-005
1.737529e+000,-2.853437e-006,1.851226e-005
1.738324e+000,-5.035477e-007,1.850615e-005
1.739118e+000,3.524834e-006,1.850011e-005
1.739912e+000,-2.182040e-006,1.849093e-005
1.740706e+000,-5.539025e-006,1.847695e-005
1.741500e+000,-7.553216e-006,1.846804e-005
1.742294e+000,-8.896010e-006,1.846269e-005
1.743088e+000,-1.091020e-005,1.846269e-005
1.743882e+000,-1.560998e-005,1.847225e-005
1.744676e+000,-2.165255e-005,1.849323e-005
1.745471e+000,-2.870222e-005,1.853308e-005
1.746265e+000,-2.937362e-005,1.860360e-005
1.747059e+000,-3.004501e-005,1.867581e-005
1.747853e+000,-2.803082e-005,1.874219e-005
1.748647e+000,-2.400244e-005,1.879159e-005
1.749441e+000,-2.299535e-005,1.881793e-005
1.750235e+000,-1.930266e-005,1.884777e-005
1.751029e+000,-2.232395e-005,1.886855e-005
1.751824e+000,-2.500954e-005,1.889091e-005
1.752618e+000,-2.333104e-005,1.892801e-005
1.753412e+000,-2.299535e-005,1.896376e-005
1.754206e+000,-1.896696e-005,1.899105e-005
1.755000e+000,-1.628138e-005,1.898998e-005
1.755794e+000,-1.695277e-005,1.897529e-005
1.756588e+000,-1.426719e-005,1.897481e-005
1.757382e+000,-9.903105e-006,1.896582e-005
1.758176e+000,-1.158160e-005,1.893940e-005
1.758971e+000,-1.158160e-005,1.890812e-005
1.759765e+000,-1.023880e-005,1.889889e-005
1.760559e+000,-1.124590e-005,1.889508e-005
1.761353e+000,-8.224612e-006,1.889129e-005
1.762147e+000,-9.567407e-006,1.889129e-005
1.762941e+000,-1.225299e-005,1.889575e-005
1.763735e+000,-1.124590e-005,1.890755e-005
1.764529e+000,-1.292439e-005,1.891495e-005
1.765324e+000,-1.560998e-005,1.890849e-005
1.766118e+000,-1.493858e-005,1.890082e-005
1.766912e+000,-1.628138e-005,1.888012e-005
1.767706e+000,-2.098116e-005,1.884609e-005
1.768500e+000,-2.433814e-005,1.880525e-005
1.769294e+000,-2.769513e-005,1.875113e-005
1.770088e+000,-2.601663e-005,1.874793e-005
1.770882e+000,-2.635233e-005,1.878098e-005
1.771676e+000,-2.970932e-005,1.882637e-005
1.772471e+000,-2.165255e-005,1.889470e-005
1.773265e+000,-1.963836e-005,1.893057e-005
1.774059e+000,-1.225299e-005,1.895819e-005
1.774853e+000,7.888914e-006,1.897079e-005
1.775647e+000,2.467384e-005,1.896540e-005
1.776441e+000,3.105211e-005,1.900708e-005
1.777235e+000,2.735943e-005,1.908205e-005
1.778029e+000,2.165255e-005,1.912826e-005
1.778824e+000,1.191730e-005,1.913734e-005
1.779618e+000,9.903105e-006,1.912888e-005
1.780412e+000,9.231709e-006,1.912088e-005
1.781206e+000,2.517739e-006,1.912280e-005
1.782000e+000,-7.553216e-006,1.912209e-005
1.782794e+000,-1.091020e-005,1.912327e-005
1.783588e+000,-1.091020e-005,1.911854e-005
1.784382e+000,-1.762417e-005,1.911823e-005
1.785176e+000,-2.098116e-005,1.914397e-005
1.785971e+000,-1.997406e-005,1.915572e-005
1.786765e+000,-1.963836e-005,1.910867e-005
1.787559e+000,-2.030976e-005,1.904395e-005
1.788353e+000,-1.829557e-005,1.900460e-005
1.789147e+000,-2.433814e-005,1.896835e-005
1.789941e+000,-3.004501e-005,1.895367e-005
1.790735e+000,-3.105211e-005,1.898244e-005
1.791529e+000,-2.870222e-005,1.903308e-005
1.792324e+000,-2.333104e-005,1.907395e-005
1.793118e+000,-2.299535e-005,1.910075e-005
1.793912e+000,-2.265965e-005,1.912226e-005
1.794706e+000,-2.568093e-005,1.914471e-005
1.795500e+000,-3.105211e-005,1.917749e-005
1.796294e+000,-2.970932e-005,1.922211e-005
1.797088e+000,-2.702373e-005,1.924614e-005
1.797882e+000,-2.299535e-005,1.925056e-005
1.798676e+000,-2.366674e-005,1.923238e-005
1.799471e+000,-2.702373e-005,1.921053e-005
1.800265e+000,-2.652018e-005,1.921922e-005
1.801059e+000,-2.970932e-005,1.922213e-005
1.801853e+000,-3.373770e-005,1.923624e-005
1.802647e+000,-3.172351e-005,1.927147e-005
1.803441e+000,-1.930266e-005,1.929723e-005
1.804235e+000,-1.493858e-005,1.927635e-005
1.805029e+000,-1.359579e-005,1.924980e-005
1.805824e+000,-1.510643e-006,1.923533e-005
1.806618e+000,1.292439e-005,1.920571e-005
1.807412e+000,2.719158e-005,1.918866e-005
1.808206e+000,3.608759e-005,1.922421e-005
1.809000e+000,3.306630e-005,1.931170e-005
1.809794e+000,2.735943e-005,1.938863e-005
1.810588e+000,1.980621e-005,1.943487e-005
1.811382e+000,1.292439e-005,1.945332e-005
1.812176e+000,2.517739e-006,1.944831e-005
1.812971e+000,-9.567407e-006,1.942338e-005
1.813765e+000,-1.762417e-005,1.941259e-005
1.814559e+000,-2.165255e-005,1.943522e-005
1.815353e+000,-2.249180e-005,1.947293e-005
1.816147e+000,-2.232395e-005,1.951359e-005
1.816941e+000,-2.568093e-005,1.955320e-005
1.817735e+000,-2.450599e-005,1.960220e-005
1.818529e+000,-2.719158e-005,1.964215e-005
1.819324e+000,-2.903792e-005,1.968919e-005
1.820118e+000,-2.299535e-005,1.974767e-005
1.820912e+000,-1.795987e-005,1.977947e-005
1.821706e+000,-1.913481e-005,1.978184e-005
1.822500e+000,-1.762417e-005,1.979334e-005
1.823294e+000,-1.829557e-005,1.981288e-005
1.824088e+000,-1.091020e-005,1.983596e-005
1.824882e+000,-1.292439e-005,1.983710e-005
1.825676e+000,-2.165255e-005,1.982264e-005
1.826471e+000,-2.232395e-005,1.982932e-005
1.827265e+000,-1.762417e-005,1.981637e-005
1.828059e+000,-2.198825e-005,1.972239e-005
1.828853e+000,-2.937362e-005,1.964406e-005
1.829647e+000,-2.786297e-005,1.961987e-005
1.830441e+000,-2.098116e-005,1.961758e-005
1.831235e+000,-9.231709e-006,1.964478e-005
1.832029e+000,-8.392462e-007,1.964821e-005
1.832824e+000,1.846342e-006,1.963676e-005
1.833618e+000,1.678492e-006,1.959026e-005
1.834412e+000,4.531929e-006,1.948827e-005
1.835206e+000,4.196231e-006,1.939297e-005
1.836000e+000,6.546120e-006,1.929886e-005
1.836794e+000,6.210422e-006,1.926247e-005
1.837588e+000,-5.035477e-007,1.925861e-005
1.838382e+000,-1.124590e-005,1.925845e-005
1.839176e+000,-1.560998e-005,1.925906e-005
1.839971e+000,-2.232395e-005,1.924510e-005
1.840765e+000,-2.903792e-005,1.924258e-005
1.841559e+000,-2.937362e-005,1.927986e-005
1.842353e+000,-2.668803e-005,1.930614e-005
1.843147e+000,-3.121996e-005,1.932378e-005
1.843941e+000,-3.575189e-005,1.938305e-005
1.844735e+000,-3.205920e-005,1.947744e-005
1.845529e+000,-2.903792e-005,1.954768e-005
1.846324e+000,-2.870222e-005,1.959560e-005
1.847118e+000,-2.265965e-005,1.962900e-005
1.847912e+000,-1.426719e-005,1.961431e-005
1.848706e+000,-6.546120e-006,1.958272e-005
1.849500e+000,-1.510643e-006,1.954805e-005
1.850294e+000,1.174945e-006,1.951891e-005
1.851088e+000,4.531929e-006,1.949367e-005
1.851882e+000,3.860533e-006,1.945460e-005
1.852676e+000,-4.196231e-006,1.940592e-005
1.853471e+000,-9.231709e-006,1.937237e-005
1.854265e+000,-8.560311e-006,1.936102e-005
1.855059e+000,-8.224612e-006,1.935786e-005
1.855853e+000,-1.292439e-005,1.936090e-005
1.856647e+000,-9.735256e-006,1.936812e-005
1.857441e+000,-7.553216e-006,1.935918e-005
1.858235e+000,-8.896010e-006,1.935118e-005
1.859029e+000,-1.091020e-005,1.934500e-005
1.859824e+000,-1.359579e-005,1.933804e-005
1.860618e+000,-1.158160e-005,1.933986e-005
1.861412e+000,-1.426719e-005,1.933084e-005
1.862206e+000,-1.628138e-005,1.931133e-005
1.863000e+000,-1.225299e-005,1.929332e-005
1.863794e+000,-1.728847e-005,1.923603e-005
1.864588e+000,-1.795987e-005,1.915479e-005
1.865382e+000,-1.426719e-005,1.907518e-005
1.866176e+000,-8.896010e-006,1.897284e-005
1.866971e+000,-9.567407e-006,1.884625e-005
1.867765e+000,-1.258869e-005,1.875371e-005
1.868559e+000,-1.644922e-005,1.868869e-005
1.869353e+000,-1.896696e-005,1.866125e-005
1.870147e+000,-1.628138e-005,1.866339e-005
1.870941e+000,-1.628138e-005,1.866696e-005
1.871735e+000,-1.728847e-005,1.868120e-005
1.872529e+000,-1.191730e-005,1.870612e-005
1.873324e+000,-1.023880e-005,1.871659e-005
1.874118e+000,-1.426719e-005,1.871342e-005
1.874912e+000,-1.560998e-005,1.867891e-005
1.875706e+000,-1.930266e-005,1.864489e-005
1.876500e+000,-2.215610e-005,1.865678e-005
1.877294e+000,-2.165255e-005,1.869137e-005
1.878088e+000,-1.762417e-005,1.872977e-005
1.878882e+000,-8.224612e-006,1.875442e-005
1.879676e+000,6.546120e-006,1.876005e-005
1.880471e+000,1.661708e-005,1.876328e-005
1.881265e+000,2.064546e-005,1.878377e-005
1.882059e+000,1.846342e-005,1.880716e-005
1.882853e+000,1.795987e-005,1.881627e-005
1.883647e+000,8.560311e-006,1.883015e-005
1.884441e+000,-4.867628e-006,1.882365e-005
1.885235e+000,-8.896010e-006,1.879886e-005
1.886029e+000,-1.191730e-005,1.875671e-005
1.886824e+000,-1.980621e-005,1.872895e-005
1.887618e+000,-2.500954e-005,1.873384e-005
1.888412e+000,-2.635233e-005,1.876801e-005
1.889206e+000,-2.735943e-005,1.881614e-005
1.890000e+000,-2.467384e-005,1.886601e-005
1.890794e+000,-2.299535e-005,1.889853e-005
1.891588e+000,-2.584878e-005,1.893207e-005
1.892382e+000,-2.601663e-005,1.897694e-005
1.893176e+000,-2.769513e-005,1.901741e-005
1.893971e+000,-3.138781e-005,1.906571e-005
1.894765e+000,-2.903792e-005,1.912754e-005
1.895559e+000,-2.903792e-005,1.917738e-005
1.896353e+000,-3.340200e-005,1.922348e-005
1.897147e+000,-3.038071e-005,1.928164e-005
1.897941e+000,-2.702373e-005,1.932487e-005
1.898735e+000,-2.836652e-005,1.933487e-005
1.899529e+000,-2.668803e-005,1.935758e-005
1.900324e+000,-2.131685e-005,1.936744e-005
1.901118e+000,-9.735256e-006,1.936321e-005
1.901912e+000,-1.678492e-007,1.933242e-005
1.902706e+000,7.888914e-006,1.928357e-005
1.903500e+000,1.191730e-005,1.925234e-005
1.904294e+000,7.888914e-006,1.923432e-005
1.905088e+000,5.874723e-006,1.920242e-005
1.905882e+000,4.867628e-006,1.918593e-005
1.906676e+000,-5.035477e-007,1.917099e-005
1.907471e+000,-2.182040e-006,1.914898e-005
1.908265e+000,-4.867628e-006,1.913081e-005
1.909059e+000,-9.735256e-006,1.912162e-005
1.909853e+000,-8.224612e-006,1.910921e-005
1.910647e+000,-5.539025e-006,1.909183e-005
1.911441e+000,-1.091020e-005,1.906220e-005
1.912235e+000,-1.359579e-005,1.903296e-005
1.913029e+000,-1.510643e-005,1.902390e-005
1.913824e+000,-2.064546e-005,1.898776e-005
1.914618e+000,-2.702373e-005,1.895759e-005
1.915412e+000,-3.172351e-005,1.897831e-005
1.916206e+000,-3.541619e-005,1.903141e-005
1.917000e+000,-3.575189e-005,1.912923e-005
1.917794e+000,-3.373770e-005,1.922776e-005
1.918588e+000,-2.400244e-005,1.928431e-005
1.919382e+000,-1.762417e-005,1.931505e-005
1.920176e+000,-1.695277e-005,1.929705e-005
1.920971e+000,-1.091020e-005,1.923586e-005
1.921765e+000,-7.049668e-006,1.917582e-005
1.922559e+000,-1.678492e-007,1.914037e-005
1.923353e+000,6.546120e-006,1.912009e-005
1.924147e+000,3.189136e-006,1.911493e-005
1.924941e+000,2.853437e-006,1.911578e-005
1.925735e+000,-5.035477e-007,1.910654e-005
1.926529e+000,4.531929e-006,1.908711e-005
1.927324e+000,5.035477e-007,1.906759e-005
1.928118e+000,-8.224612e-006,1.904166e-005
1.928912e+000,-7.217518e-006,1.901280e-005
1.929706e+000,-8.896010e-006,1.895893e-005
1.930500e+000,-1.846342e-006,1.888963e-005
1.931294e+000,3.189136e-006,1.881195e-005
1.932088e+000,9.231709e-006,1.873013e-005
1.932882e+000,6.546120e-006,1.864422e-005
1.933676e+000,-6.210422e-006,1.853842e-005
1.934471e+000,-1.695277e-005,1.845138e-005
1.935265e+000,-1.762417e-005,1.838923e-005
1.936059e+000,-1.695277e-005,1.832514e-005
1.936853e+000,-9.567407e-006,1.825881e-005
1.937647e+000,-1.560998e-005,1.818968e-005
1.938441e+000,-2.098116e-005,1.815324e-005
1.939235e+000,-2.198825e-005,1.814479e-005
1.940029e+000,-2.030976e-005,1.815565e-005
1.940824e+000,-2.500954e-005,1.815800e-005
1.941618e+000,-2.836652e-005,1.818348e-005
1.942412e+000,-2.769513e-005,1.823604e-005
1.943206e+000,-3.172351e-005,1.829493e-005
1.944000e+000,-3.038071e-005,1.837200e-005
1.944794e+000,-2.635233e-005,1.843741e-005
1.945588e+000,-2.500954e-005,1.848364e-005
1.946382e+000,-2.450599e-005,1.852844e-005
1.947176e+000,-2.433814e-005,1.857794e-005
1.947971e+000,-2.165255e-005,1.862853e-005
1.948765e+000,-1.829557e-005,1.866850e-005
1.949559e+000,-2.098116e-005,1.869300e-005
1.950353e+000,-1.560998e-005,1.872471e-005
1.951147e+000,-1.174945e-005,1.874099e-005
1.951941e+000,-8.224612e-006,1.874787e-005
1.952735e+000,-2.853437e-006,1.874690e-005
1.953529e+000,-4.867628e-006,1.873552e-005
1.954324e+000,-8.224612e-006,1.873389e-005
1.955118e+000,-1.225299e-005,1.873790e-005
1.955912e+000,-1.510643e-005,1.874393e-005
1.956706e+000,-1.896696e-005,1.875192e-005
1.957500e+000,-1.594568e-005,1.875995e-005
1.958294e+000,-1.242084e-005,1.875517e-005
1.959088e+000,-1.124590e-005,1.873324e-005
1.959882e+000,-9.567407e-006,1.870287e-005
1.960676e+000,-6.210422e-006,1.867781e-005
1.961471e+000,-1.057450e-005,1.863597e-005
1.962265e+000,-1.158160e-005,1.861255e-005
1.963059e+000,-9.567407e-006,1.860821e-005
1.963853e+000,-7.888914e-006,1.860875e-005
1.964647e+000,-6.881819e-006,1.860625e-005
1.965441e+000,-1.258869e-005,1.860011e-005
1.966235e+000,-1.493858e-005,1.861037e-005
1.967029e+000,-1.628138e-005,1.862922e-005
1.967824e+000,-2.131685e-005,1.865174e-005
1.968618e+000,-1.997406e-005,1.869044e-005
1.969412e+000,-9.903105e-006,1.871864e-005
1.970206e+000,-8.560311e-006,1.871126e-005
1.971000e+000,-6.378271e-006,1.869850e-005
1.971794e+000,-2.853437e-006,1.867650e-005
1.972588e+000,-8.896010e-006,1.863337e-005
1.973382e+000,-8.560311e-006,1.859751e-005
1.974176e+000,-8.224612e-006,1.856108e-005
1.974971e+000,-1.225299e-005,1.851530e-005
1.975765e+000,-1.359579e-005,1.849154e-005
1.976559e+000,-1.258869e-005,1.849154e-005
1.977353e+000,-1.225299e-005,1.849494e-005
1.978147e+000,-1.326009e-005,1.850204e-005
1.978941e+000,-5.874723e-006,1.851309e-005
1.979735e+000,5.203327e-006,1.851000e-005
1.980529e+000,1.225299e-005,1.849869e-005
1.981324e+000,1.779202e-005,1.849491e-005
1.982118e+000,1.594568e-005,1.850923e-005
1.982912e+000,4.531929e-006,1.852906e-005
1.983706e+000,-3.189136e-006,1.853028e-005
1.984500e+000,-4.867628e-006,1.852883e-005
1.985294e+000,-1.628138e-005,1.852718e-005
1.986088e+000,-2.182040e-005,1.854831e-005
1.986882e+000,-2.500954e-005,1.858908e-005
1.987676e+000,-2.232395e-005,1.864189e-005
1.988471e+000,-2.433814e-005,1.868439e-005
1.989265e+000,-2.534523e-005,1.873375e-005
1.990059e+000,-2.836652e-005,1.878787e-005
1.990853e+000,-2.534523e-005,1.885335e-005
1.991647e+000,-2.735943e-005,1.890272e-005
1.992441e+000,-2.735943e-005,1.895903e-005
1.993235e+000,-2.769513e-005,1.901183e-005
1.994029e+000,-3.239490e-005,1.905561e-005
1.994824e+000,-3.642328e-005,1.910407e-005
1.995618e+000,-3.071641e-005,1.914593e-005
1.996412e+000,-3.038071e-005,1.915264e-005
1.997206e+000,-3.155566e-005,1.915433e-005
1.998000e+000,-2.467384e-005,1.917178e-005
1.998794e+000,-1.023880e-005,1.917450e-005
1.999588e+000,3.860533e-006,1.913926e-005
2.000382e+000,7.721065e-006,1.910947e-005
2.001176e+000,2.517739e-006,1.907288e-005
2.001971e+000,3.524834e-006,1.902112e-005
2.002765e+000,8.560311e-006,1.897654e-005
2.003559e+000,4.699779e-006,1.893828e-005
2.004353e+000,-2.853437e-006,1.890986e-005
2.005147e+000,-4.531929e-006,1.888821e-005
2.005941e+000,-3.524834e-006,1.886570e-005
2.006735e+000,-5.706874e-006,1.884957e-005
2.007529e+000,-8.224612e-006,1.884403e-005
2.008324e+000,-1.091020e-005,1.883841e-005
2.009118e+000,-1.493858e-005,1.883713e-005
2.009912e+000,-1.695277e-005,1.884713e-005
2.010706e+000,-2.098116e-005,1.886073e-005
2.011500e+000,-2.064546e-005,1.889215e-005
2.012294e+000,-2.030976e-005,1.892034e-005
2.013088e+000,-2.030976e-005,1.894241e-005
2.013882e+000,-2.366674e-005,1.896644e-005
2.014676e+000,-2.249180e-005,1.899941e-005
2.015471e+000,-2.299535e-005,1.902137e-005
2.016265e+000,-2.534523e-005,1.904694e-005
2.017059e+000,-2.702373e-005,1.907846e-005
2.017853e+000,-2.903792e-005,1.910266e-005
2.018647e+000,-2.064546e-005,1.912355e-005
2.019441e+000,-1.560998e-005,1.909516e-005
2.020235e+000,-1.493858e-005,1.905900e-005
2.021029e+000,-1.158160e-005,1.901958e-005
2.021824e+000,-9.567407e-006,1.895681e-005
2.022618e+000,-7.217518e-006,1.892509e-005
2.023412e+000,-8.560311e-006,1.889701e-005
2.024206e+000,-1.158160e-005,1.889053e-005
2.025000e+000,-4.867628e-006,1.889659e-005
2.025794e+000,5.035477e-007,1.884722e-005
2.026588e+000,-1.510643e-006,1.876560e-005
2.027382e+000,2.349889e-006,1.870217e-005
2.028176e+000,-2.182040e-006,1.866268e-005
2.028971e+000,-2.182040e-006,1.865096e-005
2.029765e+000,-1.678492e-007,1.864299e-005
2.030559e+000,-2.182040e-006,1.863572e-005
2.031353e+000,-2.182040e-006,1.863558e-005
2.032147e+000,-6.210422e-006,1.863111e-005
2.032941e+000,-1.258869e-005,1.862423e-005
2.033735e+000,-1.510643e-005,1.862761e-005
2.034529e+000,-1.158160e-005,1.862056e-005
2.035324e+000,-1.091020e-005,1.859437e-005
2.036118e+000,-1.762417e-005,1.857038e-005
2.036912e+000,-2.131685e-005,1.856394e-005
2.037706e+000,-2.047761e-005,1.856754e-005
2.038500e+000,-1.896696e-005,1.857479e-005
2.039294e+000,-1.963836e-005,1.855484e-005
2.040088e+000,-1.997406e-005,1.851042e-005
2.040882e+000,-1.762417e-005,1.846173e-005
2.041676e+000,-1.712062e-005,1.841741e-005
2.042471e+000,-1.762417e-005,1.839567e-005
2.043265e+000,-2.299535e-005,1.837678e-005
2.044059e+000,-2.333104e-005,1.837811e-005
2.044853e+000,-2.030976e-005,1.836813e-005
2.045647e+000,-2.568093e-005,1.832023e-005
2.046441e+000,-2.702373e-005,1.830083e-005
2.047235e+000,-2.299535e-005,1.830083e-005
2.048029e+000,-1.393149e-005,1.830083e-005
2.048824e+000,-7.553216e-006,1.826895e-005
2.049618e+000,-1.510643e-006,1.821018e-005
2.050412e+000,-4.196231e-006,1.814877e-005
2.051206e+000,-8.392462e-006,1.807272e-005
2.052000e+000,-4.196231e-006,1.797839e-005
2.052794e+000,1.846342e-006,1.789060e-005
2.053588e+000,-8.224612e-006,1.785771e-005
2.054382e+000,-1.493858e-005,1.784383e-005
2.055176e+000,-1.594568e-005,1.784725e-005
2.055971e+000,-9.567407e-006,1.786972e-005
2.056765e+000,-8.224612e-006,1.786299e-005
2.057559e+000,-1.191730e-005,1.780301e-005
2.058353e+000,-9.567407e-006,1.769893e-005
2.059147e+000,-6.881819e-006,1.760856e-005
2.059941e+000,-2.349889e-006,1.754504e-005
2.060735e+000,-1.846342e-006,1.750990e-005
2.061529e+000,2.517739e-006,1.749501e-005
2.062324e+000,2.182040e-006,1.749501e-005
2.063118e+000,-2.182040e-006,1.748711e-005
2.063912e+000,-6.546120e-006,1.745924e-005
2.064706e+000,-1.443504e-005,1.742035e-005
2.065500e+000,-1.695277e-005,1.739313e-005
2.066294e+000,-1.628138e-005,1.737381e-005
2.067088e+000,-1.963836e-005,1.733762e-005
2.067882e+000,-2.635233e-005,1.731787e-005
2.068676e+000,-2.786297e-005,1.731374e-005
2.069471e+000,-2.870222e-005,1.730759e-005
2.070265e+000,-2.702373e-005,1.733471e-005
2.071059e+000,-2.433814e-005,1.737213e-005
2.071853e+000,-2.366674e-005,1.739285e-005
2.072647e+000,-2.165255e-005,1.741567e-005
2.073441e+000,-2.366674e-005,1.742793e-005
2.074235e+000,-2.568093e-005,1.746819e-005
2.075029e+000,-2.433814e-005,1.751302e-005
2.075824e+000,-2.165255e-005,1.752425e-005
2.076618e+000,-2.467384e-005,1.752156e-005
2.077412e+000,-2.584878e-005,1.754864e-005
2.078206e+000,-2.668803e-005,1.756539e-005
2.079000e+000,-1.829557e-005,1.755173e-005
2.079794e+000,-1.292439e-005,1.751162e-005
2.080588e+000,-1.158160e-005,1.748677e-005
2.081382e+000,-1.678492e-007,1.749122e-005
2.082176e+000,7.553216e-006,1.749116e-005
2.082971e+000,1.158160e-005,1.749604e-005
2.083765e+000,1.527428e-005,1.750799e-005
2.084559e+000,1.795987e-005,1.752733e-005
2.085353e+000,9.903105e-006,1.755501e-005
2.086147e+000,4.531929e-006,1.756002e-005
2.086941e+000,1.846342e-006,1.755838e-005
2.087735e+000,2.517739e-006,1.755867e-005
2.088529e+000,-8.392462e-007,1.754777e-005
2.089324e+000,-2.517739e-006,1.752571e-005
2.090118e+000,-3.524834e-006,1.748095e-005
2.090912e+000,-9.567407e-006,1.740511e-005
2.091706e+000,-1.695277e-005,1.733440e-005
2.092500e+000,-1.728847e-005,1.729533e-005
2.093294e+000,-1.963836e-005,1.723300e-005
2.094088e+000,-2.165255e-005,1.715033e-005
2.094882e+000,-2.165255e-005,1.709835e-005
2.095676e+000,-2.534523e-005,1.706345e-005
2.096471e+000,-2.735943e-005,1.704651e-005
2.097265e+000,-2.702373e-005,1.706846e-005
2.098059e+000,-2.635233e-005,1.711753e-005
2.098853e+000,-2.769513e-005,1.717803e-005
2.099647e+000,-3.071641e-005,1.724878e-005
2.100441e+000,-3.776608e-005,1.733553e-005
2.101235e+000,-4.985122e-005,1.746418e-005
2.102029e+000,-5.522240e-005,1.768798e-005
2.102824e+000,-4.884413e-005,1.795885e-005
2.103618e+000,-3.994812e-005,1.816169e-005
2.104412e+000,-2.786297e-005,1.829469e-005
2.105206e+000,-1.644922e-005,1.835627e-005
2.106000e+000,1.174945e-006,1.836525e-005
2.106794e+000,1.393149e-005,1.835715e-005
2.107588e+000,2.668803e-005,1.836904e-005
2.108382e+000,4.196231e-005,1.842384e-005
2.109176e+000,4.011597e-005,1.856520e-005
2.109971e+000,3.273060e-005,1.868697e-005
2.110765e+000,3.071641e-005,1.876666e-005
2.111559e+000,1.795987e-005,1.882934e-005
2.112353e+000,2.853437e-006,1.883420e-005
2.113147e+000,-3.524834e-006,1.882219e-005
2.113941e+000,-9.567407e-006,1.879794e-005
2.114735e+000,-1.628138e-005,1.877836e-005
2.115529e+000,-2.182040e-005,1.878358e-005
2.116324e+000,-2.769513e-005,1.881720e-005
2.117118e+000,-3.038071e-005,1.887428e-005
2.117912e+000,-3.340200e-005,1.893866e-005
2.118706e+000,-3.239490e-005,1.900959e-005
2.119500e+000,-2.433814e-005,1.906727e-005
2.120294e+000,-1.359579e-005,1.909458e-005
2.121088e+000,-1.292439e-005,1.908789e-005
2.121882e+000,-1.225299e-005,1.907689e-005
2.122676e+000,-7.553216e-006,1.907757e-005
2.123471e+000,-8.896010e-006,1.907358e-005
2.124265e+000,-6.546120e-006,1.906319e-005
2.125059e+000,3.189136e-006,1.904641e-005
2.125853e+000,1.846342e-006,1.901608e-005
2.126647e+000,-8.224612e-006,1.897522e-005
2.127441e+000,-1.795987e-005,1.894152e-005
2.128235e+000,-2.165255e-005,1.894253e-005
2.129029e+000,-2.299535e-005,1.897622e-005
2.129824e+000,-2.467384e-005,1.901695e-005
2.130618e+000,-2.601663e-005,1.904479e-005
2.131412e+000,-2.702373e-005,1.906573e-005
2.132206e+000,-3.038071e-005,1.909823e-005
2.133000e+000,-2.836652e-005,1.914822e-005
2.133794e+000,-2.568093e-005,1.920895e-005
2.134588e+000,-2.165255e-005,1.926158e-005
2.135382e+000,-2.030976e-005,1.929377e-005
2.136176e+000,-2.366674e-005,1.931608e-005
2.136971e+000,-2.165255e-005,1.932991e-005
2.137765e+000,-2.400244e-005,1.931700e-005
2.138559e+000,-2.601663e-005,1.930725e-005
2.139353e+000,-2.232395e-005,1.930133e-005
2.140147e+000,-1.359579e-005,1.929222e-005
2.140941e+000,-6.210422e-006,1.926381e-005
2.141735e+000,2.349889e-006,1.921170e-005
2.142529e+000,1.846342e-006,1.915597e-005
2.143324e+000,-1.174945e-006,1.909239e-005
2.144118e+000,-1.510643e-006,1.901016e-005
2.144912e+000,-2.853437e-006,1.893959e-005
2.145706e+000,-8.224612e-006,1.886926e-005
2.146500e+000,-1.158160e-005,1.878060e-005
2.147294e+000,-1.191730e-005,1.871360e-005
2.148088e+000,-9.903105e-006,1.866348e-005
2.148882e+000,-1.225299e-005,1.860309e-005
2.149676e+000,-1.896696e-005,1.855492e-005
2.150471e+000,-1.863127e-005,1.854679e-005
2.151265e+000,-1.695277e-005,1.856844e-005
2.152059e+000,-1.560998e-005,1.859307e-005
2.152853e+000,-1.158160e-005,1.860860e-005
2.153647e+000,-1.091020e-005,1.860793e-005
2.154441e+000,-1.258869e-005,1.861279e-005
2.155235e+000,-9.903105e-006,1.862339e-005
2.156029e+000,-1.124590e-005,1.862975e-005
2.156824e+000,-1.191730e-005,1.864053e-005
2.157618e+000,-9.567407e-006,1.865226e-005
2.158412e+000,-5.539025e-006,1.865805e-005
2.159206e+000,-8.896010e-006,1.865258e-005
2.160000e+000,-7.217518e-006,1.865356e-005
2.160794e+000,-6.210422e-006,1.865538e-005
2.161588e+000,-5.203327e-006,1.864851e-005
2.162382e+000,-4.196231e-006,1.863504e-005
2.163176e+000,-6.881819e-006,1.861703e-005
2.163971e+000,-3.356985e-006,1.858460e-005
2.164765e+000,-4.867628e-006,1.852289e-005
2.165559e+000,-1.510643e-006,1.843822e-005
2.166353e+000,3.860533e-006,1.832977e-005
2.167147e+000,1.846342e-006,1.821970e-005
2.167941e+000,-1.678492e-007,1.812024e-005
2.168735e+000,-2.853437e-006,1.806955e-005
2.169529e+000,-1.292439e-005,1.804287e-005
2.170324e+000,-1.829557e-005,1.803225e-005
2.171118e+000,-1.795987e-005,1.805129e-005
2.171912e+000,-1.829557e-005,1.807534e-005
2.172706e+000,-1.762417e-005,1.810480e-005
