X [s],L DELTOID ANTERIOR: EMG 3 [V],L DELTOID ANTERIOR: EMG 3->filter (FilterSlidingRMS57) [V]
0.000000e+000,0.000000e+000,0.000000e+000
7.941176e-004,0.000000e+000,0.000000e+000
1.588235e-003,0.000000e+000,0.000000e+000
2.382353e-003,0.000000e+000,0.000000e+000
3.176471e-003,0.000000e+000,0.000000e+000
3.970588e-003,0.000000e+000,0.000000e+000
4.764706e-003,0.000000e+000,0.000000e+000
5.558824e-003,0.000000e+000,0.000000e+000
6.352941e-003,0.000000e+000,0.000000e+000
7.147059e-003,0.000000e+000,0.000000e+000
7.941176e-003,0.000000e+000,0.000000e+000
8.735294e-003,0.000000e+000,0.000000e+000
9.529412e-003,0.000000e+000,0.000000e+000
1.032353e-002,0.000000e+000,0.000000e+000
1.111765e-002,0.000000e+000,0.000000e+000
1.191176e-002,0.000000e+000,0.000000e+000
1.270588e-002,0.000000e+000,0.000000e+000
1.350000e-002,0.000000e+000,0.000000e+000
1.429412e-002,0.000000e+000,0.000000e+000
1.508824e-002,0.000000e+000,0.000000e+000
1.588235e-002,0.000000e+000,0.000000e+000
1.667647e-002,0.000000e+000,0.000000e+000
1.747059e-002,0.000000e+000,0.000000e+000
1.826471e-002,0.000000e+000,0.000000e+000
1.905882e-002,0.000000e+000,0.000000e+000
1.985294e-002,0.000000e+000,0.000000e+000
2.064706e-002,0.000000e+000,0.000000e+000
2.144118e-002,0.000000e+000,0.000000e+000
2.223529e-002,0.000000e+000,0.000000e+000
2.302941e-002,0.000000e+000,0.000000e+000
2.382353e-002,0.000000e+000,0.000000e+000
2.461765e-002,0.000000e+000,0.000000e+000
2.541176e-002,0.000000e+000,0.000000e+000
2.620588e-002,0.000000e+000,0.000000e+000
2.700000e-002,0.000000e+000,0.000000e+000
2.779412e-002,0.000000e+000,0.000000e+000
2.858824e-002,0.000000e+000,0.000000e+000
2.938235e-002,0.000000e+000,0.000000e+000
3.017647e-002,0.000000e+000,0.000000e+000
3.097059e-002,0.000000e+000,0.000000e+000
3.176471e-002,0.000000e+000,0.000000e+000
3.255882e-002,0.000000e+000,0.000000e+000
3.335294e-002,0.000000e+000,0.000000e+000
3.414706e-002,0.000000e+000,0.000000e+000
3.494118e-002,0.000000e+000,0.000000e+000
3.573529e-002,0.000000e+000,0.000000e+000
3.652941e-002,0.000000e+000,0.000000e+000
3.732353e-002,0.000000e+000,0.000000e+000
3.811765e-002,0.000000e+000,0.000000e+000
3.891176e-002,0.000000e+000,0.000000e+000
3.970588e-002,0.000000e+000,0.000000e+000
4.050000e-002,0.000000e+000,0.000000e+000
4.129412e-002,0.000000e+000,0.000000e+000
4.208824e-002,0.000000e+000,0.000000e+000
4.288235e-002,0.000000e+000,0.000000e+000
4.367647e-002,0.000000e+000,0.000000e+000
4.447059e-002,0.000000e+000,0.000000e+000
4.526471e-002,0.000000e+000,0.000000e+000
4.605882e-002,0.000000e+000,0.000000e+000
4.685294e-002,0.000000e+000,0.000000e+000
4.764706e-002,0.000000e+000,0.000000e+000
4.844118e-002,0.000000e+000,0.000000e+000
4.923529e-002,0.000000e+000,0.000000e+000
5.002941e-002,0.000000e+000,0.000000e+000
5.082353e-002,0.000000e+000,0.000000e+000
5.161765e-002,0.000000e+000,0.000000e+000
5.241176e-002,0.000000e+000,0.000000e+000
5.320588e-002,0.000000e+000,0.000000e+000
5.400000e-002,0.000000e+000,0.000000e+000
5.479412e-002,0.000000e+000,0.000000e+000
5.558824e-002,0.000000e+000,0.000000e+000
5.638235e-002,0.000000e+000,0.000000e+000
5.717647e-002,0.000000e+000,0.000000e+000
5.797059e-002,0.000000e+000,0.000000e+000
5.876471e-002,0.000000e+000,0.000000e+000
5.955882e-002,0.000000e+000,0.000000e+000
6.035294e-002,0.000000e+000,0.000000e+000
6.114706e-002,0.000000e+000,0.000000e+000
6.194118e-002,0.000000e+000,0.000000e+000
6.273529e-002,0.000000e+000,0.000000e+000
6.352941e-002,0.000000e+000,0.000000e+000
6.432353e-002,0.000000e+000,0.000000e+000
6.511765e-002,0.000000e+000,0.000000e+000
6.591176e-002,0.000000e+000,0.000000e+000
6.670588e-002,0.000000e+000,0.000000e+000
6.750000e-002,0.000000e+000,0.000000e+000
6.829412e-002,0.000000e+000,0.000000e+000
6.908824e-002,0.000000e+000,0.000000e+000
6.988235e-002,0.000000e+000,0.000000e+000
7.067647e-002,0.000000e+000,0.000000e+000
7.147059e-002,0.000000e+000,0.000000e+000
7.226471e-002,0.000000e+000,0.000000e+000
7.305882e-002,0.000000e+000,0.000000e+000
7.385294e-002,0.000000e+000,0.000000e+000
7.464706e-002,0.000000e+000,0.000000e+000
7.544118e-002,0.000000e+000,0.000000e+000
7.623529e-002,0.000000e+000,0.000000e+000
7.702941e-002,0.000000e+000,0.000000e+000
7.782353e-002,0.000000e+000,0.000000e+000
7.861765e-002,0.000000e+000,0.000000e+000
7.941176e-002,0.000000e+000,0.000000e+000
8.020588e-002,0.000000e+000,0.000000e+000
8.100000e-002,0.000000e+000,0.000000e+000
8.179412e-002,0.000000e+000,0.000000e+000
8.258824e-002,0.000000e+000,0.000000e+000
8.338235e-002,0.000000e+000,0.000000e+000
8.417647e-002,0.000000e+000,0.000000e+000
8.497059e-002,0.000000e+000,0.000000e+000
8.576471e-002,0.000000e+000,0.000000e+000
8.655882e-002,0.000000e+000,0.000000e+000
8.735294e-002,0.000000e+000,0.000000e+000
8.814706e-002,0.000000e+000,0.000000e+000
8.894118e-002,0.000000e+000,0.000000e+000
8.973529e-002,0.000000e+000,0.000000e+000
9.052941e-002,0.000000e+000,0.000000e+000
9.132353e-002,0.000000e+000,0.000000e+000
9.211765e-002,0.000000e+000,0.000000e+000
9.291176e-002,0.000000e+000,0.000000e+000
9.370588e-002,0.000000e+000,0.000000e+000
9.450000e-002,-1.359579e-005,0.000000e+000
9.529412e-002,-7.553216e-006,0.000000e+000
9.608824e-002,-9.231709e-006,0.000000e+000
9.688235e-002,-1.023880e-005,0.000000e+000
9.767647e-002,-1.225299e-005,0.000000e+000
9.847059e-002,-1.091020e-005,0.000000e+000
9.926471e-002,-1.158160e-005,0.000000e+000
1.000588e-001,-6.881819e-006,0.000000e+000
1.008529e-001,-5.539025e-006,0.000000e+000
1.016471e-001,-5.539025e-006,0.000000e+000
1.024412e-001,-4.364080e-006,0.000000e+000
1.032353e-001,-7.049668e-006,0.000000e+000
1.040294e-001,-8.896010e-006,0.000000e+000
1.048235e-001,-5.203327e-006,0.000000e+000
1.056176e-001,-4.867628e-006,0.000000e+000
1.064118e-001,-4.867628e-006,0.000000e+000
1.072059e-001,-5.539025e-006,0.000000e+000
1.080000e-001,-4.867628e-006,0.000000e+000
1.087941e-001,-6.042573e-006,0.000000e+000
1.095882e-001,-3.524834e-006,0.000000e+000
1.103824e-001,-1.510643e-006,0.000000e+000
1.111765e-001,-4.531929e-006,0.000000e+000
1.119706e-001,-3.189136e-006,0.000000e+000
1.127647e-001,-2.182040e-006,0.000000e+000
1.135588e-001,-3.692683e-006,0.000000e+000
1.143529e-001,-5.539025e-006,0.000000e+000
1.151471e-001,-4.531929e-006,0.000000e+000
1.159412e-001,-4.867628e-006,0.000000e+000
1.167353e-001,-5.539025e-006,0.000000e+000
1.175294e-001,-6.210422e-006,0.000000e+000
1.183235e-001,-4.531929e-006,0.000000e+000
1.191176e-001,-6.713969e-007,0.000000e+000
1.199118e-001,-4.196231e-006,0.000000e+000
1.207059e-001,-2.853437e-006,0.000000e+000
1.215000e-001,-2.182040e-006,0.000000e+000
1.222941e-001,-5.539025e-006,0.000000e+000
1.230882e-001,-5.203327e-006,0.000000e+000
1.238824e-001,-7.553216e-006,0.000000e+000
1.246765e-001,-6.881819e-006,0.000000e+000
1.254706e-001,-4.196231e-006,0.000000e+000
1.262647e-001,-6.210422e-006,0.000000e+000
1.270588e-001,-7.217518e-006,0.000000e+000
1.278529e-001,-5.203327e-006,0.000000e+000
1.286471e-001,-7.888914e-006,0.000000e+000
1.294412e-001,-6.210422e-006,0.000000e+000
1.302353e-001,-6.546120e-006,0.000000e+000
1.310294e-001,-7.553216e-006,0.000000e+000
1.318235e-001,-6.210422e-006,0.000000e+000
1.326176e-001,-7.721065e-006,0.000000e+000
1.334118e-001,-5.706874e-006,0.000000e+000
1.342059e-001,-8.896010e-006,0.000000e+000
1.350000e-001,-8.224612e-006,0.000000e+000
1.357941e-001,-9.567407e-006,0.000000e+000
1.365882e-001,-9.567407e-006,0.000000e+000
1.373824e-001,-9.063859e-006,0.000000e+000
1.381765e-001,-6.881819e-006,0.000000e+000
1.389706e-001,-5.203327e-006,0.000000e+000
1.397647e-001,-6.378271e-006,0.000000e+000
1.405588e-001,-3.189136e-006,0.000000e+000
1.413529e-001,-3.189136e-006,0.000000e+000
1.421471e-001,-6.210422e-006,0.000000e+000
1.429412e-001,-5.539025e-006,0.000000e+000
1.437353e-001,-3.524834e-006,0.000000e+000
1.445294e-001,-3.189136e-006,0.000000e+000
1.453235e-001,-4.196231e-006,0.000000e+000
1.461176e-001,-6.546120e-006,0.000000e+000
1.469118e-001,-5.539025e-006,0.000000e+000
1.477059e-001,-6.210422e-006,0.000000e+000
1.485000e-001,-4.196231e-006,0.000000e+000
1.492941e-001,-2.517739e-006,0.000000e+000
1.500882e-001,-3.189136e-006,0.000000e+000
1.508824e-001,-4.364080e-006,0.000000e+000
1.516765e-001,-3.524834e-006,0.000000e+000
1.524706e-001,-3.524834e-006,0.000000e+000
1.532647e-001,-2.517739e-006,0.000000e+000
1.540588e-001,-2.182040e-006,0.000000e+000
1.548529e-001,-4.196231e-006,0.000000e+000
1.556471e-001,-5.874723e-006,0.000000e+000
1.564412e-001,-5.874723e-006,0.000000e+000
1.572353e-001,-5.706874e-006,0.000000e+000
1.580294e-001,-3.524834e-006,0.000000e+000
1.588235e-001,-4.196231e-006,0.000000e+000
1.596176e-001,-5.874723e-006,0.000000e+000
1.604118e-001,-9.903105e-006,0.000000e+000
1.612059e-001,-8.896010e-006,0.000000e+000
1.620000e-001,-9.063859e-006,0.000000e+000
1.627941e-001,-6.881819e-006,0.000000e+000
1.635882e-001,-6.881819e-006,0.000000e+000
1.643824e-001,-6.378271e-006,0.000000e+000
1.651765e-001,-4.867628e-006,0.000000e+000
1.659706e-001,-4.531929e-006,0.000000e+000
1.667647e-001,-4.196231e-006,0.000000e+000
1.675588e-001,-4.867628e-006,0.000000e+000
1.683529e-001,-4.867628e-006,0.000000e+000
1.691471e-001,-5.706874e-006,0.000000e+000
1.699412e-001,-7.217518e-006,0.000000e+000
1.707353e-001,-4.196231e-006,0.000000e+000
1.715294e-001,-3.524834e-006,0.000000e+000
1.723235e-001,-6.210422e-006,0.000000e+000
1.731176e-001,-4.867628e-006,0.000000e+000
1.739118e-001,-6.546120e-006,0.000000e+000
1.747059e-001,-1.040665e-005,0.000000e+000
1.755000e-001,-1.023880e-005,0.000000e+000
1.762941e-001,-8.896010e-006,0.000000e+000
1.770882e-001,-9.063859e-006,0.000000e+000
1.778824e-001,-8.896010e-006,0.000000e+000
1.786765e-001,-8.896010e-006,0.000000e+000
1.794706e-001,-6.042573e-006,0.000000e+000
1.802647e-001,-6.881819e-006,0.000000e+000
1.810588e-001,-4.867628e-006,0.000000e+000
1.818529e-001,-5.539025e-006,0.000000e+000
1.826471e-001,-4.531929e-006,0.000000e+000
1.834412e-001,-7.049668e-006,0.000000e+000
1.842353e-001,-4.867628e-006,0.000000e+000
1.850294e-001,-3.524834e-006,0.000000e+000
1.858235e-001,-4.196231e-006,0.000000e+000
1.866176e-001,-4.867628e-006,0.000000e+000
1.874118e-001,-4.196231e-006,0.000000e+000
1.882059e-001,-4.531929e-006,0.000000e+000
1.890000e-001,-4.531929e-006,0.000000e+000
1.897941e-001,-6.378271e-006,0.000000e+000
1.905882e-001,-6.378271e-006,0.000000e+000
1.913824e-001,-6.881819e-006,0.000000e+000
1.921765e-001,-5.203327e-006,0.000000e+000
1.929706e-001,-3.189136e-006,0.000000e+000
1.937647e-001,-6.881819e-006,0.000000e+000
1.945588e-001,-8.224612e-006,0.000000e+000
1.953529e-001,-4.196231e-006,0.000000e+000
1.961471e-001,-3.524834e-006,0.000000e+000
1.969412e-001,-3.189136e-006,0.000000e+000
1.977353e-001,-2.182040e-006,0.000000e+000
1.985294e-001,-4.196231e-006,0.000000e+000
1.993235e-001,-6.210422e-006,0.000000e+000
2.001176e-001,-4.364080e-006,0.000000e+000
2.009118e-001,-2.853437e-006,0.000000e+000
2.017059e-001,-6.881819e-006,0.000000e+000
2.025000e-001,-8.224612e-006,0.000000e+000
2.032941e-001,-6.881819e-006,0.000000e+000
2.040882e-001,-7.217518e-006,0.000000e+000
2.048824e-001,-8.392462e-006,0.000000e+000
2.056765e-001,-6.378271e-006,0.000000e+000
2.064706e-001,-5.874723e-006,0.000000e+000
2.072647e-001,-6.210422e-006,0.000000e+000
2.080588e-001,-6.378271e-006,0.000000e+000
2.088529e-001,-6.881819e-006,0.000000e+000
2.096471e-001,-7.553216e-006,0.000000e+000
2.104412e-001,-7.721065e-006,0.000000e+000
2.112353e-001,-7.553216e-006,0.000000e+000
2.120294e-001,-4.531929e-006,0.000000e+000
2.128235e-001,-2.853437e-006,0.000000e+000
2.136176e-001,-4.196231e-006,0.000000e+000
2.144118e-001,-5.706874e-006,0.000000e+000
2.152059e-001,-7.888914e-006,0.000000e+000
2.160000e-001,-7.553216e-006,0.000000e+000
2.167941e-001,-8.224612e-006,0.000000e+000
2.175882e-001,-6.881819e-006,0.000000e+000
2.183824e-001,-6.210422e-006,0.000000e+000
2.191765e-001,-2.853437e-006,0.000000e+000
2.199706e-001,-2.853437e-006,0.000000e+000
2.207647e-001,-4.196231e-006,0.000000e+000
2.215588e-001,-4.196231e-006,0.000000e+000
2.223529e-001,-5.539025e-006,0.000000e+000
2.231471e-001,-5.539025e-006,0.000000e+000
2.239412e-001,-6.881819e-006,0.000000e+000
2.247353e-001,-4.531929e-006,0.000000e+000
2.255294e-001,-6.042573e-006,0.000000e+000
2.263235e-001,-8.224612e-006,0.000000e+000
2.271176e-001,-9.903105e-006,0.000000e+000
2.279118e-001,-8.392462e-006,0.000000e+000
2.287059e-001,-1.158160e-005,0.000000e+000
2.295000e-001,-1.057450e-005,0.000000e+000
2.302941e-001,-9.903105e-006,0.000000e+000
2.310882e-001,-9.903105e-006,0.000000e+000
2.318824e-001,-8.560311e-006,0.000000e+000
2.326765e-001,-6.210422e-006,0.000000e+000
2.334706e-001,-5.539025e-006,0.000000e+000
2.342647e-001,-4.867628e-006,0.000000e+000
2.350588e-001,-3.189136e-006,0.000000e+000
2.358529e-001,-4.196231e-006,0.000000e+000
2.366471e-001,-2.349889e-006,0.000000e+000
2.374412e-001,-8.392462e-007,0.000000e+000
2.382353e-001,-2.853437e-006,0.000000e+000
2.390294e-001,-5.874723e-006,0.000000e+000
2.398235e-001,-8.224612e-006,0.000000e+000
2.406176e-001,-4.196231e-006,0.000000e+000
2.414118e-001,-2.182040e-006,0.000000e+000
2.422059e-001,-3.524834e-006,0.000000e+000
2.430000e-001,-4.364080e-006,0.000000e+000
2.437941e-001,-2.182040e-006,0.000000e+000
2.445882e-001,-1.846342e-006,0.000000e+000
2.453824e-001,-3.860533e-006,0.000000e+000
2.461765e-001,-6.210422e-006,0.000000e+000
2.469706e-001,-5.539025e-006,0.000000e+000
2.477647e-001,-5.203327e-006,0.000000e+000
2.485588e-001,-4.867628e-006,0.000000e+000
2.493529e-001,-5.203327e-006,4.923955e-006
2.501471e-001,-6.210422e-006,4.932703e-006
2.509412e-001,-4.196231e-006,4.945138e-006
2.517353e-001,-4.196231e-006,4.950805e-006
2.525294e-001,-7.553216e-006,4.956465e-006
2.533235e-001,-5.539025e-006,4.974760e-006
2.541176e-001,-8.392462e-006,4.984571e-006
2.549118e-001,-8.560311e-006,5.007021e-006
2.557059e-001,-6.881819e-006,5.030271e-006
2.565000e-001,-8.896010e-006,5.045241e-006
2.572941e-001,-9.231709e-006,5.070157e-006
2.580882e-001,-6.881819e-006,5.096853e-006
2.588824e-001,-6.881819e-006,5.111628e-006
2.596765e-001,-6.546120e-006,5.126360e-006
2.604706e-001,-6.881819e-006,5.139653e-006
2.612647e-001,-7.049668e-006,5.154305e-006
2.620588e-001,-6.210422e-006,5.169636e-006
2.628529e-001,-4.196231e-006,5.181502e-006
2.636471e-001,-3.692683e-006,5.186911e-006
2.644412e-001,-4.196231e-006,5.191095e-006
2.652353e-001,-4.196231e-006,5.196493e-006
2.660294e-001,-4.867628e-006,5.201886e-006
2.668235e-001,-5.539025e-006,5.209135e-006
2.676176e-001,-2.853437e-006,5.218505e-006
2.684118e-001,-3.524834e-006,5.220988e-006
2.692059e-001,-5.874723e-006,5.224776e-006
2.700000e-001,-4.867628e-006,5.235284e-006
2.707941e-001,-4.531929e-006,5.242486e-006
2.715882e-001,-5.539025e-006,5.248721e-006
2.723824e-001,-8.224612e-006,5.258020e-006
2.731765e-001,-7.217518e-006,5.278466e-006
2.739706e-001,-8.896010e-006,5.294158e-006
2.747647e-001,-7.553216e-006,5.317908e-006
2.755588e-001,-4.867628e-006,5.334964e-006
2.763529e-001,-2.517739e-006,5.342031e-006
2.771471e-001,-4.196231e-006,5.343920e-006
2.779412e-001,-6.881819e-006,5.349164e-006
2.787353e-001,-6.881819e-006,5.363244e-006
2.795294e-001,-9.231709e-006,5.377286e-006
2.803235e-001,-8.896010e-006,5.402465e-006
2.811176e-001,-5.539025e-006,5.425741e-006
2.819118e-001,-4.196231e-006,5.434737e-006
2.827059e-001,-5.035477e-006,5.439894e-006
2.835000e-001,-5.539025e-006,5.447312e-006
2.842941e-001,-8.896010e-006,5.456272e-006
2.850882e-001,-9.903105e-006,5.479320e-006
2.858824e-001,-8.224612e-006,5.507747e-006
2.866765e-001,-4.196231e-006,5.527269e-006
2.874706e-001,-3.524834e-006,5.532340e-006
2.882647e-001,-8.224612e-006,5.535915e-006
2.890588e-001,-7.385367e-006,5.555338e-006
2.898529e-001,-3.189136e-006,5.570950e-006
2.906471e-001,-4.531929e-006,5.573857e-006
2.914412e-001,-4.867628e-006,5.579721e-006
2.922353e-001,-4.867628e-006,5.586479e-006
2.930294e-001,-4.196231e-006,5.593228e-006
2.938235e-001,-5.539025e-006,5.598239e-006
2.946176e-001,-6.881819e-006,5.606959e-006
2.954118e-001,-4.531929e-006,5.620393e-006
2.962059e-001,-7.721065e-006,5.626209e-006
2.970000e-001,-8.224612e-006,5.643056e-006
2.977941e-001,-7.721065e-006,5.662112e-006
2.985882e-001,-4.196231e-006,5.678853e-006
2.993824e-001,-4.364080e-006,5.683788e-006
3.001765e-001,-3.524834e-006,5.689121e-006
3.009706e-001,3.356985e-007,5.692597e-006
3.017647e-001,-8.392462e-007,5.692629e-006
3.025588e-001,-1.510643e-006,5.692826e-006
3.033529e-001,-2.517739e-006,5.693464e-006
3.041471e-001,-2.182040e-006,5.695237e-006
3.049412e-001,-2.853437e-006,5.696568e-006
3.057353e-001,-2.349889e-006,5.698843e-006
3.065294e-001,-1.510643e-006,5.700386e-006
3.073235e-001,-4.196231e-006,5.701023e-006
3.081176e-001,-4.196231e-006,5.705940e-006
3.089118e-001,-4.867628e-006,5.710851e-006
3.097059e-001,-3.356985e-007,5.717454e-006
3.105000e-001,1.174945e-006,5.717485e-006
3.112941e-001,-8.392462e-007,5.717869e-006
3.120882e-001,-4.364080e-006,5.718065e-006
3.128824e-001,-6.210422e-006,5.723366e-006
3.136765e-001,-6.881819e-006,5.734087e-006
3.144706e-001,-8.896010e-006,5.747224e-006
3.152647e-001,-1.225299e-005,5.769109e-006
3.160588e-001,-1.057450e-005,5.810401e-006
3.168529e-001,-8.560311e-006,5.840965e-006
3.176471e-001,-8.224612e-006,5.860908e-006
3.184412e-001,-7.553216e-006,5.879258e-006
3.192353e-001,-6.210422e-006,5.894689e-006
3.200294e-001,-7.553216e-006,5.905099e-006
3.208235e-001,-9.231709e-006,5.920464e-006
3.216176e-001,-1.023880e-005,5.943341e-006
3.224118e-001,-9.567407e-006,5.971362e-006
3.232059e-001,-8.224612e-006,5.995722e-006
3.240000e-001,-5.874723e-006,6.013660e-006
3.247941e-001,-6.881819e-006,6.022792e-006
3.255882e-001,-8.560311e-006,6.035300e-006
3.263824e-001,-1.258869e-005,6.054603e-006
3.271765e-001,-1.040665e-005,6.096140e-006
3.279706e-001,-1.191730e-005,6.124363e-006
3.287647e-001,-1.091020e-005,6.161178e-006
3.295588e-001,-7.217518e-006,6.191866e-006
3.303529e-001,-8.224612e-006,6.205248e-006
3.311471e-001,-1.057450e-005,6.222582e-006
3.319412e-001,-9.399558e-006,6.251132e-006
3.327353e-001,-8.896010e-006,6.273597e-006
3.335294e-001,-6.378271e-006,6.293652e-006
3.343235e-001,-4.867628e-006,6.303937e-006
3.351176e-001,-4.867628e-006,6.309919e-006
3.359118e-001,-4.196231e-006,6.315895e-006
3.367059e-001,-4.531929e-006,6.320333e-006
3.375000e-001,-6.881819e-006,6.325506e-006
3.382941e-001,-4.867628e-006,6.337416e-006
3.390882e-001,-5.874723e-006,6.343367e-006
3.398824e-001,-8.224612e-006,6.352025e-006
3.406765e-001,-7.888914e-006,6.368959e-006
3.414706e-001,-2.853437e-006,6.384500e-006
3.422647e-001,-2.182040e-006,6.386530e-006
3.430588e-001,-4.364080e-006,6.387717e-006
3.438529e-001,-3.524834e-006,6.392464e-006
3.446471e-001,-1.510643e-006,6.349369e-006
3.454412e-001,-2.182040e-006,6.335618e-006
3.462353e-001,-4.364080e-006,6.315362e-006
3.470294e-001,-5.874723e-006,6.293695e-006
3.478235e-001,-4.364080e-006,6.264373e-006
3.486176e-001,-4.196231e-006,6.238905e-006
3.494118e-001,-2.182040e-006,6.209093e-006
3.502059e-001,-8.392462e-007,6.198159e-006
3.510000e-001,1.174945e-006,6.190453e-006
3.517941e-001,-2.182040e-006,6.182911e-006
3.525882e-001,-6.210422e-006,6.179232e-006
3.533824e-001,-5.539025e-006,6.176364e-006
3.541765e-001,-4.196231e-006,6.163858e-006
3.549706e-001,-3.189136e-006,6.161411e-006
3.557647e-001,-6.210422e-006,6.157916e-006
3.565588e-001,-7.553216e-006,6.161761e-006
3.573529e-001,-5.035477e-006,6.168572e-006
3.581471e-001,-4.867628e-006,6.169001e-006
3.589412e-001,-4.531929e-006,6.165691e-006
3.597353e-001,-6.881819e-006,6.167787e-006
3.605294e-001,-5.539025e-006,6.179413e-006
3.613235e-001,-5.539025e-006,6.182026e-006
3.621176e-001,-6.210422e-006,6.187307e-006
3.629118e-001,-7.217518e-006,6.196001e-006
3.637059e-001,-9.567407e-006,6.205877e-006
3.645000e-001,-6.881819e-006,6.221472e-006
3.652941e-001,-5.874723e-006,6.228332e-006
3.660882e-001,-5.539025e-006,6.231098e-006
3.668824e-001,-5.539025e-006,6.231098e-006
3.676765e-001,-6.881819e-006,6.229081e-006
3.684706e-001,-7.553216e-006,6.235934e-006
3.692647e-001,-8.560311e-006,6.250370e-006
3.700588e-001,-6.546120e-006,6.264537e-006
3.708529e-001,-4.867628e-006,6.273353e-006
3.716471e-001,-6.881819e-006,6.278157e-006
3.724412e-001,-7.217518e-006,6.282386e-006
3.732353e-001,-5.539025e-006,6.288724e-006
3.740294e-001,-6.042573e-006,6.282043e-006
3.748235e-001,-7.553216e-006,6.279293e-006
3.756176e-001,-6.881819e-006,6.289288e-006
3.764118e-001,-7.049668e-006,6.291513e-006
3.772059e-001,-6.881819e-006,6.290907e-006
3.780000e-001,-6.881819e-006,6.296039e-006
3.787941e-001,-4.867628e-006,6.292276e-006
3.795882e-001,-4.196231e-006,6.288511e-006
3.803824e-001,-4.531929e-006,6.282115e-006
3.811765e-001,-1.846342e-006,6.272854e-006
3.819706e-001,-3.021286e-006,6.263922e-006
3.827647e-001,-2.853437e-006,6.251074e-006
3.835588e-001,-1.846342e-006,6.244849e-006
3.843529e-001,-8.392462e-007,6.225509e-006
3.851471e-001,-5.035477e-007,6.208364e-006
3.859412e-001,-4.531929e-006,6.184906e-006
3.867353e-001,-8.560311e-006,6.166601e-006
3.875294e-001,-9.567407e-006,6.164309e-006
3.883235e-001,-8.392462e-006,6.175710e-006
3.891176e-001,-8.896010e-006,6.186880e-006
3.899118e-001,-3.524834e-006,6.196769e-006
3.907059e-001,-2.182040e-006,6.197348e-006
3.915000e-001,-4.867628e-006,6.195959e-006
3.922941e-001,-9.567407e-006,6.192135e-006
3.930882e-001,-5.035477e-006,6.207764e-006
3.938824e-001,-4.867628e-006,6.211080e-006
3.946765e-001,-5.874723e-006,6.214546e-006
3.954706e-001,-6.881819e-006,6.218876e-006
3.962647e-001,-4.867628e-006,6.220030e-006
3.970588e-001,-5.874723e-006,6.218241e-006
3.978529e-001,-4.867628e-006,6.217202e-006
3.986471e-001,-3.189136e-006,6.218761e-006
3.994412e-001,-3.860533e-006,6.219741e-006
4.002353e-001,-4.196231e-006,6.220953e-006
4.010294e-001,-3.021286e-006,6.220585e-006
4.018235e-001,-3.692683e-006,6.219741e-006
4.026176e-001,-3.021286e-006,6.220052e-006
4.034118e-001,-4.531929e-006,6.220765e-006
4.042059e-001,-4.867628e-006,6.224803e-006
4.050000e-001,-6.210422e-006,6.226359e-006
4.057941e-001,-3.860533e-006,6.227397e-006
4.065882e-001,-7.217518e-006,6.222381e-006
4.073824e-001,-9.903105e-006,6.227375e-006
4.081765e-001,-4.867628e-006,6.249237e-006
4.089706e-001,-5.203327e-006,6.250787e-006
4.097647e-001,-7.553216e-006,6.248893e-006
4.105588e-001,-8.224612e-006,6.238431e-006
4.113529e-001,-7.217518e-006,6.235496e-006
4.121471e-001,-6.881819e-006,6.227815e-006
4.129412e-001,-5.539025e-006,6.227815e-006
4.137353e-001,-6.210422e-006,6.223549e-006
4.145294e-001,-4.531929e-006,6.223008e-006
4.153235e-001,-4.867628e-006,6.222201e-006
4.161176e-001,-4.196231e-006,6.223008e-006
4.169118e-001,-4.196231e-006,6.223008e-006
4.177059e-001,-4.867628e-006,6.221451e-006
4.185000e-001,-6.881819e-006,6.221451e-006
4.192941e-001,-7.888914e-006,6.225235e-006
4.200882e-001,-1.023880e-005,6.227829e-006
4.208824e-001,-1.225299e-005,6.250091e-006
4.216765e-001,-8.896010e-006,6.285079e-006
4.224706e-001,-8.392462e-006,6.295349e-006
4.232647e-001,-8.560311e-006,6.307160e-006
4.240588e-001,-7.049668e-006,6.314837e-006
4.248529e-001,-6.210422e-006,6.300043e-006
4.256471e-001,-7.217518e-006,6.283272e-006
4.264412e-001,-6.546120e-006,6.276414e-006
4.272353e-001,-8.896010e-006,6.266435e-006
4.280294e-001,-7.217518e-006,6.266435e-006
4.288235e-001,-3.524834e-006,6.259559e-006
4.296176e-001,-4.531929e-006,6.253428e-006
4.304118e-001,-3.524834e-006,6.246594e-006
4.312059e-001,-4.196231e-006,6.243721e-006
4.320000e-001,-5.203327e-006,6.240386e-006
4.327941e-001,-4.196231e-006,6.242054e-006
4.335882e-001,-5.539025e-006,6.233862e-006
4.343824e-001,-6.378271e-006,6.235647e-006
4.351765e-001,-4.196231e-006,6.242858e-006
4.359706e-001,-5.203327e-006,6.242859e-006
4.367647e-001,-5.874723e-006,6.243721e-006
4.375588e-001,-4.196231e-006,6.248031e-006
4.383529e-001,-2.182040e-006,6.247284e-006
4.391471e-001,-2.349889e-006,6.243261e-006
4.399412e-001,-4.196231e-006,6.234287e-006
4.407353e-001,-3.860533e-006,6.228391e-006
4.415294e-001,-3.524834e-006,6.220087e-006
4.423235e-001,-3.860533e-006,6.216336e-006
4.431176e-001,-4.867628e-006,6.217548e-006
4.439118e-001,-8.224612e-006,6.211484e-006
4.447059e-001,-8.896010e-006,6.211484e-006
4.455000e-001,-6.881819e-006,6.227238e-006
4.462941e-001,-5.539025e-006,6.236165e-006
4.470882e-001,-8.224612e-006,6.241400e-006
4.478824e-001,-6.210422e-006,6.257422e-006
4.486765e-001,-5.539025e-006,6.262754e-006
4.494706e-001,-3.524834e-006,6.260748e-006
4.502647e-001,-4.867628e-006,6.259063e-006
4.510588e-001,-4.867628e-006,6.263019e-006
4.518529e-001,-5.203327e-006,6.256999e-006
4.526471e-001,-7.553216e-006,6.246666e-006
4.534412e-001,-7.553216e-006,6.249136e-006
4.542353e-001,-4.196231e-006,6.250400e-006
4.550294e-001,-5.539025e-006,6.236927e-006
4.558235e-001,-5.874723e-006,6.234373e-006
4.566176e-001,-8.896010e-006,6.234373e-006
4.574118e-001,-9.903105e-006,6.244727e-006
4.582059e-001,-7.553216e-006,6.259343e-006
4.590000e-001,-7.888914e-006,6.261808e-006
4.597941e-001,-6.881819e-006,6.263127e-006
4.605882e-001,-5.539025e-006,6.260010e-006
4.613824e-001,-4.196231e-006,6.253299e-006
4.621765e-001,-6.210422e-006,6.252552e-006
4.629706e-001,-1.846342e-006,6.260297e-006
4.637647e-001,-1.846342e-006,6.256684e-006
4.645588e-001,-4.196231e-006,6.249258e-006
4.653529e-001,-1.510643e-006,6.237877e-006
4.661471e-001,-3.189136e-006,6.223880e-006
4.669412e-001,-4.196231e-006,6.209158e-006
4.677353e-001,-1.510643e-006,6.201524e-006
4.685294e-001,-3.021286e-006,6.192199e-006
4.693235e-001,-3.860533e-006,6.192452e-006
4.701176e-001,-4.196231e-006,6.194191e-006
4.709118e-001,-6.210422e-006,6.194191e-006
4.717059e-001,-7.553216e-006,6.199577e-006
4.725000e-001,-8.224612e-006,6.206346e-006
4.732941e-001,-7.553216e-006,6.215823e-006
4.740882e-001,-6.546120e-006,6.218305e-006
4.748824e-001,-8.224612e-006,6.224016e-006
4.756765e-001,-7.217518e-006,6.231976e-006
4.764706e-001,-7.888914e-006,6.228001e-006
4.772647e-001,-7.553216e-006,6.218832e-006
4.780588e-001,-8.224612e-006,6.215404e-006
4.788529e-001,-5.203327e-006,6.198347e-006
4.796471e-001,-6.210422e-006,6.176537e-006
4.804412e-001,-1.158160e-005,6.161178e-006
4.812353e-001,-9.231709e-006,6.170491e-006
4.820294e-001,-8.224612e-006,6.173573e-006
4.828235e-001,-5.539025e-006,6.181068e-006
4.836176e-001,-6.881819e-006,6.181068e-006
4.844118e-001,-5.539025e-006,6.187161e-006
4.852059e-001,-6.210422e-006,6.192438e-006
4.860000e-001,-7.217518e-006,6.197825e-006
4.867941e-001,-1.091020e-005,6.209779e-006
4.875882e-001,-6.881819e-006,6.240048e-006
4.883824e-001,-6.881819e-006,6.250048e-006
4.891765e-001,-5.539025e-006,6.253320e-006
4.899706e-001,-2.853437e-006,6.243900e-006
4.907647e-001,-6.210422e-006,6.241486e-006
4.915588e-001,-6.881819e-006,6.250105e-006
4.923529e-001,-3.524834e-006,6.258999e-006
4.931471e-001,-4.867628e-006,6.257314e-006
4.939412e-001,-5.539025e-006,6.262131e-006
4.947353e-001,-3.524834e-006,6.269061e-006
4.955294e-001,-3.021286e-006,6.268432e-006
4.963235e-001,-5.203327e-006,6.260948e-006
4.971176e-001,-5.539025e-006,6.260031e-006
4.979118e-001,-1.678492e-006,6.260948e-006
4.987059e-001,-1.510643e-006,6.255636e-006
4.995000e-001,-2.853437e-006,6.249322e-006
5.002941e-001,-1.510643e-006,6.241565e-006
5.010882e-001,-2.182040e-006,6.237653e-006
5.018824e-001,-3.692683e-006,6.234373e-006
5.026765e-001,-4.867628e-006,6.223274e-006
5.034706e-001,-6.210422e-006,6.221486e-006
5.042647e-001,-8.224612e-006,6.213325e-006
5.050588e-001,-7.553216e-006,6.211881e-006
5.058529e-001,-7.553216e-006,6.214364e-006
5.066471e-001,-8.560311e-006,6.208702e-006
5.074412e-001,-9.567407e-006,6.205638e-006
5.082353e-001,-1.091020e-005,6.216963e-006
5.090294e-001,-6.881819e-006,6.235294e-006
5.098235e-001,-5.035477e-006,6.236445e-006
5.106176e-001,-4.867628e-006,6.230824e-006
5.114118e-001,-5.874723e-006,6.224175e-006
5.122059e-001,-6.042573e-006,6.223137e-006
5.130000e-001,-8.224612e-006,6.227972e-006
5.137941e-001,-7.553216e-006,6.241766e-006
5.145882e-001,-8.224612e-006,6.251820e-006
5.153824e-001,-7.553216e-006,6.264551e-006
5.161765e-001,-4.867628e-006,6.273025e-006
5.169706e-001,-4.364080e-006,6.271251e-006
5.177647e-001,-4.531929e-006,6.274018e-006
5.185588e-001,-6.881819e-006,6.276077e-006
5.193529e-001,-8.728161e-006,6.279336e-006
5.201471e-001,-7.553216e-006,6.292632e-006
5.209412e-001,-9.567407e-006,6.301865e-006
5.217353e-001,-7.217518e-006,6.317223e-006
5.225294e-001,-8.560311e-006,6.313302e-006
5.233235e-001,-1.158160e-005,6.318643e-006
5.241176e-001,-9.063859e-006,6.332487e-006
5.249118e-001,-5.874723e-006,6.338796e-006
5.257059e-001,-6.210422e-006,6.341513e-006
5.265000e-001,-4.364080e-006,6.349601e-006
5.272941e-001,-6.546120e-006,6.349961e-006
5.280882e-001,-8.896010e-006,6.348831e-006
5.288824e-001,-5.539025e-006,6.356797e-006
5.296765e-001,-6.881819e-006,6.343119e-006
5.304706e-001,-5.874723e-006,6.335136e-006
5.312647e-001,-6.881819e-006,6.336099e-006
5.320588e-001,-4.531929e-006,6.343571e-006
5.328529e-001,-4.196231e-006,6.342362e-006
5.336471e-001,-8.224612e-006,6.339079e-006
5.344412e-001,-8.560311e-006,6.336191e-006
5.352353e-001,-6.210422e-006,6.329958e-006
5.360294e-001,-4.867628e-006,6.322639e-006
5.368235e-001,-7.553216e-006,6.324172e-006
5.376176e-001,-7.049668e-006,6.335398e-006
5.384118e-001,-6.210422e-006,6.330886e-006
5.392059e-001,-5.035477e-006,6.326867e-006
5.400000e-001,-3.189136e-006,6.330687e-006
5.407941e-001,-4.196231e-006,6.328079e-006
5.415882e-001,-4.196231e-006,6.326548e-006
5.423824e-001,-2.853437e-006,6.325016e-006
5.431765e-001,-1.846342e-006,6.322632e-006
5.439706e-001,-2.182040e-006,6.315760e-006
5.447647e-001,-4.196231e-006,6.305011e-006
5.455588e-001,-3.189136e-006,6.304271e-006
5.463529e-001,-4.867628e-006,6.291770e-006
5.471471e-001,-4.531929e-006,6.280637e-006
5.479412e-001,-2.853437e-006,6.270722e-006
5.487353e-001,-2.853437e-006,6.268318e-006
5.495294e-001,-4.867628e-006,6.265547e-006
5.503235e-001,-6.881819e-006,6.268410e-006
5.511176e-001,-6.881819e-006,6.280401e-006
5.519118e-001,-5.539025e-006,6.292219e-006
5.527059e-001,-4.867628e-006,6.299402e-006
5.535000e-001,-4.196231e-006,6.303787e-006
5.542941e-001,-5.539025e-006,6.307032e-006
5.550882e-001,-5.539025e-006,6.312720e-006
5.558824e-001,-7.049668e-006,6.319062e-006
5.566765e-001,-6.210422e-006,6.330999e-006
5.574706e-001,-6.881819e-006,6.336269e-006
5.582647e-001,-4.867628e-006,6.343741e-006
5.590588e-001,-5.706874e-006,6.343741e-006
5.598529e-001,-4.867628e-006,6.351883e-006
5.606471e-001,-4.867628e-006,6.357474e-006
5.614412e-001,-6.881819e-006,6.363230e-006
5.622353e-001,-8.224612e-006,6.370311e-006
5.630294e-001,-7.721065e-006,6.377575e-006
5.638235e-001,-4.196231e-006,6.380634e-006
5.646176e-001,-5.874723e-006,6.365260e-006
5.654118e-001,-6.546120e-006,6.336269e-006
5.662059e-001,-3.524834e-006,6.318913e-006
5.670000e-001,-1.678492e-006,6.303559e-006
5.677941e-001,-1.510643e-006,6.287162e-006
5.685882e-001,-6.546120e-006,6.273275e-006
5.693824e-001,-7.553216e-006,6.274362e-006
5.701765e-001,-9.567407e-006,6.274362e-006
5.709706e-001,-9.567407e-006,6.275964e-006
5.717647e-001,-7.888914e-006,6.272589e-006
5.725588e-001,-7.888914e-006,6.265146e-006
5.733529e-001,-7.217518e-006,6.263771e-006
5.741471e-001,-9.063859e-006,6.268239e-006
5.749412e-001,-1.091020e-005,6.277071e-006
5.757353e-001,-1.023880e-005,6.288667e-006
5.765294e-001,-6.546120e-006,6.275070e-006
5.773235e-001,-2.182040e-006,6.258440e-006
5.781176e-001,-4.196231e-006,6.223419e-006
5.789118e-001,-5.035477e-006,6.197413e-006
5.797059e-001,-5.539025e-006,6.190540e-006
5.805000e-001,-6.546120e-006,6.181025e-006
5.812941e-001,-3.524834e-006,6.163232e-006
5.820882e-001,-5.203327e-006,6.143584e-006
5.828824e-001,-4.196231e-006,6.130074e-006
5.836765e-001,-1.846342e-006,6.124078e-006
5.844706e-001,-3.189136e-006,6.118801e-006
5.852647e-001,-2.853437e-006,6.115280e-006
5.860588e-001,-4.196231e-006,6.112815e-006
5.868529e-001,-3.860533e-006,6.112052e-006
5.876471e-001,-4.196231e-006,6.103590e-006
5.884412e-001,-3.524834e-006,6.102002e-006
5.892353e-001,-2.853437e-006,6.096236e-006
5.900294e-001,-4.196231e-006,6.080673e-006
5.908235e-001,-1.846342e-006,6.068976e-006
5.916176e-001,-3.524834e-006,6.067734e-006
5.924118e-001,-5.539025e-006,6.069744e-006
5.932059e-001,-4.867628e-006,6.072796e-006
5.940000e-001,-8.224612e-006,6.075751e-006
5.947941e-001,-4.867628e-006,6.092857e-006
5.955882e-001,-5.539025e-006,6.097803e-006
5.963824e-001,-6.210422e-006,6.100840e-006
5.971765e-001,-5.706874e-006,6.101900e-006
5.979706e-001,-5.539025e-006,6.105427e-006
5.987647e-001,-6.210422e-006,6.108836e-006
5.995588e-001,-6.881819e-006,6.117642e-006
6.003529e-001,-6.378271e-006,6.129774e-006
6.011471e-001,-1.091020e-005,6.139975e-006
6.019412e-001,-1.158160e-005,6.169539e-006
6.027353e-001,-9.903105e-006,6.194155e-006
6.035294e-001,-1.023880e-005,6.211455e-006
6.043235e-001,-9.903105e-006,6.233776e-006
6.051176e-001,-1.124590e-005,6.256189e-006
6.059118e-001,-7.217518e-006,6.278523e-006
6.067059e-001,-5.035477e-006,6.277265e-006
6.075000e-001,-8.224612e-006,6.277265e-006
6.082941e-001,-3.524834e-006,6.288404e-006
6.090882e-001,-1.510643e-006,6.286349e-006
6.098824e-001,-5.539025e-006,6.274920e-006
6.106765e-001,-7.217518e-006,6.274920e-006
6.114706e-001,-6.881819e-006,6.280351e-006
6.122647e-001,-6.881819e-006,6.282580e-006
6.130588e-001,-6.546120e-006,6.281380e-006
6.138529e-001,-8.224612e-006,6.269026e-006
6.146471e-001,-8.224612e-006,6.274176e-006
6.154412e-001,-7.553216e-006,6.282580e-006
6.162353e-001,-7.217518e-006,6.289260e-006
6.170294e-001,-6.210422e-006,6.294679e-006
6.178235e-001,-8.224612e-006,6.292455e-006
6.186176e-001,-7.049668e-006,6.295134e-006
6.194118e-001,-6.210422e-006,6.289167e-006
6.202059e-001,-5.539025e-006,6.288083e-006
6.210000e-001,-4.531929e-006,6.289852e-006
6.217941e-001,-4.531929e-006,6.283058e-006
6.225882e-001,-3.524834e-006,6.275056e-006
6.233824e-001,-4.196231e-006,6.270421e-006
6.241765e-001,-1.846342e-006,6.265619e-006
6.249706e-001,-1.007095e-006,6.251971e-006
6.257647e-001,-1.678492e-007,6.240156e-006
6.265588e-001,-1.510643e-006,6.227468e-006
6.273529e-001,-1.846342e-006,6.215932e-006
6.281471e-001,-4.196231e-006,6.204662e-006
6.289412e-001,-5.539025e-006,6.203100e-006
6.297353e-001,-6.210422e-006,6.206455e-006
6.305294e-001,-6.210422e-006,6.211079e-006
6.313235e-001,-8.224612e-006,6.220087e-006
6.321176e-001,-8.896010e-006,6.235049e-006
6.329118e-001,-7.888914e-006,6.253154e-006
6.337059e-001,-8.896010e-006,6.268117e-006
6.345000e-001,-7.888914e-006,6.288011e-006
6.352941e-001,-8.224612e-006,6.303687e-006
6.360882e-001,-4.867628e-006,6.315575e-006
6.368824e-001,-2.853437e-006,6.303061e-006
6.376765e-001,-1.678492e-007,6.281958e-006
6.384706e-001,-2.349889e-006,6.264086e-006
6.392647e-001,-2.853437e-006,6.245344e-006
6.400588e-001,-3.524834e-006,6.244252e-006
6.408529e-001,-2.517739e-006,6.246206e-006
6.416471e-001,-3.524834e-006,6.241780e-006
6.424412e-001,-4.531929e-006,6.221565e-006
6.432353e-001,-8.392462e-007,6.220332e-006
6.440294e-001,-2.182040e-006,6.214445e-006
6.448235e-001,-2.182040e-006,6.206817e-006
6.456176e-001,-1.510643e-006,6.195878e-006
6.464118e-001,-1.510643e-006,6.190373e-006
6.472059e-001,-2.517739e-006,6.182077e-006
6.480000e-001,-5.539025e-006,6.177605e-006
6.487941e-001,-9.063859e-006,6.182889e-006
6.495882e-001,-5.539025e-006,6.200185e-006
6.503824e-001,-7.217518e-006,6.203541e-006
6.511765e-001,-9.063859e-006,6.214560e-006
6.519706e-001,-7.553216e-006,6.232091e-006
6.527647e-001,-8.560311e-006,6.244324e-006
6.535588e-001,-8.896010e-006,6.257759e-006
6.543529e-001,-8.224612e-006,6.271852e-006
6.551471e-001,-1.124590e-005,6.279229e-006
6.559412e-001,-9.567407e-006,6.307458e-006
6.567353e-001,-6.378271e-006,6.317407e-006
6.575294e-001,-5.539025e-006,6.302926e-006
6.583235e-001,-6.210422e-006,6.304691e-006
6.591176e-001,-5.706874e-006,6.307594e-006
6.599118e-001,-7.553216e-006,6.301409e-006
6.607059e-001,-8.896010e-006,6.298732e-006
6.615000e-001,-6.210422e-006,6.305566e-006
6.622941e-001,-6.881819e-006,6.303346e-006
6.630882e-001,-7.217518e-006,6.307558e-006
6.638824e-001,-6.881819e-006,6.310971e-006
6.646765e-001,-6.210422e-006,6.317734e-006
6.654706e-001,-6.210422e-006,6.321483e-006
6.662647e-001,-4.196231e-006,6.326761e-006
6.670588e-001,-1.846342e-006,6.326761e-006
6.678529e-001,-1.846342e-006,6.321653e-006
6.686471e-001,-2.182040e-006,6.310573e-006
6.694412e-001,-3.860533e-006,6.296053e-006
6.702353e-001,-4.867628e-006,6.273268e-006
6.710294e-001,-5.539025e-006,6.241090e-006
6.718235e-001,-4.867628e-006,6.228714e-006
6.726176e-001,-8.896010e-006,6.216754e-006
6.734118e-001,-9.231709e-006,6.218255e-006
6.742059e-001,-9.567407e-006,6.227346e-006
6.750000e-001,-8.560311e-006,6.240875e-006
6.757941e-001,-4.531929e-006,6.246278e-006
6.765882e-001,-5.539025e-006,6.240587e-006
6.773824e-001,-5.874723e-006,6.228210e-006
6.781765e-001,-3.524834e-006,6.223714e-006
6.789706e-001,-6.881819e-006,6.223714e-006
6.797647e-001,-6.881819e-006,6.230572e-006
6.805588e-001,-5.539025e-006,6.239494e-006
6.813529e-001,-8.392462e-007,6.242829e-006
6.821471e-001,-3.524834e-006,6.236100e-006
6.829412e-001,-4.196231e-006,6.234776e-006
6.837353e-001,-1.846342e-006,6.231436e-006
6.845294e-001,-5.539025e-006,6.221904e-006
6.853235e-001,-5.539025e-006,6.225249e-006
6.861176e-001,-5.539025e-006,6.226171e-006
6.869118e-001,-2.182040e-006,6.225191e-006
6.877059e-001,-3.189136e-006,6.221904e-006
6.885000e-001,-5.035477e-006,6.223288e-006
6.892941e-001,-6.378271e-006,6.228361e-006
6.900882e-001,-1.158160e-005,6.234257e-006
6.908824e-001,-9.735256e-006,6.264637e-006
6.916765e-001,-8.224612e-006,6.285534e-006
6.924706e-001,-7.553216e-006,6.298881e-006
6.932647e-001,-1.158160e-005,6.307308e-006
6.940588e-001,-7.553216e-006,6.324072e-006
6.948529e-001,-4.867628e-006,6.318508e-006
6.956471e-001,-6.546120e-006,6.312541e-006
6.964412e-001,-6.546120e-006,6.315610e-006
6.972353e-001,-4.531929e-006,6.309357e-006
6.980294e-001,-4.867628e-006,6.304804e-006
6.988235e-001,-5.874723e-006,6.303039e-006
6.996176e-001,-6.881819e-006,6.308617e-006
7.004118e-001,-5.203327e-006,6.314588e-006
7.012059e-001,-4.196231e-006,6.315440e-006
7.020000e-001,-5.539025e-006,6.313053e-006
7.027941e-001,-3.860533e-006,6.306398e-006
7.035882e-001,-4.867628e-006,6.295747e-006
7.043824e-001,-7.721065e-006,6.297285e-006
7.051765e-001,-6.210422e-006,6.304598e-006
7.059706e-001,-6.881819e-006,6.305622e-006
7.067647e-001,-9.063859e-006,6.297592e-006
7.075588e-001,-9.567407e-006,6.293566e-006
7.083529e-001,-8.560311e-006,6.302285e-006
7.091471e-001,-8.224612e-006,6.305075e-006
7.099412e-001,-5.874723e-006,6.310195e-006
7.107353e-001,-9.903105e-006,6.311162e-006
7.115294e-001,-7.049668e-006,6.331431e-006
7.123235e-001,-6.378271e-006,6.334229e-006
7.131176e-001,-6.881819e-006,6.343593e-006
7.139118e-001,-4.867628e-006,6.354615e-006
7.147059e-001,-8.896010e-006,6.356140e-006
7.155000e-001,-8.224612e-006,6.375366e-006
7.162941e-001,-8.224612e-006,6.389704e-006
7.170882e-001,-8.224612e-006,6.402161e-006
7.178824e-001,-1.023880e-005,6.418398e-006
7.186765e-001,-8.224612e-006,6.442098e-006
7.194706e-001,-3.021286e-006,6.455121e-006
7.202647e-001,-5.539025e-006,6.453029e-006
7.210588e-001,-5.539025e-006,6.451082e-006
7.218529e-001,-3.189136e-006,6.444569e-006
7.226471e-001,-4.867628e-006,6.430353e-006
7.234412e-001,-4.531929e-006,6.422087e-006
7.242353e-001,-1.846342e-006,6.416552e-006
7.250294e-001,-1.846342e-006,6.400591e-006
7.258235e-001,-4.867628e-006,6.388469e-006
7.266176e-001,-5.874723e-006,6.378855e-006
7.274118e-001,-5.706874e-006,6.373226e-006
7.282059e-001,-4.867628e-006,6.364456e-006
7.290000e-001,-1.510643e-006,6.363610e-006
7.297941e-001,-2.853437e-006,6.354524e-006
7.305882e-001,-2.182040e-006,6.322873e-006
7.313824e-001,-1.174945e-006,6.302577e-006
7.321765e-001,-5.035477e-007,6.285813e-006
7.329706e-001,-1.678492e-007,6.278100e-006
7.337647e-001,-4.867628e-006,6.266084e-006
7.345588e-001,-6.210422e-006,6.264308e-006
7.353529e-001,-4.531929e-006,6.264308e-006
7.361471e-001,-4.196231e-006,6.256282e-006
7.369412e-001,-4.531929e-006,6.230414e-006
7.377353e-001,-5.539025e-006,6.223555e-006
7.385294e-001,-5.539025e-006,6.219286e-006
7.393235e-001,-6.378271e-006,6.219286e-006
7.401176e-001,-8.224612e-006,6.227612e-006
7.409118e-001,-7.553216e-006,6.235042e-006
7.417059e-001,-6.210422e-006,6.237517e-006
7.425000e-001,-5.874723e-006,6.244187e-006
7.432941e-001,-7.217518e-006,6.246946e-006
7.440882e-001,-8.224612e-006,6.252401e-006
7.448824e-001,-5.203327e-006,6.266449e-006
7.456765e-001,-6.210422e-006,6.271008e-006
7.464706e-001,-5.539025e-006,6.273926e-006
7.472647e-001,-5.539025e-006,6.273926e-006
7.480588e-001,-7.553216e-006,6.280994e-006
7.488529e-001,-6.881819e-006,6.294863e-006
7.496471e-001,-5.203327e-006,6.304776e-006
7.504412e-001,-4.531929e-006,6.311035e-006
7.512353e-001,-4.867628e-006,6.315014e-006
7.520294e-001,-8.224612e-006,6.317549e-006
7.528235e-001,-8.224612e-006,6.328617e-006
7.536176e-001,-8.560311e-006,6.335929e-006
7.544118e-001,-6.881819e-006,6.337345e-006
7.552059e-001,-7.217518e-006,6.334909e-006
7.560000e-001,-5.874723e-006,6.333663e-006
7.567941e-001,-6.210422e-006,6.323909e-006
7.575882e-001,-8.896010e-006,6.310558e-006
7.583824e-001,-6.210422e-006,6.300484e-006
7.591765e-001,-6.881819e-006,6.298262e-006
7.599706e-001,-6.881819e-006,6.303822e-006
7.607647e-001,-6.546120e-006,6.309797e-006
7.615588e-001,-7.888914e-006,6.311901e-006
7.623529e-001,-8.224612e-006,6.318387e-006
7.631471e-001,-5.539025e-006,6.318387e-006
7.639412e-001,-4.867628e-006,6.311738e-006
7.647353e-001,-5.539025e-006,6.300641e-006
7.655294e-001,-6.881819e-006,6.293972e-006
7.663235e-001,-7.553216e-006,6.299957e-006
7.671176e-001,-8.224612e-006,6.309556e-006
7.679118e-001,-6.210422e-006,6.321433e-006
7.687059e-001,-4.867628e-006,6.319218e-006
7.695000e-001,-6.881819e-006,6.305978e-006
7.702941e-001,-8.224612e-006,6.303530e-006
7.710882e-001,-5.539025e-006,6.297492e-006
7.718824e-001,-2.853437e-006,6.292076e-006
7.726765e-001,-4.196231e-006,6.275570e-006
7.734706e-001,-4.867628e-006,6.245933e-006
7.742647e-001,-5.539025e-006,6.231011e-006
7.750588e-001,-4.196231e-006,6.230032e-006
7.758529e-001,-5.539025e-006,6.224672e-006
7.766471e-001,-6.210422e-006,6.227648e-006
7.774412e-001,-3.524834e-006,6.226553e-006
7.782353e-001,-4.364080e-006,6.209468e-006
7.790294e-001,-4.196231e-006,6.206483e-006
7.798235e-001,-1.678492e-007,6.198845e-006
7.806176e-001,-2.853437e-006,6.189981e-006
7.814118e-001,-3.524834e-006,6.179884e-006
7.822059e-001,-3.524834e-006,6.177793e-006
7.830000e-001,-5.539025e-006,6.176457e-006
7.837941e-001,-4.196231e-006,6.166920e-006
7.845882e-001,-4.364080e-006,6.152528e-006
7.853824e-001,-5.539025e-006,6.147473e-006
7.861765e-001,-5.539025e-006,6.149283e-006
7.869706e-001,-6.210422e-006,6.142450e-006
7.877647e-001,-3.524834e-006,6.139565e-006
7.885588e-001,-3.692683e-006,6.132780e-006
7.893529e-001,-5.539025e-006,6.129736e-006
7.901471e-001,-7.553216e-006,6.135062e-006
7.909412e-001,-5.874723e-006,6.145291e-006
7.917353e-001,-3.524834e-006,6.149669e-006
7.925294e-001,-6.546120e-006,6.150778e-006
7.933235e-001,-7.553216e-006,6.160980e-006
7.941176e-001,-6.210422e-006,6.174480e-006
7.949118e-001,-6.881819e-006,6.179884e-006
7.957059e-001,-6.378271e-006,6.189459e-006
7.965000e-001,-8.560311e-006,6.193829e-006
7.972941e-001,-1.007095e-005,6.207373e-006
7.980882e-001,-9.567407e-006,6.231256e-006
7.988824e-001,-7.888914e-006,6.252531e-006
7.996765e-001,-8.224612e-006,6.262338e-006
8.004706e-001,-9.903105e-006,6.267494e-006
8.012647e-001,-6.546120e-006,6.280365e-006
8.020588e-001,-5.539025e-006,6.283450e-006
8.028529e-001,-3.524834e-006,6.285220e-006
8.036471e-001,-3.524834e-006,6.283907e-006
8.044412e-001,-5.539025e-006,6.279279e-006
8.052353e-001,-3.860533e-006,6.279279e-006
8.060294e-001,-4.196231e-006,6.270449e-006
8.068235e-001,-5.539025e-006,6.265124e-006
8.076176e-001,-3.860533e-006,6.260883e-006
8.084118e-001,-3.524834e-006,6.258647e-006
8.092059e-001,-2.517739e-006,6.253520e-006
8.100000e-001,-4.531929e-006,6.249099e-006
8.107941e-001,-6.546120e-006,6.248295e-006
8.115882e-001,-5.706874e-006,6.247146e-006
8.123824e-001,-6.881819e-006,6.238200e-006
8.131765e-001,-5.539025e-006,6.235070e-006
8.139706e-001,-2.014191e-006,6.238408e-006
8.147647e-001,-2.182040e-006,6.230629e-006
8.155588e-001,-5.035477e-007,6.220887e-006
8.163529e-001,-8.392462e-007,6.217771e-006
8.171471e-001,-4.867628e-006,6.217230e-006
8.179412e-001,-5.874723e-006,6.222711e-006
8.187353e-001,-7.385367e-006,6.220577e-006
8.195294e-001,-6.881819e-006,6.219935e-006
8.203235e-001,-5.874723e-006,6.208616e-006
8.211176e-001,-6.210422e-006,6.193973e-006
8.219118e-001,-7.553216e-006,6.187886e-006
8.227059e-001,-5.035477e-006,6.186552e-006
8.235000e-001,-4.531929e-006,6.179666e-006
8.242941e-001,-5.539025e-006,6.163769e-006
8.250882e-001,-8.560311e-006,6.140902e-006
8.258824e-001,-8.896010e-006,6.132714e-006
8.266765e-001,-7.217518e-006,6.142129e-006
8.274706e-001,-7.888914e-006,6.154387e-006
8.282647e-001,-8.224612e-006,6.165923e-006
8.290588e-001,-8.896010e-006,6.176834e-006
8.298529e-001,-8.896010e-006,6.189314e-006
8.306471e-001,-6.881819e-006,6.198643e-006
8.314412e-001,-6.881819e-006,6.207611e-006
8.322353e-001,-4.364080e-006,6.212812e-006
8.330294e-001,-4.531929e-006,6.213180e-006
8.338235e-001,-4.196231e-006,6.217569e-006
8.346176e-001,-4.531929e-006,6.219473e-006
8.354118e-001,-7.553216e-006,6.222646e-006
8.362059e-001,-6.881819e-006,6.232731e-006
8.370000e-001,-4.867628e-006,6.241018e-006
8.377941e-001,-6.881819e-006,6.242570e-006
8.385882e-001,-7.553216e-006,6.251475e-006
8.393824e-001,-6.881819e-006,6.263921e-006
8.401765e-001,-5.874723e-006,6.271479e-006
8.409706e-001,-5.539025e-006,6.279372e-006
8.417647e-001,-5.874723e-006,6.283999e-006
8.425588e-001,-6.210422e-006,6.284970e-006
8.433529e-001,-2.014191e-006,6.288738e-006
8.441471e-001,-1.846342e-006,6.272617e-006
8.449412e-001,-6.881819e-006,6.267465e-006
8.457353e-001,-6.546120e-006,6.271701e-006
8.465294e-001,-4.364080e-006,6.272788e-006
8.473235e-001,-5.874723e-006,6.269354e-006
8.481176e-001,-7.721065e-006,6.270328e-006
8.489118e-001,-4.531929e-006,6.275669e-006
8.497059e-001,-4.867628e-006,6.268860e-006
8.505000e-001,-7.217518e-006,6.264544e-006
8.512941e-001,-6.210422e-006,6.247506e-006
8.520882e-001,-6.378271e-006,6.223101e-006
8.528824e-001,-8.560311e-006,6.208398e-006
8.536765e-001,-7.553216e-006,6.200300e-006
8.544706e-001,-6.881819e-006,6.189756e-006
8.552647e-001,-7.553216e-006,6.169371e-006
8.560588e-001,-7.049668e-006,6.170651e-006
8.568529e-001,-6.378271e-006,6.176929e-006
8.576471e-001,-4.531929e-006,6.169974e-006
8.584412e-001,-1.846342e-006,6.172068e-006
8.592353e-001,-1.510643e-006,6.172359e-006
8.600294e-001,-2.517739e-006,6.165028e-006
8.608235e-001,-4.196231e-006,6.153199e-006
8.616176e-001,-6.210422e-006,6.145495e-006
8.624118e-001,-3.524834e-006,6.143217e-006
8.632059e-001,-2.853437e-006,6.135325e-006
8.640000e-001,-4.196231e-006,6.119863e-006
8.647941e-001,-4.867628e-006,6.106829e-006
8.655882e-001,-6.210422e-006,6.098126e-006
8.663824e-001,-1.091020e-005,6.094593e-006
8.671765e-001,-1.124590e-005,6.115580e-006
8.679706e-001,-7.553216e-006,6.130877e-006
8.687647e-001,-6.378271e-006,6.132787e-006
8.695588e-001,-5.706874e-006,6.133336e-006
8.703529e-001,-7.888914e-006,6.133826e-006
8.711471e-001,-4.196231e-006,6.144641e-006
8.719412e-001,-6.881819e-006,6.143881e-006
8.727353e-001,-5.539025e-006,6.152929e-006
8.735294e-001,-4.867628e-006,6.156311e-006
8.743235e-001,-4.867628e-006,6.161556e-006
8.751176e-001,-2.853437e-006,6.167414e-006
8.759118e-001,-1.846342e-006,6.169509e-006
8.767059e-001,-4.531929e-006,6.169799e-006
8.775000e-001,-6.210422e-006,6.174219e-006
8.782941e-001,-8.224612e-006,6.179622e-006
8.790882e-001,-1.023880e-005,6.189140e-006
8.798824e-001,-1.158160e-005,6.206165e-006
8.806765e-001,-6.210422e-006,6.230636e-006
8.814706e-001,-4.867628e-006,6.223201e-006
8.822647e-001,-7.553216e-006,6.208998e-006
8.830588e-001,-4.364080e-006,6.207668e-006
8.838529e-001,-4.531929e-006,6.192234e-006
8.846471e-001,-4.196231e-006,6.181502e-006
8.854412e-001,-5.539025e-006,6.168600e-006
8.862353e-001,-5.539025e-006,6.170403e-006
8.870294e-001,-5.539025e-006,6.176217e-006
8.878235e-001,-5.539025e-006,6.184114e-006
8.886176e-001,-5.874723e-006,6.190589e-006
8.894118e-001,-3.524834e-006,6.197368e-006
8.902059e-001,-8.392462e-007,6.197368e-006
8.910000e-001,-2.182040e-006,6.195920e-006
8.917941e-001,-2.182040e-006,6.193951e-006
8.925882e-001,-3.189136e-006,6.189893e-006
8.933824e-001,-5.539025e-006,6.192328e-006
8.941765e-001,-4.364080e-006,6.198990e-006
8.949706e-001,-8.392462e-007,6.202658e-006
8.957647e-001,-6.210422e-006,6.202253e-006
8.965588e-001,-7.217518e-006,6.211562e-006
8.973529e-001,-4.196231e-006,6.223280e-006
8.981471e-001,-4.531929e-006,6.219935e-006
8.989412e-001,-6.210422e-006,6.204140e-006
8.997353e-001,-6.378271e-006,6.206165e-006
9.005294e-001,-6.881819e-006,6.203237e-006
9.013235e-001,-8.224612e-006,6.194299e-006
9.021176e-001,-8.896010e-006,6.197021e-006
9.029118e-001,-6.210422e-006,6.198527e-006
9.037059e-001,-4.196231e-006,6.188096e-006
9.045000e-001,-3.189136e-006,6.175207e-006
9.052941e-001,-3.860533e-006,6.145145e-006
9.060882e-001,-6.210422e-006,6.125255e-006
9.068824e-001,-5.539025e-006,6.124706e-006
9.076765e-001,-5.539025e-006,6.124706e-006
9.084706e-001,-7.049668e-006,6.122655e-006
9.092647e-001,-5.539025e-006,6.127108e-006
9.100588e-001,-3.189136e-006,6.120251e-006
9.108529e-001,-4.196231e-006,6.102281e-006
9.116471e-001,-6.210422e-006,6.096809e-006
9.124412e-001,-6.546120e-006,6.094512e-006
9.132353e-001,-4.867628e-006,6.092097e-006
9.140294e-001,-5.539025e-006,6.085908e-006
9.148235e-001,-6.210422e-006,6.083844e-006
9.156176e-001,-8.896010e-006,6.083844e-006
9.164118e-001,-8.896010e-006,6.099927e-006
9.172059e-001,-8.560311e-006,6.119664e-006
9.180000e-001,-9.063859e-006,6.137818e-006
9.187941e-001,-6.210422e-006,6.157863e-006
9.195882e-001,-7.553216e-006,6.163980e-006
9.203824e-001,-5.874723e-006,6.172591e-006
9.211765e-001,-5.203327e-006,6.173580e-006
9.219706e-001,-7.049668e-006,6.174452e-006
9.227647e-001,-9.567407e-006,6.166854e-006
9.235588e-001,-7.217518e-006,6.168483e-006
9.243529e-001,-8.224612e-006,6.158293e-006
9.251471e-001,-1.023880e-005,6.156836e-006
9.259412e-001,-9.231709e-006,6.178599e-006
9.267353e-001,-5.539025e-006,6.192640e-006
9.275294e-001,-5.539025e-006,6.191654e-006
9.283235e-001,-7.049668e-006,6.196348e-006
9.291176e-001,-5.706874e-006,6.196949e-006
9.299118e-001,-5.874723e-006,6.193147e-006
9.307059e-001,-6.546120e-006,6.194132e-006
9.315000e-001,-2.853437e-006,6.204958e-006
9.322941e-001,-4.196231e-006,6.203858e-006
9.330882e-001,-6.378271e-006,6.203859e-006
9.338824e-001,-4.867628e-006,6.213418e-006
9.346765e-001,-4.196231e-006,6.211627e-006
9.354706e-001,-2.853437e-006,6.208275e-006
9.362647e-001,-4.531929e-006,6.202492e-006
9.370588e-001,-5.539025e-006,6.206541e-006
9.378529e-001,-6.881819e-006,6.211801e-006
9.386471e-001,-4.867628e-006,6.217439e-006
9.394412e-001,-6.210422e-006,6.213086e-006
9.402353e-001,-6.546120e-006,6.188546e-006
9.410294e-001,-6.881819e-006,6.175171e-006
9.418235e-001,-4.867628e-006,6.169938e-006
9.426176e-001,-3.860533e-006,6.161323e-006
9.434118e-001,-3.524834e-006,6.130431e-006
9.442059e-001,-5.539025e-006,6.118828e-006
9.450000e-001,-6.378271e-006,6.120647e-006
9.457941e-001,-7.721065e-006,6.120082e-006
9.465882e-001,-7.721065e-006,6.124442e-006
9.473824e-001,-6.042573e-006,6.134594e-006
9.481765e-001,-4.196231e-006,6.137920e-006
9.489706e-001,-7.553216e-006,6.133533e-006
9.497647e-001,-7.217518e-006,6.136049e-006
9.505588e-001,-4.196231e-006,6.142538e-006
9.513529e-001,-8.392462e-007,6.142538e-006
9.521471e-001,-5.035477e-007,6.134762e-006
9.529412e-001,-1.846342e-006,6.130958e-006
9.537353e-001,1.007095e-006,6.125687e-006
9.545294e-001,-1.846342e-006,6.110436e-006
9.553235e-001,-5.035477e-006,6.101266e-006
9.561176e-001,-3.524834e-006,6.095521e-006
9.569118e-001,-4.531929e-006,6.077278e-006
9.577059e-001,-2.853437e-006,6.058647e-006
9.585000e-001,-3.524834e-006,6.041504e-006
9.592941e-001,-9.063859e-006,6.026932e-006
9.600882e-001,-1.091020e-005,6.039505e-006
9.608824e-001,-8.224612e-006,6.045029e-006
9.616765e-001,-8.896010e-006,6.049755e-006
9.624706e-001,-7.553216e-006,6.059869e-006
9.632647e-001,-6.546120e-006,6.062415e-006
9.640588e-001,-4.196231e-006,6.067445e-006
9.648529e-001,-1.846342e-006,6.051275e-006
9.656471e-001,-1.510643e-006,6.034348e-006
9.664412e-001,-4.196231e-006,6.017076e-006
9.672353e-001,-2.517739e-006,6.003820e-006
9.680294e-001,-1.510643e-006,5.977640e-006
9.688235e-001,-6.210422e-006,5.960203e-006
9.696176e-001,-6.210422e-006,5.968063e-006
9.704118e-001,-8.224612e-006,5.970168e-006
9.712059e-001,-7.553216e-006,5.980019e-006
9.720000e-001,-4.364080e-006,5.992489e-006
9.727941e-001,-3.189136e-006,5.991254e-006
9.735882e-001,-4.531929e-006,5.988497e-006
9.743824e-001,-1.091020e-005,5.993050e-006
9.751765e-001,-7.553216e-006,6.023693e-006
9.759706e-001,-8.224612e-006,6.032505e-006
9.767647e-001,-7.217518e-006,6.041244e-006
9.775588e-001,-4.196231e-006,6.046388e-006
9.783529e-001,-4.867628e-006,6.044785e-006
9.791471e-001,-2.853437e-006,6.050423e-006
9.799412e-001,-1.510643e-006,6.050423e-006
9.807353e-001,-5.539025e-006,6.049770e-006
9.815294e-001,-6.881819e-006,6.057478e-006
9.823235e-001,-8.560311e-006,6.069848e-006
9.831176e-001,-6.210422e-006,6.089034e-006
9.839118e-001,-6.378271e-006,6.092923e-006
9.847059e-001,-4.867628e-006,6.093475e-006
9.855000e-001,-6.881819e-006,6.094299e-006
9.862941e-001,-6.881819e-006,6.102068e-006
9.870882e-001,-6.378271e-006,6.109063e-006
9.878824e-001,-8.224612e-006,6.111669e-006
9.886765e-001,-7.217518e-006,6.121293e-006
9.894706e-001,-4.364080e-006,6.124260e-006
9.902647e-001,-4.867628e-006,6.111611e-006
9.910588e-001,-3.524834e-006,6.102914e-006
9.918529e-001,-4.196231e-006,6.096088e-006
9.926471e-001,-4.196231e-006,6.091671e-006
9.934412e-001,-4.867628e-006,6.082650e-006
9.942353e-001,-4.867628e-006,6.071134e-006
9.950294e-001,-7.049668e-006,6.070246e-006
9.958235e-001,-7.553216e-006,6.073165e-006
9.966176e-001,-6.881819e-006,6.080076e-006
9.974118e-001,-1.007095e-005,6.084442e-006
9.982059e-001,-6.378271e-006,6.096044e-006
9.990000e-001,-4.531929e-006,6.094299e-006
9.997941e-001,-5.203327e-006,6.092591e-006
1.000588e+000,-3.860533e-006,6.094299e-006
1.001382e+000,-4.196231e-006,6.092002e-006
1.002176e+000,-7.217518e-006,6.078909e-006
1.002971e+000,-7.553216e-006,6.074834e-006
1.003765e+000,-6.210422e-006,6.070579e-006
1.004559e+000,-6.210422e-006,6.068273e-006
1.005353e+000,-6.881819e-006,6.064723e-006
1.006147e+000,-6.881819e-006,6.068095e-006
1.006941e+000,-7.553216e-006,6.070402e-006
1.007735e+000,-8.224612e-006,6.064605e-006
1.008529e+000,-1.057450e-005,6.072234e-006
1.009324e+000,-1.023880e-005,6.089115e-006
1.010118e+000,-9.903105e-006,6.104126e-006
1.010912e+000,-9.903105e-006,6.118514e-006
1.011706e+000,-8.224612e-006,6.127833e-006
1.012500e+000,-8.896010e-006,6.127833e-006
1.013294e+000,-8.224612e-006,6.140413e-006
1.014088e+000,-6.378271e-006,6.151799e-006
1.014882e+000,-4.196231e-006,6.154388e-006
1.015676e+000,-3.189136e-006,6.146685e-006
1.016471e+000,-4.196231e-006,6.134529e-006
1.017265e+000,-5.203327e-006,6.121527e-006
1.018059e+000,-5.539025e-006,6.118536e-006
1.018853e+000,-5.874723e-006,6.120354e-006
1.019647e+000,-3.524834e-006,6.117011e-006
1.020441e+000,-5.539025e-006,6.102619e-006
1.021235e+000,-7.553216e-006,6.102619e-006
1.022029e+000,-6.881819e-006,6.115368e-006
1.022824e+000,-3.524834e-006,6.123109e-006
1.023618e+000,-4.196231e-006,6.120178e-006
1.024412e+000,-4.531929e-006,6.116776e-006
1.025206e+000,-3.189136e-006,6.117539e-006
1.026000e+000,-6.881819e-006,6.112198e-006
1.026794e+000,-9.231709e-006,6.114488e-006
1.027588e+000,-6.881819e-006,6.133417e-006
1.028382e+000,-6.881819e-006,6.140764e-006
1.029176e+000,-5.874723e-006,6.148474e-006
1.029971e+000,-4.867628e-006,6.157398e-006
1.030765e+000,-5.539025e-006,6.161419e-006
1.031559e+000,-4.867628e-006,6.166135e-006
1.032353e+000,-1.846342e-006,6.169045e-006
1.033147e+000,-2.853437e-006,6.162001e-006
1.033941e+000,-3.860533e-006,6.159555e-006
1.034735e+000,-2.182040e-006,6.158484e-006
1.035529e+000,-5.874723e-006,6.151779e-006
1.036324e+000,-6.881819e-006,6.152770e-006
1.037118e+000,-1.846342e-006,6.155045e-006
1.037912e+000,-6.881819e-006,6.152712e-006
1.038706e+000,-3.692683e-006,6.161433e-006
1.039500e+000,-8.392462e-007,6.157027e-006
1.040294e+000,-5.203327e-006,6.142437e-006
1.041088e+000,-5.539025e-006,6.140508e-006
1.041882e+000,-2.853437e-006,6.145241e-006
1.042676e+000,-5.035477e-007,6.136240e-006
1.043471e+000,-2.853437e-006,6.121483e-006
1.044265e+000,-4.867628e-006,6.113563e-006
1.045059e+000,-4.196231e-006,6.107396e-006
1.045853e+000,-4.364080e-006,6.101377e-006
1.046647e+000,-3.524834e-006,6.087207e-006
1.047441e+000,-4.196231e-006,6.063880e-006
1.048235e+000,-3.189136e-006,6.044436e-006
1.049029e+000,-5.035477e-006,6.030705e-006
1.049824e+000,-7.553216e-006,6.019529e-006
1.050618e+000,-8.560311e-006,6.008668e-006
1.051412e+000,-8.896010e-006,6.016726e-006
1.052206e+000,-8.896010e-006,6.029537e-006
1.053000e+000,-1.023880e-005,6.047130e-006
1.053794e+000,-9.903105e-006,6.071415e-006
1.054588e+000,-9.231709e-006,6.089064e-006
1.055382e+000,-8.896010e-006,6.107426e-006
1.056176e+000,-6.210422e-006,6.123447e-006
1.056971e+000,-3.860533e-006,6.125498e-006
1.057765e+000,-5.874723e-006,6.125498e-006
1.058559e+000,-4.867628e-006,6.131238e-006
1.059353e+000,-6.546120e-006,6.135743e-006
1.060147e+000,-6.881819e-006,6.141531e-006
1.060941e+000,-5.203327e-006,6.142700e-006
1.061735e+000,-3.524834e-006,6.141276e-006
1.062529e+000,-4.196231e-006,6.132211e-006
1.063324e+000,-5.035477e-006,6.128815e-006
1.064118e+000,-8.560311e-006,6.134347e-006
1.064912e+000,-7.217518e-006,6.152107e-006
1.065706e+000,-6.546120e-006,6.165510e-006
1.066500e+000,-6.546120e-006,6.176386e-006
1.067294e+000,-4.867628e-006,6.181323e-006
1.068088e+000,-6.378271e-006,6.178535e-006
1.068882e+000,-4.867628e-006,6.174962e-006
1.069676e+000,-5.203327e-006,6.168856e-006
1.070471e+000,-4.531929e-006,6.166936e-006
1.071265e+000,-5.539025e-006,6.162279e-006
1.072059e+000,-1.510643e-006,6.155461e-006
1.072853e+000,-5.539025e-006,6.149489e-006
1.073647e+000,-8.392462e-006,6.152115e-006
1.074441e+000,-7.217518e-006,6.162395e-006
1.075235e+000,-6.881819e-006,6.156918e-006
1.076029e+000,-5.539025e-006,6.148694e-006
1.076824e+000,-6.881819e-006,6.143146e-006
1.077618e+000,-5.874723e-006,6.139289e-006
1.078412e+000,-5.035477e-006,6.130689e-006
1.079206e+000,-4.867628e-006,6.116704e-006
1.080000e+000,-5.874723e-006,6.102253e-006
1.080794e+000,-7.553216e-006,6.098900e-006
1.081588e+000,-8.392462e-006,6.101429e-006
1.082382e+000,-7.217518e-006,6.114826e-006
1.083176e+000,-5.539025e-006,6.123038e-006
1.083971e+000,-8.224612e-006,6.126436e-006
1.084765e+000,-1.091020e-005,6.138668e-006
1.085559e+000,-7.217518e-006,6.154724e-006
1.086353e+000,-3.692683e-006,6.155949e-006
1.087147e+000,-3.860533e-006,6.153346e-006
1.087941e+000,-4.196231e-006,6.144942e-006
1.088735e+000,-1.678492e-006,6.134713e-006
1.089529e+000,-8.392462e-007,6.123140e-006
1.090324e+000,-2.182040e-006,6.114341e-006
1.091118e+000,-6.546120e-006,6.107588e-006
1.091912e+000,-4.867628e-006,6.109762e-006
1.092706e+000,-4.196231e-006,6.105883e-006
1.093500e+000,-5.035477e-006,6.109417e-006
1.094294e+000,-6.881819e-006,6.115134e-006
1.095088e+000,-7.553216e-006,6.115134e-006
1.095882e+000,-3.021286e-006,6.118831e-006
1.096676e+000,-4.196231e-006,6.116249e-006
1.097471e+000,-4.531929e-006,6.111847e-006
1.098265e+000,-9.903105e-006,6.101657e-006
1.099059e+000,-8.224612e-006,6.121858e-006
1.099853e+000,-4.867628e-006,6.133279e-006
1.100647e+000,-2.853437e-006,6.125902e-006
1.101441e+000,-4.196231e-006,6.117988e-006
1.102235e+000,-7.553216e-006,6.111979e-006
1.103029e+000,-7.217518e-006,6.107749e-006
1.103824e+000,-6.881819e-006,6.106457e-006
1.104618e+000,-8.224612e-006,6.106457e-006
1.105412e+000,-7.217518e-006,6.109218e-006
1.106206e+000,-1.091020e-005,6.109843e-006
1.107000e+000,-7.553216e-006,6.130228e-006
1.107794e+000,-7.888914e-006,6.139705e-006
1.108588e+000,-8.896010e-006,6.154943e-006
1.109382e+000,-6.881819e-006,6.174795e-006
1.110176e+000,-5.035477e-006,6.185364e-006
1.110971e+000,-5.203327e-006,6.187358e-006
1.111765e+000,-9.231709e-006,6.184399e-006
1.112559e+000,-7.553216e-006,6.203115e-006
1.113353e+000,-6.210422e-006,6.215658e-006
1.114147e+000,-5.874723e-006,6.221026e-006
1.114941e+000,-6.042573e-006,6.223794e-006
1.115735e+000,-1.174945e-006,6.223268e-006
1.116529e+000,-3.524834e-006,6.193091e-006
1.117324e+000,-8.224612e-006,6.163698e-006
1.118118e+000,-7.217518e-006,6.166434e-006
1.118912e+000,-4.196231e-006,6.169380e-006
1.119706e+000,-4.531929e-006,6.165518e-006
1.120500e+000,-4.196231e-006,6.154738e-006
1.121294e+000,-5.539025e-006,6.154738e-006
1.122088e+000,-6.210422e-006,6.150421e-006
1.122882e+000,-4.196231e-006,6.152463e-006
1.123676e+000,-5.539025e-006,6.150888e-006
1.124471e+000,-4.196231e-006,6.152697e-006
1.125265e+000,-3.021286e-006,6.155146e-006
1.126059e+000,-2.182040e-006,6.156626e-006
1.126853e+000,-3.524834e-006,6.152543e-006
1.127647e+000,-6.881819e-006,6.145773e-006
1.128441e+000,-8.224612e-006,6.140515e-006
1.129235e+000,-5.035477e-006,6.130864e-006
1.130029e+000,-2.853437e-006,6.102546e-006
1.130824e+000,-2.182040e-006,6.094601e-006
1.131618e+000,-2.182040e-006,6.089653e-006
1.132412e+000,-4.196231e-006,6.075964e-006
1.133206e+000,-3.524834e-006,6.075588e-006
1.134000e+000,-2.182040e-006,6.073461e-006
1.134794e+000,-3.860533e-006,6.070092e-006
1.135588e+000,-5.539025e-006,6.065951e-006
1.136382e+000,-7.217518e-006,6.065951e-006
1.137176e+000,-5.874723e-006,6.071570e-006
1.137971e+000,-4.196231e-006,6.072574e-006
1.138765e+000,-6.881819e-006,6.068140e-006
1.139559e+000,-7.553216e-006,6.077300e-006
1.140353e+000,-4.867628e-006,6.092047e-006
1.141147e+000,-6.881819e-006,6.096993e-006
1.141941e+000,-1.158160e-005,6.108108e-006
1.142735e+000,-8.896010e-006,6.140340e-006
1.143529e+000,-6.881819e-006,6.152894e-006
1.144324e+000,-4.196231e-006,6.160217e-006
1.145118e+000,-3.524834e-006,6.164585e-006
1.145912e+000,-4.196231e-006,6.157828e-006
1.146706e+000,-7.217518e-006,6.148904e-006
1.147500e+000,-5.203327e-006,6.157828e-006
1.148294e+000,-5.539025e-006,6.159517e-006
1.149088e+000,-6.210422e-006,6.157478e-006
1.149882e+000,-7.553216e-006,6.156931e-006
1.150676e+000,-5.874723e-006,6.159437e-006
1.151471e+000,-3.524834e-006,6.150866e-006
1.152265e+000,-6.210422e-006,6.133570e-006
1.153059e+000,-5.539025e-006,6.133570e-006
1.153853e+000,-6.546120e-006,6.136963e-006
1.154647e+000,-6.881819e-006,6.145437e-006
1.155441e+000,-9.567407e-006,6.153841e-006
1.156235e+000,-9.567407e-006,6.167531e-006
1.157029e+000,-7.721065e-006,6.183223e-006
1.157824e+000,-6.881819e-006,6.190670e-006
1.158618e+000,-6.546120e-006,6.190068e-006
1.159412e+000,-5.539025e-006,6.193198e-006
1.160206e+000,-7.217518e-006,6.198470e-006
1.161000e+000,-6.881819e-006,6.207322e-006
1.161794e+000,-6.210422e-006,6.209576e-006
1.162588e+000,-7.553216e-006,6.208478e-006
1.163382e+000,-1.023880e-005,6.217028e-006
1.164176e+000,-8.392462e-006,6.235991e-006
1.164971e+000,-4.867628e-006,6.244123e-006
1.165765e+000,-6.378271e-006,6.229967e-006
1.166559e+000,-4.867628e-006,6.220130e-006
1.167353e+000,-4.531929e-006,6.207423e-006
1.168147e+000,-2.182040e-006,6.191597e-006
1.168941e+000,-4.531929e-006,6.182896e-006
1.169735e+000,-6.546120e-006,6.173486e-006
1.170529e+000,-3.524834e-006,6.175636e-006
1.171324e+000,-3.524834e-006,6.171857e-006
1.172118e+000,-6.378271e-006,6.162234e-006
1.172912e+000,-5.539025e-006,6.149079e-006
1.173706e+000,-5.874723e-006,6.143532e-006
1.174500e+000,-4.196231e-006,6.134938e-006
1.175294e+000,-2.182040e-006,6.112256e-006
1.176088e+000,-2.853437e-006,6.091258e-006
1.176882e+000,-5.539025e-006,6.085364e-006
1.177676e+000,-7.049668e-006,6.085364e-006
1.178471e+000,-3.524834e-006,6.085364e-006
1.179265e+000,-3.524834e-006,6.080090e-006
1.180059e+000,-5.035477e-006,6.074303e-006
1.180853e+000,-5.203327e-006,6.069715e-006
1.181647e+000,-3.524834e-006,6.074680e-006
1.182441e+000,-3.021286e-006,6.073320e-006
1.183235e+000,-5.539025e-006,6.065042e-006
1.184029e+000,-8.224612e-006,6.066876e-006
1.184824e+000,-5.874723e-006,6.079994e-006
1.185618e+000,-2.182040e-006,6.086897e-006
1.186412e+000,-2.182040e-006,6.082768e-006
1.187206e+000,-6.210422e-006,6.075979e-006
1.188000e+000,-7.217518e-006,6.073675e-006
1.188794e+000,-7.553216e-006,6.081116e-006
1.189588e+000,-8.224612e-006,6.085953e-006
1.190382e+000,-6.881819e-006,6.092437e-006
1.191176e+000,-4.196231e-006,6.092437e-006
1.191971e+000,-6.210422e-006,6.090846e-006
1.192765e+000,-8.728161e-006,6.097030e-006
1.193559e+000,-9.567407e-006,6.113658e-006
1.194353e+000,-8.392462e-006,6.129488e-006
1.195147e+000,-7.217518e-006,6.137212e-006
1.195941e+000,-5.539025e-006,6.135260e-006
1.196735e+000,-4.196231e-006,6.127746e-006
1.197529e+000,-6.546120e-006,6.122831e-006
1.198324e+000,-8.392462e-006,6.129393e-006
1.199118e+000,-5.539025e-006,6.132868e-006
1.199912e+000,-3.524834e-006,6.127306e-006
1.200706e+000,-2.853437e-006,6.125959e-006
1.201500e+000,-3.524834e-006,6.127892e-006
1.202294e+000,-1.678492e-007,6.131054e-006
1.203088e+000,-5.035477e-007,6.130176e-006
1.203882e+000,-4.196231e-006,6.129978e-006
1.204676e+000,-5.539025e-006,6.133666e-006
1.205471e+000,-5.539025e-006,6.135048e-006
1.206265e+000,-7.217518e-006,6.139785e-006
1.207059e+000,-5.203327e-006,6.147963e-006
1.207853e+000,-2.182040e-006,6.152864e-006
1.208647e+000,-1.510643e-006,6.150881e-006
1.209441e+000,-3.524834e-006,6.130168e-006
1.210235e+000,-1.174945e-006,6.102413e-006
1.211029e+000,-3.524834e-006,6.085098e-006
1.211824e+000,-4.196231e-006,6.067615e-006
1.212618e+000,-5.874723e-006,6.057255e-006
1.213412e+000,-6.881819e-006,6.055062e-006
1.214206e+000,-5.874723e-006,6.062881e-006
1.215000e+000,-7.553216e-006,6.071045e-006
1.215794e+000,-9.903105e-006,6.085393e-006
1.216588e+000,-1.158160e-005,6.106412e-006
1.217382e+000,-9.567407e-006,6.139645e-006
1.218176e+000,-7.553216e-006,6.162751e-006
1.218971e+000,-9.567407e-006,6.167524e-006
1.219765e+000,-9.903105e-006,6.181184e-006
1.220559e+000,-6.881819e-006,6.189017e-006
1.221353e+000,-4.196231e-006,6.186523e-006
1.222147e+000,-3.021286e-006,6.186153e-006
1.222941e+000,-4.196231e-006,6.185885e-006
1.223735e+000,-7.888914e-006,6.185131e-006
1.224529e+000,-8.560311e-006,6.170491e-006
1.225324e+000,-9.063859e-006,6.174677e-006
1.226118e+000,-1.057450e-005,6.178418e-006
1.226912e+000,-8.896010e-006,6.193792e-006
1.227706e+000,-5.874723e-006,6.209591e-006
1.228500e+000,-8.560311e-006,6.212364e-006
1.229294e+000,-1.023880e-005,6.229038e-006
1.230088e+000,-1.091020e-005,6.255199e-006
1.230882e+000,-8.560311e-006,6.277650e-006
1.231676e+000,-5.539025e-006,6.284221e-006
1.232471e+000,-5.706874e-006,6.273418e-006
1.233265e+000,-6.881819e-006,6.271895e-006
1.234059e+000,-4.196231e-006,6.273589e-006
1.234853e+000,-5.539025e-006,6.272045e-006
1.235647e+000,-3.524834e-006,6.267809e-006
1.236441e+000,-4.196231e-006,6.258927e-006
1.237235e+000,-5.539025e-006,6.253054e-006
1.238029e+000,-5.874723e-006,6.243634e-006
1.238824e+000,-7.217518e-006,6.239149e-006
1.239618e+000,-7.721065e-006,6.247578e-006
1.240412e+000,-6.546120e-006,6.256726e-006
1.241206e+000,-8.224612e-006,6.264466e-006
1.242000e+000,-5.539025e-006,6.277171e-006
1.242794e+000,-5.539025e-006,6.280487e-006
1.243588e+000,-5.539025e-006,6.282258e-006
1.244382e+000,-4.196231e-006,6.284029e-006
1.245176e+000,-4.867628e-006,6.275892e-006
1.245971e+000,-5.874723e-006,6.267423e-006
1.246765e+000,-7.217518e-006,6.264157e-006
1.247559e+000,-5.874723e-006,6.251605e-006
1.248353e+000,-6.210422e-006,6.250033e-006
1.249147e+000,-5.539025e-006,6.254625e-006
1.249941e+000,-6.210422e-006,6.255543e-006
1.250735e+000,-5.539025e-006,6.261565e-006
1.251529e+000,-4.867628e-006,6.264888e-006
1.252324e+000,-2.182040e-006,6.257666e-006
1.253118e+000,-2.853437e-006,6.244346e-006
1.253912e+000,-3.524834e-006,6.236582e-006
1.254706e+000,-2.182040e-006,6.229902e-006
1.255500e+000,-4.196231e-006,6.219005e-006
1.256294e+000,-5.539025e-006,6.211382e-006
1.257088e+000,-5.539025e-006,6.204618e-006
1.257882e+000,-2.517739e-006,6.195125e-006
1.258676e+000,-1.846342e-006,6.167953e-006
1.259471e+000,-3.524834e-006,6.141713e-006
1.260265e+000,-5.874723e-006,6.119467e-006
1.261059e+000,-6.210422e-006,6.102906e-006
1.261853e+000,-6.546120e-006,6.095315e-006
1.262647e+000,-3.524834e-006,6.085828e-006
1.263441e+000,-7.217518e-006,6.071363e-006
1.264235e+000,-6.881819e-006,6.074355e-006
1.265029e+000,-5.539025e-006,6.082149e-006
1.265824e+000,-3.189136e-006,6.087516e-006
1.266618e+000,-4.867628e-006,6.085570e-006
1.267412e+000,-5.874723e-006,6.084686e-006
1.268206e+000,-3.524834e-006,6.085688e-006
1.269000e+000,-2.182040e-006,6.079906e-006
1.269794e+000,-3.692683e-006,6.077898e-006
1.270588e+000,-5.539025e-006,6.073431e-006
1.271382e+000,-6.210422e-006,6.066513e-006
1.272176e+000,-8.392462e-006,6.064206e-006
1.272971e+000,-1.124590e-005,6.079419e-006
1.273765e+000,-1.258869e-005,6.107866e-006
1.274559e+000,-6.210422e-006,6.143722e-006
1.275353e+000,-4.196231e-006,6.151078e-006
1.276147e+000,-4.196231e-006,6.143371e-006
1.276941e+000,-4.196231e-006,6.125820e-006
1.277735e+000,-4.867628e-006,6.118081e-006
1.278529e+000,-4.867628e-006,6.111919e-006
1.279324e+000,-4.196231e-006,6.109100e-006
1.280118e+000,-2.853437e-006,6.107513e-006
1.280912e+000,-3.524834e-006,6.101634e-006
1.281706e+000,-4.531929e-006,6.098692e-006
1.282500e+000,-4.867628e-006,6.103163e-006
1.283294e+000,-4.196231e-006,6.107219e-006
1.284088e+000,-8.560311e-006,6.107924e-006
1.284882e+000,-8.560311e-006,6.125761e-006
1.285676e+000,-8.224612e-006,6.135830e-006
1.286471e+000,-6.881819e-006,6.141092e-006
1.287265e+000,-6.210422e-006,6.152477e-006
1.288059e+000,-4.531929e-006,6.150202e-006
1.288853e+000,-4.867628e-006,6.151989e-006
1.289647e+000,-7.553216e-006,6.157937e-006
1.290441e+000,-7.553216e-006,6.165683e-006
1.291235e+000,-6.881819e-006,6.172490e-006
1.292029e+000,-8.224612e-006,6.182599e-006
1.292824e+000,-8.224612e-006,6.199931e-006
1.293618e+000,-6.210422e-006,6.215194e-006
1.294412e+000,-4.196231e-006,6.219004e-006
1.295206e+000,-5.539025e-006,6.219004e-006
1.296000e+000,-6.210422e-006,6.221983e-006
1.296794e+000,-6.881819e-006,6.228670e-006
1.297588e+000,-6.210422e-006,6.236272e-006
1.298382e+000,-5.539025e-006,6.243519e-006
1.299176e+000,-4.196231e-006,6.244877e-006
1.299971e+000,-2.349889e-006,6.234811e-006
1.300765e+000,-5.539025e-006,6.217482e-006
1.301559e+000,-7.553216e-006,6.205059e-006
1.302353e+000,-6.378271e-006,6.199388e-006
1.303147e+000,-6.546120e-006,6.182889e-006
1.303941e+000,-4.867628e-006,6.168651e-006
1.304735e+000,-5.874723e-006,6.152747e-006
1.305529e+000,-6.210422e-006,6.141187e-006
1.306324e+000,-5.874723e-006,6.141187e-006
1.307118e+000,-5.203327e-006,6.146269e-006
1.307912e+000,-5.539025e-006,6.144342e-006
1.308706e+000,-6.881819e-006,6.146152e-006
1.309500e+000,-6.881819e-006,6.147320e-006
1.310294e+000,-3.356985e-006,6.147320e-006
1.311088e+000,-3.524834e-006,6.143224e-006
1.311882e+000,-3.692683e-006,6.143225e-006
1.312676e+000,-4.867628e-006,6.142195e-006
1.313471e+000,-4.196231e-006,6.141764e-006
1.314265e+000,-4.867628e-006,6.127313e-006
1.315059e+000,-5.539025e-006,6.119928e-006
1.315853e+000,-5.539025e-006,6.116761e-006
1.316647e+000,-8.560311e-006,6.113592e-006
1.317441e+000,-6.881819e-006,6.126493e-006
1.318235e+000,-6.881819e-006,6.128229e-006
1.319029e+000,-4.867628e-006,6.134375e-006
1.319824e+000,-4.867628e-006,6.133497e-006
1.320618e+000,-6.210422e-006,6.134316e-006
1.321412e+000,-6.546120e-006,6.136364e-006
1.322206e+000,-8.224612e-006,6.146882e-006
1.323000e+000,-5.035477e-006,6.156450e-006
1.323794e+000,-2.853437e-006,6.144780e-006
1.324588e+000,-3.524834e-006,6.133380e-006
1.325382e+000,-6.210422e-006,6.124304e-006
1.326176e+000,-5.539025e-006,6.126354e-006
1.326971e+000,-1.846342e-006,6.122018e-006
1.327765e+000,-4.196231e-006,6.113922e-006
1.328559e+000,-7.553216e-006,6.111904e-006
1.329353e+000,-6.881819e-006,6.120589e-006
1.330147e+000,-6.546120e-006,6.123930e-006
1.330941e+000,-7.888914e-006,6.120237e-006
1.331735e+000,-8.224612e-006,6.118104e-006
1.332529e+000,-8.224612e-006,6.122150e-006
1.333324e+000,-5.203327e-006,6.131756e-006
1.334118e+000,-4.867628e-006,6.121212e-006
1.334912e+000,-6.881819e-006,6.096360e-006
1.335706e+000,-4.867628e-006,6.095124e-006
1.336500e+000,-4.867628e-006,6.097751e-006
1.337294e+000,-7.217518e-006,6.100046e-006
1.338088e+000,-4.196231e-006,6.109041e-006
1.338882e+000,-8.392462e-007,6.112895e-006
1.339676e+000,-4.867628e-006,6.112895e-006
1.340471e+000,-7.553216e-006,6.117825e-006
1.341265e+000,-1.091020e-005,6.121520e-006
1.342059e+000,-6.881819e-006,6.146270e-006
1.342853e+000,-4.867628e-006,6.153973e-006
1.343647e+000,-4.699779e-006,6.153542e-006
1.344441e+000,-5.874723e-006,6.147000e-006
1.345235e+000,-5.539025e-006,6.141158e-006
1.346029e+000,-6.881819e-006,6.146744e-006
1.346824e+000,-5.539025e-006,6.154447e-006
1.347618e+000,-4.364080e-006,6.157070e-006
1.348412e+000,-6.210422e-006,6.136598e-006
1.349206e+000,-5.539025e-006,6.129049e-006
1.350000e+000,-6.881819e-006,6.130864e-006
1.350794e+000,-8.896010e-006,6.141041e-006
1.351588e+000,-4.196231e-006,6.156975e-006
1.352382e+000,-2.853437e-006,6.146766e-006
1.353176e+000,-6.881819e-006,6.135370e-006
1.353971e+000,-6.210422e-006,6.135370e-006
1.354765e+000,-3.189136e-006,6.127819e-006
1.355559e+000,-6.210422e-006,6.116916e-006
1.356353e+000,-8.896010e-006,6.095934e-006
1.357147e+000,-9.567407e-006,6.101700e-006
1.357941e+000,-8.224612e-006,6.109342e-006
1.358735e+000,-8.224612e-006,6.106346e-006
1.359529e+000,-7.217518e-006,6.111633e-006
1.360324e+000,-3.524834e-006,6.118595e-006
1.361118e+000,-3.692683e-006,6.114781e-006
1.361912e+000,-2.853437e-006,6.096110e-006
1.362706e+000,-5.203327e-006,6.083321e-006
1.363500e+000,-4.531929e-006,6.080312e-006
1.364294e+000,-3.524834e-006,6.076651e-006
1.365088e+000,-3.524834e-006,6.070336e-006
1.365882e+000,-2.853437e-006,6.073232e-006
1.366676e+000,-1.846342e-006,6.072109e-006
1.367471e+000,-4.364080e-006,6.055240e-006
1.368265e+000,-4.867628e-006,6.046544e-006
1.369059e+000,-2.517739e-006,6.048146e-006
1.369853e+000,-3.189136e-006,6.044407e-006
1.370647e+000,-3.860533e-006,6.042447e-006
1.371441e+000,-2.853437e-006,6.038288e-006
1.372235e+000,-2.853437e-006,6.030259e-006
1.373029e+000,-2.853437e-006,6.027758e-006
1.373824e+000,-4.867628e-006,6.021801e-006
1.374618e+000,-7.217518e-006,6.023411e-006
1.375412e+000,-4.867628e-006,6.034758e-006
1.376206e+000,-6.210422e-006,6.039751e-006
1.377000e+000,-8.560311e-006,6.046640e-006
1.377794e+000,-7.217518e-006,6.053463e-006
1.378588e+000,-7.553216e-006,6.049370e-006
1.379382e+000,-6.378271e-006,6.057708e-006
1.380176e+000,-3.860533e-006,6.066255e-006
1.380971e+000,-4.196231e-006,6.068917e-006
1.381765e+000,-6.881819e-006,6.072287e-006
1.382559e+000,-4.867628e-006,6.080083e-006
1.383353e+000,-2.853437e-006,6.083034e-006
1.384147e+000,-4.867628e-006,6.083919e-006
1.384941e+000,-6.881819e-006,6.086219e-006
1.385735e+000,-5.539025e-006,6.090581e-006
1.386529e+000,-7.553216e-006,6.084981e-006
1.387324e+000,-7.553216e-006,6.090876e-006
1.388118e+000,-7.721065e-006,6.101179e-006
1.388912e+000,-6.881819e-006,6.104377e-006
1.389706e+000,-9.231709e-006,6.101848e-006
1.390500e+000,-9.567407e-006,6.117884e-006
1.391294e+000,-8.224612e-006,6.129371e-006
1.392088e+000,-8.224612e-006,6.112074e-006
1.392882e+000,-8.224612e-006,6.109078e-006
1.393676e+000,-4.196231e-006,6.114363e-006
1.394471e+000,-5.539025e-006,6.114363e-006
1.395265e+000,-7.049668e-006,6.119116e-006
1.396059e+000,-5.539025e-006,6.127461e-006
1.396853e+000,-2.853437e-006,6.121894e-006
1.397647e+000,-6.546120e-006,6.116968e-006
1.398441e+000,-8.896010e-006,6.120135e-006
1.399235e+000,-5.203327e-006,6.130682e-006
1.400029e+000,-3.692683e-006,6.122891e-006
1.400824e+000,-5.539025e-006,6.117459e-006
1.401618e+000,-4.364080e-006,6.122209e-006
1.402412e+000,-4.867628e-006,6.117129e-006
1.403206e+000,-6.881819e-006,6.115310e-006
1.404000e+000,-5.539025e-006,6.116484e-006
1.404794e+000,-2.182040e-006,6.112140e-006
1.405588e+000,-3.524834e-006,6.089492e-006
1.406382e+000,-8.896010e-006,6.068769e-006
1.407176e+000,-5.203327e-006,6.073890e-006
1.407971e+000,-2.517739e-006,6.068570e-006
1.408765e+000,-7.217518e-006,6.058981e-006
1.409559e+000,-7.721065e-006,6.064606e-006
1.410353e+000,-5.203327e-006,6.066581e-006
1.411147e+000,-6.546120e-006,6.061254e-006
1.411941e+000,-7.888914e-006,6.062378e-006
1.412735e+000,-7.217518e-006,6.063740e-006
1.413529e+000,-8.392462e-006,6.049875e-006
1.414324e+000,-7.553216e-006,6.049875e-006
1.415118e+000,-6.210422e-006,6.058648e-006
1.415912e+000,-5.203327e-006,6.058092e-006
1.416706e+000,-7.217518e-006,6.058981e-006
1.417500e+000,-3.860533e-006,6.067268e-006
1.418294e+000,-3.524834e-006,6.069929e-006
1.419088e+000,-2.853437e-006,6.067800e-006
1.419882e+000,-5.539025e-006,6.058685e-006
1.420676e+000,-4.699779e-006,6.063481e-006
1.421471e+000,-2.182040e-006,6.066018e-006
1.422265e+000,-2.853437e-006,6.056582e-006
1.423059e+000,-2.853437e-006,6.050653e-006
1.423853e+000,-1.846342e-006,6.043709e-006
1.424647e+000,-1.846342e-006,6.039967e-006
1.425441e+000,-3.524834e-006,6.039610e-006
1.426235e+000,-6.210422e-006,6.040739e-006
1.427029e+000,-4.531929e-006,6.042818e-006
1.427824e+000,-4.867628e-006,6.035129e-006
1.428618e+000,-6.881819e-006,6.038102e-006
1.429412e+000,-4.531929e-006,6.047308e-006
1.430206e+000,-6.881819e-006,6.046039e-006
1.431000e+000,-5.203327e-006,6.051379e-006
1.431794e+000,-7.217518e-006,6.055232e-006
1.432588e+000,-1.141375e-005,6.066521e-006
1.433382e+000,-1.091020e-005,6.092606e-006
1.434176e+000,-9.903105e-006,6.106022e-006
1.434971e+000,-8.224612e-006,6.122575e-006
1.435765e+000,-7.888914e-006,6.138908e-006
1.436559e+000,-7.553216e-006,6.153798e-006
1.437353e+000,-6.881819e-006,6.158578e-006
1.438147e+000,-6.881819e-006,6.157354e-006
1.438941e+000,-7.217518e-006,6.154848e-006
1.439735e+000,-3.524834e-006,6.150823e-006
1.440529e+000,-6.546120e-006,6.141772e-006
1.441324e+000,-5.539025e-006,6.148313e-006
1.442118e+000,-5.203327e-006,6.146270e-006
1.442912e+000,-6.210422e-006,6.133534e-006
1.443706e+000,-5.874723e-006,6.119768e-006
1.444500e+000,-4.867628e-006,6.110414e-006
1.445294e+000,-5.874723e-006,6.103009e-006
1.446088e+000,-5.539025e-006,6.104009e-006
1.446882e+000,-3.524834e-006,6.107418e-006
1.447676e+000,-5.874723e-006,6.099479e-006
1.448471e+000,-8.224612e-006,6.090095e-006
1.449265e+000,-7.217518e-006,6.099751e-006
1.450059e+000,-6.210422e-006,6.110098e-006
1.450853e+000,-4.867628e-006,6.118023e-006
1.451647e+000,-5.035477e-006,6.120955e-006
1.452441e+000,-6.210422e-006,6.127540e-006
1.453235e+000,-4.531929e-006,6.137489e-006
1.454029e+000,-3.860533e-006,6.138250e-006
1.454824e+000,-5.035477e-006,6.134156e-006
1.455618e+000,-5.539025e-006,6.132773e-006
1.456412e+000,-5.539025e-006,6.127211e-006
1.457206e+000,-6.210422e-006,6.128148e-006
1.458000e+000,-5.539025e-006,6.136927e-006
1.458794e+000,-3.189136e-006,6.144291e-006
1.459588e+000,-2.853437e-006,6.143707e-006
1.460382e+000,-5.539025e-006,6.145459e-006
1.461176e+000,-3.524834e-006,6.150188e-006
1.461971e+000,-3.189136e-006,6.148845e-006
1.462765e+000,-4.531929e-006,6.142538e-006
1.463559e+000,-3.524834e-006,6.135581e-006
1.464353e+000,-4.867628e-006,6.129846e-006
1.465147e+000,-6.378271e-006,6.121175e-006
1.465941e+000,-7.888914e-006,6.106227e-006
1.466735e+000,-9.567407e-006,6.087449e-006
1.467529e+000,-7.888914e-006,6.087449e-006
1.468324e+000,-5.539025e-006,6.088806e-006
1.469118e+000,-5.539025e-006,6.072870e-006
1.469912e+000,-5.539025e-006,6.055174e-006
1.470706e+000,-6.210422e-006,6.050786e-006
1.471500e+000,-4.867628e-006,6.056300e-006
1.472294e+000,-5.035477e-006,6.060128e-006
1.473088e+000,-4.531929e-006,6.062164e-006
1.473882e+000,-6.210422e-006,6.051201e-006
1.474676e+000,-3.524834e-006,6.042061e-006
1.475471e+000,-3.021286e-006,6.023656e-006
1.476265e+000,-4.196231e-006,5.996448e-006
1.477059e+000,-5.539025e-006,5.980086e-006
1.477853e+000,-5.539025e-006,5.979065e-006
1.478647e+000,-3.860533e-006,5.967710e-006
1.479441e+000,-1.510643e-006,5.943666e-006
1.480235e+000,-1.846342e-006,5.912305e-006
1.481029e+000,-2.853437e-006,5.893457e-006
1.481824e+000,-5.539025e-006,5.887364e-006
1.482618e+000,-8.224612e-006,5.886853e-006
1.483412e+000,-6.546120e-006,5.892338e-006
1.484206e+000,-6.378271e-006,5.899155e-006
1.485000e+000,-6.210422e-006,5.901854e-006
1.485794e+000,-7.553216e-006,5.908904e-006
1.486588e+000,-8.560311e-006,5.919524e-006
1.487382e+000,-8.896010e-006,5.930972e-006
1.488176e+000,-8.224612e-006,5.942942e-006
1.488971e+000,-7.553216e-006,5.947107e-006
1.489765e+000,-9.903105e-006,5.946421e-006
1.490559e+000,-8.560311e-006,5.961189e-006
1.491353e+000,-4.867628e-006,5.962694e-006
1.492147e+000,-5.539025e-006,5.960828e-006
1.492941e+000,-1.091020e-005,5.960828e-006
1.493735e+000,-9.903105e-006,5.984383e-006
1.494529e+000,-6.881819e-006,6.005755e-006
1.495324e+000,-6.881819e-006,6.012026e-006
1.496118e+000,-8.224612e-006,6.015428e-006
1.496912e+000,-4.531929e-006,6.019543e-006
1.497706e+000,-4.196231e-006,6.015846e-006
1.498500e+000,-5.203327e-006,6.010295e-006
1.499294e+000,-2.182040e-006,6.009340e-006
1.500088e+000,-3.524834e-006,6.000374e-006
1.500882e+000,-5.539025e-006,5.995528e-006
1.501676e+000,-4.196231e-006,5.997383e-006
1.502471e+000,-1.007095e-006,6.000793e-006
1.503265e+000,-2.853437e-006,5.998902e-006
1.504059e+000,-6.378271e-006,5.997765e-006
1.504853e+000,-5.874723e-006,6.007294e-006
1.505647e+000,-3.189136e-006,6.011774e-006
1.506441e+000,-4.196231e-006,6.006338e-006
1.507235e+000,-4.531929e-006,6.002872e-006
1.508029e+000,-5.539025e-006,6.006637e-006
1.508824e+000,-4.364080e-006,6.013863e-006
1.509618e+000,-6.210422e-006,6.015615e-006
1.510412e+000,-4.196231e-006,6.016689e-006
1.511206e+000,-3.860533e-006,6.011139e-006
1.512000e+000,-4.867628e-006,6.003731e-006
1.512794e+000,-5.539025e-006,6.006719e-006
1.513588e+000,-4.196231e-006,6.001040e-006
1.514382e+000,-4.196231e-006,5.993141e-006
1.515176e+000,-4.196231e-006,5.989667e-006
1.515971e+000,-1.510643e-006,5.991644e-006
1.516765e+000,-3.524834e-006,5.985950e-006
1.517559e+000,-5.539025e-006,5.980072e-006
1.518353e+000,-4.867628e-006,5.984931e-006
1.519147e+000,-3.524834e-006,5.989966e-006
1.519941e+000,-4.867628e-006,5.989644e-006
1.520735e+000,-4.196231e-006,5.987787e-006
1.521529e+000,-4.364080e-006,5.982210e-006
1.522324e+000,-4.867628e-006,5.968515e-006
1.523118e+000,-7.888914e-006,5.941032e-006
1.523912e+000,-6.378271e-006,5.915181e-006
1.524706e+000,-4.867628e-006,5.915750e-006
1.525500e+000,-7.553216e-006,5.917387e-006
1.526294e+000,-8.224612e-006,5.927992e-006
1.527088e+000,-9.063859e-006,5.941417e-006
1.527882e+000,-6.881819e-006,5.957064e-006
1.528676e+000,-8.896010e-006,5.963387e-006
1.529471e+000,-7.553216e-006,5.979794e-006
1.530265e+000,-6.210422e-006,5.992804e-006
1.531059e+000,-3.524834e-006,5.999747e-006
1.531853e+000,-5.035477e-006,5.997593e-006
1.532647e+000,-5.706874e-006,5.998035e-006
1.533441e+000,-7.888914e-006,6.002005e-006
1.534235e+000,-5.203327e-006,5.999074e-006
1.535029e+000,-7.217518e-006,5.986798e-006
1.535824e+000,-6.881819e-006,5.982660e-006
1.536618e+000,-8.896010e-006,5.982660e-006
1.537412e+000,-7.553216e-006,5.993448e-006
1.538206e+000,-7.217518e-006,6.003141e-006
1.539000e+000,-8.224612e-006,6.010669e-006
1.539794e+000,-4.364080e-006,6.013475e-006
1.540588e+000,-4.196231e-006,6.003403e-006
1.541382e+000,-7.553216e-006,5.995506e-006
1.542176e+000,-3.692683e-006,5.992692e-006
1.542971e+000,-4.867628e-006,5.978324e-006
1.543765e+000,-6.881819e-006,5.974361e-006
1.544559e+000,-8.224612e-006,5.982285e-006
1.545353e+000,-6.881819e-006,5.992116e-006
1.546147e+000,-5.203327e-006,5.994451e-006
1.546941e+000,-7.721065e-006,5.989060e-006
1.547735e+000,-6.881819e-006,5.994653e-006
1.548529e+000,-5.539025e-006,5.999082e-006
1.549324e+000,-6.881819e-006,6.002551e-006
1.550118e+000,-8.224612e-006,6.013639e-006
1.550912e+000,-7.888914e-006,6.023419e-006
1.551706e+000,-7.553216e-006,6.024789e-006
1.552500e+000,-6.881819e-006,6.029114e-006
1.553294e+000,-7.553216e-006,6.030305e-006
1.554088e+000,-8.896010e-006,6.039106e-006
1.554882e+000,-8.224612e-006,6.050861e-006
1.555676e+000,-4.196231e-006,6.058508e-006
1.556471e+000,-3.189136e-006,6.054064e-006
1.557265e+000,-4.531929e-006,6.049616e-006
1.558059e+000,-3.189136e-006,6.046946e-006
1.558853e+000,-6.210422e-006,6.037145e-006
1.559647e+000,-8.896010e-006,6.034826e-006
1.560441e+000,-7.049668e-006,6.052708e-006
1.561235e+000,-4.531929e-006,6.062505e-006
1.562029e+000,-6.210422e-006,6.064318e-006
1.562824e+000,-5.874723e-006,6.068223e-006
1.563618e+000,-7.721065e-006,6.072657e-006
1.564412e+000,-5.035477e-006,6.082068e-006
1.565206e+000,-3.524834e-006,6.080674e-006
1.566000e+000,-4.867628e-006,6.075892e-006
1.566794e+000,-5.539025e-006,6.062883e-006
1.567588e+000,-4.531929e-006,6.058501e-006
1.568382e+000,-3.524834e-006,6.051447e-006
1.569176e+000,-3.189136e-006,6.048481e-006
1.569971e+000,-2.182040e-006,6.044920e-006
1.570765e+000,-5.539025e-006,6.036008e-006
1.571559e+000,-4.867628e-006,6.032796e-006
1.572353e+000,-4.364080e-006,6.021184e-006
1.573147e+000,-6.546120e-006,6.019515e-006
1.573941e+000,-5.539025e-006,6.028690e-006
1.574735e+000,-3.524834e-006,6.033510e-006
1.575529e+000,-6.210422e-006,6.026606e-006
1.576324e+000,-4.531929e-006,6.028690e-006
1.577118e+000,-6.378271e-006,6.033213e-006
1.577912e+000,-7.217518e-006,6.039299e-006
1.578706e+000,-8.224612e-006,6.037992e-006
1.579500e+000,-6.881819e-006,6.043339e-006
1.580294e+000,-5.539025e-006,6.044527e-006
1.581088e+000,-6.210422e-006,6.036209e-006
1.581882e+000,-7.049668e-006,6.028533e-006
1.582676e+000,-5.203327e-006,6.023791e-006
1.583471e+000,-4.867628e-006,6.023791e-006
1.584265e+000,-3.189136e-006,6.023791e-006
1.585059e+000,-2.349889e-006,6.013953e-006
1.585853e+000,-7.553216e-006,6.009139e-006
1.586647e+000,-5.539025e-006,6.017972e-006
1.587441e+000,-1.510643e-006,6.012304e-006
1.588235e+000,-1.510643e-006,6.008243e-006
1.589029e+000,-1.510643e-006,6.008661e-006
1.589824e+000,-3.524834e-006,6.002984e-006
1.590618e+000,-3.524834e-006,5.991135e-006
1.591412e+000,-3.189136e-006,5.962733e-006
1.592206e+000,-3.524834e-006,5.952793e-006
1.593000e+000,-4.196231e-006,5.949776e-006
1.593794e+000,-5.874723e-006,5.948577e-006
1.594588e+000,-6.378271e-006,5.948577e-006
1.595382e+000,-3.524834e-006,5.951254e-006
1.596176e+000,-3.860533e-006,5.941899e-006
1.596971e+000,-6.210422e-006,5.937669e-006
1.597765e+000,-8.392462e-006,5.942903e-006
1.598559e+000,-7.553216e-006,5.951435e-006
1.599353e+000,-6.210422e-006,5.958486e-006
1.600147e+000,-6.881819e-006,5.956137e-006
1.600941e+000,-8.224612e-006,5.947634e-006
1.601735e+000,-5.539025e-006,5.961015e-006
1.602529e+000,-6.881819e-006,5.967033e-006
1.603324e+000,-8.224612e-006,5.967033e-006
1.604118e+000,-9.063859e-006,5.974787e-006
1.604912e+000,-7.721065e-006,5.993940e-006
1.605706e+000,-6.210422e-006,5.999529e-006
1.606500e+000,-5.539025e-006,5.988751e-006
1.607294e+000,-3.524834e-006,5.972549e-006
1.608088e+000,-6.881819e-006,5.957808e-006
1.608882e+000,-5.874723e-006,5.952384e-006
1.609676e+000,-4.867628e-006,5.947679e-006
1.610471e+000,-4.867628e-006,5.950696e-006
1.611265e+000,-4.364080e-006,5.953386e-006
1.612059e+000,-4.867628e-006,5.956302e-006
1.612853e+000,-2.853437e-006,5.955398e-006
1.613647e+000,-2.349889e-006,5.952083e-006
1.614441e+000,-3.189136e-006,5.950236e-006
1.615235e+000,-4.867628e-006,5.949633e-006
1.616029e+000,-5.203327e-006,5.953793e-006
1.616824e+000,-2.349889e-006,5.960119e-006
1.617618e+000,-3.189136e-006,5.956505e-006
1.618412e+000,-8.224612e-006,5.952889e-006
1.619206e+000,-6.881819e-006,5.969265e-006
1.620000e+000,-4.867628e-006,5.979178e-006
1.620794e+000,-7.385367e-006,5.981518e-006
1.621588e+000,-6.210422e-006,5.993858e-006
1.622382e+000,-6.881819e-006,6.001936e-006
1.623176e+000,-5.874723e-006,6.012332e-006
1.623971e+000,-7.217518e-006,6.015196e-006
1.624765e+000,-8.896010e-006,6.015197e-006
1.625559e+000,-7.888914e-006,6.029856e-006
1.626353e+000,-8.224612e-006,6.036103e-006
1.627147e+000,-5.874723e-006,6.034616e-006
1.627941e+000,-6.881819e-006,6.029975e-006
1.628735e+000,-5.539025e-006,6.027415e-006
1.629529e+000,-6.210422e-006,6.024772e-006
1.630324e+000,-3.860533e-006,6.031024e-006
1.631118e+000,-2.853437e-006,6.030310e-006
1.631912e+000,-3.692683e-006,6.019945e-006
1.632706e+000,-4.531929e-006,6.017284e-006
1.633500e+000,-5.539025e-006,6.020563e-006
1.634294e+000,-5.539025e-006,6.022412e-006
1.635088e+000,-3.524834e-006,6.018000e-006
1.635882e+000,-4.867628e-006,6.013167e-006
1.636676e+000,-5.539025e-006,6.004328e-006
1.637471e+000,-5.539025e-006,5.997330e-006
1.638265e+000,-7.553216e-006,5.989643e-006
1.639059e+000,-5.874723e-006,5.992219e-006
1.639853e+000,-5.203327e-006,5.978728e-006
1.640647e+000,-6.210422e-006,5.961534e-006
1.641441e+000,-7.888914e-006,5.953763e-006
1.642235e+000,-7.553216e-006,5.952317e-006
1.643029e+000,-7.553216e-006,5.949482e-006
1.643824e+000,-5.539025e-006,5.960029e-006
1.644618e+000,-6.881819e-006,5.960030e-006
1.645412e+000,-6.546120e-006,5.959405e-006
1.646206e+000,-5.874723e-006,5.962656e-006
1.647000e+000,-2.853437e-006,5.969694e-006
1.647794e+000,-4.531929e-006,5.960428e-006
1.648588e+000,-7.553216e-006,5.944752e-006
1.649382e+000,-6.210422e-006,5.952776e-006
1.650176e+000,-4.867628e-006,5.959442e-006
1.650971e+000,-6.210422e-006,5.957575e-006
1.651765e+000,-7.553216e-006,5.962791e-006
1.652559e+000,-4.867628e-006,5.971692e-006
1.653353e+000,-2.853437e-006,5.965378e-006
1.654147e+000,-3.189136e-006,5.959359e-006
1.654941e+000,-5.539025e-006,5.960805e-006
1.655735e+000,-5.874723e-006,5.965680e-006
1.656529e+000,-4.196231e-006,5.953756e-006
1.657324e+000,-4.531929e-006,5.951224e-006
1.658118e+000,-6.210422e-006,5.955022e-006
1.658912e+000,-1.510643e-006,5.951405e-006
1.659706e+000,-3.524834e-006,5.936045e-006
1.660500e+000,-5.539025e-006,5.932113e-006
1.661294e+000,-4.867628e-006,5.928845e-006
1.662088e+000,-5.874723e-006,5.918485e-006
1.662882e+000,-7.553216e-006,5.913753e-006
1.663676e+000,-3.692683e-006,5.910149e-006
1.664471e+000,-3.189136e-006,5.898440e-006
1.665265e+000,-7.049668e-006,5.890769e-006
1.666059e+000,-6.881819e-006,5.896881e-006
1.666853e+000,-7.049668e-006,5.895602e-006
1.667647e+000,-8.224612e-006,5.904993e-006
1.668441e+000,-9.903105e-006,5.919865e-006
1.669235e+000,-6.881819e-006,5.944005e-006
1.670029e+000,-7.888914e-006,5.948471e-006
1.670824e+000,-7.553216e-006,5.959208e-006
1.671618e+000,-5.539025e-006,5.973165e-006
1.672412e+000,-8.224612e-006,5.979170e-006
1.673206e+000,-6.210422e-006,5.994996e-006
1.674000e+000,-7.553216e-006,6.004327e-006
1.674794e+000,-8.560311e-006,6.018536e-006
1.675588e+000,-7.553216e-006,6.034616e-006
1.676382e+000,-4.867628e-006,6.039490e-006
1.677176e+000,-2.349889e-006,6.040322e-006
1.677971e+000,-3.021286e-006,6.035530e-006
1.678765e+000,-2.853437e-006,6.025435e-006
1.679559e+000,-1.510643e-006,6.022158e-006
1.680353e+000,-1.678492e-006,6.010227e-006
1.681147e+000,-4.196231e-006,6.003797e-006
1.681941e+000,-6.881819e-006,5.994644e-006
1.682735e+000,-7.217518e-006,5.972578e-006
1.683529e+000,-5.203327e-006,5.954705e-006
1.684324e+000,-7.888914e-006,5.935689e-006
1.685118e+000,-4.531929e-006,5.934238e-006
1.685912e+000,-5.203327e-006,5.923039e-006
1.686706e+000,-6.546120e-006,5.914974e-006
1.687500e+000,-8.896010e-006,5.913761e-006
1.688294e+000,-6.210422e-006,5.922312e-006
1.689088e+000,-5.874723e-006,5.918675e-006
1.689882e+000,-6.881819e-006,5.924614e-006
1.690676e+000,-5.539025e-006,5.925826e-006
1.691471e+000,-1.678492e-006,5.925825e-006
1.692265e+000,-1.510643e-006,5.919304e-006
1.693059e+000,-5.874723e-006,5.909534e-006
1.693853e+000,-4.867628e-006,5.909534e-006
1.694647e+000,-6.210422e-006,5.909534e-006
1.695441e+000,-8.224612e-006,5.910627e-006
1.696235e+000,-5.203327e-006,5.920577e-006
1.697029e+000,-5.203327e-006,5.924516e-006
1.697824e+000,-5.539025e-006,5.922517e-006
1.698618e+000,-6.881819e-006,5.912570e-006
1.699412e+000,-5.874723e-006,5.911295e-006
1.700206e+000,-2.349889e-006,5.910202e-006
1.701000e+000,-3.524834e-006,5.905304e-006
1.701794e+000,-4.867628e-006,5.901816e-006
1.702588e+000,-4.196231e-006,5.897801e-006
1.703382e+000,-1.678492e-006,5.897010e-006
1.704176e+000,-3.860533e-006,5.893745e-006
1.704971e+000,-1.091020e-005,5.890921e-006
1.705765e+000,-9.735256e-006,5.914755e-006
1.706559e+000,-5.874723e-006,5.931985e-006
1.707353e+000,-7.888914e-006,5.930896e-006
1.708147e+000,-7.049668e-006,5.939361e-006
1.708941e+000,-8.224612e-006,5.949949e-006
1.709735e+000,-9.231709e-006,5.965853e-006
1.710529e+000,-5.706874e-006,5.980393e-006
1.711324e+000,-6.210422e-006,5.985754e-006
1.712118e+000,-4.867628e-006,5.993305e-006
1.712912e+000,-4.196231e-006,5.994143e-006
1.713706e+000,-5.203327e-006,5.995520e-006
1.714500e+000,-5.706874e-006,5.996418e-006
1.715294e+000,-1.023880e-005,5.994263e-006
1.716088e+000,-8.896010e-006,6.005568e-006
1.716882e+000,-8.224612e-006,6.002280e-006
1.717676e+000,-5.706874e-006,6.003715e-006
1.718471e+000,-5.539025e-006,6.004216e-006
1.719265e+000,-6.881819e-006,6.004216e-006
1.720059e+000,-5.539025e-006,6.008637e-006
1.720853e+000,-3.860533e-006,6.006546e-006
1.721647e+000,-3.524834e-006,6.004215e-006
1.722441e+000,-6.378271e-006,6.000785e-006
1.723235e+000,-4.196231e-006,6.006128e-006
1.724029e+000,-4.867628e-006,6.000568e-006
1.724824e+000,-4.867628e-006,6.003558e-006
1.725618e+000,-3.524834e-006,6.007420e-006
1.726412e+000,-4.867628e-006,6.006046e-006
1.727206e+000,-5.706874e-006,6.004193e-006
1.728000e+000,-8.560311e-006,6.004693e-006
1.728794e+000,-3.860533e-006,6.020153e-006
1.729588e+000,-2.853437e-006,6.023491e-006
1.730382e+000,-4.196231e-006,6.024742e-006
1.731176e+000,-1.007095e-006,6.027244e-006
1.731971e+000,-3.860533e-006,6.019401e-006
1.732765e+000,-8.896010e-006,6.005433e-006
1.733559e+000,-1.007095e-005,6.015046e-006
1.734353e+000,-9.567407e-006,6.031105e-006
1.735147e+000,-7.217518e-006,6.045073e-006
1.735941e+000,-7.721065e-006,6.043767e-006
1.736735e+000,-8.392462e-006,6.040166e-006
1.737529e+000,-4.867628e-006,6.037870e-006
1.738324e+000,-1.846342e-006,6.026268e-006
1.739118e+000,-5.874723e-006,6.012077e-006
1.739912e+000,-7.553216e-006,5.995219e-006
1.740706e+000,-6.210422e-006,5.990908e-006
1.741500e+000,-5.539025e-006,5.994860e-006
1.742294e+000,-4.196231e-006,5.994860e-006
1.743088e+000,-2.182040e-006,5.967859e-006
1.743882e+000,-8.392462e-007,5.942909e-006
1.744676e+000,-2.182040e-006,5.930396e-006
1.745471e+000,-1.846342e-006,5.918946e-006
1.746265e+000,-1.510643e-006,5.901640e-006
1.747059e+000,-4.196231e-006,5.896713e-006
1.747853e+000,-1.846342e-006,5.896713e-006
1.748647e+000,-2.182040e-006,5.890318e-006
1.749441e+000,-3.860533e-006,5.890318e-006
1.750235e+000,-4.867628e-006,5.890989e-006
1.751029e+000,-4.867628e-006,5.889100e-006
1.751824e+000,-5.539025e-006,5.890744e-006
1.752618e+000,-6.881819e-006,5.898758e-006
1.753412e+000,-5.539025e-006,5.909336e-006
1.754206e+000,-6.881819e-006,5.906640e-006
1.755000e+000,-8.224612e-006,5.910103e-006
1.755794e+000,-8.896010e-006,5.925568e-006
1.756588e+000,-1.057450e-005,5.942080e-006
1.757382e+000,-7.553216e-006,5.966492e-006
1.758176e+000,-3.021286e-006,5.973525e-006
1.758971e+000,-2.853437e-006,5.970881e-006
1.759765e+000,-5.539025e-006,5.962761e-006
1.760559e+000,-4.196231e-006,5.966251e-006
1.761353e+000,-6.546120e-006,5.966973e-006
1.762147e+000,-8.224612e-006,5.972083e-006
1.762941e+000,-7.217518e-006,5.981930e-006
1.763735e+000,-6.881819e-006,5.991103e-006
1.764529e+000,-4.867628e-006,5.999005e-006
1.765324e+000,-4.531929e-006,6.000620e-006
1.766118e+000,-4.531929e-006,6.005463e-006
1.766912e+000,-4.867628e-006,6.007614e-006
1.767706e+000,-4.867628e-006,6.005762e-006
1.768500e+000,-7.217518e-006,6.005762e-006
1.769294e+000,-8.896010e-006,6.016270e-006
1.770088e+000,-7.721065e-006,6.030927e-006
1.770882e+000,-8.224612e-006,6.042008e-006
1.771676e+000,-8.560311e-006,6.054803e-006
1.772471e+000,-7.888914e-006,6.067829e-006
1.773265e+000,-6.881819e-006,6.067829e-006
1.774059e+000,-6.210422e-006,6.069581e-006
1.774853e+000,-7.553216e-006,6.073482e-006
1.775647e+000,-8.224612e-006,6.073482e-006
1.776441e+000,-7.721065e-006,6.073482e-006
1.777235e+000,-5.539025e-006,6.067570e-006
1.778029e+000,-4.196231e-006,6.063192e-006
1.778824e+000,-3.860533e-006,6.047011e-006
1.779618e+000,-5.539025e-006,6.035902e-006
1.780412e+000,-6.378271e-006,6.033820e-006
1.781206e+000,-9.063859e-006,6.041273e-006
1.782000e+000,-7.553216e-006,6.056226e-006
1.782794e+000,-2.853437e-006,6.062659e-006
1.783588e+000,-3.189136e-006,6.048435e-006
1.784382e+000,-3.524834e-006,6.043983e-006
1.785176e+000,-4.867628e-006,6.033523e-006
1.785971e+000,-6.210422e-006,6.027274e-006
1.786765e+000,-5.203327e-006,6.016546e-006
1.787559e+000,-7.049668e-006,6.008608e-006
1.788353e+000,-6.210422e-006,6.007973e-006
1.789147e+000,-6.546120e-006,6.000262e-006
1.789941e+000,-5.203327e-006,6.006577e-006
1.790735e+000,-6.546120e-006,6.009086e-006
1.791529e+000,-5.874723e-006,6.005322e-006
1.792324e+000,-6.546120e-006,6.010855e-006
1.793118e+000,-6.210422e-006,6.015928e-006
1.793912e+000,-3.524834e-006,6.013601e-006
1.794706e+000,-6.210422e-006,5.998961e-006
1.795500e+000,-6.881819e-006,5.996627e-006
1.796294e+000,-7.553216e-006,6.002012e-006
1.797088e+000,-9.567407e-006,6.001331e-006
1.797882e+000,-9.231709e-006,6.013041e-006
1.798676e+000,-5.874723e-006,6.027468e-006
1.799471e+000,-5.539025e-006,6.024073e-006
1.800265e+000,-7.049668e-006,6.014295e-006
1.801059e+000,-9.567407e-006,6.010974e-006
1.801853e+000,-4.867628e-006,6.020102e-006
1.802647e+000,-1.846342e-006,6.013840e-006
1.803441e+000,-3.692683e-006,5.999619e-006
1.804235e+000,-3.860533e-006,5.982209e-006
1.805029e+000,-4.196231e-006,5.968154e-006
1.805824e+000,-5.539025e-006,5.968153e-006
1.806618e+000,-2.853437e-006,5.973624e-006
1.807412e+000,-4.196231e-006,5.970318e-006
1.808206e+000,-6.881819e-006,5.972302e-006
1.809000e+000,-2.182040e-006,5.974644e-006
1.809794e+000,-3.860533e-006,5.954788e-006
1.810588e+000,-3.189136e-006,5.945477e-006
1.811382e+000,-2.853437e-006,5.942699e-006
1.812176e+000,-6.042573e-006,5.934541e-006
1.812971e+000,-7.553216e-006,5.935078e-006
1.813765e+000,-7.553216e-006,5.934390e-006
1.814559e+000,-7.217518e-006,5.942888e-006
1.815353e+000,-5.874723e-006,5.953507e-006
1.816147e+000,-4.867628e-006,5.956400e-006
1.816941e+000,-7.553216e-006,5.954532e-006
1.817735e+000,-6.881819e-006,5.964288e-006
1.818529e+000,-5.539025e-006,5.973608e-006
1.819324e+000,-6.210422e-006,5.979073e-006
1.820118e+000,-8.224612e-006,5.988069e-006
1.820912e+000,-6.210422e-006,5.997891e-006
1.821706e+000,-4.867628e-006,6.001839e-006
1.822500e+000,-5.874723e-006,6.003072e-006
1.823294e+000,-2.853437e-006,6.000859e-006
1.824088e+000,-3.524834e-006,5.994876e-006
1.824882e+000,-8.392462e-007,5.994876e-006
1.825676e+000,-2.349889e-006,5.984810e-006
1.826471e+000,-8.392462e-007,5.980813e-006
1.827265e+000,-2.853437e-006,5.970160e-006
1.828059e+000,-4.196231e-006,5.958426e-006
1.828853e+000,-3.524834e-006,5.945039e-006
1.829647e+000,-4.196231e-006,5.935674e-006
1.830441e+000,-6.546120e-006,5.932166e-006
1.831235e+000,-6.210422e-006,5.933316e-006
1.832029e+000,-4.196231e-006,5.930329e-006
1.832824e+000,-3.189136e-006,5.927786e-006
1.833618e+000,-5.539025e-006,5.924152e-006
1.834412e+000,-7.385367e-006,5.929663e-006
1.835206e+000,-5.539025e-006,5.942813e-006
1.836000e+000,-7.049668e-006,5.935742e-006
1.836794e+000,-8.224612e-006,5.940842e-006
1.837588e+000,-6.881819e-006,5.958335e-006
1.838382e+000,-5.706874e-006,5.970370e-006
1.839176e+000,-5.539025e-006,5.978442e-006
1.839971e+000,-4.196231e-006,5.983303e-006
1.840765e+000,-7.217518e-006,5.984682e-006
1.841559e+000,-6.210422e-006,5.995826e-006
1.842353e+000,-5.706874e-006,6.002766e-006
1.843147e+000,-6.210422e-006,6.006733e-006
1.843941e+000,-6.881819e-006,6.007809e-006
1.844735e+000,-6.881819e-006,6.009578e-006
1.845529e+000,-4.867628e-006,6.018828e-006
1.846324e+000,-5.539025e-006,6.021153e-006
1.847118e+000,-5.203327e-006,6.019066e-006
1.847912e+000,-4.531929e-006,6.007584e-006
1.848706e+000,-5.035477e-006,5.997899e-006
1.849500e+000,-7.217518e-006,5.994390e-006
1.850294e+000,-6.881819e-006,5.995647e-006
1.851088e+000,-8.896010e-006,5.990257e-006
1.851882e+000,-7.553216e-006,6.003124e-006
1.852676e+000,-8.224612e-006,6.005695e-006
1.853471e+000,-1.023880e-005,6.005695e-006
1.854265e+000,-8.224612e-006,6.011705e-006
1.855059e+000,-4.867628e-006,6.013831e-006
1.855853e+000,-5.539025e-006,6.009891e-006
1.856647e+000,-6.881819e-006,6.009891e-006
1.857441e+000,-6.042573e-006,6.019141e-006
1.858235e+000,-8.224612e-006,6.016270e-006
1.859029e+000,-6.881819e-006,6.025033e-006
1.859824e+000,-5.203327e-006,6.031285e-006
1.860618e+000,-3.189136e-006,6.032177e-006
1.861412e+000,-4.531929e-006,6.029833e-006
1.862206e+000,-5.706874e-006,6.029000e-006
1.863000e+000,-5.539025e-006,6.035448e-006
1.863794e+000,-5.539025e-006,6.042083e-006
1.864588e+000,-6.210422e-006,6.047485e-006
1.865382e+000,-7.217518e-006,6.051401e-006
1.866176e+000,-5.539025e-006,6.057980e-006
1.866971e+000,-4.196231e-006,6.064590e-006
1.867765e+000,-4.867628e-006,6.066542e-006
1.868559e+000,-4.531929e-006,6.054995e-006
1.869353e+000,-1.846342e-006,6.047937e-006
1.870147e+000,-4.867628e-006,6.042594e-006
1.870941e+000,-8.224612e-006,6.034459e-006
1.871735e+000,-5.539025e-006,6.042126e-006
1.872529e+000,-4.196231e-006,6.037729e-006
1.873324e+000,-1.510643e-006,6.033270e-006
1.874118e+000,-3.524834e-006,6.020109e-006
1.874912e+000,-6.881819e-006,6.002436e-006
1.875706e+000,-7.888914e-006,5.998489e-006
1.876500e+000,-7.217518e-006,5.997053e-006
1.877294e+000,-7.217518e-006,6.001719e-006
1.878088e+000,-7.888914e-006,6.002975e-006
1.878882e+000,-4.867628e-006,6.011339e-006
1.879676e+000,-5.539025e-006,6.007397e-006
1.880471e+000,-4.531929e-006,6.011578e-006
1.881265e+000,-3.021286e-006,6.014860e-006
1.882059e+000,-3.524834e-006,6.013667e-006
1.882853e+000,-7.217518e-006,6.011518e-006
1.883647e+000,-6.546120e-006,6.017187e-006
1.884441e+000,-5.539025e-006,6.020407e-006
1.885235e+000,-6.881819e-006,6.025234e-006
1.886029e+000,-6.881819e-006,6.031485e-006
1.886824e+000,-6.042573e-006,6.035887e-006
1.887618e+000,-5.203327e-006,6.037425e-006
1.888412e+000,-6.378271e-006,6.029513e-006
1.889206e+000,-6.210422e-006,6.031143e-006
1.890000e+000,-5.539025e-006,6.034177e-006
1.890794e+000,-6.378271e-006,6.032095e-006
1.891588e+000,-4.196231e-006,6.026402e-006
1.892382e+000,-4.196231e-006,6.015971e-006
1.893176e+000,-5.035477e-006,6.005522e-006
1.893971e+000,-5.539025e-006,6.004110e-006
1.894765e+000,-6.546120e-006,5.999686e-006
1.895559e+000,-4.867628e-006,5.999686e-006
1.896353e+000,-5.203327e-006,5.996813e-006
1.897147e+000,-5.874723e-006,6.001838e-006
1.897941e+000,-4.867628e-006,6.005545e-006
1.898735e+000,-4.196231e-006,5.996694e-006
1.899529e+000,-5.539025e-006,5.991125e-006
1.900324e+000,-5.035477e-006,5.992982e-006
1.901118e+000,-6.881819e-006,5.989470e-006
1.901912e+000,-6.546120e-006,5.986893e-006
1.902706e+000,-4.196231e-006,5.991986e-006
1.903500e+000,-6.210422e-006,5.994501e-006
1.904294e+000,-7.217518e-006,6.002040e-006
1.905088e+000,-6.881819e-006,6.007718e-006
1.905882e+000,-6.210422e-006,6.011122e-006
1.906676e+000,-4.364080e-006,6.016672e-006
1.907471e+000,-2.853437e-006,6.016277e-006
1.908265e+000,-5.539025e-006,6.008218e-006
1.909059e+000,-5.706874e-006,6.015740e-006
1.909853e+000,-2.853437e-006,6.021070e-006
1.910647e+000,-6.881819e-006,6.015106e-006
1.911441e+000,-8.896010e-006,6.021368e-006
1.912235e+000,-6.881819e-006,6.033158e-006
1.913029e+000,-7.888914e-006,6.030599e-006
1.913824e+000,-1.040665e-005,6.043418e-006
1.914618e+000,-8.224612e-006,6.069219e-006
1.915412e+000,-6.042573e-006,6.073925e-006
1.916206e+000,-4.196231e-006,6.071081e-006
1.917000e+000,-6.881819e-006,6.062659e-006
1.917794e+000,-7.217518e-006,6.057329e-006
1.918588e+000,-8.224612e-006,6.045230e-006
1.919382e+000,-9.567407e-006,6.050570e-006
1.920176e+000,-6.881819e-006,6.058277e-006
1.920971e+000,-4.531929e-006,6.055729e-006
1.921765e+000,-3.524834e-006,6.053061e-006
1.922559e+000,-3.524834e-006,6.038517e-006
1.923353e+000,-2.182040e-006,6.031619e-006
1.924147e+000,-6.881819e-006,6.017799e-006
1.924941e+000,-6.881819e-006,6.010936e-006
1.925735e+000,-3.692683e-006,6.008368e-006
1.926529e+000,-2.349889e-006,6.005702e-006
1.927324e+000,-4.531929e-006,6.005702e-006
1.928118e+000,-5.539025e-006,6.008726e-006
1.928912e+000,-2.853437e-006,6.014697e-006
1.929706e+000,-2.517739e-006,6.016248e-006
1.930500e+000,-2.853437e-006,6.017180e-006
1.931294e+000,-4.196231e-006,6.014674e-006
1.932088e+000,-3.524834e-006,6.006792e-006
1.932882e+000,-5.539025e-006,5.996268e-006
1.933676e+000,-4.867628e-006,5.997225e-006
1.934471e+000,-4.196231e-006,5.986983e-006
1.935265e+000,-6.210422e-006,5.986204e-006
1.936059e+000,-6.881819e-006,5.989261e-006
1.936853e+000,-7.217518e-006,5.990459e-006
1.937647e+000,-6.378271e-006,5.983266e-006
1.938441e+000,-9.231709e-006,5.983828e-006
1.939235e+000,-8.896010e-006,5.997307e-006
1.940029e+000,-7.553216e-006,6.005739e-006
1.940824e+000,-3.860533e-006,6.012727e-006
1.941618e+000,-5.539025e-006,6.015927e-006
1.942412e+000,-6.546120e-006,6.023439e-006
1.943206e+000,-5.539025e-006,6.025643e-006
1.944000e+000,-4.531929e-006,6.027489e-006
1.944794e+000,-4.867628e-006,6.022724e-006
1.945588e+000,-6.210422e-006,6.011093e-006
1.946382e+000,-6.881819e-006,6.014137e-006
1.947176e+000,-3.189136e-006,6.019505e-006
1.947971e+000,-3.356985e-006,6.014077e-006
1.948765e+000,-6.881819e-006,6.004514e-006
1.949559e+000,-7.553216e-006,6.007920e-006
1.950353e+000,-6.881819e-006,6.021563e-006
1.951147e+000,-4.364080e-006,6.030793e-006
1.951941e+000,-5.874723e-006,6.029566e-006
1.952735e+000,-4.196231e-006,6.034029e-006
1.953529e+000,-4.867628e-006,6.037931e-006
1.954324e+000,-4.531929e-006,6.040248e-006
1.955118e+000,-6.210422e-006,6.014227e-006
1.955912e+000,-4.196231e-006,5.999327e-006
1.956706e+000,-5.203327e-006,5.994839e-006
1.957500e+000,-7.049668e-006,5.985492e-006
1.958294e+000,-6.881819e-006,5.985492e-006
1.959088e+000,-6.210422e-006,5.980093e-006
1.959882e+000,-7.553216e-006,5.967657e-006
1.960676e+000,-8.560311e-006,5.974186e-006
1.961471e+000,-6.210422e-006,5.983431e-006
1.962265e+000,-4.531929e-006,5.987388e-006
1.963059e+000,-8.896010e-006,5.988167e-006
1.963853e+000,-8.896010e-006,6.001996e-006
1.964647e+000,-9.567407e-006,6.014339e-006
1.965441e+000,-6.881819e-006,6.010817e-006
1.966235e+000,-5.539025e-006,6.002392e-006
1.967029e+000,-6.881819e-006,5.992578e-006
1.967824e+000,-5.874723e-006,5.996507e-006
1.968618e+000,-4.196231e-006,5.997525e-006
1.969412e+000,-3.189136e-006,5.989621e-006
1.970206e+000,-3.356985e-006,5.984165e-006
1.971000e+000,-3.860533e-006,5.983198e-006
1.971794e+000,-2.853437e-006,5.983858e-006
1.972588e+000,-4.196231e-006,5.975192e-006
1.973382e+000,-9.567407e-006,5.975192e-006
1.974176e+000,-8.392462e-006,5.993244e-006
1.974971e+000,-7.721065e-006,6.005650e-006
1.975765e+000,-8.896010e-006,6.018149e-006
1.976559e+000,-5.539025e-006,6.032802e-006
1.977353e+000,-6.881819e-006,6.032304e-006
1.978147e+000,-4.196231e-006,6.025458e-006
1.978941e+000,-4.196231e-006,6.026172e-006
1.979735e+000,-6.210422e-006,6.028673e-006
1.980529e+000,-8.728161e-006,6.034207e-006
1.981324e+000,-5.874723e-006,6.054010e-006
1.982118e+000,-4.196231e-006,6.059166e-006
1.982912e+000,-5.539025e-006,6.042973e-006
1.983706e+000,-4.531929e-006,6.024303e-006
1.984500e+000,-1.174945e-006,6.005508e-006
1.985294e+000,-1.510643e-006,5.992047e-006
1.986088e+000,-1.678492e-007,5.976791e-006
1.986882e+000,-2.853437e-006,5.958004e-006
1.987676e+000,-2.853437e-006,5.953847e-006
1.988471e+000,-5.874723e-006,5.955112e-006
1.989265e+000,-7.217518e-006,5.955112e-006
1.990059e+000,-7.888914e-006,5.953786e-006
1.990853e+000,-8.224612e-006,5.960112e-006
1.991647e+000,-8.224612e-006,5.969980e-006
1.992441e+000,-9.063859e-006,5.983311e-006
1.993235e+000,-5.874723e-006,6.003871e-006
1.994029e+000,-4.867628e-006,6.012832e-006
1.994824e+000,-6.881819e-006,6.017843e-006
1.995618e+000,-7.553216e-006,6.029461e-006
1.996412e+000,-8.560311e-006,6.043908e-006
1.997206e+000,-7.553216e-006,6.058558e-006
1.998000e+000,-4.531929e-006,6.072640e-006
1.998794e+000,-6.546120e-006,6.076776e-006
1.999588e+000,-8.224612e-006,6.084095e-006
2.000382e+000,-6.881819e-006,6.095587e-006
2.001176e+000,-7.217518e-006,6.101766e-006
2.001971e+000,-2.517739e-006,6.107351e-006
2.002765e+000,-3.021286e-006,6.096647e-006
2.003559e+000,-4.531929e-006,6.091015e-006
2.004353e+000,-4.867628e-006,6.083999e-006
2.005147e+000,-4.196231e-006,6.072485e-006
2.005941e+000,-6.881819e-006,6.056328e-006
2.006735e+000,-9.567407e-006,6.039356e-006
2.007529e+000,-6.210422e-006,6.048442e-006
2.008324e+000,-6.210422e-006,6.056188e-006
2.009118e+000,-6.378271e-006,6.064183e-006
2.009912e+000,-7.553216e-006,6.066809e-006
2.010706e+000,-8.224612e-006,6.077152e-006
2.011500e+000,-8.560311e-006,6.083645e-006
2.012294e+000,-5.539025e-006,6.085120e-006
2.013088e+000,-8.896010e-006,6.079514e-006
2.013882e+000,-6.210422e-006,6.087832e-006
2.014676e+000,-6.881819e-006,6.091722e-006
2.015471e+000,-8.560311e-006,6.098729e-006
2.016265e+000,-6.378271e-006,6.112484e-006
2.017059e+000,-2.853437e-006,6.116908e-006
2.017853e+000,-4.699779e-006,6.112858e-006
2.018647e+000,-6.378271e-006,6.105037e-006
2.019441e+000,-6.210422e-006,6.094998e-006
2.020235e+000,-3.524834e-006,6.089498e-006
2.021029e+000,-4.531929e-006,6.075041e-006
2.021824e+000,-6.881819e-006,6.061201e-006
2.022618e+000,-7.553216e-006,6.057292e-006
2.023412e+000,-4.531929e-006,6.059839e-006
2.024206e+000,-4.364080e-006,6.055099e-006
2.025000e+000,-6.881819e-006,6.045097e-006
2.025794e+000,-4.867628e-006,6.039751e-006
2.026588e+000,-2.182040e-006,6.030273e-006
2.027382e+000,-2.349889e-006,6.023424e-006
2.028176e+000,-3.692683e-006,6.020228e-006
2.028971e+000,-4.364080e-006,6.019893e-006
2.029765e+000,-5.035477e-006,6.016814e-006
2.030559e+000,-5.539025e-006,6.012757e-006
2.031353e+000,-5.874723e-006,5.999110e-006
2.032147e+000,-3.356985e-006,5.993124e-006
2.032941e+000,-6.210422e-006,5.993955e-006
2.033735e+000,-3.524834e-006,6.001495e-006
2.034529e+000,-1.510643e-006,6.001495e-006
2.035324e+000,-2.182040e-006,5.995811e-006
2.036118e+000,-2.349889e-006,5.986826e-006
2.036912e+000,-4.196231e-006,5.981091e-006
2.037706e+000,-3.524834e-006,5.972542e-006
2.038500e+000,-3.524834e-006,5.965567e-006
2.039294e+000,-2.182040e-006,5.957439e-006
2.040088e+000,-6.210422e-006,5.951472e-006
2.040882e+000,-7.553216e-006,5.950326e-006
2.041676e+000,-4.867628e-006,5.956354e-006
2.042471e+000,-2.182040e-006,5.951231e-006
2.043265e+000,-9.567407e-006,5.942178e-006
2.044059e+000,-1.292439e-005,5.963340e-006
2.044853e+000,-6.881819e-006,5.997547e-006
2.045647e+000,-4.196231e-006,5.997547e-006
2.046441e+000,-5.203327e-006,5.987065e-006
2.047235e+000,-7.049668e-006,5.969896e-006
2.048029e+000,-4.196231e-006,5.960413e-006
2.048824e+000,-8.728161e-006,5.955895e-006
2.049618e+000,-9.231709e-006,5.968048e-006
2.050412e+000,-5.539025e-006,5.977519e-006
2.051206e+000,-3.524834e-006,5.961286e-006
2.052000e+000,-4.196231e-006,5.958275e-006
2.052794e+000,-4.196231e-006,5.962068e-006
2.053588e+000,-3.524834e-006,5.963129e-006
2.054382e+000,-5.539025e-006,5.962467e-006
2.055176e+000,-8.224612e-006,5.965958e-006
2.055971e+000,-7.888914e-006,5.975815e-006
2.056765e+000,-7.553216e-006,5.990212e-006
2.057559e+000,-6.881819e-006,6.000687e-006
2.058353e+000,-3.524834e-006,6.000688e-006
2.059147e+000,-5.539025e-006,6.002721e-006
2.059941e+000,-8.896010e-006,6.006905e-006
2.060735e+000,-6.881819e-006,6.025160e-006
2.061529e+000,-5.706874e-006,6.035515e-006
2.062324e+000,-5.539025e-006,6.034475e-006
2.063118e+000,-7.217518e-006,6.027512e-006
2.063912e+000,-6.881819e-006,6.026202e-006
2.064706e+000,-6.881819e-006,6.024951e-006
2.065500e+000,-9.903105e-006,6.028346e-006
2.066294e+000,-8.224612e-006,6.047960e-006
2.067088e+000,-9.735256e-006,6.050749e-006
2.067882e+000,-8.896010e-006,6.063214e-006
2.068676e+000,-5.874723e-006,6.075927e-006
2.069471e+000,-5.874723e-006,6.074864e-006
2.070265e+000,-5.539025e-006,6.066173e-006
2.071059e+000,-6.546120e-006,6.064102e-006
2.071853e+000,-4.867628e-006,6.069130e-006
2.072647e+000,-4.867628e-006,6.066291e-006
2.073441e+000,-5.539025e-006,6.070372e-006
2.074235e+000,-1.846342e-006,6.075159e-006
2.075029e+000,-3.860533e-006,6.075868e-006
2.075824e+000,-3.189136e-006,6.078326e-006
2.076618e+000,-3.524834e-006,6.080806e-006
2.077412e+000,-5.874723e-006,6.081927e-006
2.078206e+000,-7.553216e-006,6.086351e-006
2.079000e+000,-4.531929e-006,6.098015e-006
2.079794e+000,-6.881819e-006,6.098780e-006
2.080588e+000,-7.888914e-006,6.099957e-006
2.081382e+000,-7.553216e-006,6.106132e-006
2.082176e+000,-5.539025e-006,6.116409e-006
2.082971e+000,-4.196231e-006,6.121747e-006
2.083765e+000,-4.867628e-006,6.118345e-006
2.084559e+000,-4.867628e-006,6.110311e-006
2.085353e+000,-5.539025e-006,6.108490e-006
2.086147e+000,-8.392462e-007,6.103530e-006
2.086941e+000,-1.510643e-006,6.086041e-006
2.087735e+000,-2.853437e-006,6.074235e-006
2.088529e+000,-2.853437e-006,6.067829e-006
2.089324e+000,-5.203327e-006,6.061911e-006
2.090118e+000,-5.539025e-006,6.064397e-006
2.090912e+000,-6.881819e-006,6.058773e-006
2.091706e+000,-4.867628e-006,6.061082e-006
2.092500e+000,-4.196231e-006,6.058750e-006
2.093294e+000,-2.853437e-006,6.053239e-006
2.094088e+000,-4.867628e-006,6.042914e-006
2.094882e+000,-8.560311e-006,6.036674e-006
2.095676e+000,-6.881819e-006,6.049740e-006
2.096471e+000,-6.210422e-006,6.054128e-006
2.097265e+000,-7.553216e-006,6.057151e-006
2.098059e+000,-8.224612e-006,6.066742e-006
2.098853e+000,-8.560311e-006,6.077832e-006
2.099647e+000,-7.553216e-006,6.083380e-006
2.100441e+000,-6.881819e-006,6.085916e-006
2.101235e+000,-8.560311e-006,6.077595e-006
2.102029e+000,-5.874723e-006,6.081845e-006
2.102824e+000,-5.874723e-006,6.073165e-006
2.103618e+000,-4.196231e-006,6.054699e-006
2.104412e+000,-2.182040e-006,6.041525e-006
2.105206e+000,-5.035477e-006,6.036533e-006
2.106000e+000,-5.035477e-006,6.035129e-006
2.106794e+000,-2.349889e-006,6.029320e-006
2.107588e+000,-5.539025e-006,6.021130e-006
2.108382e+000,-6.210422e-006,6.011347e-006
2.109176e+000,-4.196231e-006,6.009018e-006
2.109971e+000,-4.364080e-006,6.006509e-006
2.110765e+000,-7.553216e-006,6.008861e-006
2.111559e+000,-5.874723e-006,6.018529e-006
2.112353e+000,-4.196231e-006,6.019044e-006
2.113147e+000,-4.196231e-006,6.015584e-006
2.113941e+000,-3.860533e-006,6.012123e-006
2.114735e+000,-2.853437e-006,6.005852e-006
2.115529e+000,-4.196231e-006,5.994188e-006
2.116324e+000,-6.210422e-006,5.990714e-006
2.117118e+000,-4.867628e-006,5.996283e-006
2.117912e+000,-6.210422e-006,5.996283e-006
2.118706e+000,-7.553216e-006,6.001069e-006
2.119500e+000,-8.224612e-006,6.015286e-006
2.120294e+000,-7.217518e-006,6.026909e-006
2.121088e+000,-4.531929e-006,6.022799e-006
2.121882e+000,-7.217518e-006,6.020117e-006
2.122676e+000,-4.867628e-006,6.029231e-006
2.123471e+000,-6.881819e-006,6.034884e-006
2.124265e+000,-9.567407e-006,6.044094e-006
2.125059e+000,-7.888914e-006,6.055722e-006
2.125853e+000,-6.210422e-006,6.055722e-006
2.126647e+000,-5.539025e-006,6.052165e-006
2.127441e+000,-7.553216e-006,6.046529e-006
2.128235e+000,-6.546120e-006,6.045163e-006
2.129029e+000,-6.881819e-006,6.050208e-006
2.129824e+000,-7.217518e-006,6.054596e-006
2.130618e+000,-6.378271e-006,6.062889e-006
2.131412e+000,-4.531929e-006,6.071170e-006
2.132206e+000,-4.867628e-006,6.073298e-006
2.133000e+000,-4.196231e-006,6.065848e-006
2.133794e+000,-2.182040e-006,6.059217e-006
2.134588e+000,-4.531929e-006,6.052402e-006
2.135382e+000,-3.524834e-006,6.045341e-006
2.136176e+000,-2.182040e-006,6.036132e-006
2.136971e+000,-6.881819e-006,6.027750e-006
2.137765e+000,-8.392462e-006,6.033107e-006
2.138559e+000,-7.217518e-006,6.040954e-006
2.139353e+000,-4.867628e-006,6.044518e-006
2.140147e+000,-4.196231e-006,6.042677e-006
2.140941e+000,-4.196231e-006,6.036593e-006
2.141735e+000,-4.196231e-006,6.036593e-006
2.142529e+000,-5.874723e-006,6.036593e-006
2.143324e+000,-8.224612e-006,6.039008e-006
2.144118e+000,-8.896010e-006,6.048747e-006
2.144912e+000,-4.867628e-006,6.058292e-006
2.145706e+000,-3.189136e-006,6.058292e-006
2.146500e+000,-4.531929e-006,6.053847e-006
2.147294e+000,-6.881819e-006,6.050171e-006
2.148088e+000,-9.735256e-006,6.056396e-006
2.148882e+000,-9.567407e-006,6.076651e-006
2.149676e+000,-9.903105e-006,6.092577e-006
2.150471e+000,-5.203327e-006,6.111552e-006
2.151265e+000,-6.881819e-006,6.106265e-006
2.152059e+000,-8.560311e-006,6.107440e-006
2.152853e+000,-8.224612e-006,6.121937e-006
2.153647e+000,-1.023880e-005,6.129495e-006
2.154441e+000,-1.225299e-005,6.143181e-006
2.155235e+000,-1.023880e-005,6.169764e-006
2.156029e+000,-6.881819e-006,6.186842e-006
2.156824e+000,-6.881819e-006,6.194125e-006
2.157618e+000,-4.867628e-006,6.204199e-006
2.158412e+000,-2.853437e-006,6.202406e-006
2.159206e+000,-2.853437e-006,6.196131e-006
2.160000e+000,-2.182040e-006,6.196131e-006
2.160794e+000,-2.182040e-006,6.185174e-006
2.161588e+000,-4.867628e-006,6.165996e-006
2.162382e+000,-4.196231e-006,6.159881e-006
2.163176e+000,-1.510643e-006,6.148334e-006
2.163971e+000,-2.853437e-006,6.120816e-006
2.164765e+000,-4.196231e-006,6.105316e-006
