X [s],L DELTOID ANTERIOR: EMG 3 [V],L DELTOID ANTERIOR: EMG 3->filter (FilterSlidingRMS75) [V]
0.000000e+000,0.000000e+000,0.000000e+000
7.941176e-004,0.000000e+000,0.000000e+000
1.588235e-003,0.000000e+000,0.000000e+000
2.382353e-003,0.000000e+000,0.000000e+000
3.176471e-003,0.000000e+000,0.000000e+000
3.970588e-003,0.000000e+000,0.000000e+000
4.764706e-003,0.000000e+000,0.000000e+000
5.558824e-003,0.000000e+000,0.000000e+000
6.352941e-003,0.000000e+000,0.000000e+000
7.147059e-003,0.000000e+000,0.000000e+000
7.941176e-003,0.000000e+000,0.000000e+000
8.735294e-003,0.000000e+000,0.000000e+000
9.529412e-003,0.000000e+000,0.000000e+000
1.032353e-002,0.000000e+000,0.000000e+000
1.111765e-002,0.000000e+000,0.000000e+000
1.191176e-002,0.000000e+000,0.000000e+000
1.270588e-002,0.000000e+000,0.000000e+000
1.350000e-002,0.000000e+000,0.000000e+000
1.429412e-002,0.000000e+000,0.000000e+000
1.508824e-002,0.000000e+000,0.000000e+000
1.588235e-002,0.000000e+000,0.000000e+000
1.667647e-002,0.000000e+000,0.000000e+000
1.747059e-002,0.000000e+000,0.000000e+000
1.826471e-002,0.000000e+000,0.000000e+000
1.905882e-002,0.000000e+000,0.000000e+000
1.985294e-002,0.000000e+000,0.000000e+000
2.064706e-002,0.000000e+000,0.000000e+000
2.144118e-002,0.000000e+000,0.000000e+000
2.223529e-002,0.000000e+000,0.000000e+000
2.302941e-002,0.000000e+000,0.000000e+000
2.382353e-002,0.000000e+000,0.000000e+000
2.461765e-002,0.000000e+000,0.000000e+000
2.541176e-002,0.000000e+000,0.000000e+000
2.620588e-002,0.000000e+000,0.000000e+000
2.700000e-002,0.000000e+000,0.000000e+000
2.779412e-002,0.000000e+000,0.000000e+000
2.858824e-002,0.000000e+000,0.000000e+000
2.938235e-002,0.000000e+000,0.000000e+000
3.017647e-002,0.000000e+000,0.000000e+000
3.097059e-002,0.000000e+000,0.000000e+000
3.176471e-002,0.000000e+000,0.000000e+000
3.255882e-002,0.000000e+000,0.000000e+000
3.335294e-002,0.000000e+000,0.000000e+000
3.414706e-002,0.000000e+000,0.000000e+000
3.494118e-002,0.000000e+000,0.000000e+000
3.573529e-002,0.000000e+000,0.000000e+000
3.652941e-002,0.000000e+000,0.000000e+000
3.732353e-002,0.000000e+000,0.000000e+000
3.811765e-002,0.000000e+000,0.000000e+000
3.891176e-002,0.000000e+000,0.000000e+000
3.970588e-002,0.000000e+000,0.000000e+000
4.050000e-002,0.000000e+000,0.000000e+000
4.129412e-002,0.000000e+000,0.000000e+000
4.208824e-002,0.000000e+000,0.000000e+000
4.288235e-002,0.000000e+000,0.000000e+000
4.367647e-002,0.000000e+000,0.000000e+000
4.447059e-002,0.000000e+000,0.000000e+000
4.526471e-002,0.000000e+000,0.000000e+000
4.605882e-002,0.000000e+000,0.000000e+000
4.685294e-002,0.000000e+000,0.000000e+000
4.764706e-002,0.000000e+000,0.000000e+000
4.844118e-002,0.000000e+000,0.000000e+000
4.923529e-002,0.000000e+000,0.000000e+000
5.002941e-002,0.000000e+000,0.000000e+000
5.082353e-002,0.000000e+000,0.000000e+000
5.161765e-002,0.000000e+000,0.000000e+000
5.241176e-002,0.000000e+000,0.000000e+000
5.320588e-002,0.000000e+000,0.000000e+000
5.400000e-002,0.000000e+000,0.000000e+000
5.479412e-002,0.000000e+000,0.000000e+000
5.558824e-002,0.000000e+000,0.000000e+000
5.638235e-002,0.000000e+000,0.000000e+000
5.717647e-002,0.000000e+000,0.000000e+000
5.797059e-002,0.000000e+000,0.000000e+000
5.876471e-002,0.000000e+000,0.000000e+000
5.955882e-002,0.000000e+000,0.000000e+000
6.035294e-002,0.000000e+000,0.000000e+000
6.114706e-002,0.000000e+000,0.000000e+000
6.194118e-002,0.000000e+000,0.000000e+000
6.273529e-002,0.000000e+000,0.000000e+000
6.352941e-002,0.000000e+000,0.000000e+000
6.432353e-002,0.000000e+000,0.000000e+000
6.511765e-002,0.000000e+000,0.000000e+000
6.591176e-002,0.000000e+000,0.000000e+000
6.670588e-002,0.000000e+000,0.000000e+000
6.750000e-002,0.000000e+000,0.000000e+000
6.829412e-002,0.000000e+000,0.000000e+000
6.908824e-002,0.000000e+000,0.000000e+000
6.988235e-002,0.000000e+000,0.000000e+000
7.067647e-002,0.000000e+000,0.000000e+000
7.147059e-002,0.000000e+000,0.000000e+000
7.226471e-002,0.000000e+000,0.000000e+000
7.305882e-002,0.000000e+000,0.000000e+000
7.385294e-002,0.000000e+000,0.000000e+000
7.464706e-002,0.000000e+000,0.000000e+000
7.544118e-002,0.000000e+000,0.000000e+000
7.623529e-002,0.000000e+000,0.000000e+000
7.702941e-002,0.000000e+000,0.000000e+000
7.782353e-002,0.000000e+000,0.000000e+000
7.861765e-002,0.000000e+000,0.000000e+000
7.941176e-002,0.000000e+000,0.000000e+000
8.020588e-002,0.000000e+000,0.000000e+000
8.100000e-002,0.000000e+000,0.000000e+000
8.179412e-002,0.000000e+000,0.000000e+000
8.258824e-002,0.000000e+000,0.000000e+000
8.338235e-002,0.000000e+000,0.000000e+000
8.417647e-002,0.000000e+000,0.000000e+000
8.497059e-002,0.000000e+000,0.000000e+000
8.576471e-002,0.000000e+000,0.000000e+000
8.655882e-002,0.000000e+000,0.000000e+000
8.735294e-002,0.000000e+000,0.000000e+000
8.814706e-002,0.000000e+000,0.000000e+000
8.894118e-002,0.000000e+000,0.000000e+000
8.973529e-002,0.000000e+000,0.000000e+000
9.052941e-002,0.000000e+000,0.000000e+000
9.132353e-002,0.000000e+000,0.000000e+000
9.211765e-002,0.000000e+000,0.000000e+000
9.291176e-002,0.000000e+000,0.000000e+000
9.370588e-002,0.000000e+000,0.000000e+000
9.450000e-002,-1.359579e-005,0.000000e+000
9.529412e-002,-5.706874e-006,0.000000e+000
9.608824e-002,-7.888914e-006,0.000000e+000
9.688235e-002,-6.881819e-006,0.000000e+000
9.767647e-002,-5.539025e-006,0.000000e+000
9.847059e-002,-6.210422e-006,0.000000e+000
9.926471e-002,-5.706874e-006,0.000000e+000
1.000588e-001,-6.881819e-006,0.000000e+000
1.008529e-001,-8.224612e-006,0.000000e+000
1.016471e-001,-7.553216e-006,0.000000e+000
1.024412e-001,-6.210422e-006,0.000000e+000
1.032353e-001,-4.196231e-006,0.000000e+000
1.040294e-001,-1.510643e-006,0.000000e+000
1.048235e-001,-1.510643e-006,0.000000e+000
1.056176e-001,-3.021286e-006,0.000000e+000
1.064118e-001,-1.510643e-006,0.000000e+000
1.072059e-001,-3.356985e-007,0.000000e+000
1.080000e-001,-1.510643e-006,0.000000e+000
1.087941e-001,-2.182040e-006,0.000000e+000
1.095882e-001,-8.392462e-007,0.000000e+000
1.103824e-001,-4.196231e-006,0.000000e+000
1.111765e-001,-5.874723e-006,0.000000e+000
1.119706e-001,-3.692683e-006,0.000000e+000
1.127647e-001,-5.539025e-006,0.000000e+000
1.135588e-001,-4.867628e-006,0.000000e+000
1.143529e-001,-4.196231e-006,0.000000e+000
1.151471e-001,-6.881819e-006,0.000000e+000
1.159412e-001,-5.539025e-006,0.000000e+000
1.167353e-001,-8.224612e-006,0.000000e+000
1.175294e-001,-7.553216e-006,0.000000e+000
1.183235e-001,-7.049668e-006,0.000000e+000
1.191176e-001,-7.553216e-006,0.000000e+000
1.199118e-001,-9.567407e-006,0.000000e+000
1.207059e-001,-8.896010e-006,0.000000e+000
1.215000e-001,-7.217518e-006,0.000000e+000
1.222941e-001,-6.881819e-006,0.000000e+000
1.230882e-001,-7.553216e-006,0.000000e+000
1.238824e-001,-8.560311e-006,0.000000e+000
1.246765e-001,-4.531929e-006,0.000000e+000
1.254706e-001,-2.182040e-006,0.000000e+000
1.262647e-001,-2.182040e-006,0.000000e+000
1.270588e-001,-5.874723e-006,0.000000e+000
1.278529e-001,-5.539025e-006,0.000000e+000
1.286471e-001,-2.853437e-006,0.000000e+000
1.294412e-001,-2.517739e-006,0.000000e+000
1.302353e-001,-3.021286e-006,0.000000e+000
1.310294e-001,-3.189136e-006,0.000000e+000
1.318235e-001,-5.539025e-006,0.000000e+000
1.326176e-001,-8.224612e-006,0.000000e+000
1.334118e-001,-1.023880e-005,0.000000e+000
1.342059e-001,-7.888914e-006,0.000000e+000
1.350000e-001,-9.735256e-006,0.000000e+000
1.357941e-001,-7.553216e-006,0.000000e+000
1.365882e-001,-6.210422e-006,0.000000e+000
1.373824e-001,-4.196231e-006,0.000000e+000
1.381765e-001,-5.539025e-006,0.000000e+000
1.389706e-001,-4.196231e-006,0.000000e+000
1.397647e-001,-4.531929e-006,0.000000e+000
1.405588e-001,-8.392462e-007,0.000000e+000
1.413529e-001,1.007095e-006,0.000000e+000
1.421471e-001,-8.392462e-007,0.000000e+000
1.429412e-001,-5.035477e-007,0.000000e+000
1.437353e-001,1.007095e-006,0.000000e+000
1.445294e-001,-8.392462e-007,0.000000e+000
1.453235e-001,1.174945e-006,0.000000e+000
1.461176e-001,5.035477e-007,0.000000e+000
1.469118e-001,-1.510643e-006,0.000000e+000
1.477059e-001,-4.196231e-006,0.000000e+000
1.485000e-001,-5.035477e-006,0.000000e+000
1.492941e-001,-6.210422e-006,0.000000e+000
1.500882e-001,-1.023880e-005,0.000000e+000
1.508824e-001,-9.231709e-006,0.000000e+000
1.516765e-001,-1.057450e-005,0.000000e+000
1.524706e-001,-9.567407e-006,0.000000e+000
1.532647e-001,-9.903105e-006,0.000000e+000
1.540588e-001,-8.560311e-006,0.000000e+000
1.548529e-001,-8.224612e-006,0.000000e+000
1.556471e-001,-6.881819e-006,0.000000e+000
1.564412e-001,-5.874723e-006,0.000000e+000
1.572353e-001,-7.553216e-006,0.000000e+000
1.580294e-001,-6.881819e-006,0.000000e+000
1.588235e-001,-4.867628e-006,0.000000e+000
1.596176e-001,-4.196231e-006,0.000000e+000
1.604118e-001,-7.217518e-006,0.000000e+000
1.612059e-001,-7.721065e-006,0.000000e+000
1.620000e-001,-6.210422e-006,0.000000e+000
1.627941e-001,-8.896010e-006,0.000000e+000
1.635882e-001,-9.231709e-006,0.000000e+000
1.643824e-001,-7.888914e-006,0.000000e+000
1.651765e-001,-6.210422e-006,0.000000e+000
1.659706e-001,-4.196231e-006,0.000000e+000
1.667647e-001,-5.874723e-006,0.000000e+000
1.675588e-001,-5.539025e-006,0.000000e+000
1.683529e-001,-4.867628e-006,0.000000e+000
1.691471e-001,-4.196231e-006,0.000000e+000
1.699412e-001,-6.881819e-006,0.000000e+000
1.707353e-001,-6.210422e-006,0.000000e+000
1.715294e-001,-3.860533e-006,0.000000e+000
1.723235e-001,-5.203327e-006,0.000000e+000
1.731176e-001,-5.874723e-006,0.000000e+000
1.739118e-001,-4.196231e-006,0.000000e+000
1.747059e-001,-3.524834e-006,0.000000e+000
1.755000e-001,-5.539025e-006,0.000000e+000
1.762941e-001,-3.860533e-006,0.000000e+000
1.770882e-001,-5.203327e-006,0.000000e+000
1.778824e-001,-5.539025e-006,0.000000e+000
1.786765e-001,-5.874723e-006,0.000000e+000
1.794706e-001,-7.721065e-006,0.000000e+000
1.802647e-001,-7.553216e-006,0.000000e+000
1.810588e-001,-6.881819e-006,0.000000e+000
1.818529e-001,-3.692683e-006,0.000000e+000
1.826471e-001,-5.539025e-006,0.000000e+000
1.834412e-001,-4.196231e-006,0.000000e+000
1.842353e-001,-1.678492e-006,0.000000e+000
1.850294e-001,-4.196231e-006,0.000000e+000
1.858235e-001,-5.203327e-006,0.000000e+000
1.866176e-001,-5.706874e-006,0.000000e+000
1.874118e-001,-7.553216e-006,0.000000e+000
1.882059e-001,-8.896010e-006,0.000000e+000
1.890000e-001,-8.224612e-006,0.000000e+000
1.897941e-001,-5.874723e-006,0.000000e+000
1.905882e-001,-6.881819e-006,0.000000e+000
1.913824e-001,-2.853437e-006,0.000000e+000
1.921765e-001,-4.867628e-006,0.000000e+000
1.929706e-001,-7.553216e-006,0.000000e+000
1.937647e-001,-8.896010e-006,0.000000e+000
1.945588e-001,-1.141375e-005,0.000000e+000
1.953529e-001,-8.224612e-006,0.000000e+000
1.961471e-001,-2.517739e-006,0.000000e+000
1.969412e-001,-3.860533e-006,0.000000e+000
1.977353e-001,-5.874723e-006,0.000000e+000
1.985294e-001,-7.553216e-006,0.000000e+000
1.993235e-001,-8.224612e-006,0.000000e+000
2.001176e-001,-9.903105e-006,0.000000e+000
2.009118e-001,-7.217518e-006,0.000000e+000
2.017059e-001,-7.553216e-006,0.000000e+000
2.025000e-001,-7.553216e-006,0.000000e+000
2.032941e-001,-6.881819e-006,0.000000e+000
2.040882e-001,-6.546120e-006,0.000000e+000
2.048824e-001,-6.881819e-006,0.000000e+000
2.056765e-001,-6.210422e-006,0.000000e+000
2.064706e-001,-3.860533e-006,0.000000e+000
2.072647e-001,-2.853437e-006,0.000000e+000
2.080588e-001,-1.846342e-006,0.000000e+000
2.088529e-001,-3.524834e-006,0.000000e+000
2.096471e-001,-1.510643e-006,0.000000e+000
2.104412e-001,-3.692683e-006,0.000000e+000
2.112353e-001,-3.692683e-006,0.000000e+000
2.120294e-001,-1.007095e-006,0.000000e+000
2.128235e-001,-3.021286e-006,0.000000e+000
2.136176e-001,-4.867628e-006,0.000000e+000
2.144118e-001,-1.678492e-006,0.000000e+000
2.152059e-001,-3.189136e-006,0.000000e+000
2.160000e-001,-5.539025e-006,0.000000e+000
2.167941e-001,-8.224612e-006,0.000000e+000
2.175882e-001,-8.224612e-006,0.000000e+000
2.183824e-001,-7.721065e-006,0.000000e+000
2.191765e-001,-6.881819e-006,0.000000e+000
2.199706e-001,-5.539025e-006,0.000000e+000
2.207647e-001,-6.378271e-006,0.000000e+000
2.215588e-001,-5.539025e-006,0.000000e+000
2.223529e-001,-4.867628e-006,0.000000e+000
2.231471e-001,-3.524834e-006,0.000000e+000
2.239412e-001,-5.203327e-006,0.000000e+000
2.247353e-001,-4.196231e-006,0.000000e+000
2.255294e-001,-3.524834e-006,0.000000e+000
2.263235e-001,-2.182040e-006,0.000000e+000
2.271176e-001,-8.392462e-007,0.000000e+000
2.279118e-001,-1.678492e-007,0.000000e+000
2.287059e-001,-2.853437e-006,0.000000e+000
2.295000e-001,-2.853437e-006,0.000000e+000
2.302941e-001,-3.524834e-006,0.000000e+000
2.310882e-001,-5.706874e-006,0.000000e+000
2.318824e-001,-3.524834e-006,0.000000e+000
2.326765e-001,-6.210422e-006,0.000000e+000
2.334706e-001,-5.539025e-006,0.000000e+000
2.342647e-001,-4.867628e-006,0.000000e+000
2.350588e-001,-6.546120e-006,0.000000e+000
2.358529e-001,-9.231709e-006,0.000000e+000
2.366471e-001,-8.224612e-006,0.000000e+000
2.374412e-001,-6.881819e-006,0.000000e+000
2.382353e-001,-6.210422e-006,0.000000e+000
2.390294e-001,-8.224612e-006,0.000000e+000
2.398235e-001,-1.124590e-005,0.000000e+000
2.406176e-001,-8.224612e-006,0.000000e+000
2.414118e-001,-6.881819e-006,0.000000e+000
2.422059e-001,-5.539025e-006,0.000000e+000
2.430000e-001,-3.524834e-006,0.000000e+000
2.437941e-001,-2.182040e-006,0.000000e+000
2.445882e-001,-2.182040e-006,0.000000e+000
2.453824e-001,-1.510643e-006,0.000000e+000
2.461765e-001,-2.182040e-006,0.000000e+000
2.469706e-001,-1.174945e-006,0.000000e+000
2.477647e-001,-1.510643e-006,0.000000e+000
2.485588e-001,-2.853437e-006,0.000000e+000
2.493529e-001,-4.196231e-006,4.726905e-006
2.501471e-001,-4.364080e-006,4.732834e-006
2.509412e-001,-3.692683e-006,4.739237e-006
2.517353e-001,-4.867628e-006,4.743816e-006
2.525294e-001,-6.210422e-006,4.751763e-006
2.533235e-001,-7.217518e-006,4.764670e-006
2.541176e-001,-6.881819e-006,4.782048e-006
2.549118e-001,-6.210422e-006,4.797792e-006
2.557059e-001,-8.560311e-006,4.810576e-006
2.565000e-001,-1.023880e-005,4.834771e-006
2.572941e-001,-1.158160e-005,4.869176e-006
2.580882e-001,-8.896010e-006,4.912845e-006
2.588824e-001,-8.224612e-006,4.938429e-006
2.596765e-001,-8.392462e-006,4.960193e-006
2.604706e-001,-7.553216e-006,4.982753e-006
2.612647e-001,-1.091020e-005,5.000952e-006
2.620588e-001,-1.023880e-005,5.038710e-006
2.628529e-001,-7.553216e-006,5.071732e-006
2.636471e-001,-6.210422e-006,5.089613e-006
2.644412e-001,-4.196231e-006,5.101665e-006
2.652353e-001,-2.182040e-006,5.107158e-006
2.660294e-001,-3.524834e-006,5.108643e-006
2.668235e-001,-3.524834e-006,5.112514e-006
2.676176e-001,-2.853437e-006,5.116382e-006
2.684118e-001,-3.189136e-006,5.118916e-006
2.692059e-001,-6.210422e-006,5.122079e-006
2.700000e-001,-5.706874e-006,5.134055e-006
2.707941e-001,-5.035477e-006,5.144147e-006
2.715882e-001,-4.867628e-006,5.151990e-006
2.723824e-001,-6.546120e-006,5.159307e-006
2.731765e-001,-5.203327e-006,5.172516e-006
2.739706e-001,-3.021286e-006,5.180844e-006
2.747647e-001,-2.182040e-006,5.183649e-006
2.755588e-001,-5.539025e-006,5.185112e-006
2.763529e-001,-7.217518e-006,5.194525e-006
2.771471e-001,-5.539025e-006,5.210470e-006
2.779412e-001,-8.392462e-007,5.219837e-006
2.787353e-001,-4.364080e-006,5.220052e-006
2.795294e-001,-5.874723e-006,5.225859e-006
2.803235e-001,-6.881819e-006,5.236364e-006
2.811176e-001,-7.553216e-006,5.250746e-006
2.819118e-001,-7.553216e-006,5.268019e-006
2.827059e-001,-6.546120e-006,5.285236e-006
2.835000e-001,-6.378271e-006,5.298131e-006
2.842941e-001,-7.217518e-006,5.310344e-006
2.850882e-001,-6.210422e-006,5.325941e-006
2.858824e-001,-8.560311e-006,5.337461e-006
2.866765e-001,-5.539025e-006,5.359278e-006
2.874706e-001,-5.539025e-006,5.368386e-006
2.882647e-001,-6.210422e-006,5.377479e-006
2.890588e-001,-7.217518e-006,5.388888e-006
2.898529e-001,-9.567407e-006,5.404258e-006
2.906471e-001,-1.023880e-005,5.431162e-006
2.914412e-001,-8.896010e-006,5.461812e-006
2.922353e-001,-8.224612e-006,5.484836e-006
2.930294e-001,-8.896010e-006,5.504439e-006
2.938235e-001,-8.560311e-006,5.527286e-006
2.946176e-001,-5.706874e-006,5.548357e-006
2.954118e-001,-4.531929e-006,5.557696e-006
2.962059e-001,-3.524834e-006,5.563577e-006
2.970000e-001,-3.524834e-006,5.567132e-006
2.977941e-001,-2.182040e-006,5.570685e-006
2.985882e-001,-1.510643e-006,5.572046e-006
2.993824e-001,-5.706874e-006,5.572698e-006
3.001765e-001,-7.217518e-006,5.581996e-006
3.009706e-001,-2.182040e-006,5.596837e-006
3.017647e-001,-4.196231e-006,5.598191e-006
3.025588e-001,-5.706874e-006,5.603198e-006
3.033529e-001,-6.210422e-006,5.612446e-006
3.041471e-001,-4.196231e-006,5.623378e-006
3.049412e-001,-4.364080e-006,5.628362e-006
3.057353e-001,-6.210422e-006,5.633748e-006
3.065294e-001,-7.049668e-006,5.644638e-006
3.073235e-001,-5.035477e-006,5.658640e-006
3.081176e-001,-3.189136e-006,5.665771e-006
3.089118e-001,-3.524834e-006,5.668629e-006
3.097059e-001,-3.692683e-006,5.672118e-006
3.105000e-001,-3.860533e-006,5.675944e-006
3.112941e-001,-4.531929e-006,5.680123e-006
3.120882e-001,-4.196231e-006,5.685878e-006
3.128824e-001,-2.853437e-006,5.690807e-006
3.136765e-001,-4.196231e-006,5.693085e-006
3.144706e-001,-4.196231e-006,5.698008e-006
3.152647e-001,-5.539025e-006,5.702927e-006
3.160588e-001,-6.881819e-006,5.711487e-006
3.168529e-001,-4.867628e-006,5.724675e-006
3.176471e-001,-3.524834e-006,5.731262e-006
3.184412e-001,-2.182040e-006,5.734713e-006
3.192353e-001,-3.189136e-006,5.736035e-006
3.200294e-001,-5.539025e-006,5.738858e-006
3.208235e-001,-5.874723e-006,5.747364e-006
3.216176e-001,-9.903105e-006,5.756919e-006
3.224118e-001,-8.560311e-006,5.783981e-006
3.232059e-001,-1.091020e-005,5.804120e-006
3.240000e-001,-1.023880e-005,5.836685e-006
3.247941e-001,-9.567407e-006,5.865216e-006
3.255882e-001,-8.896010e-006,5.890015e-006
3.263824e-001,-7.888914e-006,5.911371e-006
3.271765e-001,-8.224612e-006,5.928112e-006
3.279706e-001,-5.539025e-006,5.946255e-006
3.287647e-001,-6.881819e-006,5.954465e-006
3.295588e-001,-7.553216e-006,5.967117e-006
3.303529e-001,-5.874723e-006,5.982321e-006
3.311471e-001,-6.210422e-006,5.991501e-006
3.319412e-001,-4.867628e-006,6.001742e-006
3.327353e-001,-3.524834e-006,6.008026e-006
3.335294e-001,-5.539025e-006,6.011318e-006
3.343235e-001,-6.881819e-006,6.019439e-006
3.351176e-001,-4.867628e-006,6.031955e-006
3.359118e-001,-4.364080e-006,6.038206e-006
3.367059e-001,-4.196231e-006,6.043227e-006
3.375000e-001,3.356985e-007,6.047865e-006
3.382941e-001,-2.853437e-006,6.047894e-006
3.390882e-001,-3.860533e-006,6.050038e-006
3.398824e-001,-2.853437e-006,6.053959e-006
3.406765e-001,-9.567407e-006,6.056100e-006
3.414706e-001,-1.040665e-005,6.080120e-006
3.422647e-001,-8.896010e-006,6.108417e-006
3.430588e-001,-8.896010e-006,6.129013e-006
3.438529e-001,-8.560311e-006,6.149539e-006
3.446471e-001,-8.896010e-006,6.120582e-006
3.454412e-001,-9.063859e-006,6.132686e-006
3.462353e-001,-7.888914e-006,6.137856e-006
3.470294e-001,-6.881819e-006,6.141714e-006
3.478235e-001,-3.524834e-006,6.146036e-006
3.486176e-001,-2.182040e-006,6.139259e-006
3.494118e-001,-3.189136e-006,6.132042e-006
3.502059e-001,-2.182040e-006,6.122377e-006
3.510000e-001,-4.867628e-006,6.106000e-006
3.517941e-001,-4.196231e-006,6.097295e-006
3.525882e-001,-2.853437e-006,6.091819e-006
3.533824e-001,-5.035477e-006,6.089344e-006
3.541765e-001,-4.196231e-006,6.095374e-006
3.549706e-001,-3.524834e-006,6.099377e-006
3.557647e-001,-5.539025e-006,6.100237e-006
3.565588e-001,-4.867628e-006,6.107646e-006
3.573529e-001,-4.867628e-006,6.113791e-006
3.581471e-001,-6.881819e-006,6.119365e-006
3.589412e-001,-8.392462e-006,6.130439e-006
3.597353e-001,-4.867628e-006,6.148525e-006
3.605294e-001,-4.196231e-006,6.150100e-006
3.613235e-001,-4.531929e-006,6.145722e-006
3.621176e-001,-5.539025e-006,6.147511e-006
3.629118e-001,-2.182040e-006,6.147510e-006
3.637059e-001,-4.531929e-006,6.142604e-006
3.645000e-001,-5.539025e-006,6.143364e-006
3.652941e-001,-7.553216e-006,6.139039e-006
3.660882e-001,-7.049668e-006,6.145876e-006
3.668824e-001,-3.860533e-006,6.141224e-006
3.676765e-001,-5.539025e-006,6.130286e-006
3.684706e-001,-6.881819e-006,6.125344e-006
3.692647e-001,-6.210422e-006,6.122824e-006
3.700588e-001,-5.539025e-006,6.109034e-006
3.708529e-001,-7.553216e-006,6.096390e-006
3.716471e-001,-4.867628e-006,6.097685e-006
3.724412e-001,-4.196231e-006,6.091502e-006
3.732353e-001,-3.524834e-006,6.081183e-006
3.740294e-001,-6.881819e-006,6.065227e-006
3.748235e-001,-7.217518e-006,6.072264e-006
3.756176e-001,-8.224612e-006,6.084664e-006
3.764118e-001,-7.217518e-006,6.101098e-006
3.772059e-001,-6.881819e-006,6.105684e-006
3.780000e-001,-5.539025e-006,6.110033e-006
3.787941e-001,-5.203327e-006,6.115903e-006
3.795882e-001,-4.531929e-006,6.121300e-006
3.803824e-001,-5.539025e-006,6.124267e-006
3.811765e-001,-5.539025e-006,6.129598e-006
3.819706e-001,-4.531929e-006,6.129598e-006
3.827647e-001,-5.539025e-006,6.117348e-006
3.835588e-001,-5.035477e-006,6.098016e-006
3.843529e-001,-8.224612e-006,6.088378e-006
3.851471e-001,-4.531929e-006,6.081278e-006
3.859412e-001,-3.524834e-006,6.071710e-006
3.867353e-001,-6.210422e-006,6.064849e-006
3.875294e-001,-5.539025e-006,6.070350e-006
3.883235e-001,-4.867628e-006,6.070350e-006
3.891176e-001,-4.531929e-006,6.071946e-006
3.899118e-001,-4.867628e-006,6.071946e-006
3.907059e-001,-6.378271e-006,6.077972e-006
3.915000e-001,-7.721065e-006,6.088356e-006
3.922941e-001,-7.553216e-006,6.103744e-006
3.930882e-001,-6.210422e-006,6.118543e-006
3.938824e-001,-3.189136e-006,6.128309e-006
3.946765e-001,-4.196231e-006,6.130768e-006
3.954706e-001,-5.035477e-006,6.134982e-006
3.962647e-001,-2.853437e-006,6.141494e-006
3.970588e-001,-4.196231e-006,6.143013e-006
3.978529e-001,-3.524834e-006,6.143013e-006
3.986471e-001,-1.846342e-006,6.139660e-006
3.994412e-001,-2.853437e-006,6.130534e-006
4.002353e-001,-1.510643e-006,6.105368e-006
4.010294e-001,-5.539025e-006,6.083697e-006
4.018235e-001,-4.531929e-006,6.062422e-006
4.026176e-001,-2.853437e-006,6.043746e-006
4.034118e-001,-5.539025e-006,6.020005e-006
4.042059e-001,-7.553216e-006,6.008727e-006
4.050000e-001,-7.217518e-006,6.005919e-006
4.057941e-001,-6.378271e-006,6.007174e-006
4.065882e-001,-4.867628e-006,6.008809e-006
4.073824e-001,-5.874723e-006,5.999963e-006
4.081765e-001,-3.189136e-006,5.996552e-006
4.089706e-001,-1.510643e-006,5.992960e-006
4.097647e-001,-3.524834e-006,5.988887e-006
4.105588e-001,-2.182040e-006,5.978330e-006
4.113529e-001,-4.196231e-006,5.963702e-006
4.121471e-001,-5.706874e-006,5.958102e-006
4.129412e-001,-5.706874e-006,5.945643e-006
4.137353e-001,-4.196231e-006,5.931523e-006
4.145294e-001,-5.874723e-006,5.919531e-006
4.153235e-001,-8.896010e-006,5.918440e-006
4.161176e-001,-7.553216e-006,5.934971e-006
4.169118e-001,-9.567407e-006,5.941015e-006
4.177059e-001,-8.392462e-006,5.957304e-006
4.185000e-001,-7.217518e-006,5.969784e-006
4.192941e-001,-7.217518e-006,5.978975e-006
4.200882e-001,-9.567407e-006,5.980236e-006
4.208824e-001,-9.567407e-006,5.994322e-006
4.216765e-001,-1.023880e-005,6.014644e-006
4.224706e-001,-8.896010e-006,6.035195e-006
4.232647e-001,-1.023880e-005,6.046958e-006
4.240588e-001,-1.225299e-005,6.069884e-006
4.248529e-001,-9.063859e-006,6.105904e-006
4.256471e-001,-6.546120e-006,6.119313e-006
4.264412e-001,-4.531929e-006,6.126581e-006
4.272353e-001,-4.867628e-006,6.124882e-006
4.280294e-001,-5.874723e-006,6.123065e-006
4.288235e-001,-6.210422e-006,6.123065e-006
4.296176e-001,-7.553216e-006,6.117590e-006
4.304118e-001,-6.210422e-006,6.117590e-006
4.312059e-001,-7.217518e-006,6.115301e-006
4.320000e-001,-6.881819e-006,6.125307e-006
4.327941e-001,-6.210422e-006,6.129641e-006
4.335882e-001,-8.224612e-006,6.135083e-006
4.343824e-001,-1.023880e-005,6.151886e-006
4.351765e-001,-9.231709e-006,6.174423e-006
4.359706e-001,-6.881819e-006,6.189401e-006
4.367647e-001,-8.224612e-006,6.193205e-006
4.375588e-001,-8.224612e-006,6.195928e-006
4.383529e-001,-8.224612e-006,6.192973e-006
4.391471e-001,-6.881819e-006,6.192973e-006
4.399412e-001,-5.539025e-006,6.196276e-006
4.407353e-001,-4.867628e-006,6.191988e-006
4.415294e-001,-4.867628e-006,6.195986e-006
4.423235e-001,-2.182040e-006,6.195986e-006
4.431176e-001,-8.392462e-007,6.182533e-006
4.439118e-001,-8.392462e-007,6.162299e-006
4.447059e-001,-4.196231e-006,6.128726e-006
4.455000e-001,-4.196231e-006,6.115712e-006
4.462941e-001,-2.853437e-006,6.118646e-006
4.470882e-001,-2.853437e-006,6.116886e-006
4.478824e-001,-3.524834e-006,6.110017e-006
4.486765e-001,-2.853437e-006,6.098376e-006
4.494706e-001,-3.524834e-006,6.082819e-006
4.502647e-001,-4.531929e-006,6.060357e-006
4.510588e-001,-3.021286e-006,6.052061e-006
4.518529e-001,-1.846342e-006,6.039439e-006
4.526471e-001,-4.867628e-006,6.025279e-006
4.534412e-001,-3.860533e-006,6.019021e-006
4.542353e-001,-6.210422e-006,6.011623e-006
4.550294e-001,-4.196231e-006,6.009294e-006
4.558235e-001,-6.210422e-006,6.003737e-006
4.566176e-001,-7.553216e-006,6.010011e-006
4.574118e-001,-5.539025e-006,6.022955e-006
4.582059e-001,-5.203327e-006,6.030161e-006
4.590000e-001,-8.560311e-006,6.034028e-006
4.597941e-001,-6.881819e-006,6.052735e-006
4.605882e-001,-7.553216e-006,6.061600e-006
4.613824e-001,-6.210422e-006,6.072994e-006
4.621765e-001,-8.896010e-006,6.082834e-006
4.629706e-001,-7.553216e-006,6.101133e-006
4.637647e-001,-4.867628e-006,6.109833e-006
4.645588e-001,-5.539025e-006,6.115272e-006
4.653529e-001,-4.531929e-006,6.120610e-006
4.661471e-001,-4.531929e-006,6.117971e-006
4.669412e-001,-2.853437e-006,6.105698e-006
4.677353e-001,-3.189136e-006,6.090160e-006
4.685294e-001,-5.539025e-006,6.077219e-006
4.693235e-001,-6.210422e-006,6.072847e-006
4.701176e-001,-7.553216e-006,6.074915e-006
4.709118e-001,-8.560311e-006,6.079204e-006
4.717059e-001,-7.049668e-006,6.090352e-006
4.725000e-001,-6.210422e-006,6.097147e-006
4.732941e-001,-6.210422e-006,6.103972e-006
4.740882e-001,-5.203327e-006,6.106970e-006
4.748824e-001,-5.874723e-006,6.109438e-006
4.756765e-001,-5.874723e-006,6.115192e-006
4.764706e-001,-7.217518e-006,6.122934e-006
4.772647e-001,-5.203327e-006,6.136284e-006
4.780588e-001,-5.539025e-006,6.143298e-006
4.788529e-001,-6.210422e-006,6.149138e-006
4.796471e-001,-3.189136e-006,6.157012e-006
4.804412e-001,-1.510643e-006,6.156429e-006
4.812353e-001,-4.196231e-006,6.148590e-006
4.820294e-001,-7.217518e-006,6.149933e-006
4.828235e-001,-5.539025e-006,6.153433e-006
4.836176e-001,-6.881819e-006,6.153433e-006
4.844118e-001,-5.203327e-006,6.159555e-006
4.852059e-001,-5.539025e-006,6.155474e-006
4.860000e-001,-4.531929e-006,6.141348e-006
4.867941e-001,-2.349889e-006,6.129123e-006
4.875882e-001,-4.867628e-006,6.118244e-006
4.883824e-001,-6.881819e-006,6.114371e-006
4.891765e-001,-5.539025e-006,6.109085e-006
4.899706e-001,-3.524834e-006,6.084067e-006
4.907647e-001,-4.531929e-006,6.069597e-006
4.915588e-001,-4.196231e-006,6.062556e-006
4.923529e-001,-5.874723e-006,6.059122e-006
4.931471e-001,-5.874723e-006,6.064924e-006
4.939412e-001,-7.721065e-006,6.072730e-006
4.947353e-001,-7.553216e-006,6.087097e-006
4.955294e-001,-5.539025e-006,6.101407e-006
4.963235e-001,-6.881819e-006,6.108168e-006
4.971176e-001,-6.881819e-006,6.120143e-006
4.979118e-001,-5.539025e-006,6.131860e-006
4.987059e-001,-6.210422e-006,6.137710e-006
4.995000e-001,-5.035477e-006,6.143146e-006
5.002941e-001,-6.881819e-006,6.144781e-006
5.010882e-001,-6.881819e-006,6.153514e-006
5.018824e-001,-2.853437e-006,6.159635e-006
5.026765e-001,-2.853437e-006,6.151764e-006
5.034706e-001,8.392462e-007,6.140377e-006
5.042647e-001,-2.853437e-006,6.128266e-006
5.050588e-001,-5.539025e-006,6.120355e-006
5.058529e-001,-5.874723e-006,6.109262e-006
5.066471e-001,-5.539025e-006,6.090906e-006
5.074412e-001,-3.524834e-006,6.063799e-006
5.082353e-001,-2.853437e-006,6.046255e-006
5.090294e-001,-7.721065e-006,6.030564e-006
5.098235e-001,-7.553216e-006,6.027707e-006
5.106176e-001,-4.364080e-006,6.027707e-006
5.114118e-001,-3.524834e-006,6.001234e-006
5.122059e-001,-5.539025e-006,5.976664e-006
5.130000e-001,-6.210422e-006,5.969634e-006
5.137941e-001,-5.539025e-006,5.969635e-006
5.145882e-001,-7.553216e-006,5.973121e-006
5.153824e-001,-7.553216e-006,5.987044e-006
5.161765e-001,-8.560311e-006,5.998902e-006
5.169706e-001,-7.721065e-006,6.015033e-006
5.177647e-001,-7.217518e-006,6.028644e-006
5.185588e-001,-5.539025e-006,6.039707e-006
5.193529e-001,-6.546120e-006,6.037627e-006
5.201471e-001,-8.224612e-006,6.040338e-006
5.209412e-001,-8.224612e-006,6.051476e-006
5.217353e-001,-4.196231e-006,6.063030e-006
5.225294e-001,-4.867628e-006,6.056397e-006
5.233235e-001,-4.867628e-006,6.055508e-006
5.241176e-001,-5.203327e-006,6.059337e-006
5.249118e-001,-4.196231e-006,6.065197e-006
5.257059e-001,-5.539025e-006,6.061764e-006
5.265000e-001,-6.881819e-006,6.056137e-006
5.272941e-001,-3.189136e-006,6.060521e-006
5.280882e-001,-3.189136e-006,6.063008e-006
5.288824e-001,-4.196231e-006,6.060677e-006
5.296765e-001,-6.881819e-006,6.056234e-006
5.304706e-001,-7.888914e-006,6.056234e-006
5.312647e-001,-6.210422e-006,6.057597e-006
5.320588e-001,-6.210422e-006,6.052736e-006
5.328529e-001,-6.210422e-006,6.051609e-006
5.336471e-001,-5.035477e-006,6.051053e-006
5.344412e-001,-6.210422e-006,6.044013e-006
5.352353e-001,-7.553216e-006,6.044013e-006
5.360294e-001,-1.057450e-005,6.039736e-006
5.368235e-001,-9.903105e-006,6.061091e-006
5.376176e-001,-9.231709e-006,6.078770e-006
5.384118e-001,-6.881819e-006,6.090979e-006
5.392059e-001,-9.567407e-006,6.089742e-006
5.400000e-001,-8.224612e-006,6.089742e-006
5.407941e-001,-4.867628e-006,6.080010e-006
5.415882e-001,-3.189136e-006,6.065471e-006
5.423824e-001,-4.196231e-006,6.050364e-006
5.431765e-001,-5.539025e-006,6.034148e-006
5.439706e-001,-6.210422e-006,6.022896e-006
5.447647e-001,-5.539025e-006,6.024483e-006
5.455588e-001,-4.867628e-006,6.027163e-006
5.463529e-001,-4.867628e-006,6.030140e-006
5.471471e-001,-3.524834e-006,6.033114e-006
5.479412e-001,-5.203327e-006,6.035137e-006
5.487353e-001,-7.553216e-006,6.041675e-006
5.495294e-001,-6.210422e-006,6.048124e-006
5.503235e-001,-7.553216e-006,6.044563e-006
5.511176e-001,-4.867628e-006,6.058322e-006
5.519118e-001,-2.853437e-006,6.059921e-006
5.527059e-001,-5.035477e-006,6.053499e-006
5.535000e-001,-8.896010e-006,6.050022e-006
5.542941e-001,-8.224612e-006,6.066196e-006
5.550882e-001,-6.210422e-006,6.078939e-006
5.558824e-001,-4.531929e-006,6.078939e-006
5.566765e-001,-6.210422e-006,6.071296e-006
5.574706e-001,-5.874723e-006,6.074761e-006
5.582647e-001,-8.392462e-007,6.081138e-006
5.590588e-001,-8.392462e-007,6.078068e-006
5.598529e-001,-2.182040e-006,6.074679e-006
5.606471e-001,-1.678492e-007,6.072020e-006
5.614412e-001,-2.182040e-006,6.066639e-006
5.622353e-001,-4.867628e-006,6.063266e-006
5.630294e-001,-4.531929e-006,6.067349e-006
5.638235e-001,-2.853437e-006,6.068118e-006
5.646176e-001,-3.524834e-006,6.065633e-006
5.654118e-001,-3.189136e-006,6.060839e-006
5.662059e-001,-5.539025e-006,6.051060e-006
5.670000e-001,-4.867628e-006,6.052899e-006
5.677941e-001,-4.531929e-006,6.055863e-006
5.685882e-001,-7.553216e-006,6.060010e-006
5.693824e-001,-1.023880e-005,6.072316e-006
5.701765e-001,-8.224612e-006,6.091730e-006
5.709706e-001,-9.567407e-006,6.100384e-006
5.717647e-001,-6.546120e-006,6.098678e-006
5.725588e-001,-6.210422e-006,6.090728e-006
5.733529e-001,-9.567407e-006,6.069656e-006
5.741471e-001,-8.224612e-006,6.066166e-006
5.749412e-001,-8.896010e-006,6.059891e-006
5.757353e-001,-7.385367e-006,6.059891e-006
5.765294e-001,-6.881819e-006,6.057870e-006
5.773235e-001,-5.203327e-006,6.052535e-006
5.781176e-001,-4.531929e-006,6.051587e-006
5.789118e-001,-4.196231e-006,6.044525e-006
5.797059e-001,-6.210422e-006,6.034125e-006
5.805000e-001,-5.706874e-006,6.035196e-006
5.812941e-001,-3.524834e-006,6.033612e-006
5.820882e-001,-1.510643e-006,6.030637e-006
5.828824e-001,-1.846342e-006,6.027959e-006
5.836765e-001,-2.182040e-006,6.020750e-006
5.844706e-001,3.356985e-007,6.009474e-006
5.852647e-001,-1.510643e-006,6.003222e-006
5.860588e-001,-3.189136e-006,5.998774e-006
5.868529e-001,-1.846342e-006,5.996799e-006
5.876471e-001,-2.853437e-006,5.997675e-006
5.884412e-001,-5.874723e-006,5.997675e-006
5.892353e-001,-5.203327e-006,6.002878e-006
5.900294e-001,-3.524834e-006,6.007898e-006
5.908235e-001,-2.349889e-006,5.986893e-006
5.916176e-001,-2.853437e-006,5.959495e-006
5.924118e-001,-2.853437e-006,5.940495e-006
5.932059e-001,-6.881819e-006,5.921434e-006
5.940000e-001,-6.881819e-006,5.914459e-006
5.947941e-001,-3.189136e-006,5.905897e-006
5.955882e-001,-3.524834e-006,5.886457e-006
5.963824e-001,-4.196231e-006,5.872967e-006
5.971765e-001,-5.874723e-006,5.864895e-006
5.979706e-001,-6.881819e-006,5.870889e-006
5.987647e-001,-5.539025e-006,5.882431e-006
5.995588e-001,-9.231709e-006,5.887980e-006
6.003529e-001,-8.560311e-006,5.909701e-006
6.011471e-001,-7.553216e-006,5.923047e-006
6.019412e-001,-5.539025e-006,5.933641e-006
6.027353e-001,-5.539025e-006,5.939686e-006
6.035294e-001,-7.888914e-006,5.941114e-006
6.043235e-001,-5.539025e-006,5.953063e-006
6.051176e-001,-6.210422e-006,5.957944e-006
6.059118e-001,-8.224612e-006,5.960052e-006
6.067059e-001,-5.539025e-006,5.971783e-006
6.075000e-001,-3.524834e-006,5.973645e-006
6.082941e-001,-5.203327e-006,5.964326e-006
6.090882e-001,-5.539025e-006,5.952739e-006
6.098824e-001,-3.189136e-006,5.954607e-006
6.106765e-001,-6.210422e-006,5.952618e-006
6.114706e-001,-7.217518e-006,5.957439e-006
6.122647e-001,-6.881819e-006,5.963160e-006
6.130588e-001,-7.553216e-006,5.974524e-006
6.138529e-001,-8.224612e-006,5.984248e-006
6.146471e-001,-6.210422e-006,5.994075e-006
6.154412e-001,-4.196231e-006,5.989164e-006
6.162353e-001,-4.531929e-006,5.980626e-006
6.170294e-001,-7.721065e-006,5.982125e-006
6.178235e-001,-9.567407e-006,5.989823e-006
6.186176e-001,-8.224612e-006,6.001555e-006
6.194118e-001,-7.888914e-006,6.009264e-006
6.202059e-001,-1.225299e-005,6.017620e-006
6.210000e-001,-1.225299e-005,6.042201e-006
6.217941e-001,-1.225299e-005,6.075432e-006
6.225882e-001,-9.903105e-006,6.110069e-006
6.233824e-001,-1.124590e-005,6.132349e-006
6.241765e-001,-1.091020e-005,6.152857e-006
6.249706e-001,-8.896010e-006,6.170157e-006
6.257647e-001,-7.217518e-006,6.173123e-006
6.265588e-001,-4.196231e-006,6.173123e-006
6.273529e-001,-7.553216e-006,6.165443e-006
6.281471e-001,-6.042573e-006,6.172250e-006
6.289412e-001,-7.217518e-006,6.174685e-006
6.297353e-001,-5.706874e-006,6.182816e-006
6.305294e-001,-3.860533e-006,6.183303e-006
6.313235e-001,-6.881819e-006,6.179238e-006
6.321176e-001,-4.531929e-006,6.186146e-006
6.329118e-001,-3.189136e-006,6.183535e-006
6.337059e-001,-6.881819e-006,6.179623e-006
6.345000e-001,-6.378271e-006,6.174394e-006
6.352941e-001,-5.035477e-006,6.179587e-006
6.360882e-001,-3.860533e-006,6.182918e-006
6.368824e-001,-2.182040e-006,6.176821e-006
6.376765e-001,-2.182040e-006,6.170135e-006
6.384706e-001,-2.853437e-006,6.165247e-006
6.392647e-001,-1.678492e-007,6.162044e-006
6.400588e-001,-1.174945e-006,6.155926e-006
6.408529e-001,-3.189136e-006,6.145751e-006
6.416471e-001,-2.517739e-006,6.132927e-006
6.424412e-001,-3.189136e-006,6.119746e-006
6.432353e-001,-3.021286e-006,6.112352e-006
6.440294e-001,-4.196231e-006,6.112080e-006
6.448235e-001,-4.196231e-006,6.112080e-006
6.456176e-001,-1.510643e-006,6.110062e-006
6.464118e-001,-1.174945e-006,6.108534e-006
6.472059e-001,-1.678492e-007,6.104302e-006
6.480000e-001,-1.174945e-006,6.101068e-006
6.487941e-001,-3.524834e-006,6.100538e-006
6.495882e-001,-1.510643e-006,6.101656e-006
6.503824e-001,-4.196231e-006,6.101656e-006
6.511765e-001,-2.853437e-006,6.098244e-006
6.519706e-001,-4.867628e-006,6.095006e-006
6.527647e-001,-5.706874e-006,6.099067e-006
6.535588e-001,-8.224612e-006,6.099560e-006
6.543529e-001,-8.560311e-006,6.102325e-006
6.551471e-001,-9.567407e-006,6.107851e-006
6.559412e-001,-9.567407e-006,6.121094e-006
6.567353e-001,-8.224612e-006,6.138718e-006
6.575294e-001,-5.874723e-006,6.147306e-006
6.583235e-001,-8.896010e-006,6.153608e-006
6.591176e-001,-7.888914e-006,6.173464e-006
6.599118e-001,-6.210422e-006,6.186298e-006
6.607059e-001,-8.896010e-006,6.194995e-006
6.615000e-001,-7.049668e-006,6.210790e-006
6.622941e-001,-4.196231e-006,6.215180e-006
6.630882e-001,-6.546120e-006,6.211346e-006
6.638824e-001,-8.392462e-006,6.217814e-006
6.646765e-001,-5.203327e-006,6.227006e-006
6.654706e-001,-4.867628e-006,6.213679e-006
6.662647e-001,-5.539025e-006,6.205124e-006
6.670588e-001,-5.539025e-006,6.189488e-006
6.678529e-001,-5.706874e-006,6.179253e-006
6.686471e-001,-5.874723e-006,6.174219e-006
6.694412e-001,-3.524834e-006,6.169684e-006
6.702353e-001,-2.853437e-006,6.149232e-006
6.710294e-001,-4.196231e-006,6.127599e-006
6.718235e-001,-2.182040e-006,6.104890e-006
6.726176e-001,-3.692683e-006,6.085459e-006
6.734118e-001,-3.524834e-006,6.061549e-006
6.742059e-001,-2.182040e-006,6.025264e-006
6.750000e-001,-4.531929e-006,6.004776e-006
6.757941e-001,-3.524834e-006,5.998856e-006
6.765882e-001,-4.867628e-006,5.996701e-006
6.773824e-001,-5.874723e-006,5.996702e-006
6.781765e-001,-7.553216e-006,5.996702e-006
6.789706e-001,-8.224612e-006,6.001607e-006
6.797647e-001,-7.553216e-006,6.004418e-006
6.805588e-001,-6.881819e-006,6.009317e-006
6.813529e-001,-4.867628e-006,6.008062e-006
6.821471e-001,-4.531929e-006,6.001787e-006
6.829412e-001,-6.378271e-006,5.997001e-006
6.837353e-001,-5.203327e-006,5.989838e-006
6.845294e-001,-4.196231e-006,5.969131e-006
6.853235e-001,-7.888914e-006,5.951066e-006
6.861176e-001,-6.210422e-006,5.955045e-006
6.869118e-001,-7.553216e-006,5.947265e-006
6.877059e-001,-8.224612e-006,5.944428e-006
6.885000e-001,-4.531929e-006,5.944428e-006
6.892941e-001,-3.189136e-006,5.937239e-006
6.900882e-001,-3.860533e-006,5.931736e-006
6.908824e-001,-6.378271e-006,5.929376e-006
6.916765e-001,-6.881819e-006,5.933936e-006
6.924706e-001,-5.874723e-006,5.945356e-006
6.932647e-001,-3.524834e-006,5.954404e-006
6.940588e-001,-3.021286e-006,5.957538e-006
6.948529e-001,-3.189136e-006,5.955270e-006
6.956471e-001,-5.035477e-006,5.953281e-006
6.964412e-001,-8.896010e-006,5.957884e-006
6.972353e-001,-1.023880e-005,5.976829e-006
6.980294e-001,-1.225299e-005,6.001398e-006
6.988235e-001,-7.553216e-006,6.038956e-006
6.996176e-001,-4.867628e-006,6.050712e-006
7.004118e-001,-6.881819e-006,6.051542e-006
7.012059e-001,-5.035477e-006,6.061594e-006
7.020000e-001,-6.210422e-006,6.067356e-006
7.027941e-001,-5.035477e-006,6.071259e-006
7.035882e-001,-6.881819e-006,6.074000e-006
7.043824e-001,-4.196231e-006,6.076304e-006
7.051765e-001,-4.364080e-006,6.076304e-006
7.059706e-001,-3.524834e-006,6.071185e-006
7.067647e-001,-2.517739e-006,6.059469e-006
7.075588e-001,-5.539025e-006,6.053069e-006
7.083529e-001,-6.210422e-006,6.054018e-006
7.091471e-001,-5.539025e-006,6.044882e-006
7.099412e-001,-6.881819e-006,6.040486e-006
7.107353e-001,-7.553216e-006,6.037931e-006
7.115294e-001,-4.867628e-006,6.042803e-006
7.123235e-001,-4.867628e-006,6.028175e-006
7.131176e-001,-2.517739e-006,6.019357e-006
7.139118e-001,-3.189136e-006,6.014764e-006
7.147059e-001,-8.224612e-006,6.009332e-006
7.155000e-001,-7.217518e-006,6.021801e-006
7.162941e-001,-4.867628e-006,6.030139e-006
7.170882e-001,-5.539025e-006,6.034245e-006
7.178824e-001,-3.524834e-006,6.039655e-006
7.186765e-001,-5.706874e-006,6.034839e-006
7.194706e-001,-6.546120e-006,6.033255e-006
7.202647e-001,-3.524834e-006,6.029507e-006
7.210588e-001,-2.853437e-006,6.013414e-006
7.218529e-001,-1.510643e-006,6.002400e-006
7.226471e-001,-2.853437e-006,5.992766e-006
7.234412e-001,-4.196231e-006,5.984675e-006
7.242353e-001,-5.874723e-006,5.982156e-006
7.250294e-001,-7.217518e-006,5.982156e-006
7.258235e-001,-7.553216e-006,5.986834e-006
7.266176e-001,-6.546120e-006,5.988153e-006
7.274118e-001,-7.553216e-006,5.992346e-006
7.282059e-001,-3.860533e-006,5.999350e-006
7.290000e-001,-4.867628e-006,5.993065e-006
7.297941e-001,-5.874723e-006,5.996657e-006
7.305882e-001,-3.860533e-006,6.005209e-006
7.313824e-001,-5.203327e-006,6.004492e-006
7.321765e-001,-6.210422e-006,5.997854e-006
7.329706e-001,-7.217518e-006,5.999948e-006
7.337647e-001,-4.867628e-006,6.001204e-006
7.345588e-001,-1.174945e-006,6.000307e-006
7.353529e-001,-5.539025e-006,5.992526e-006
7.361471e-001,-7.553216e-006,5.995221e-006
7.369412e-001,-6.881819e-006,6.008891e-006
7.377353e-001,-8.224612e-006,6.015160e-006
7.385294e-001,-7.888914e-006,6.020527e-006
7.393235e-001,-4.196231e-006,6.028867e-006
7.401176e-001,-4.867628e-006,6.030236e-006
7.409118e-001,-8.224612e-006,6.031069e-006
7.417059e-001,-6.546120e-006,6.044266e-006
7.425000e-001,-6.210422e-006,6.046462e-006
7.432941e-001,-6.210422e-006,6.047530e-006
7.440882e-001,-4.364080e-006,6.041987e-006
7.448824e-001,-7.217518e-006,6.031962e-006
7.456765e-001,-6.881819e-006,6.037612e-006
7.464706e-001,-6.210422e-006,6.037611e-006
7.472647e-001,-6.881819e-006,6.035293e-006
7.480588e-001,-6.210422e-006,6.039692e-006
7.488529e-001,-4.196231e-006,6.039691e-006
7.496471e-001,-5.539025e-006,6.037649e-006
7.504412e-001,-4.867628e-006,6.033248e-006
7.512353e-001,-4.867628e-006,6.026999e-006
7.520294e-001,-3.524834e-006,6.031106e-006
7.528235e-001,-1.678492e-007,6.032237e-006
7.536176e-001,-1.510643e-006,6.032059e-006
7.544118e-001,-2.853437e-006,6.030511e-006
7.552059e-001,-4.196231e-006,6.024557e-006
7.560000e-001,-2.517739e-006,6.020088e-006
7.567941e-001,1.174945e-006,6.013646e-006
7.575882e-001,-8.392462e-007,6.010721e-006
7.583824e-001,-3.692683e-006,6.008750e-006
7.591765e-001,-2.182040e-006,5.996553e-006
7.599706e-001,-2.182040e-006,5.982652e-006
7.607647e-001,-5.539025e-006,5.978849e-006
7.615588e-001,-8.896010e-006,5.983709e-006
7.623529e-001,-6.881819e-006,5.996591e-006
7.631471e-001,-6.881819e-006,5.998924e-006
7.639412e-001,-6.881819e-006,6.003350e-006
7.647353e-001,-6.210422e-006,6.000778e-006
7.655294e-001,-8.224612e-006,5.995872e-006
7.663235e-001,-6.881819e-006,5.994375e-006
7.671176e-001,-9.567407e-006,5.991119e-006
7.679118e-001,-7.217518e-006,6.001593e-006
7.687059e-001,-8.896010e-006,6.007272e-006
7.695000e-001,-8.896010e-006,6.016883e-006
7.702941e-001,-8.896010e-006,6.019924e-006
7.710882e-001,-1.124590e-005,6.022964e-006
7.718824e-001,-1.359579e-005,6.051676e-006
7.726765e-001,-1.292439e-005,6.093932e-006
7.734706e-001,-1.225299e-005,6.131274e-006
7.742647e-001,-1.225299e-005,6.163152e-006
7.750588e-001,-9.903105e-006,6.197298e-006
7.758529e-001,-7.553216e-006,6.214590e-006
7.766471e-001,-7.217518e-006,6.217072e-006
7.774412e-001,-3.189136e-006,6.227800e-006
7.782353e-001,-6.210422e-006,6.227800e-006
7.790294e-001,-8.224612e-006,6.233157e-006
7.798235e-001,-4.531929e-006,6.238337e-006
7.806176e-001,-6.546120e-006,6.227685e-006
7.814118e-001,-4.867628e-006,6.228780e-006
7.822059e-001,-4.196231e-006,6.224976e-006
7.830000e-001,-5.539025e-006,6.219612e-006
7.837941e-001,-3.524834e-006,6.220975e-006
7.845882e-001,-2.517739e-006,6.214279e-006
7.853824e-001,-1.510643e-006,6.201271e-006
7.861765e-001,8.392462e-007,6.173080e-006
7.869706e-001,1.510643e-006,6.147913e-006
7.877647e-001,1.678492e-007,6.126392e-006
7.885588e-001,-2.349889e-006,6.114078e-006
7.893529e-001,8.392462e-007,6.091635e-006
7.901471e-001,-5.035477e-007,6.074112e-006
7.909412e-001,-2.182040e-006,6.067964e-006
7.917353e-001,-1.510643e-006,6.066544e-006
7.925294e-001,-3.189136e-006,6.062520e-006
7.933235e-001,-3.189136e-006,6.057130e-006
7.941176e-001,-4.867628e-006,6.049660e-006
7.949118e-001,-6.210422e-006,6.047821e-006
7.957059e-001,-6.210422e-006,6.051736e-006
7.965000e-001,-8.224612e-006,6.055648e-006
7.972941e-001,-9.567407e-006,6.070150e-006
7.980882e-001,-6.881819e-006,6.087037e-006
7.988824e-001,-8.560311e-006,6.084501e-006
7.996765e-001,-1.124590e-005,6.093578e-006
8.004706e-001,-8.896010e-006,6.111691e-006
8.012647e-001,-7.553216e-006,6.126120e-006
8.020588e-001,-6.881819e-006,6.138820e-006
8.028529e-001,-4.196231e-006,6.144525e-006
8.036471e-001,-6.881819e-006,6.128559e-006
8.044412e-001,-6.881819e-006,6.123286e-006
8.052353e-001,-5.203327e-006,6.125571e-006
8.060294e-001,-4.196231e-006,6.127270e-006
8.068235e-001,-6.210422e-006,6.121820e-006
8.076176e-001,-6.210422e-006,6.122875e-006
8.084118e-001,-5.874723e-006,6.132715e-006
8.092059e-001,-5.203327e-006,6.141487e-006
8.100000e-001,-7.217518e-006,6.147269e-006
8.107941e-001,-9.903105e-006,6.160741e-006
8.115882e-001,-8.224612e-006,6.184812e-006
8.123824e-001,-7.553216e-006,6.196117e-006
8.131765e-001,-5.874723e-006,6.205494e-006
8.139706e-001,-7.888914e-006,6.212257e-006
8.147647e-001,-8.224612e-006,6.225011e-006
8.155588e-001,-6.881819e-006,6.239696e-006
8.163529e-001,-5.539025e-006,6.243951e-006
8.171471e-001,-7.888914e-006,6.245732e-006
8.179412e-001,-6.881819e-006,6.256354e-006
8.187353e-001,-6.881819e-006,6.253887e-006
8.195294e-001,-4.196231e-006,6.239236e-006
8.203235e-001,-8.392462e-007,6.226453e-006
8.211176e-001,-1.007095e-006,6.203180e-006
8.219118e-001,-2.517739e-006,6.192431e-006
8.227059e-001,-1.846342e-006,6.184137e-006
8.235000e-001,-3.189136e-006,6.161404e-006
8.242941e-001,-4.196231e-006,6.146533e-006
8.250882e-001,-7.217518e-006,6.130571e-006
8.258824e-001,-8.224612e-006,6.129935e-006
8.266765e-001,-7.217518e-006,6.135202e-006
8.274706e-001,-6.210422e-006,6.141691e-006
8.282647e-001,-3.860533e-006,6.146365e-006
8.290588e-001,-4.867628e-006,6.145664e-006
8.298529e-001,-2.853437e-006,6.141809e-006
8.306471e-001,-2.182040e-006,6.135472e-006
8.314412e-001,-4.196231e-006,6.133483e-006
8.322353e-001,-5.539025e-006,6.137461e-006
8.330294e-001,-5.539025e-006,6.144532e-006
8.338235e-001,-6.210422e-006,6.151246e-006
8.346176e-001,-5.874723e-006,6.161193e-006
8.354118e-001,-5.539025e-006,6.169517e-006
8.362059e-001,-7.721065e-006,6.174808e-006
8.370000e-001,-6.210422e-006,6.189286e-006
8.377941e-001,-2.853437e-006,6.197109e-006
8.385882e-001,-3.524834e-006,6.190329e-006
8.393824e-001,-4.867628e-006,6.186560e-006
8.401765e-001,-2.853437e-006,6.189460e-006
8.409706e-001,-3.189136e-006,6.190134e-006
8.417647e-001,-5.203327e-006,6.190655e-006
8.425588e-001,-7.553216e-006,6.195523e-006
8.433529e-001,-8.896010e-006,6.198014e-006
8.441471e-001,-8.224612e-006,6.206173e-006
8.449412e-001,-5.539025e-006,6.220902e-006
8.457353e-001,-5.874723e-006,6.225574e-006
8.465294e-001,-1.023880e-005,6.229895e-006
8.473235e-001,-8.560311e-006,6.247843e-006
8.481176e-001,-9.231709e-006,6.254446e-006
8.489118e-001,-1.124590e-005,6.268318e-006
8.497059e-001,-1.107805e-005,6.278786e-006
8.505000e-001,-6.881819e-006,6.291314e-006
8.512941e-001,-7.553216e-006,6.288860e-006
8.520882e-001,-1.225299e-005,6.295533e-006
8.528824e-001,-9.567407e-006,6.325675e-006
8.536765e-001,-9.903105e-006,6.333047e-006
8.544706e-001,-6.881819e-006,6.349969e-006
8.552647e-001,-6.210422e-006,6.352172e-006
8.560588e-001,-7.553216e-006,6.344880e-006
8.568529e-001,-6.881819e-006,6.351494e-006
8.576471e-001,-5.539025e-006,6.360247e-006
8.584412e-001,-7.553216e-006,6.361150e-006
8.592353e-001,-9.567407e-006,6.367747e-006
8.600294e-001,-7.553216e-006,6.388061e-006
8.608235e-001,-6.881819e-006,6.392666e-006
8.616176e-001,-2.517739e-006,6.391488e-006
8.624118e-001,-3.021286e-006,6.381259e-006
8.632059e-001,-4.196231e-006,6.369290e-006
8.640000e-001,-5.035477e-007,6.356769e-006
8.647941e-001,-5.035477e-007,6.347163e-006
8.655882e-001,1.510643e-006,6.342808e-006
8.663824e-001,2.517739e-006,6.338223e-006
8.671765e-001,3.860533e-006,6.324824e-006
8.679706e-001,4.531929e-006,6.305502e-006
8.687647e-001,3.189136e-006,6.293595e-006
8.695588e-001,5.035477e-007,6.280408e-006
8.703529e-001,1.174945e-006,6.242291e-006
8.711471e-001,1.510643e-006,6.204229e-006
8.719412e-001,-1.510643e-006,6.166164e-006
8.727353e-001,-5.203327e-006,6.141378e-006
8.735294e-001,-3.524834e-006,6.115552e-006
8.743235e-001,-5.539025e-006,6.087730e-006
8.751176e-001,-2.182040e-006,6.075041e-006
8.759118e-001,-5.035477e-007,6.062623e-006
8.767059e-001,-1.678492e-006,6.058062e-006
8.775000e-001,-4.531929e-006,6.043791e-006
8.782941e-001,-5.874723e-006,6.039580e-006
8.790882e-001,-4.196231e-006,6.034943e-006
8.798824e-001,-6.210422e-006,6.030994e-006
8.806765e-001,-7.553216e-006,6.037239e-006
8.814706e-001,-5.035477e-006,6.039795e-006
8.822647e-001,-5.539025e-006,6.041065e-006
8.830588e-001,-4.699779e-006,6.046469e-006
8.838529e-001,-5.203327e-006,6.039810e-006
8.846471e-001,-7.553216e-006,6.036221e-006
8.854412e-001,-1.057450e-005,6.044577e-006
8.862353e-001,-9.903105e-006,6.070054e-006
8.870294e-001,-1.023880e-005,6.094483e-006
8.878235e-001,-8.896010e-006,6.120574e-006
8.886176e-001,-9.567407e-006,6.139017e-006
8.894118e-001,-8.560311e-006,6.162707e-006
8.902059e-001,-6.881819e-006,6.181256e-006
8.910000e-001,-5.874723e-006,6.190829e-006
8.917941e-001,-5.539025e-006,6.198071e-006
8.925882e-001,-4.867628e-006,6.203338e-006
8.933824e-001,-6.378271e-006,6.207076e-006
8.941765e-001,-6.881819e-006,6.212993e-006
8.949706e-001,-5.874723e-006,6.220613e-006
8.957647e-001,-7.553216e-006,6.228858e-006
8.965588e-001,-7.888914e-006,6.243073e-006
8.973529e-001,-7.217518e-006,6.258919e-006
8.981471e-001,-6.881819e-006,6.271808e-006
8.989412e-001,-7.217518e-006,6.280672e-006
8.997353e-001,-7.888914e-006,6.293288e-006
9.005294e-001,-7.553216e-006,6.304569e-006
9.013235e-001,-7.553216e-006,6.316910e-006
9.021176e-001,-8.224612e-006,6.325313e-006
9.029118e-001,-9.231709e-006,6.334137e-006
9.037059e-001,-6.210422e-006,6.338555e-006
9.045000e-001,-4.531929e-006,6.329829e-006
9.052941e-001,-3.524834e-006,6.311944e-006
9.060882e-001,-4.867628e-006,6.291954e-006
9.068824e-001,-5.874723e-006,6.280822e-006
9.076765e-001,-5.203327e-006,6.280822e-006
9.084706e-001,-4.531929e-006,6.267608e-006
9.092647e-001,-4.196231e-006,6.257006e-006
9.100588e-001,-4.364080e-006,6.251669e-006
9.108529e-001,-4.531929e-006,6.236344e-006
9.116471e-001,-1.678492e-006,6.228894e-006
9.124412e-001,-4.196231e-006,6.225112e-006
9.132353e-001,-4.531929e-006,6.218651e-006
9.140294e-001,-4.867628e-006,6.205862e-006
9.148235e-001,-2.853437e-006,6.204994e-006
9.156176e-001,-4.196231e-006,6.201002e-006
9.164118e-001,-1.510643e-006,6.197644e-006
9.172059e-001,-2.853437e-006,6.190343e-006
9.180000e-001,-3.524834e-006,6.184057e-006
9.187941e-001,-5.539025e-006,6.178367e-006
9.195882e-001,-6.881819e-006,6.183070e-006
9.203824e-001,-6.210422e-006,6.193162e-006
9.211765e-001,-8.224612e-006,6.198549e-006
9.219706e-001,-7.888914e-006,6.214682e-006
9.227647e-001,-9.567407e-006,6.227122e-006
9.235588e-001,-1.225299e-005,6.247319e-006
9.243529e-001,-1.023880e-005,6.284264e-006
9.251471e-001,-6.881819e-006,6.305587e-006
9.259412e-001,-6.881819e-006,6.314403e-006
9.267353e-001,-7.049668e-006,6.320368e-006
9.275294e-001,-3.524834e-006,6.324192e-006
9.283235e-001,-4.196231e-006,6.312946e-006
9.291176e-001,-5.539025e-006,6.300313e-006
9.299118e-001,-4.196231e-006,6.293644e-006
9.307059e-001,-4.196231e-006,6.286112e-006
9.315000e-001,-2.853437e-006,6.284571e-006
9.322941e-001,-2.853437e-006,6.281429e-006
9.330882e-001,-4.867628e-006,6.273174e-006
9.338824e-001,-5.706874e-006,6.272316e-006
9.346765e-001,-4.531929e-006,6.276113e-006
9.354706e-001,-4.867628e-006,6.265525e-006
9.362647e-001,-4.196231e-006,6.261743e-006
9.370588e-001,-4.867628e-006,6.251705e-006
9.378529e-001,-4.196231e-006,6.240501e-006
9.386471e-001,-3.524834e-006,6.239753e-006
9.394412e-001,-4.364080e-006,6.240328e-006
9.402353e-001,-5.539025e-006,6.241385e-006
9.410294e-001,-7.888914e-006,6.238833e-006
9.418235e-001,-9.903105e-006,6.242628e-006
9.426176e-001,-8.896010e-006,6.258820e-006
9.434118e-001,-1.023880e-005,6.275770e-006
9.442059e-001,-8.896010e-006,6.300007e-006
9.450000e-001,-7.553216e-006,6.317414e-006
9.457941e-001,-9.231709e-006,6.325398e-006
9.465882e-001,-4.196231e-006,6.326930e-006
9.473824e-001,-5.539025e-006,6.304939e-006
9.481765e-001,-4.196231e-006,6.274698e-006
9.489706e-001,-4.867628e-006,6.264680e-006
9.497647e-001,-4.196231e-006,6.264680e-006
9.505588e-001,-7.553216e-006,6.257113e-006
9.513529e-001,-7.553216e-006,6.265174e-006
9.521471e-001,-3.524834e-006,6.269870e-006
9.529412e-001,-2.853437e-006,6.266584e-006
9.537353e-001,-8.392462e-007,6.256611e-006
9.545294e-001,-3.860533e-006,6.252308e-006
9.553235e-001,-4.867628e-006,6.251253e-006
9.561176e-001,-4.364080e-006,6.254123e-006
9.569118e-001,-4.196231e-006,6.257357e-006
9.577059e-001,-4.867628e-006,6.254029e-006
9.585000e-001,-6.881819e-006,6.250241e-006
9.592941e-001,-8.224612e-006,6.254489e-006
9.600882e-001,-5.874723e-006,6.259651e-006
9.608824e-001,-3.021286e-006,6.253915e-006
9.616765e-001,-4.867628e-006,6.250205e-006
9.624706e-001,-7.217518e-006,6.250205e-006
9.632647e-001,-4.867628e-006,6.261851e-006
9.640588e-001,-1.510643e-006,6.265289e-006
9.648529e-001,-2.517739e-006,6.248655e-006
9.656471e-001,-3.189136e-006,6.236985e-006
9.664412e-001,-3.189136e-006,6.233531e-006
9.672353e-001,-2.182040e-006,6.228289e-006
9.680294e-001,-4.196231e-006,6.226330e-006
9.688235e-001,-2.182040e-006,6.222503e-006
9.696176e-001,-8.392462e-007,6.212748e-006
9.704118e-001,-1.846342e-006,6.209743e-006
9.712059e-001,-1.846342e-006,6.208529e-006
9.720000e-001,-2.182040e-006,6.208818e-006
9.727941e-001,-1.678492e-007,6.207951e-006
9.735882e-001,-3.189136e-006,6.203440e-006
9.743824e-001,-2.853437e-006,6.197189e-006
9.751765e-001,-2.182040e-006,6.185885e-006
9.759706e-001,-1.510643e-006,6.172410e-006
9.767647e-001,-3.189136e-006,6.161935e-006
9.775588e-001,-6.210422e-006,6.149809e-006
9.783529e-001,-6.210422e-006,6.155934e-006
9.791471e-001,-1.258869e-005,6.159780e-006
9.799412e-001,-1.292439e-005,6.191743e-006
9.807353e-001,-1.628138e-005,6.230745e-006
9.815294e-001,-1.359579e-005,6.291278e-006
9.823235e-001,-1.124590e-005,6.328193e-006
9.831176e-001,-1.326009e-005,6.346881e-006
9.839118e-001,-1.225299e-005,6.384936e-006
9.847059e-001,-8.728161e-006,6.421927e-006
9.855000e-001,-8.224612e-006,6.433199e-006
9.862941e-001,-1.023880e-005,6.435821e-006
9.870882e-001,-8.896010e-006,6.450025e-006
9.878824e-001,-4.196231e-006,6.452863e-006
9.886765e-001,-4.867628e-006,6.441840e-006
9.894706e-001,-3.189136e-006,6.443345e-006
9.902647e-001,-4.867628e-006,6.440002e-006
9.910588e-001,-7.553216e-006,6.429125e-006
9.918529e-001,-7.217518e-006,6.432641e-006
9.926471e-001,-6.210422e-006,6.435988e-006
9.934412e-001,-5.539025e-006,6.435988e-006
9.942353e-001,-8.224612e-006,6.438866e-006
9.950294e-001,-9.903105e-006,6.442711e-006
9.958235e-001,-8.224612e-006,6.455233e-006
9.966176e-001,-6.881819e-006,6.462401e-006
9.974118e-001,-9.567407e-006,6.462401e-006
9.982059e-001,-4.364080e-006,6.475439e-006
9.990000e-001,-4.364080e-006,6.475792e-006
9.997941e-001,-2.853437e-006,6.472931e-006
1.000588e+000,-1.846342e-006,6.469103e-006
1.001382e+000,-2.517739e-006,6.464109e-006
1.002176e+000,-2.182040e-006,6.462609e-006
1.002971e+000,-4.867628e-006,6.463775e-006
1.003765e+000,-8.224612e-006,6.469048e-006
1.004559e+000,-8.560311e-006,6.483678e-006
1.005353e+000,-6.881819e-006,6.497336e-006
1.006147e+000,-6.210422e-006,6.507381e-006
1.006941e+000,-5.203327e-006,6.516475e-006
1.007735e+000,-6.546120e-006,6.522915e-006
1.008529e+000,-5.539025e-006,6.530043e-006
1.009324e+000,-5.539025e-006,6.536361e-006
1.010118e+000,-6.210422e-006,6.542672e-006
1.010912e+000,-7.217518e-006,6.544592e-006
1.011706e+000,-7.553216e-006,6.538008e-006
1.012500e+000,-5.203327e-006,6.540368e-006
1.013294e+000,-1.846342e-006,6.535427e-006
1.014088e+000,-5.035477e-007,6.524710e-006
1.014882e+000,-3.524834e-006,6.515352e-006
1.015676e+000,-4.196231e-006,6.501843e-006
1.016471e+000,-4.196231e-006,6.494552e-006
1.017265e+000,-2.853437e-006,6.476401e-006
1.018059e+000,-8.392462e-007,6.465586e-006
1.018853e+000,-1.510643e-006,6.446240e-006
1.019647e+000,-2.853437e-006,6.427226e-006
1.020441e+000,-8.392462e-007,6.409613e-006
1.021235e+000,-4.196231e-006,6.378292e-006
1.022029e+000,-6.881819e-006,6.336403e-006
1.022824e+000,-5.874723e-006,6.306256e-006
1.023618e+000,-3.189136e-006,6.276992e-006
1.024412e+000,-5.203327e-006,6.241385e-006
1.025206e+000,-5.539025e-006,6.223245e-006
1.026000e+000,-4.196231e-006,6.216494e-006
1.026794e+000,-6.881819e-006,6.207655e-006
1.027588e+000,-5.874723e-006,6.217187e-006
1.028382e+000,-6.881819e-006,6.216148e-006
1.029176e+000,-8.224612e-006,6.210949e-006
1.029971e+000,-1.023880e-005,6.223014e-006
1.030765e+000,-7.553216e-006,6.238854e-006
1.031559e+000,-5.539025e-006,6.247362e-006
1.032353e+000,-6.210422e-006,6.250693e-006
1.033147e+000,-4.196231e-006,6.252702e-006
1.033941e+000,-7.217518e-006,6.254023e-006
1.034735e+000,-5.874723e-006,6.265661e-006
1.035529e+000,-2.182040e-006,6.273847e-006
1.036324e+000,-2.517739e-006,6.274876e-006
1.037118e+000,-3.524834e-006,6.275906e-006
1.037912e+000,-3.524834e-006,6.279050e-006
1.038706e+000,-5.539025e-006,6.280801e-006
1.039500e+000,-5.874723e-006,6.288396e-006
1.040294e+000,-6.881819e-006,6.297065e-006
1.041088e+000,-4.531929e-006,6.307827e-006
1.041882e+000,-4.364080e-006,6.312434e-006
1.042676e+000,-4.196231e-006,6.314673e-006
1.043471e+000,-4.867628e-006,6.316548e-006
1.044265e+000,-2.182040e-006,6.316548e-006
1.045059e+000,-3.524834e-006,6.308020e-006
1.045853e+000,-5.035477e-006,6.301416e-006
1.046647e+000,-4.196231e-006,6.290721e-006
1.047441e+000,-4.196231e-006,6.271980e-006
1.048235e+000,-4.867628e-006,6.264422e-006
1.049029e+000,-8.224612e-006,6.251806e-006
1.049824e+000,-9.063859e-006,6.236804e-006
1.050618e+000,-6.881819e-006,6.237574e-006
1.051412e+000,-7.553216e-006,6.235099e-006
1.052206e+000,-6.378271e-006,6.237574e-006
1.053000e+000,-1.124590e-005,6.243461e-006
1.053794e+000,-9.567407e-006,6.263606e-006
1.054588e+000,-4.867628e-006,6.274826e-006
1.055382e+000,-5.539025e-006,6.273969e-006
1.056176e+000,-5.203327e-006,6.277286e-006
1.056971e+000,-2.853437e-006,6.274369e-006
1.057765e+000,-1.510643e-006,6.266642e-006
1.058559e+000,-4.531929e-006,6.258447e-006
1.059353e+000,-5.874723e-006,6.256784e-006
1.060147e+000,-6.881819e-006,6.252308e-006
1.060941e+000,-6.881819e-006,6.239379e-006
1.061735e+000,-4.196231e-006,6.234200e-006
1.062529e+000,-2.853437e-006,6.224117e-006
1.063324e+000,-5.203327e-006,6.217367e-006
1.064118e+000,-5.203327e-006,6.208355e-006
1.064912e+000,-7.049668e-006,6.197941e-006
1.065706e+000,-7.888914e-006,6.198542e-006
1.066500e+000,-6.881819e-006,6.206643e-006
1.067294e+000,-8.896010e-006,6.202825e-006
1.068088e+000,-8.224612e-006,6.210978e-006
1.068882e+000,-8.896010e-006,6.216177e-006
1.069676e+000,-8.224612e-006,6.231919e-006
1.070471e+000,-7.217518e-006,6.248999e-006
1.071265e+000,-3.860533e-006,6.262002e-006
1.072059e+000,-3.524834e-006,6.264179e-006
1.072853e+000,-2.853437e-006,6.266470e-006
1.073647e+000,-2.182040e-006,6.265955e-006
1.074441e+000,-3.860533e-006,6.262690e-006
1.075235e+000,-3.189136e-006,6.253226e-006
1.076029e+000,-3.021286e-006,6.238574e-006
1.076824e+000,-4.196231e-006,6.227598e-006
1.077618e+000,-2.182040e-006,6.222236e-006
1.078412e+000,-2.182040e-006,6.219640e-006
1.079206e+000,-3.524834e-006,6.214791e-006
1.080000e+000,-6.881819e-006,6.215888e-006
1.080794e+000,-6.881819e-006,6.226791e-006
1.081588e+000,-6.546120e-006,6.234394e-006
1.082382e+000,-7.217518e-006,6.237502e-006
1.083176e+000,-6.881819e-006,6.242966e-006
1.083971e+000,-5.874723e-006,6.245207e-006
1.084765e+000,-6.881819e-006,6.245207e-006
1.085559e+000,-6.881819e-006,6.249459e-006
1.086353e+000,-7.721065e-006,6.246335e-006
1.087147e+000,-6.378271e-006,6.251698e-006
1.087941e+000,-6.881819e-006,6.259981e-006
1.088735e+000,-8.560311e-006,6.268861e-006
1.089529e+000,-2.853437e-006,6.281443e-006
1.090324e+000,-1.510643e-006,6.281443e-006
1.091118e+000,-4.196231e-006,6.279443e-006
1.091912e+000,-3.860533e-006,6.277042e-006
1.092706e+000,-4.867628e-006,6.266341e-006
1.093500e+000,-4.531929e-006,6.252236e-006
1.094294e+000,-5.539025e-006,6.240227e-006
1.095088e+000,-7.553216e-006,6.240227e-006
1.095882e+000,-3.692683e-006,6.245976e-006
1.096676e+000,-8.224612e-006,6.222682e-006
1.097471e+000,-6.881819e-006,6.221240e-006
1.098265e+000,-5.539025e-006,6.211541e-006
1.099059e+000,-2.853437e-006,6.186936e-006
1.099853e+000,-6.881819e-006,6.157376e-006
1.100647e+000,-8.896010e-006,6.157376e-006
1.101441e+000,-8.224612e-006,6.163085e-006
1.102235e+000,-7.888914e-006,6.141735e-006
1.103029e+000,-6.210422e-006,6.134133e-006
1.103824e+000,-4.867628e-006,6.118668e-006
1.104618e+000,-4.867628e-006,6.112506e-006
1.105412e+000,-2.853437e-006,6.108630e-006
1.106206e+000,-2.182040e-006,6.095867e-006
1.107000e+000,-3.189136e-006,6.084729e-006
1.107794e+000,-2.853437e-006,6.079360e-006
1.108588e+000,-2.182040e-006,6.066536e-006
1.109382e+000,-2.182040e-006,6.043716e-006
1.110176e+000,-5.203327e-006,6.029923e-006
1.110971e+000,-6.546120e-006,6.024564e-006
1.111765e+000,-6.881819e-006,6.034207e-006
1.112559e+000,-7.553216e-006,6.044288e-006
1.113353e+000,-7.217518e-006,6.054670e-006
1.114147e+000,-5.203327e-006,6.068288e-006
1.114941e+000,-4.196231e-006,6.075322e-006
1.115735e+000,-2.182040e-006,6.079338e-006
1.116529e+000,-2.853437e-006,6.078925e-006
1.117324e+000,-3.860533e-006,6.077153e-006
1.118118e+000,-7.553216e-006,6.075677e-006
1.118912e+000,-8.224612e-006,6.087951e-006
1.119706e+000,-7.553216e-006,6.105552e-006
1.120500e+000,-7.888914e-006,6.120054e-006
1.121294e+000,-8.560311e-006,6.135633e-006
1.122088e+000,-5.874723e-006,6.154030e-006
1.122882e+000,-5.035477e-006,6.155955e-006
1.123676e+000,-4.867628e-006,6.159299e-006
1.124471e+000,-3.189136e-006,6.157492e-006
1.125265e+000,-3.692683e-006,6.158891e-006
1.126059e+000,-5.203327e-006,6.162350e-006
1.126853e+000,-4.867628e-006,6.168615e-006
1.127647e+000,-7.553216e-006,6.169429e-006
1.128441e+000,-7.553216e-006,6.175244e-006
1.129235e+000,-8.224612e-006,6.185406e-006
1.130029e+000,-1.091020e-005,6.192887e-006
1.130824e+000,-1.091020e-005,6.208803e-006
1.131618e+000,-8.560311e-006,6.232782e-006
1.132412e+000,-8.896010e-006,6.243655e-006
1.133206e+000,-1.158160e-005,6.258188e-006
1.134000e+000,-9.567407e-006,6.285370e-006
1.134794e+000,-8.224612e-006,6.294100e-006
1.135588e+000,-5.874723e-006,6.282914e-006
1.136382e+000,-4.867628e-006,6.266785e-006
1.137176e+000,-2.349889e-006,6.246134e-006
1.137971e+000,-3.189136e-006,6.227338e-006
1.138765e+000,-8.392462e-007,6.206498e-006
1.139559e+000,-2.182040e-006,6.187850e-006
1.140353e+000,-1.510643e-006,6.176878e-006
1.141147e+000,2.182040e-006,6.168564e-006
1.141941e+000,5.035477e-007,6.161869e-006
1.142735e+000,-8.392462e-007,6.155809e-006
1.143529e+000,-3.189136e-006,6.145459e-006
1.144324e+000,-3.692683e-006,6.135815e-006
1.145118e+000,-2.853437e-006,6.130395e-006
1.145912e+000,-1.510643e-006,6.117678e-006
1.146706e+000,-1.678492e-006,6.102053e-006
1.147500e+000,-1.678492e-007,6.089181e-006
1.148294e+000,4.196231e-006,6.076791e-006
1.149088e+000,8.392462e-007,6.067748e-006
1.149882e+000,-1.510643e-006,6.051579e-006
1.150676e+000,-3.524834e-006,6.037150e-006
1.151471e+000,-6.210422e-006,6.025368e-006
1.152265e+000,-6.546120e-006,6.017679e-006
1.153059e+000,-6.881819e-006,6.006457e-006
1.153853e+000,-6.881819e-006,6.008786e-006
1.154647e+000,-6.210422e-006,6.015890e-006
1.155441e+000,-5.874723e-006,6.022807e-006
1.156235e+000,-9.231709e-006,6.025666e-006
1.157029e+000,-1.023880e-005,6.039053e-006
1.157824e+000,-1.007095e-005,6.059521e-006
1.158618e+000,-1.091020e-005,6.080740e-006
1.159412e+000,-1.158160e-005,6.107241e-006
1.160206e+000,-1.124590e-005,6.137175e-006
1.161000e+000,-1.158160e-005,6.164599e-006
1.161794e+000,-9.903105e-006,6.198426e-006
1.162588e+000,-1.158160e-005,6.219063e-006
1.163382e+000,-9.903105e-006,6.248080e-006
1.164176e+000,-9.567407e-006,6.267007e-006
1.164971e+000,-9.567407e-006,6.288161e-006
1.165765e+000,-1.225299e-005,6.306854e-006
1.166559e+000,-1.091020e-005,6.344074e-006
1.167353e+000,-7.721065e-006,6.371847e-006
1.168147e+000,-7.553216e-006,6.383629e-006
1.168941e+000,-8.560311e-006,6.390203e-006
1.169735e+000,-7.553216e-006,6.396659e-006
1.170529e+000,-8.896010e-006,6.401258e-006
1.171324e+000,-1.191730e-005,6.404116e-006
1.172118e+000,-6.881819e-006,6.423925e-006
1.172912e+000,-4.867628e-006,6.412965e-006
1.173706e+000,-3.860533e-006,6.381492e-006
1.174500e+000,-1.174945e-006,6.359012e-006
1.175294e+000,-2.349889e-006,6.347489e-006
1.176088e+000,-3.524834e-006,6.336984e-006
1.176882e+000,-4.196231e-006,6.327611e-006
1.177676e+000,-3.860533e-006,6.328916e-006
1.178471e+000,-2.182040e-006,6.328235e-006
1.179265e+000,-3.524834e-006,6.321710e-006
1.180059e+000,-1.846342e-006,6.320404e-006
1.180853e+000,-1.678492e-007,6.316825e-006
1.181647e+000,-1.007095e-006,6.314780e-006
1.182441e+000,-1.678492e-006,6.312982e-006
1.183235e+000,-3.692683e-006,6.307714e-006
1.184029e+000,-2.853437e-006,6.302933e-006
1.184824e+000,-3.189136e-006,6.299801e-006
1.185618e+000,-4.196231e-006,6.296381e-006
1.186412e+000,-4.196231e-006,6.296381e-006
1.187206e+000,-5.706874e-006,6.294842e-006
1.188000e+000,-7.217518e-006,6.298625e-006
1.188794e+000,-4.531929e-006,6.308646e-006
1.189588e+000,-3.524834e-006,6.309023e-006
1.190382e+000,-4.196231e-006,6.304413e-006
1.191176e+000,-6.881819e-006,6.293131e-006
1.191971e+000,-1.023880e-005,6.280286e-006
1.192765e+000,-1.225299e-005,6.286798e-006
1.193559e+000,-1.091020e-005,6.298262e-006
1.194353e+000,-1.057450e-005,6.308340e-006
1.195147e+000,-1.158160e-005,6.322150e-006
1.195941e+000,-1.158160e-005,6.334456e-006
1.196735e+000,-6.210422e-006,6.363681e-006
1.197529e+000,-6.546120e-006,6.365654e-006
1.198324e+000,-8.392462e-006,6.371966e-006
1.199118e+000,-8.896010e-006,6.383636e-006
1.199912e+000,-8.224612e-006,6.398966e-006
1.200706e+000,-5.539025e-006,6.401601e-006
1.201500e+000,-4.867628e-006,6.395038e-006
1.202294e+000,-3.524834e-006,6.397844e-006
1.203088e+000,-2.853437e-006,6.398910e-006
1.203882e+000,-2.853437e-006,6.400760e-006
1.204676e+000,1.174945e-006,6.399077e-006
1.205471e+000,5.035477e-007,6.393523e-006
1.206265e+000,1.174945e-006,6.388841e-006
1.207059e+000,4.364080e-006,6.384795e-006
1.207853e+000,5.035477e-007,6.383635e-006
1.208647e+000,-5.035477e-007,6.371874e-006
1.209441e+000,-2.349889e-006,6.355011e-006
1.210235e+000,-1.510643e-006,6.347742e-006
1.211029e+000,-2.182040e-006,6.346025e-006
1.211824e+000,-3.524834e-006,6.341273e-006
1.212618e+000,-5.539025e-006,6.331304e-006
1.213412e+000,-2.182040e-006,6.333061e-006
1.214206e+000,-1.510643e-006,6.333684e-006
1.215000e+000,-3.524834e-006,6.332664e-006
1.215794e+000,-5.539025e-006,6.333231e-006
1.216588e+000,-6.881819e-006,6.338385e-006
1.217382e+000,-7.217518e-006,6.349078e-006
1.218176e+000,-6.881819e-006,6.357721e-006
1.218971e+000,-7.888914e-006,6.368381e-006
1.219765e+000,-6.881819e-006,6.383748e-006
1.220559e+000,-7.553216e-006,6.394701e-006
1.221353e+000,-5.539025e-006,6.408045e-006
1.222147e+000,-7.721065e-006,6.414482e-006
1.222941e+000,-8.224612e-006,6.429258e-006
1.223735e+000,-8.224612e-006,6.443477e-006
1.224529e+000,-5.874723e-006,6.458165e-006
1.225324e+000,-6.546120e-006,6.465496e-006
1.226118e+000,-4.196231e-006,6.475480e-006
1.226912e+000,-7.217518e-006,6.477308e-006
1.227706e+000,-8.224612e-006,6.480632e-006
1.228500e+000,-9.567407e-006,6.487772e-006
1.229294e+000,-8.560311e-006,6.471322e-006
1.230088e+000,-9.567407e-006,6.448209e-006
1.230882e+000,-8.560311e-006,6.405209e-006
1.231676e+000,-7.553216e-006,6.377413e-006
1.232471e+000,-4.196231e-006,6.360056e-006
1.233265e+000,-4.867628e-006,6.320318e-006
1.234059e+000,-5.539025e-006,6.288381e-006
1.234853e+000,-5.539025e-006,6.276849e-006
1.235647e+000,-4.196231e-006,6.267465e-006
1.236441e+000,-5.874723e-006,6.245265e-006
1.237235e+000,-6.881819e-006,6.233876e-006
1.238029e+000,-8.392462e-007,6.241471e-006
1.238824e+000,-1.846342e-006,6.235603e-006
1.239618e+000,-5.203327e-006,6.233876e-006
1.240412e+000,-4.531929e-006,6.234739e-006
1.241206e+000,-4.196231e-006,6.225407e-006
1.242000e+000,-2.853437e-006,6.216580e-006
1.242794e+000,-4.867628e-006,6.208782e-006
1.243588e+000,-2.182040e-006,6.206989e-006
1.244382e+000,-3.524834e-006,6.190836e-006
1.245176e+000,-7.721065e-006,6.168767e-006
1.245971e+000,-8.224612e-006,6.166694e-006
1.246765e+000,-7.217518e-006,6.171930e-006
1.247559e+000,-6.210422e-006,6.161746e-006
1.248353e+000,-1.158160e-005,6.166789e-006
1.249147e+000,-8.392462e-006,6.196435e-006
1.249941e+000,-7.217518e-006,6.212422e-006
1.250735e+000,-6.546120e-006,6.224888e-006
1.251529e+000,-4.867628e-006,6.234221e-006
1.252324e+000,-6.210422e-006,6.239055e-006
1.253118e+000,-6.881819e-006,6.242851e-006
1.253912e+000,-8.392462e-006,6.237674e-006
1.254706e+000,-5.203327e-006,6.236948e-006
1.255500e+000,-4.196231e-006,6.231767e-006
1.256294e+000,-6.546120e-006,6.226408e-006
1.257088e+000,-6.378271e-006,6.230442e-006
1.257882e+000,-3.524834e-006,6.229887e-006
1.258676e+000,-3.189136e-006,6.225219e-006
1.259471e+000,-2.182040e-006,6.219971e-006
1.260265e+000,-3.860533e-006,6.211310e-006
1.261059e+000,-1.510643e-006,6.201769e-006
1.261853e+000,5.035477e-007,6.187690e-006
1.262647e+000,-5.035477e-007,6.180785e-006
1.263441e+000,-8.392462e-007,6.179971e-006
1.264235e+000,-1.510643e-006,6.180087e-006
1.265029e+000,-4.196231e-006,6.177474e-006
1.265824e+000,-5.539025e-006,6.177474e-006
1.266618e+000,-8.224612e-006,6.180843e-006
1.267412e+000,-7.217518e-006,6.196153e-006
1.268206e+000,-7.553216e-006,6.209345e-006
1.269000e+000,-9.063859e-006,6.223375e-006
1.269794e+000,-9.231709e-006,6.242283e-006
1.270588e+000,-8.896010e-006,6.263806e-006
1.271382e+000,-9.231709e-006,6.279429e-006
1.272176e+000,-9.903105e-006,6.289024e-006
1.272971e+000,-1.124590e-005,6.305096e-006
1.273765e+000,-7.888914e-006,6.334399e-006
1.274559e+000,-6.881819e-006,6.343232e-006
1.275353e+000,-7.888914e-006,6.347417e-006
1.276147e+000,-4.867628e-006,6.358603e-006
1.276941e+000,-3.524834e-006,6.352674e-006
1.277735e+000,-1.510643e-006,6.347134e-006
1.278529e+000,-5.035477e-007,6.335815e-006
1.279324e+000,-1.678492e-007,6.318855e-006
1.280118e+000,-4.196231e-006,6.292389e-006
1.280912e+000,-5.203327e-006,6.282400e-006
1.281706e+000,-4.196231e-006,6.281486e-006
1.282500e+000,-4.196231e-006,6.276170e-006
1.283294e+000,-4.196231e-006,6.276170e-006
1.284088e+000,-5.539025e-006,6.267415e-006
1.284882e+000,-4.867628e-006,6.266441e-006
1.285676e+000,-4.364080e-006,6.271250e-006
1.286471e+000,-5.035477e-006,6.274476e-006
1.287265e+000,-6.042573e-006,6.277756e-006
1.288059e+000,-9.903105e-006,6.283864e-006
1.288853e+000,-8.560311e-006,6.300917e-006
1.289647e+000,-8.224612e-006,6.310707e-006
1.290441e+000,-7.553216e-006,6.315823e-006
1.291235e+000,-6.546120e-006,6.325022e-006
1.292029e+000,-6.210422e-006,6.331013e-006
1.292824e+000,-5.539025e-006,6.336283e-006
1.293618e+000,-6.210422e-006,6.338038e-006
1.294412e+000,-4.196231e-006,6.346527e-006
1.295206e+000,-4.867628e-006,6.347827e-006
1.296000e+000,-4.196231e-006,6.347410e-006
1.296794e+000,-4.531929e-006,6.347410e-006
1.297588e+000,-2.853437e-006,6.348145e-006
1.298382e+000,-2.349889e-006,6.344243e-006
1.299176e+000,-3.524834e-006,6.328632e-006
1.299971e+000,-4.364080e-006,6.311062e-006
1.300765e+000,-3.524834e-006,6.303914e-006
1.301559e+000,-5.539025e-006,6.292632e-006
1.302353e+000,-5.874723e-006,6.290100e-006
1.303147e+000,-3.524834e-006,6.266778e-006
1.303941e+000,-6.881819e-006,6.246644e-006
1.304735e+000,-7.553216e-006,6.252673e-006
1.305529e+000,-6.881819e-006,6.259385e-006
1.306324e+000,-6.881819e-006,6.264544e-006
1.307118e+000,-8.560311e-006,6.274504e-006
1.307912e+000,-6.210422e-006,6.292496e-006
1.308706e+000,-4.531929e-006,6.297058e-006
1.309500e+000,-5.874723e-006,6.293523e-006
1.310294e+000,-4.364080e-006,6.290271e-006
1.311088e+000,-2.853437e-006,6.283100e-006
1.311882e+000,-6.210422e-006,6.280700e-006
1.312676e+000,-6.042573e-006,6.288410e-006
1.313471e+000,-6.881819e-006,6.290799e-006
1.314265e+000,-6.881819e-006,6.295932e-006
1.315059e+000,-8.224612e-006,6.295340e-006
1.315853e+000,-1.091020e-005,6.296708e-006
1.316647e+000,-1.158160e-005,6.314807e-006
1.317441e+000,-1.225299e-005,6.328660e-006
1.318235e+000,-1.124590e-005,6.349382e-006
1.319029e+000,-8.560311e-006,6.361241e-006
1.319824e+000,-8.728161e-006,6.362651e-006
1.320618e+000,-8.560311e-006,6.368677e-006
1.321412e+000,-3.860533e-006,6.383255e-006
1.322206e+000,-1.510643e-006,6.383874e-006
1.323000e+000,-2.853437e-006,6.382412e-006
1.323794e+000,-2.853437e-006,6.383255e-006
1.324588e+000,-4.531929e-006,6.381568e-006
1.325382e+000,-5.539025e-006,6.384154e-006
1.326176e+000,-6.042573e-006,6.389528e-006
1.326971e+000,-7.217518e-006,6.394238e-006
1.327765e+000,-7.049668e-006,6.406014e-006
1.328559e+000,-6.546120e-006,6.417174e-006
1.329353e+000,-5.539025e-006,6.424719e-006
1.330147e+000,-4.867628e-006,6.420584e-006
1.330941e+000,-4.196231e-006,6.414713e-006
1.331735e+000,-4.867628e-006,6.408443e-006
1.332529e+000,-4.867628e-006,6.401383e-006
1.333324e+000,-4.196231e-006,6.395494e-006
1.334118e+000,-2.014191e-006,6.391283e-006
1.334912e+000,-5.035477e-007,6.380486e-006
1.335706e+000,-2.853437e-006,6.368719e-006
1.336500e+000,-5.203327e-006,6.355836e-006
1.337294e+000,-3.524834e-006,6.352426e-006
1.338088e+000,-4.867628e-006,6.343663e-006
1.338882e+000,-3.524834e-006,6.331204e-006
1.339676e+000,-2.517739e-006,6.332281e-006
1.340471e+000,-4.196231e-006,6.333301e-006
1.341265e+000,-6.210422e-006,6.333301e-006
1.342059e+000,-6.210422e-006,6.339249e-006
1.342853e+000,-6.210422e-006,6.342984e-006
1.343647e+000,-5.706874e-006,6.347509e-006
1.344441e+000,-7.217518e-006,6.347982e-006
1.345235e+000,-5.706874e-006,6.346738e-006
1.346029e+000,-5.874723e-006,6.351487e-006
1.346824e+000,-5.539025e-006,6.343175e-006
1.347618e+000,-4.867628e-006,6.338987e-006
1.348412e+000,-3.524834e-006,6.337231e-006
1.349206e+000,-4.531929e-006,6.338307e-006
1.350000e+000,-5.539025e-006,6.331565e-006
1.350794e+000,-6.881819e-006,6.319367e-006
1.351588e+000,-8.224612e-006,6.314253e-006
1.352382e+000,-4.531929e-006,6.315617e-006
1.353176e+000,-4.196231e-006,6.311069e-006
1.353971e+000,-6.210422e-006,6.309534e-006
1.354765e+000,-9.903105e-006,6.313287e-006
1.355559e+000,-8.896010e-006,6.335928e-006
1.356353e+000,-7.888914e-006,6.354593e-006
1.357147e+000,-5.874723e-006,6.367626e-006
1.357941e+000,-8.224612e-006,6.374217e-006
1.358735e+000,-1.091020e-005,6.389907e-006
1.359529e+000,-8.896010e-006,6.418320e-006
1.360324e+000,-1.023880e-005,6.431224e-006
1.361118e+000,-1.023880e-005,6.446552e-006
1.361912e+000,-6.881819e-006,6.460733e-006
1.362706e+000,-6.881819e-006,6.458344e-006
1.363500e+000,-9.567407e-006,6.457177e-006
1.364294e+000,-7.721065e-006,6.473053e-006
1.365088e+000,-7.553216e-006,6.483378e-006
1.365882e+000,-4.364080e-006,6.496209e-006
1.366676e+000,-1.007095e-006,6.498881e-006
1.367471e+000,8.392462e-007,6.495477e-006
1.368265e+000,-3.356985e-007,6.481649e-006
1.369059e+000,5.035477e-007,6.465037e-006
1.369853e+000,1.174945e-006,6.451032e-006
1.370647e+000,1.174945e-006,6.435993e-006
1.371441e+000,-1.174945e-006,6.418180e-006
1.372235e+000,-2.853437e-006,6.409955e-006
1.373029e+000,-3.189136e-006,6.405677e-006
1.373824e+000,-2.182040e-006,6.402315e-006
1.374618e+000,-3.860533e-006,6.400969e-006
1.375412e+000,-5.539025e-006,6.401285e-006
1.376206e+000,-4.196231e-006,6.402181e-006
1.377000e+000,-5.706874e-006,6.400668e-006
1.377794e+000,-5.539025e-006,6.394574e-006
1.378588e+000,-6.210422e-006,6.388004e-006
1.379382e+000,-7.217518e-006,6.380752e-006
1.380176e+000,-7.217518e-006,6.364025e-006
1.380971e+000,-6.210422e-006,6.347254e-006
1.381765e+000,-5.539025e-006,6.338540e-006
1.382559e+000,-7.217518e-006,6.326355e-006
1.383353e+000,-6.210422e-006,6.305671e-006
1.384147e+000,-6.378271e-006,6.292281e-006
1.384941e+000,-8.224612e-006,6.285455e-006
1.385735e+000,-7.553216e-006,6.293842e-006
1.386529e+000,-8.224612e-006,6.302276e-006
1.387324e+000,-7.888914e-006,6.317953e-006
1.388118e+000,-7.049668e-006,6.331061e-006
1.388912e+000,-7.721065e-006,6.343372e-006
1.389706e+000,-8.224612e-006,6.357127e-006
1.390500e+000,-7.553216e-006,6.373478e-006
1.391294e+000,-5.539025e-006,6.386529e-006
1.392088e+000,-2.853437e-006,6.394111e-006
1.392882e+000,-2.853437e-006,6.395963e-006
1.393676e+000,-2.182040e-006,6.395458e-006
1.394471e+000,-2.182040e-006,6.393248e-006
1.395265e+000,-1.510643e-006,6.392405e-006
1.396059e+000,-3.021286e-006,6.392405e-006
1.396853e+000,-3.189136e-006,6.393977e-006
1.397647e+000,-1.846342e-006,6.396503e-006
1.398441e+000,-3.860533e-006,6.392967e-006
1.399235e+000,-5.539025e-006,6.396503e-006
1.400029e+000,-8.560311e-006,6.403568e-006
1.400824e+000,-6.881819e-006,6.418683e-006
1.401618e+000,-5.539025e-006,6.420863e-006
1.402412e+000,-4.867628e-006,6.417844e-006
1.403206e+000,-4.867628e-006,6.411970e-006
1.404000e+000,-7.049668e-006,6.406090e-006
1.404794e+000,-8.392462e-006,6.408856e-006
1.405588e+000,-6.881819e-006,6.417774e-006
1.406382e+000,-8.224612e-006,6.408373e-006
1.407176e+000,-7.217518e-006,6.399126e-006
1.407971e+000,-2.349889e-006,6.386838e-006
1.408765e+000,-1.846342e-006,6.358475e-006
1.409559e+000,-3.692683e-006,6.325653e-006
1.410353e+000,-3.021286e-006,6.297185e-006
1.411147e+000,-4.867628e-006,6.265495e-006
1.411941e+000,-6.210422e-006,6.246564e-006
1.412735e+000,-2.853437e-006,6.222155e-006
1.413529e+000,-1.846342e-006,6.199098e-006
1.414324e+000,-2.853437e-006,6.176420e-006
1.415118e+000,-2.182040e-006,6.154883e-006
1.415912e+000,-4.196231e-006,6.117156e-006
1.416706e+000,-4.196231e-006,6.090698e-006
1.417500e+000,-7.217518e-006,6.079706e-006
1.418294e+000,-1.040665e-005,6.078407e-006
1.419088e+000,-9.567407e-006,6.087574e-006
1.419882e+000,-7.553216e-006,6.096587e-006
1.420676e+000,-6.881819e-006,6.090816e-006
1.421471e+000,-8.224612e-006,6.066017e-006
1.422265e+000,-6.210422e-006,6.071339e-006
1.423059e+000,-4.364080e-006,6.075240e-006
1.423853e+000,-6.210422e-006,6.076325e-006
1.424647e+000,-8.560311e-006,6.086063e-006
1.425441e+000,-7.553216e-006,6.103765e-006
1.426235e+000,-5.874723e-006,6.115396e-006
1.427029e+000,-7.888914e-006,6.119796e-006
1.427824e+000,-1.023880e-005,6.132099e-006
1.428618e+000,-1.091020e-005,6.158030e-006
1.429412e+000,-8.224612e-006,6.185536e-006
1.430206e+000,-7.553216e-006,6.202050e-006
1.431000e+000,-6.042573e-006,6.216675e-006
1.431794e+000,-6.210422e-006,6.225760e-006
1.432588e+000,-6.210422e-006,6.234898e-006
1.433382e+000,-4.196231e-006,6.241263e-006
1.434176e+000,-4.196231e-006,6.243677e-006
1.434971e+000,-5.874723e-006,6.245574e-006
1.435765e+000,-4.196231e-006,6.249883e-006
1.436559e+000,-2.182040e-006,6.249883e-006
1.437353e+000,-2.853437e-006,6.242793e-006
1.438147e+000,-4.867628e-006,6.231573e-006
1.438941e+000,-5.874723e-006,6.232379e-006
1.439735e+000,-4.196231e-006,6.238020e-006
1.440529e+000,-2.517739e-006,6.238020e-006
1.441324e+000,-5.539025e-006,6.227540e-006
1.442118e+000,-4.196231e-006,6.208551e-006
1.442912e+000,-7.049668e-006,6.174467e-006
1.443706e+000,-6.881819e-006,6.156560e-006
1.444500e+000,-7.217518e-006,6.139865e-006
1.445294e+000,-7.553216e-006,6.118551e-006
1.446088e+000,-6.546120e-006,6.098457e-006
1.446882e+000,-5.539025e-006,6.099575e-006
1.447676e+000,-5.706874e-006,6.096397e-006
1.448471e+000,-6.210422e-006,6.086499e-006
1.449265e+000,-6.210422e-006,6.075876e-006
1.450059e+000,-4.531929e-006,6.068251e-006
1.450853e+000,-8.224612e-006,6.065589e-006
1.451647e+000,-6.881819e-006,6.077116e-006
1.452441e+000,-3.524834e-006,6.086264e-006
1.453235e+000,-2.182040e-006,6.087384e-006
1.454029e+000,-3.524834e-006,6.086499e-006
1.454824e+000,-3.860533e-006,6.089388e-006
1.455618e+000,-4.531929e-006,6.093218e-006
1.456412e+000,-5.539025e-006,6.098222e-006
1.457206e+000,-7.721065e-006,6.101260e-006
1.458000e+000,-6.210422e-006,6.116733e-006
1.458794e+000,-4.196231e-006,6.126699e-006
1.459588e+000,-6.210422e-006,6.129840e-006
1.460382e+000,-6.881819e-006,6.139259e-006
1.461176e+000,-7.553216e-006,6.150298e-006
1.461971e+000,-5.539025e-006,6.161841e-006
1.462765e+000,-4.531929e-006,6.161841e-006
1.463559e+000,-6.881819e-006,6.165917e-006
1.464353e+000,-9.567407e-006,6.177547e-006
1.465147e+000,-8.896010e-006,6.197906e-006
1.465941e+000,-6.210422e-006,6.210343e-006
1.466735e+000,-2.182040e-006,6.208089e-006
1.467529e+000,-2.853437e-006,6.195937e-006
1.468324e+000,-2.182040e-006,6.185850e-006
1.469118e+000,-1.846342e-006,6.171037e-006
1.469912e+000,-3.021286e-006,6.159686e-006
1.470706e+000,-4.531929e-006,6.147284e-006
1.471500e+000,-3.524834e-006,6.144657e-006
1.472294e+000,-4.196231e-006,6.132415e-006
1.473088e+000,-5.706874e-006,6.119409e-006
1.473882e+000,-4.196231e-006,6.110275e-006
1.474676e+000,-3.189136e-006,6.105868e-006
1.475471e+000,-5.539025e-006,6.097339e-006
1.476265e+000,-5.874723e-006,6.100752e-006
1.477059e+000,-7.553216e-006,6.096162e-006
1.477853e+000,-8.224612e-006,6.093394e-006
1.478647e+000,-6.210422e-006,6.087148e-006
1.479441e+000,-5.035477e-006,6.078061e-006
1.480235e+000,-8.896010e-006,6.060698e-006
1.481029e+000,-8.560311e-006,6.062238e-006
1.481824e+000,-3.189136e-006,6.066499e-006
1.482618e+000,-3.189136e-006,6.064546e-006
1.483412e+000,-2.182040e-006,6.060995e-006
1.484206e+000,-3.524834e-006,6.054181e-006
1.485000e+000,-2.853437e-006,6.049377e-006
1.485794e+000,-8.392462e-007,6.046885e-006
1.486588e+000,-3.189136e-006,6.037976e-006
1.487382e+000,-4.867628e-006,6.028160e-006
1.488176e+000,-6.881819e-006,6.034230e-006
1.488971e+000,-4.196231e-006,6.045816e-006
1.489765e+000,-4.867628e-006,6.043323e-006
1.490559e+000,-6.881819e-006,6.044154e-006
1.491353e+000,-6.881819e-006,6.051987e-006
1.492147e+000,-6.881819e-006,6.062297e-006
1.492941e+000,-3.692683e-006,6.068510e-006
1.493735e+000,-5.539025e-006,6.070838e-006
1.494529e+000,-4.867628e-006,6.075625e-006
1.495324e+000,-5.539025e-006,6.066203e-006
1.496118e+000,-4.531929e-006,6.056493e-006
1.496912e+000,-6.378271e-006,6.048191e-006
1.497706e+000,-8.224612e-006,6.048747e-006
1.498500e+000,-9.567407e-006,6.031218e-006
1.499294e+000,-6.378271e-006,6.036787e-006
1.500088e+000,-8.560311e-006,6.033777e-006
1.500882e+000,-8.224612e-006,6.041801e-006
1.501676e+000,-4.196231e-006,6.053373e-006
1.502471e+000,-5.874723e-006,6.047857e-006
1.503265e+000,-6.378271e-006,6.044474e-006
1.504059e+000,-6.210422e-006,6.036631e-006
1.504853e+000,-5.203327e-006,6.039662e-006
1.505647e+000,-3.524834e-006,6.042158e-006
1.506441e+000,-1.678492e-007,6.034133e-006
1.507235e+000,-4.196231e-006,6.023396e-006
1.508029e+000,-4.196231e-006,6.024766e-006
1.508824e+000,-7.553216e-006,6.026731e-006
1.509618e+000,-7.217518e-006,6.040531e-006
1.510412e+000,-9.903105e-006,6.050327e-006
1.511206e+000,-9.567407e-006,6.075485e-006
1.512000e+000,-5.706874e-006,6.099362e-006
1.512794e+000,-9.567407e-006,6.107793e-006
1.513588e+000,-1.225299e-005,6.131427e-006
1.514382e+000,-7.721065e-006,6.169706e-006
1.515176e+000,-6.210422e-006,6.180539e-006
1.515971e+000,-6.546120e-006,6.182570e-006
1.516765e+000,-6.881819e-006,6.176182e-006
1.517559e+000,-8.896010e-006,6.174962e-006
1.518353e+000,-1.023880e-005,6.180655e-006
1.519147e+000,-6.881819e-006,6.186495e-006
1.519941e+000,-9.231709e-006,6.176741e-006
1.520735e+000,-7.217518e-006,6.178310e-006
1.521529e+000,-2.853437e-006,6.169765e-006
1.522324e+000,-3.356985e-007,6.146511e-006
1.523118e+000,-8.392462e-007,6.113688e-006
1.523912e+000,-8.392462e-007,6.097641e-006
1.524706e+000,8.392462e-007,6.085445e-006
1.525500e+000,-1.174945e-006,6.069324e-006
1.526294e+000,-2.853437e-006,6.063467e-006
1.527088e+000,-2.853437e-006,6.062342e-006
1.527882e+000,-6.210422e-006,6.063881e-006
1.528676e+000,-8.224612e-006,6.073934e-006
1.529471e+000,-5.035477e-006,6.091635e-006
1.530265e+000,-5.874723e-006,6.093660e-006
1.531059e+000,-6.881819e-006,6.095603e-006
1.531853e+000,-5.539025e-006,6.103370e-006
1.532647e+000,-6.210422e-006,6.106780e-006
1.533441e+000,-6.210422e-006,6.112243e-006
1.534235e+000,-5.035477e-006,6.114298e-006
1.535029e+000,-6.881819e-006,6.114731e-006
1.535824e+000,-1.426719e-005,6.122100e-006
1.536618e+000,-1.359579e-005,6.168274e-006
1.537412e+000,-1.359579e-005,6.206449e-006
1.538206e+000,-1.158160e-005,6.228672e-006
1.539000e+000,-1.023880e-005,6.244210e-006
1.539794e+000,-9.063859e-006,6.253686e-006
1.540588e+000,-4.196231e-006,6.260075e-006
1.541382e+000,-2.182040e-006,6.253651e-006
1.542176e+000,-1.678492e-007,6.245037e-006
1.542971e+000,3.860533e-006,6.237216e-006
1.543765e+000,5.035477e-007,6.231171e-006
1.544559e+000,-2.182040e-006,6.226735e-006
1.545353e+000,-2.853437e-006,6.221891e-006
1.546147e+000,-5.035477e-006,6.219468e-006
1.546941e+000,-7.553216e-006,6.220701e-006
1.547735e+000,-8.896010e-006,6.233208e-006
1.548529e+000,-2.014191e-006,6.251987e-006
1.549324e+000,1.007095e-006,6.249855e-006
1.550118e+000,-8.392462e-007,6.245259e-006
1.550912e+000,1.174945e-006,6.242271e-006
1.551706e+000,-4.196231e-006,6.234791e-006
1.552500e+000,-6.881819e-006,6.230473e-006
1.553294e+000,-5.539025e-006,6.239395e-006
1.554088e+000,-5.874723e-006,6.235137e-006
1.554882e+000,-7.553216e-006,6.229378e-006
1.555676e+000,-9.567407e-006,6.231855e-006
1.556471e+000,-7.217518e-006,6.243133e-006
1.557265e+000,-8.224612e-006,6.237727e-006
1.558059e+000,-8.896010e-006,6.245145e-006
1.558853e+000,-9.063859e-006,6.260068e-006
1.559647e+000,-7.553216e-006,6.272175e-006
1.560441e+000,-8.896010e-006,6.281816e-006
1.561235e+000,-7.553216e-006,6.299787e-006
1.562029e+000,-8.896010e-006,6.304457e-006
1.562824e+000,-7.385367e-006,6.315214e-006
1.563618e+000,-5.706874e-006,6.317026e-006
1.564412e+000,-4.196231e-006,6.313296e-006
1.565206e+000,-6.546120e-006,6.300663e-006
1.566000e+000,-5.539025e-006,6.281381e-006
1.566794e+000,-4.364080e-006,6.255100e-006
1.567588e+000,-4.531929e-006,6.221639e-006
1.568382e+000,-4.364080e-006,6.194468e-006
1.569176e+000,-4.531929e-006,6.180510e-006
1.569971e+000,-4.867628e-006,6.166158e-006
1.570765e+000,-7.553216e-006,6.153340e-006
1.571559e+000,-6.210422e-006,6.164237e-006
1.572353e+000,-6.210422e-006,6.173604e-006
1.573147e+000,-4.867628e-006,6.181447e-006
1.573941e+000,-6.881819e-006,6.185452e-006
1.574735e+000,-6.881819e-006,6.192352e-006
1.575529e+000,-6.881819e-006,6.196640e-006
1.576324e+000,-6.881819e-006,6.199426e-006
1.577118e+000,-8.896010e-006,6.198210e-006
1.577912e+000,-8.896010e-006,6.205770e-006
1.578706e+000,-8.560311e-006,6.215074e-006
1.579500e+000,-9.231709e-006,6.225978e-006
1.580294e+000,-8.224612e-006,6.241695e-006
1.581088e+000,-4.867628e-006,6.254447e-006
1.581882e+000,-6.881819e-006,6.254447e-006
1.582676e+000,-4.867628e-006,6.260469e-006
1.583471e+000,-6.210422e-006,6.262017e-006
1.584265e+000,-8.224612e-006,6.270787e-006
1.585059e+000,-9.063859e-006,6.287877e-006
1.585853e+000,-6.881819e-006,6.306591e-006
1.586647e+000,-2.853437e-006,6.311711e-006
1.587441e+000,-4.196231e-006,6.310630e-006
1.588235e+000,-4.867628e-006,6.309095e-006
1.589029e+000,-4.196231e-006,6.311938e-006
1.589824e+000,-4.531929e-006,6.314781e-006
1.590618e+000,-5.203327e-006,6.315519e-006
1.591412e+000,-4.867628e-006,6.312621e-006
1.592206e+000,-1.678492e-006,6.308867e-006
1.593000e+000,-4.196231e-006,6.299836e-006
1.593794e+000,-6.546120e-006,6.296053e-006
1.594588e+000,-6.881819e-006,6.293716e-006
1.595382e+000,-6.210422e-006,6.297457e-006
1.596176e+000,-6.210422e-006,6.298482e-006
1.596971e+000,-6.881819e-006,6.300477e-006
1.597765e+000,-8.224612e-006,6.306455e-006
1.598559e+000,-8.224612e-006,6.320382e-006
1.599353e+000,-5.874723e-006,6.332239e-006
1.600147e+000,-4.531929e-006,6.333202e-006
1.600941e+000,-4.867628e-006,6.326455e-006
1.601735e+000,-4.531929e-006,6.315383e-006
1.602529e+000,-5.539025e-006,6.315383e-006
1.603324e+000,-3.692683e-006,6.318679e-006
1.604118e+000,-4.364080e-006,6.312392e-006
1.604912e+000,-5.203327e-006,6.292425e-006
1.605706e+000,-3.524834e-006,6.279236e-006
1.606500e+000,-8.392462e-007,6.266592e-006
1.607294e+000,-8.392462e-007,6.257995e-006
1.608088e+000,-1.510643e-006,6.240939e-006
1.608882e+000,-2.853437e-006,6.211079e-006
1.609676e+000,-3.524834e-006,6.192850e-006
1.610471e+000,-2.182040e-006,6.169044e-006
1.611265e+000,-4.867628e-006,6.143159e-006
1.612059e+000,-3.524834e-006,6.137022e-006
1.612853e+000,-1.007095e-006,6.127950e-006
1.613647e+000,-8.392462e-007,6.104383e-006
1.614441e+000,-2.182040e-006,6.088997e-006
1.615235e+000,-1.510643e-006,6.075307e-006
1.616029e+000,-3.860533e-006,6.070911e-006
1.616824e+000,-8.224612e-006,6.074553e-006
1.617618e+000,-6.881819e-006,6.092076e-006
1.618412e+000,-5.874723e-006,6.104412e-006
1.619206e+000,-7.553216e-006,6.113342e-006
1.620000e+000,-8.896010e-006,6.127826e-006
1.620794e+000,-6.881819e-006,6.147999e-006
1.621588e+000,-4.867628e-006,6.159896e-006
1.622382e+000,-7.049668e-006,6.163915e-006
1.623176e+000,-4.196231e-006,6.174118e-006
1.623971e+000,-4.364080e-006,6.177430e-006
1.624765e+000,-3.524834e-006,6.178498e-006
1.625559e+000,-4.867628e-006,6.173791e-006
1.626353e+000,-6.881819e-006,6.175360e-006
1.627147e+000,-4.196231e-006,6.179173e-006
1.627941e+000,-5.035477e-006,6.175803e-006
1.628735e+000,-5.539025e-006,6.172395e-006
1.629529e+000,-4.364080e-006,6.166869e-006
1.630324e+000,-5.203327e-006,6.158330e-006
1.631118e+000,-5.874723e-006,6.155357e-006
1.631912e+000,-6.210422e-006,6.156348e-006
1.632706e+000,-6.881819e-006,6.152850e-006
1.633500e+000,-8.896010e-006,6.155124e-006
1.634294e+000,-4.196231e-006,6.165065e-006
1.635088e+000,-6.210422e-006,6.152128e-006
1.635882e+000,-7.553216e-006,6.147342e-006
1.636676e+000,-5.035477e-006,6.144598e-006
1.637471e+000,-3.860533e-006,6.135033e-006
1.638265e+000,-4.867628e-006,6.125996e-006
1.639059e+000,-6.881819e-006,6.116651e-006
1.639853e+000,-9.063859e-006,6.111368e-006
1.640647e+000,-8.560311e-006,6.117905e-006
1.641441e+000,-1.124590e-005,6.128982e-006
1.642235e+000,-9.903105e-006,6.159648e-006
1.643029e+000,-1.091020e-005,6.182853e-006
1.643824e+000,-1.057450e-005,6.212213e-006
1.644618e+000,-8.224612e-006,6.239594e-006
1.645412e+000,-8.896010e-006,6.256253e-006
1.646206e+000,-1.124590e-005,6.274046e-006
1.647000e+000,-8.224612e-006,6.303495e-006
1.647794e+000,-1.091020e-005,6.319700e-006
1.648588e+000,-1.091020e-005,6.345883e-006
1.649382e+000,-1.057450e-005,6.368015e-006
1.650176e+000,-6.881819e-006,6.377645e-006
1.650971e+000,-7.553216e-006,6.377644e-006
1.651765e+000,-5.706874e-006,6.384225e-006
1.652559e+000,-6.210422e-006,6.386438e-006
1.653353e+000,-8.224612e-006,6.390146e-006
1.654147e+000,-6.881819e-006,6.394616e-006
1.654941e+000,-4.867628e-006,6.388868e-006
1.655735e+000,-4.867628e-006,6.382967e-006
1.656529e+000,-4.196231e-006,6.371994e-006
1.657324e+000,-3.189136e-006,6.363370e-006
1.658118e+000,-2.853437e-006,6.364533e-006
1.658912e+000,5.035477e-007,6.365717e-006
1.659706e+000,-2.182040e-006,6.362369e-006
1.660500e+000,2.517739e-006,6.361276e-006
1.661294e+000,1.846342e-006,6.356930e-006
1.662088e+000,-1.174945e-006,6.348116e-006
1.662882e+000,-8.392462e-007,6.346420e-006
1.663676e+000,1.174945e-006,6.345741e-006
1.664471e+000,5.035477e-007,6.344044e-006
1.665265e+000,-8.392462e-007,6.342913e-006
1.666059e+000,-1.174945e-006,6.338668e-006
1.666853e+000,-3.524834e-006,6.334590e-006
1.667647e+000,-2.853437e-006,6.324611e-006
1.668441e+000,-5.539025e-006,6.299344e-006
1.669235e+000,-7.553216e-006,6.283942e-006
1.670029e+000,-6.881819e-006,6.283942e-006
1.670824e+000,-5.539025e-006,6.283942e-006
1.671618e+000,-9.567407e-006,6.274568e-006
1.672412e+000,-9.903105e-006,6.287996e-006
1.673206e+000,-8.224612e-006,6.307976e-006
1.674000e+000,-1.091020e-005,6.315312e-006
1.674794e+000,-1.091020e-005,6.326838e-006
1.675588e+000,-1.107805e-005,6.342418e-006
1.676382e+000,-9.735256e-006,6.364526e-006
1.677176e+000,-5.203327e-006,6.372662e-006
1.677971e+000,-6.042573e-006,6.353203e-006
1.678765e+000,-6.210422e-006,6.332486e-006
1.679559e+000,-6.210422e-006,6.325171e-006
1.680353e+000,-6.210422e-006,6.320517e-006
1.681147e+000,-4.196231e-006,6.321035e-006
1.681941e+000,-4.531929e-006,6.315752e-006
1.682735e+000,-5.706874e-006,6.311205e-006
1.683529e+000,-2.853437e-006,6.314978e-006
1.684324e+000,-1.007095e-006,6.312591e-006
1.685118e+000,-2.182040e-006,6.304135e-006
1.685912e+000,-5.539025e-006,6.300889e-006
1.686706e+000,-5.539025e-006,6.307436e-006
1.687500e+000,-3.860533e-006,6.313123e-006
1.688294e+000,-4.531929e-006,6.310906e-006
1.689088e+000,-3.189136e-006,6.307379e-006
1.689882e+000,-5.203327e-006,6.305501e-006
1.690676e+000,-3.524834e-006,6.310735e-006
1.691471e+000,-4.531929e-006,6.306127e-006
1.692265e+000,-7.553216e-006,6.306867e-006
1.693059e+000,-6.881819e-006,6.308723e-006
1.693853e+000,-6.210422e-006,6.308723e-006
1.694647e+000,-7.217518e-006,6.305309e-006
1.695441e+000,-8.224612e-006,6.304057e-006
1.696235e+000,-5.539025e-006,6.310316e-006
1.697029e+000,-6.881819e-006,6.310316e-006
1.697824e+000,-7.049668e-006,6.314047e-006
1.698618e+000,-6.546120e-006,6.316853e-006
1.699412e+000,-7.553216e-006,6.317932e-006
1.700206e+000,-5.874723e-006,6.327128e-006
1.701000e+000,-6.881819e-006,6.318784e-006
1.701794e+000,-5.203327e-006,6.318784e-006
1.702588e+000,-1.174945e-006,6.322476e-006
1.703382e+000,-2.853437e-006,6.321624e-006
1.704176e+000,-3.524834e-006,6.320545e-006
1.704971e+000,-5.203327e-006,6.319921e-006
1.705765e+000,-3.692683e-006,6.321568e-006
1.706559e+000,-2.517739e-006,6.317272e-006
1.707353e+000,-3.021286e-006,6.303829e-006
1.708147e+000,-2.182040e-006,6.296388e-006
1.708941e+000,-2.853437e-006,6.293138e-006
1.709735e+000,-5.539025e-006,6.285434e-006
1.710529e+000,-1.678492e-006,6.281208e-006
1.711324e+000,-1.678492e-007,6.267444e-006
1.712118e+000,-2.853437e-006,6.259651e-006
1.712912e+000,-6.881819e-006,6.256497e-006
1.713706e+000,-8.896010e-006,6.256497e-006
1.714500e+000,-8.896010e-006,6.253341e-006
1.715294e+000,-6.378271e-006,6.253341e-006
1.716088e+000,-6.881819e-006,6.253879e-006
1.716882e+000,-9.567407e-006,6.264716e-006
1.717676e+000,-1.091020e-005,6.285877e-006
1.718471e+000,-7.553216e-006,6.314758e-006
1.719265e+000,-6.881819e-006,6.328270e-006
1.720059e+000,-7.553216e-006,6.337883e-006
1.720853e+000,-5.539025e-006,6.347050e-006
1.721647e+000,-8.896010e-006,6.351629e-006
1.722441e+000,-1.023880e-005,6.367035e-006
1.723235e+000,-9.567407e-006,6.385083e-006
1.724029e+000,-5.874723e-006,6.403493e-006
1.724824e+000,-4.531929e-006,6.409543e-006
1.725618e+000,-6.881819e-006,6.407023e-006
1.726412e+000,-6.210422e-006,6.410215e-006
1.727206e+000,-8.224612e-006,6.405622e-006
1.728000e+000,-6.881819e-006,6.405622e-006
1.728794e+000,-7.553216e-006,6.407807e-006
1.729588e+000,-9.567407e-006,6.415678e-006
1.730382e+000,-1.124590e-005,6.418754e-006
1.731176e+000,-8.224612e-006,6.431937e-006
1.731971e+000,-7.217518e-006,6.446150e-006
1.732765e+000,-8.896010e-006,6.456497e-006
1.733559e+000,-8.896010e-006,6.474815e-006
1.734353e+000,-7.888914e-006,6.491201e-006
1.735147e+000,-6.881819e-006,6.504457e-006
1.735941e+000,-3.524834e-006,6.515869e-006
1.736735e+000,-3.356985e-007,6.516419e-006
1.737529e+000,-1.510643e-006,6.510655e-006
1.738324e+000,-2.182040e-006,6.499621e-006
1.739118e+000,-5.035477e-007,6.496472e-006
1.739912e+000,-8.392462e-007,6.490724e-006
1.740706e+000,3.356985e-007,6.479268e-006
1.741500e+000,1.846342e-006,6.467646e-006
1.742294e+000,1.678492e-007,6.456817e-006
1.743088e+000,-3.524834e-006,6.453460e-006
1.743882e+000,-3.860533e-006,6.448954e-006
1.744676e+000,-2.853437e-006,6.446783e-006
1.745471e+000,-2.853437e-006,6.441213e-006
1.746265e+000,-6.881819e-006,6.438148e-006
1.747059e+000,-6.378271e-006,6.439800e-006
1.747853e+000,-6.210422e-006,6.433129e-006
1.748647e+000,-7.217518e-006,6.420005e-006
1.749441e+000,-7.888914e-006,6.422835e-006
1.750235e+000,-8.560311e-006,6.420096e-006
1.751029e+000,-1.091020e-005,6.421494e-006
1.751824e+000,-8.224612e-006,6.446595e-006
1.752618e+000,-6.210422e-006,6.454774e-006
1.753412e+000,-8.224612e-006,6.454252e-006
1.754206e+000,-8.224612e-006,6.461422e-006
1.755000e+000,-4.867628e-006,6.471412e-006
1.755794e+000,-4.196231e-006,6.474184e-006
1.756588e+000,-5.874723e-006,6.478507e-006
1.757382e+000,-3.860533e-006,6.482660e-006
1.758176e+000,-7.217518e-006,6.481996e-006
1.758971e+000,-9.567407e-006,6.480778e-006
1.759765e+000,-6.881819e-006,6.490462e-006
1.760559e+000,-3.524834e-006,6.478008e-006
1.761353e+000,-7.888914e-006,6.458532e-006
1.762147e+000,-1.225299e-005,6.465843e-006
1.762941e+000,-1.158160e-005,6.480258e-006
1.763735e+000,-4.531929e-006,6.476325e-006
1.764529e+000,-8.392462e-007,6.466710e-006
1.765324e+000,4.867628e-006,6.457380e-006
1.766118e+000,9.903105e-006,6.452653e-006
1.766912e+000,6.210422e-006,6.465156e-006
1.767706e+000,5.874723e-006,6.455156e-006
1.768500e+000,4.531929e-006,6.437786e-006
1.769294e+000,3.021286e-006,6.431148e-006
1.770088e+000,-2.517739e-006,6.412279e-006
1.770882e+000,-7.049668e-006,6.400907e-006
1.771676e+000,-7.553216e-006,6.411236e-006
1.772471e+000,-8.224612e-006,6.425363e-006
1.773265e+000,-8.224612e-006,6.441931e-006
1.774059e+000,-1.191730e-005,6.458456e-006
1.774853e+000,-1.292439e-005,6.493205e-006
1.775647e+000,-1.242084e-005,6.533704e-006
1.776441e+000,-1.174945e-005,6.569223e-006
1.777235e+000,-1.091020e-005,6.600637e-006
1.778029e+000,-8.896010e-006,6.620020e-006
1.778824e+000,-7.888914e-006,6.622784e-006
1.779618e+000,-1.023880e-005,6.631645e-006
1.780412e+000,-1.023880e-005,6.648509e-006
1.781206e+000,-1.292439e-005,6.662260e-006
1.782000e+000,-8.224612e-006,6.694772e-006
1.782794e+000,-1.023880e-005,6.701684e-006
1.783588e+000,-1.493858e-005,6.717410e-006
1.784382e+000,-1.728847e-005,6.764137e-006
1.785176e+000,-2.383459e-005,6.823094e-006
1.785971e+000,-2.316319e-005,6.907644e-006
1.786765e+000,-2.098116e-005,6.988245e-006
1.787559e+000,-2.769513e-005,7.046193e-006
1.788353e+000,-3.373770e-005,7.187795e-006
1.789147e+000,-2.702373e-005,7.413196e-006
1.789941e+000,-1.460288e-005,7.551131e-006
1.790735e+000,7.888914e-006,7.592274e-006
1.791529e+000,2.450599e-005,7.604318e-006
1.792324e+000,4.011597e-005,7.729044e-006
1.793118e+000,4.750134e-005,8.050825e-006
1.793912e+000,4.330510e-005,8.485335e-006
1.794706e+000,4.246586e-005,8.829390e-006
1.795500e+000,2.601663e-005,9.147423e-006
1.796294e+000,1.057450e-005,9.260142e-006
1.797088e+000,5.874723e-006,9.269555e-006
1.797882e+000,-5.203327e-006,9.261886e-006
1.798676e+000,-1.023880e-005,9.265842e-006
1.799471e+000,-1.376364e-005,9.283666e-006
1.800265e+000,-1.896696e-005,9.315982e-006
1.801059e+000,-2.366674e-005,9.377037e-006
1.801853e+000,-2.030976e-005,9.468714e-006
1.802647e+000,-2.030976e-005,9.529919e-006
1.803441e+000,-2.299535e-005,9.593504e-006
1.804235e+000,-2.366674e-005,9.675196e-006
1.805029e+000,-2.333104e-005,9.757640e-006
1.805824e+000,-2.198825e-005,9.831256e-006
1.806618e+000,-2.232395e-005,9.900881e-006
1.807412e+000,-2.064546e-005,9.969912e-006
1.808206e+000,-2.131685e-005,1.002520e-005
1.809000e+000,-1.426719e-005,1.008415e-005
1.809794e+000,-8.224612e-006,1.010726e-005
1.810588e+000,1.846342e-006,1.010545e-005
1.811382e+000,4.531929e-006,1.009699e-005
1.812176e+000,5.203327e-006,1.008774e-005
1.812971e+000,3.356985e-007,1.008341e-005
1.813765e+000,-5.539025e-006,1.007828e-005
1.814559e+000,-8.392462e-007,1.008035e-005
1.815353e+000,5.874723e-006,1.007369e-005
1.816147e+000,6.881819e-006,1.007429e-005
1.816941e+000,3.860533e-006,1.007877e-005
1.817735e+000,4.531929e-006,1.007788e-005
1.818529e+000,5.874723e-006,1.007811e-005
1.819324e+000,7.721065e-006,1.008032e-005
1.820118e+000,2.182040e-006,1.008599e-005
1.820912e+000,-1.678492e-006,1.007773e-005
1.821706e+000,-5.539025e-006,1.007208e-005
1.822500e+000,-4.196231e-006,1.007083e-005
1.823294e+000,-5.539025e-006,1.006987e-005
1.824088e+000,-7.888914e-006,1.006724e-005
1.824882e+000,-1.057450e-005,1.006959e-005
1.825676e+000,-2.064546e-005,1.007978e-005
1.826471e+000,-2.165255e-005,1.013945e-005
1.827265e+000,-2.903792e-005,1.020047e-005
1.828059e+000,-2.970932e-005,1.031905e-005
1.828853e+000,-2.769513e-005,1.044320e-005
1.829647e+000,-2.836652e-005,1.054665e-005
1.830441e+000,-2.719158e-005,1.065734e-005
1.831235e+000,-2.836652e-005,1.076375e-005
1.832029e+000,-3.407340e-005,1.087520e-005
1.832824e+000,-4.515145e-005,1.104047e-005
1.833618e+000,-2.870222e-005,1.132527e-005
1.834412e+000,5.035477e-007,1.143109e-005
1.835206e+000,1.661708e-005,1.141968e-005
1.836000e+000,2.769513e-005,1.145153e-005
1.836794e+000,2.735943e-005,1.155657e-005
1.837588e+000,3.340200e-005,1.165685e-005
1.838382e+000,4.750134e-005,1.180508e-005
1.839176e+000,4.548714e-005,1.210330e-005
1.839971e+000,4.011597e-005,1.236987e-005
1.840765e+000,3.138781e-005,1.257190e-005
1.841559e+000,1.863127e-005,1.269310e-005
1.842353e+000,-3.524834e-006,1.273622e-005
1.843147e+000,-1.292439e-005,1.273557e-005
1.843941e+000,-1.493858e-005,1.275109e-005
1.844735e+000,-1.191730e-005,1.277303e-005
1.845529e+000,-1.426719e-005,1.278592e-005
1.846324e+000,-8.224612e-006,1.280645e-005
1.847118e+000,-4.196231e-006,1.280897e-005
1.847912e+000,-9.567407e-006,1.280275e-005
1.848706e+000,-1.560998e-005,1.280572e-005
1.849500e+000,-1.326009e-005,1.283170e-005
1.850294e+000,-4.364080e-006,1.285096e-005
1.851088e+000,4.196231e-006,1.285038e-005
1.851882e+000,5.203327e-006,1.285002e-005
1.852676e+000,-1.292439e-005,1.284957e-005
1.853471e+000,-3.239490e-005,1.286857e-005
1.854265e+000,-3.843748e-005,1.299544e-005
1.855059e+000,-3.743038e-005,1.317196e-005
1.855853e+000,-4.313725e-005,1.333877e-005
1.856647e+000,-4.246586e-005,1.355901e-005
1.857441e+000,-3.910887e-005,1.376908e-005
1.858235e+000,-3.273060e-005,1.394458e-005
1.859029e+000,-3.944457e-005,1.406546e-005
1.859824e+000,-5.421531e-005,1.423912e-005
1.860618e+000,-4.582284e-005,1.456360e-005
1.861412e+000,-1.493858e-005,1.478884e-005
1.862206e+000,1.158160e-005,1.481152e-005
1.863000e+000,2.517739e-005,1.482582e-005
1.863794e+000,3.927672e-005,1.489368e-005
1.864588e+000,5.522240e-005,1.505720e-005
1.865382e+000,5.958648e-005,1.537608e-005
1.866176e+000,5.085832e-005,1.573798e-005
1.866971e+000,4.599069e-005,1.599081e-005
1.867765e+000,4.682994e-005,1.619541e-005
1.868559e+000,5.874724e-005,1.640627e-005
1.869353e+000,5.958648e-005,1.673246e-005
1.870147e+000,4.414435e-005,1.705962e-005
1.870941e+000,1.326009e-005,1.723618e-005
1.871735e+000,-1.443504e-005,1.725023e-005
1.872529e+000,-2.165255e-005,1.726487e-005
1.873324e+000,-2.870222e-005,1.730643e-005
1.874118e+000,-4.179446e-005,1.738032e-005
1.874912e+000,-4.884413e-005,1.753850e-005
1.875706e+000,-5.069047e-005,1.775166e-005
1.876500e+000,-4.313725e-005,1.797648e-005
1.877294e+000,-3.508049e-005,1.813902e-005
1.878088e+000,-3.038071e-005,1.824452e-005
1.878882e+000,-2.534523e-005,1.832223e-005
1.879676e+000,-1.896696e-005,1.837633e-005
1.880471e+000,-1.527428e-005,1.840513e-005
1.881265e+000,-1.359579e-005,1.842232e-005
1.882059e+000,-8.224612e-006,1.843496e-005
1.882853e+000,-1.023880e-005,1.843671e-005
1.883647e+000,-1.527428e-005,1.843893e-005
1.884441e+000,-2.366674e-005,1.845755e-005
1.885235e+000,-2.265965e-005,1.850249e-005
1.886029e+000,-1.695277e-005,1.854173e-005
1.886824e+000,-1.628138e-005,1.856422e-005
1.887618e+000,-1.359579e-005,1.858566e-005
1.888412e+000,-1.225299e-005,1.859947e-005
1.889206e+000,-2.299535e-005,1.860826e-005
1.890000e+000,-4.179446e-005,1.864644e-005
1.890794e+000,-4.884413e-005,1.878881e-005
1.891588e+000,-3.743038e-005,1.897932e-005
1.892382e+000,-1.997406e-005,1.908833e-005
1.893176e+000,-4.531929e-006,1.911166e-005
1.893971e+000,3.189136e-006,1.910406e-005
1.894765e+000,1.393149e-005,1.909927e-005
1.895559e+000,2.333104e-005,1.910885e-005
1.896353e+000,3.474479e-005,1.914364e-005
1.897147e+000,4.682994e-005,1.923819e-005
1.897941e+000,3.978027e-005,1.940910e-005
1.898735e+000,2.668803e-005,1.952879e-005
1.899529e+000,2.467384e-005,1.957769e-005
1.900324e+000,1.728847e-005,1.962330e-005
1.901118e+000,1.124590e-005,1.964292e-005
1.901912e+000,8.560311e-006,1.965053e-005
1.902706e+000,5.203327e-006,1.965334e-005
1.903500e+000,3.189136e-006,1.965005e-005
1.904294e+000,7.217518e-006,1.964704e-005
1.905088e+000,1.124590e-005,1.964934e-005
1.905882e+000,9.231709e-006,1.965767e-005
1.906676e+000,6.210422e-006,1.966314e-005
1.907471e+000,5.035477e-007,1.966544e-005
1.908265e+000,-1.460288e-005,1.966480e-005
1.909059e+000,-3.373770e-005,1.968204e-005
1.909853e+000,-3.709468e-005,1.977353e-005
1.910647e+000,-4.448005e-005,1.988352e-005
1.911441e+000,-5.253681e-005,2.004107e-005
1.912235e+000,-5.723659e-005,2.025908e-005
1.913029e+000,-6.730755e-005,2.051490e-005
1.913824e+000,-5.421531e-005,2.086348e-005
1.914618e+000,-2.920577e-005,2.108660e-005
1.915412e+000,-1.040665e-005,2.115086e-005
1.916206e+000,1.091020e-005,2.115891e-005
1.917000e+000,3.105211e-005,2.116693e-005
1.917794e+000,4.666209e-005,2.123873e-005
1.918588e+000,4.850843e-005,2.139907e-005
1.919382e+000,4.800488e-005,2.156925e-005
1.920176e+000,2.702373e-005,2.173524e-005
1.920971e+000,-2.333104e-005,2.178643e-005
1.921765e+000,-5.455100e-005,2.181951e-005
1.922559e+000,-5.001907e-005,2.202852e-005
1.923353e+000,-3.306630e-005,2.220378e-005
1.924147e+000,-2.299535e-005,2.227355e-005
1.924941e+000,-1.258869e-005,2.230282e-005
1.925735e+000,2.517739e-006,2.230538e-005
1.926529e+000,2.198825e-005,2.229906e-005
1.927324e+000,4.632639e-005,2.233163e-005
1.928118e+000,5.488670e-005,2.248155e-005
1.928912e+000,4.548714e-005,2.269122e-005
1.929706e+000,3.340200e-005,2.283327e-005
1.930500e+000,1.795987e-005,2.290826e-005
1.931294e+000,8.560311e-006,2.292945e-005
1.932088e+000,-5.874723e-006,2.293311e-005
1.932882e+000,-1.594568e-005,2.293325e-005
1.933676e+000,-2.836652e-005,2.295033e-005
1.934471e+000,-3.390555e-005,2.300602e-005
1.935265e+000,-4.313725e-005,2.308513e-005
1.936059e+000,-3.978027e-005,2.321102e-005
1.936853e+000,-2.803082e-005,2.331724e-005
1.937647e+000,-1.493858e-005,2.336982e-005
1.938441e+000,-6.881819e-006,2.338362e-005
1.939235e+000,-6.881819e-006,2.338615e-005
1.940029e+000,-3.524834e-006,2.338753e-005
1.940824e+000,-5.539025e-006,2.338753e-005
1.941618e+000,-8.224612e-006,2.338822e-005
1.942412e+000,-1.426719e-005,2.338894e-005
1.943206e+000,-2.970932e-005,2.339958e-005
1.944000e+000,-3.860533e-005,2.345695e-005
1.944794e+000,-3.642328e-005,2.355438e-005
1.945588e+000,-3.071641e-005,2.363934e-005
1.946382e+000,-1.527428e-005,2.370075e-005
1.947176e+000,-5.035477e-006,2.371324e-005
1.947971e+000,-8.392462e-007,2.371160e-005
1.948765e+000,1.846342e-006,2.370877e-005
1.949559e+000,2.517739e-006,2.370517e-005
1.950353e+000,-4.867628e-006,2.370327e-005
1.951147e+000,-1.426719e-005,2.370168e-005
1.951941e+000,-1.728847e-005,2.371354e-005
1.952735e+000,-4.196231e-006,2.373351e-005
1.953529e+000,9.231709e-006,2.373414e-005
1.954324e+000,1.661708e-005,2.373903e-005
1.955118e+000,1.795987e-005,2.375573e-005
1.955912e+000,7.888914e-006,2.377643e-005
1.956706e+000,2.517739e-006,2.378017e-005
1.957500e+000,4.196231e-006,2.377998e-005
1.958294e+000,8.560311e-006,2.378084e-005
1.959088e+000,-5.035477e-007,2.378520e-005
1.959882e+000,-3.172351e-005,2.378317e-005
1.960676e+000,-3.910887e-005,2.385026e-005
1.961471e+000,-1.695277e-005,2.395216e-005
1.962265e+000,1.997406e-005,2.397072e-005
1.963059e+000,5.488670e-005,2.399406e-005
1.963853e+000,7.066453e-005,2.418796e-005
1.964647e+000,5.891508e-005,2.450934e-005
1.965441e+000,2.668803e-005,2.473121e-005
1.966235e+000,8.224612e-006,2.477398e-005
1.967029e+000,6.546120e-006,2.477244e-005
1.967824e+000,-8.224612e-006,2.476755e-005
1.968618e+000,-1.728847e-005,2.476823e-005
1.969412e+000,-1.510643e-005,2.478439e-005
1.970206e+000,-1.023880e-005,2.479538e-005
1.971000e+000,-1.326009e-005,2.480015e-005
1.971794e+000,-1.795987e-005,2.480636e-005
1.972588e+000,-2.601663e-005,2.482033e-005
1.973382e+000,-3.138781e-005,2.485785e-005
1.974176e+000,-3.407340e-005,2.491868e-005
1.974971e+000,-3.793393e-005,2.499145e-005
1.975765e+000,-3.776608e-005,2.507996e-005
1.976559e+000,-4.112306e-005,2.516791e-005
1.977353e+000,-5.387960e-005,2.527042e-005
1.978147e+000,-5.589380e-005,2.544972e-005
1.978941e+000,-6.730755e-005,2.564091e-005
1.979735e+000,-6.361486e-005,2.591510e-005
1.980529e+000,-4.917983e-005,2.615488e-005
1.981324e+000,-4.649424e-005,2.629762e-005
1.982118e+000,-2.735943e-005,2.642506e-005
1.982912e+000,7.888914e-006,2.646536e-005
1.983706e+000,5.589380e-005,2.646435e-005
1.984500e+000,8.039978e-005,2.664794e-005
1.985294e+000,7.335011e-005,2.702866e-005
1.986088e+000,3.826963e-005,2.734307e-005
1.986882e+000,9.231709e-006,2.742822e-005
1.987676e+000,1.023880e-005,2.743303e-005
1.988471e+000,1.963836e-005,2.743884e-005
1.989265e+000,1.258869e-005,2.746120e-005
1.990059e+000,3.189136e-006,2.747035e-005
1.990853e+000,4.531929e-006,2.747093e-005
1.991647e+000,9.231709e-006,2.747192e-005
1.992441e+000,1.426719e-005,2.747686e-005
1.993235e+000,2.064546e-005,2.748793e-005
1.994029e+000,2.131685e-005,2.751175e-005
1.994824e+000,2.064546e-005,2.753757e-005
1.995618e+000,1.225299e-005,2.756173e-005
1.996412e+000,-3.524834e-006,2.756767e-005
1.997206e+000,-3.524834e-006,2.756604e-005
1.998000e+000,-4.531929e-006,2.756453e-005
1.998794e+000,-1.191730e-005,2.756271e-005
1.999588e+000,-1.695277e-005,2.756732e-005
2.000382e+000,-3.642328e-005,2.757968e-005
2.001176e+000,-5.522240e-005,2.764932e-005
2.001971e+000,-5.085832e-005,2.782052e-005
2.002765e+000,-4.448005e-005,2.796597e-005
2.003559e+000,-3.675899e-005,2.807456e-005
2.004353e+000,-3.239490e-005,2.814727e-005
2.005147e+000,-3.256275e-005,2.820524e-005
2.005941e+000,-4.347295e-005,2.826405e-005
2.006735e+000,-4.649424e-005,2.836839e-005
2.007529e+000,-3.709468e-005,2.848864e-005
2.008324e+000,-1.863127e-005,2.856254e-005
2.009118e+000,-5.203327e-006,2.857679e-005
2.009912e+000,-2.182040e-006,2.857565e-005
2.010706e+000,1.846342e-006,2.857523e-005
2.011500e+000,1.242084e-005,2.857195e-005
2.012294e+000,4.515145e-005,2.857218e-005
2.013088e+000,6.797894e-005,2.867812e-005
2.013882e+000,7.838559e-005,2.893245e-005
2.014676e+000,7.754635e-005,2.926862e-005
2.015471e+000,6.764325e-005,2.959269e-005
2.016265e+000,4.548714e-005,2.983265e-005
2.017059e+000,2.920577e-005,2.994084e-005
2.017853e+000,2.232395e-005,2.998433e-005
2.018647e+000,7.888914e-006,3.000970e-005
2.019441e+000,-9.903105e-006,3.001252e-005
2.020235e+000,-3.373770e-005,3.001739e-005
2.021029e+000,-3.524834e-005,3.007507e-005
2.021824e+000,-2.786297e-005,3.013777e-005
2.022618e+000,-2.433814e-005,3.017519e-005
2.023412e+000,-7.553216e-006,3.020287e-005
2.024206e+000,-5.706874e-006,3.019839e-005
2.025000e+000,-2.467384e-005,3.019130e-005
2.025794e+000,-4.448005e-005,3.021526e-005
2.026588e+000,-4.347295e-005,3.031209e-005
2.027382e+000,-3.440909e-005,3.040498e-005
2.028176e+000,-3.071641e-005,3.046279e-005
2.028971e+000,-2.601663e-005,3.050882e-005
2.029765e+000,-1.560998e-005,3.053866e-005
2.030559e+000,-1.091020e-005,3.054590e-005
2.031353e+000,-6.210422e-006,3.054339e-005
2.032147e+000,3.860533e-006,3.054188e-005
2.032941e+000,2.853437e-006,3.053719e-005
2.033735e+000,-1.762417e-005,3.052597e-005
2.034529e+000,-2.165255e-005,3.052659e-005
2.035324e+000,-2.366674e-005,3.052141e-005
2.036118e+000,-3.524834e-005,3.052264e-005
2.036912e+000,-5.958648e-005,3.056446e-005
2.037706e+000,-8.073549e-005,3.070914e-005
2.038500e+000,-6.277562e-005,3.098685e-005
2.039294e+000,-3.105211e-005,3.115139e-005
2.040088e+000,-1.678492e-007,3.118976e-005
2.040882e+000,2.030976e-005,3.118658e-005
2.041676e+000,3.541619e-005,3.117698e-005
2.042471e+000,5.203327e-005,3.115884e-005
2.043265e+000,5.992218e-005,3.118189e-005
2.044059e+000,6.663615e-005,3.126936e-005
2.044853e+000,6.260777e-005,3.140336e-005
2.045647e+000,4.213016e-005,3.156737e-005
2.046441e+000,1.426719e-005,3.165115e-005
2.047235e+000,-2.064546e-005,3.165965e-005
2.048029e+000,-3.877317e-005,3.167972e-005
2.048824e+000,-4.666209e-005,3.174994e-005
2.049618e+000,-4.448005e-005,3.184948e-005
2.050412e+000,-3.407340e-005,3.193031e-005
2.051206e+000,-3.138781e-005,3.196026e-005
2.052000e+000,-2.652018e-005,3.198878e-005
2.052794e+000,-1.292439e-005,3.200326e-005
2.053588e+000,-4.867628e-006,3.198526e-005
2.054382e+000,-1.493858e-005,3.195854e-005
2.055176e+000,-2.568093e-005,3.194253e-005
2.055971e+000,-1.896696e-005,3.195131e-005
2.056765e+000,-1.393149e-005,3.194439e-005
2.057559e+000,-9.903105e-006,3.193282e-005
2.058353e+000,-1.124590e-005,3.191505e-005
2.059147e+000,-1.997406e-005,3.191120e-005
2.059941e+000,-2.970932e-005,3.192773e-005
2.060735e+000,-3.105211e-005,3.197155e-005
2.061529e+000,-2.366674e-005,3.201852e-005
2.062324e+000,7.217518e-006,3.204501e-005
2.063118e+000,3.474479e-005,3.204760e-005
2.063912e+000,3.944457e-005,3.210600e-005
2.064706e+000,4.313725e-005,3.218304e-005
2.065500e+000,6.160067e-005,3.227328e-005
2.066294e+000,8.039978e-005,3.245764e-005
2.067088e+000,1.132982e-004,3.277251e-005
2.067882e+000,1.287404e-004,3.338941e-005
2.068676e+000,9.718471e-005,3.416909e-005
2.069471e+000,3.944457e-005,3.460369e-005
2.070265e+000,-9.567407e-006,3.467500e-005
2.071059e+000,-3.860533e-005,3.467907e-005
2.071853e+000,-5.455100e-005,3.474603e-005
2.072647e+000,-6.596475e-005,3.488134e-005
2.073441e+000,-7.133593e-005,3.507802e-005
2.074235e+000,-7.267872e-005,3.530547e-005
2.075029e+000,-6.730755e-005,3.553790e-005
2.075824e+000,-6.462196e-005,3.572132e-005
2.076618e+000,-6.546120e-005,3.588619e-005
2.077412e+000,-7.351797e-005,3.603860e-005
2.078206e+000,-5.421531e-005,3.623786e-005
2.079000e+000,-2.064546e-005,3.633319e-005
2.079794e+000,4.867628e-006,3.631660e-005
2.080588e+000,2.131685e-005,3.628521e-005
2.081382e+000,3.189136e-005,3.626983e-005
2.082176e+000,3.575189e-005,3.626351e-005
2.082971e+000,2.652018e-005,3.623011e-005
2.083765e+000,8.728161e-006,3.622481e-005
2.084559e+000,-1.091020e-005,3.622815e-005
2.085353e+000,-3.256275e-005,3.622124e-005
2.086147e+000,-5.119402e-005,3.623414e-005
2.086941e+000,-5.824369e-005,3.631632e-005
2.087735e+000,-7.804990e-005,3.641601e-005
2.088529e+000,-8.644236e-005,3.658334e-005
2.089324e+000,-8.694590e-005,3.681777e-005
2.090118e+000,-6.999313e-005,3.707422e-005
2.090912e+000,-1.225299e-005,3.724195e-005
2.091706e+000,5.555810e-005,3.723352e-005
2.092500e+000,1.139696e-004,3.736477e-005
2.093294e+000,1.473716e-004,3.790726e-005
2.094088e+000,1.153124e-004,3.879970e-005
2.094882e+000,8.442817e-005,3.933588e-005
2.095676e+000,5.958648e-005,3.961520e-005
2.096471e+000,9.567407e-006,3.975495e-005
2.097265e+000,-3.642328e-005,3.975791e-005
2.098059e+000,-7.570001e-005,3.980735e-005
2.098853e+000,-8.207828e-005,4.002623e-005
2.099647e+000,-8.778516e-005,4.028640e-005
2.100441e+000,-1.163195e-004,4.058910e-005
2.101235e+000,-1.075914e-004,4.111580e-005
2.102029e+000,-5.387960e-005,4.156067e-005
2.102824e+000,1.174945e-006,4.166536e-005
2.103618e+000,4.951553e-005,4.162529e-005
2.104412e+000,9.718471e-005,4.166254e-005
2.105206e+000,1.136339e-004,4.196885e-005
2.106000e+000,6.428626e-005,4.238611e-005
2.106794e+000,1.997406e-005,4.247352e-005
2.107588e+000,2.333104e-005,4.243112e-005
2.108382e+000,1.661708e-005,4.241134e-005
2.109176e+000,-9.903105e-006,4.236326e-005
2.109971e+000,-2.769513e-005,4.225633e-005
2.110765e+000,-3.843748e-005,4.220608e-005
2.111559e+000,-3.239490e-005,4.225338e-005
2.112353e+000,-4.884413e-005,4.228785e-005
2.113147e+000,-9.987030e-005,4.235377e-005
2.113941e+000,-1.411612e-004,4.266958e-005
2.114735e+000,-1.028916e-004,4.329483e-005
2.115529e+000,-6.126497e-005,4.355284e-005
2.116324e+000,-6.327916e-005,4.359548e-005
2.117118e+000,-3.877317e-005,4.366443e-005
2.117912e+000,5.203327e-006,4.363927e-005
2.118706e+000,9.181353e-005,4.351414e-005
2.119500e+000,1.874876e-004,4.369233e-005
2.120294e+000,2.324712e-004,4.488609e-005
2.121088e+000,2.307927e-004,4.675802e-005
2.121882e+000,1.851377e-004,4.853126e-005
2.122676e+000,1.226978e-004,4.962811e-005
2.123471e+000,5.555810e-005,5.008264e-005
2.124265e+000,2.517739e-006,5.012522e-005
2.125059e+000,-2.098116e-005,5.004958e-005
2.125853e+000,-3.239490e-005,4.998179e-005
2.126647e+000,-8.342107e-005,4.995593e-005
2.127441e+000,-1.193408e-004,5.013819e-005
2.128235e+000,-9.114214e-005,5.055944e-005
2.129029e+000,-5.539025e-005,5.080025e-005
2.129824e+000,-1.628138e-005,5.088508e-005
2.130618e+000,2.265965e-005,5.088607e-005
2.131412e+000,3.743038e-005,5.089635e-005
2.132206e+000,2.937362e-005,5.093805e-005
2.133000e+000,-8.224612e-006,5.096174e-005
2.133794e+000,-2.769513e-005,5.095657e-005
2.134588e+000,-1.292439e-005,5.096303e-005
2.135382e+000,-1.594568e-005,5.095221e-005
2.136176e+000,-2.786297e-005,5.095117e-005
2.136971e+000,-4.867628e-005,5.096714e-005
2.137765e+000,-7.838559e-005,5.103535e-005
2.138559e+000,-9.013504e-005,5.122204e-005
2.139353e+000,-8.879225e-005,5.145762e-005
2.140147e+000,-8.073549e-005,5.164718e-005
2.140941e+000,-6.059357e-005,5.177444e-005
2.141735e+000,-5.723659e-005,5.184422e-005
2.142529e+000,-6.865034e-005,5.193251e-005
2.143324e+000,-6.495765e-005,5.207619e-005
2.144118e+000,-5.455100e-005,5.220474e-005
2.144912e+000,-4.011597e-005,5.228952e-005
2.145706e+000,-2.047761e-005,5.232195e-005
2.146500e+000,-4.867628e-006,5.229796e-005
2.147294e+000,9.231709e-006,5.223187e-005
2.148088e+000,1.829557e-005,5.218620e-005
2.148882e+000,1.829557e-005,5.217468e-005
2.149676e+000,7.553216e-006,5.216632e-005
2.150471e+000,-7.217518e-006,5.215894e-005
2.151265e+000,-3.743038e-005,5.215667e-005
2.152059e+000,-6.865034e-005,5.219719e-005
2.152853e+000,-8.812085e-005,5.233994e-005
2.153647e+000,-1.015488e-004,5.257535e-005
2.154441e+000,-8.375677e-005,5.288518e-005
2.155235e+000,-4.817273e-005,5.309219e-005
2.156029e+000,-4.867628e-006,5.315919e-005
2.156824e+000,4.179446e-005,5.315875e-005
2.157618e+000,8.442817e-005,5.321104e-005
2.158412e+000,1.132982e-004,5.341757e-005
2.159206e+000,1.226978e-004,5.376516e-005
2.160000e+000,8.644236e-005,5.416877e-005
2.160794e+000,4.481575e-005,5.433002e-005
2.161588e+000,3.675899e-005,5.430799e-005
2.162382e+000,4.649424e-005,5.425152e-005
2.163176e+000,4.414435e-005,5.418195e-005
2.163971e+000,-4.867628e-006,5.415284e-005
2.164765e+000,-5.723659e-005,5.412845e-005
2.165559e+000,-8.274968e-005,5.422155e-005
2.166353e+000,-6.059357e-005,5.441879e-005
2.167147e+000,-3.860533e-005,5.449796e-005
2.167941e+000,6.881819e-006,5.447788e-005
2.168735e+000,4.615854e-005,5.441044e-005
2.169529e+000,6.361486e-005,5.440535e-005
