X [s],L DELTOID ANTERIOR: EMG 3 [V],L DELTOID ANTERIOR: EMG 3->filter (FilterSlidingRMS57) [V]
0.000000e+000,0.000000e+000,0.000000e+000
7.941176e-004,0.000000e+000,0.000000e+000
1.588235e-003,0.000000e+000,0.000000e+000
2.382353e-003,0.000000e+000,0.000000e+000
3.176471e-003,0.000000e+000,0.000000e+000
3.970588e-003,0.000000e+000,0.000000e+000
4.764706e-003,0.000000e+000,0.000000e+000
5.558824e-003,0.000000e+000,0.000000e+000
6.352941e-003,0.000000e+000,0.000000e+000
7.147059e-003,0.000000e+000,0.000000e+000
7.941176e-003,0.000000e+000,0.000000e+000
8.735294e-003,0.000000e+000,0.000000e+000
9.529412e-003,0.000000e+000,0.000000e+000
1.032353e-002,0.000000e+000,0.000000e+000
1.111765e-002,0.000000e+000,0.000000e+000
1.191176e-002,0.000000e+000,0.000000e+000
1.270588e-002,0.000000e+000,0.000000e+000
1.350000e-002,0.000000e+000,0.000000e+000
1.429412e-002,0.000000e+000,0.000000e+000
1.508824e-002,0.000000e+000,0.000000e+000
1.588235e-002,0.000000e+000,0.000000e+000
1.667647e-002,0.000000e+000,0.000000e+000
1.747059e-002,0.000000e+000,0.000000e+000
1.826471e-002,0.000000e+000,0.000000e+000
1.905882e-002,0.000000e+000,0.000000e+000
1.985294e-002,0.000000e+000,0.000000e+000
2.064706e-002,0.000000e+000,0.000000e+000
2.144118e-002,0.000000e+000,0.000000e+000
2.223529e-002,0.000000e+000,0.000000e+000
2.302941e-002,0.000000e+000,0.000000e+000
2.382353e-002,0.000000e+000,0.000000e+000
2.461765e-002,0.000000e+000,0.000000e+000
2.541176e-002,0.000000e+000,0.000000e+000
2.620588e-002,0.000000e+000,0.000000e+000
2.700000e-002,0.000000e+000,0.000000e+000
2.779412e-002,0.000000e+000,0.000000e+000
2.858824e-002,0.000000e+000,0.000000e+000
2.938235e-002,0.000000e+000,0.000000e+000
3.017647e-002,0.000000e+000,0.000000e+000
3.097059e-002,0.000000e+000,0.000000e+000
3.176471e-002,0.000000e+000,0.000000e+000
3.255882e-002,0.000000e+000,0.000000e+000
3.335294e-002,0.000000e+000,0.000000e+000
3.414706e-002,0.000000e+000,0.000000e+000
3.494118e-002,0.000000e+000,0.000000e+000
3.573529e-002,0.000000e+000,0.000000e+000
3.652941e-002,0.000000e+000,0.000000e+000
3.732353e-002,0.000000e+000,0.000000e+000
3.811765e-002,0.000000e+000,0.000000e+000
3.891176e-002,0.000000e+000,0.000000e+000
3.970588e-002,0.000000e+000,0.000000e+000
4.050000e-002,0.000000e+000,0.000000e+000
4.129412e-002,0.000000e+000,0.000000e+000
4.208824e-002,0.000000e+000,0.000000e+000
4.288235e-002,0.000000e+000,0.000000e+000
4.367647e-002,0.000000e+000,0.000000e+000
4.447059e-002,0.000000e+000,0.000000e+000
4.526471e-002,0.000000e+000,0.000000e+000
4.605882e-002,0.000000e+000,0.000000e+000
4.685294e-002,0.000000e+000,0.000000e+000
4.764706e-002,0.000000e+000,0.000000e+000
4.844118e-002,0.000000e+000,0.000000e+000
4.923529e-002,0.000000e+000,0.000000e+000
5.002941e-002,0.000000e+000,0.000000e+000
5.082353e-002,0.000000e+000,0.000000e+000
5.161765e-002,0.000000e+000,0.000000e+000
5.241176e-002,0.000000e+000,0.000000e+000
5.320588e-002,0.000000e+000,0.000000e+000
5.400000e-002,0.000000e+000,0.000000e+000
5.479412e-002,0.000000e+000,0.000000e+000
5.558824e-002,0.000000e+000,0.000000e+000
5.638235e-002,0.000000e+000,0.000000e+000
5.717647e-002,0.000000e+000,0.000000e+000
5.797059e-002,0.000000e+000,0.000000e+000
5.876471e-002,0.000000e+000,0.000000e+000
5.955882e-002,0.000000e+000,0.000000e+000
6.035294e-002,0.000000e+000,0.000000e+000
6.114706e-002,0.000000e+000,0.000000e+000
6.194118e-002,0.000000e+000,0.000000e+000
6.273529e-002,0.000000e+000,0.000000e+000
6.352941e-002,0.000000e+000,0.000000e+000
6.432353e-002,0.000000e+000,0.000000e+000
6.511765e-002,0.000000e+000,0.000000e+000
6.591176e-002,0.000000e+000,0.000000e+000
6.670588e-002,0.000000e+000,0.000000e+000
6.750000e-002,0.000000e+000,0.000000e+000
6.829412e-002,0.000000e+000,0.000000e+000
6.908824e-002,0.000000e+000,0.000000e+000
6.988235e-002,0.000000e+000,0.000000e+000
7.067647e-002,0.000000e+000,0.000000e+000
7.147059e-002,0.000000e+000,0.000000e+000
7.226471e-002,0.000000e+000,0.000000e+000
7.305882e-002,0.000000e+000,0.000000e+000
7.385294e-002,0.000000e+000,0.000000e+000
7.464706e-002,0.000000e+000,0.000000e+000
7.544118e-002,0.000000e+000,0.000000e+000
7.623529e-002,0.000000e+000,0.000000e+000
7.702941e-002,0.000000e+000,0.000000e+000
7.782353e-002,0.000000e+000,0.000000e+000
7.861765e-002,0.000000e+000,0.000000e+000
7.941176e-002,0.000000e+000,0.000000e+000
8.020588e-002,0.000000e+000,0.000000e+000
8.100000e-002,0.000000e+000,0.000000e+000
8.179412e-002,0.000000e+000,0.000000e+000
8.258824e-002,0.000000e+000,0.000000e+000
8.338235e-002,0.000000e+000,0.000000e+000
8.417647e-002,0.000000e+000,0.000000e+000
8.497059e-002,0.000000e+000,0.000000e+000
8.576471e-002,0.000000e+000,0.000000e+000
8.655882e-002,0.000000e+000,0.000000e+000
8.735294e-002,0.000000e+000,0.000000e+000
8.814706e-002,0.000000e+000,0.000000e+000
8.894118e-002,0.000000e+000,0.000000e+000
8.973529e-002,0.000000e+000,0.000000e+000
9.052941e-002,0.000000e+000,0.000000e+000
9.132353e-002,0.000000e+000,0.000000e+000
9.211765e-002,0.000000e+000,0.000000e+000
9.291176e-002,0.000000e+000,0.000000e+000
9.370588e-002,0.000000e+000,0.000000e+000
9.450000e-002,-1.091020e-005,0.000000e+000
9.529412e-002,-4.867628e-006,0.000000e+000
9.608824e-002,-4.867628e-006,0.000000e+000
9.688235e-002,-4.531929e-006,0.000000e+000
9.767647e-002,-4.196231e-006,0.000000e+000
9.847059e-002,-6.210422e-006,0.000000e+000
9.926471e-002,-5.035477e-006,0.000000e+000
1.000588e-001,-6.546120e-006,0.000000e+000
1.008529e-001,-5.874723e-006,0.000000e+000
1.016471e-001,-7.888914e-006,0.000000e+000
1.024412e-001,-6.881819e-006,0.000000e+000
1.032353e-001,-4.867628e-006,0.000000e+000
1.040294e-001,-5.706874e-006,0.000000e+000
1.048235e-001,-5.539025e-006,0.000000e+000
1.056176e-001,-4.867628e-006,0.000000e+000
1.064118e-001,-4.196231e-006,0.000000e+000
1.072059e-001,-6.881819e-006,0.000000e+000
1.080000e-001,-6.881819e-006,0.000000e+000
1.087941e-001,-8.224612e-006,0.000000e+000
1.095882e-001,-8.224612e-006,0.000000e+000
1.103824e-001,-6.378271e-006,0.000000e+000
1.111765e-001,-7.553216e-006,0.000000e+000
1.119706e-001,-6.881819e-006,0.000000e+000
1.127647e-001,-8.224612e-006,0.000000e+000
1.135588e-001,-4.196231e-006,0.000000e+000
1.143529e-001,-4.196231e-006,0.000000e+000
1.151471e-001,-4.196231e-006,0.000000e+000
1.159412e-001,-2.853437e-006,0.000000e+000
1.167353e-001,-5.035477e-007,0.000000e+000
1.175294e-001,-3.524834e-006,0.000000e+000
1.183235e-001,-7.553216e-006,0.000000e+000
1.191176e-001,-5.203327e-006,0.000000e+000
1.199118e-001,-5.203327e-006,0.000000e+000
1.207059e-001,-7.553216e-006,0.000000e+000
1.215000e-001,-6.210422e-006,0.000000e+000
1.222941e-001,-4.867628e-006,0.000000e+000
1.230882e-001,-4.196231e-006,0.000000e+000
1.238824e-001,-6.881819e-006,0.000000e+000
1.246765e-001,-6.210422e-006,0.000000e+000
1.254706e-001,-8.560311e-006,0.000000e+000
1.262647e-001,-7.553216e-006,0.000000e+000
1.270588e-001,-6.546120e-006,0.000000e+000
1.278529e-001,-4.867628e-006,0.000000e+000
1.286471e-001,-4.196231e-006,0.000000e+000
1.294412e-001,-4.699779e-006,0.000000e+000
1.302353e-001,-5.035477e-006,0.000000e+000
1.310294e-001,-4.196231e-006,0.000000e+000
1.318235e-001,-5.539025e-006,0.000000e+000
1.326176e-001,-4.531929e-006,0.000000e+000
1.334118e-001,-4.196231e-006,0.000000e+000
1.342059e-001,-5.539025e-006,0.000000e+000
1.350000e-001,-5.203327e-006,0.000000e+000
1.357941e-001,-4.867628e-006,0.000000e+000
1.365882e-001,-4.867628e-006,0.000000e+000
1.373824e-001,-4.196231e-006,0.000000e+000
1.381765e-001,-4.867628e-006,0.000000e+000
1.389706e-001,-4.867628e-006,0.000000e+000
1.397647e-001,-4.196231e-006,0.000000e+000
1.405588e-001,-6.546120e-006,0.000000e+000
1.413529e-001,-6.881819e-006,0.000000e+000
1.421471e-001,-3.524834e-006,0.000000e+000
1.429412e-001,-4.196231e-006,0.000000e+000
1.437353e-001,-6.210422e-006,0.000000e+000
1.445294e-001,-7.553216e-006,0.000000e+000
1.453235e-001,-6.546120e-006,0.000000e+000
1.461176e-001,-5.203327e-006,0.000000e+000
1.469118e-001,-5.035477e-006,0.000000e+000
1.477059e-001,-8.224612e-006,0.000000e+000
1.485000e-001,-7.217518e-006,0.000000e+000
1.492941e-001,-5.539025e-006,0.000000e+000
1.500882e-001,-5.874723e-006,0.000000e+000
1.508824e-001,-6.881819e-006,0.000000e+000
1.516765e-001,-6.210422e-006,0.000000e+000
1.524706e-001,-7.553216e-006,0.000000e+000
1.532647e-001,-7.553216e-006,0.000000e+000
1.540588e-001,-4.531929e-006,0.000000e+000
1.548529e-001,-7.217518e-006,0.000000e+000
1.556471e-001,-5.539025e-006,0.000000e+000
1.564412e-001,-6.210422e-006,0.000000e+000
1.572353e-001,-7.217518e-006,0.000000e+000
1.580294e-001,-6.881819e-006,0.000000e+000
1.588235e-001,-3.524834e-006,0.000000e+000
1.596176e-001,-2.182040e-006,0.000000e+000
1.604118e-001,-1.510643e-006,0.000000e+000
1.612059e-001,-3.860533e-006,0.000000e+000
1.620000e-001,-4.867628e-006,0.000000e+000
1.627941e-001,-3.524834e-006,0.000000e+000
1.635882e-001,-7.217518e-006,0.000000e+000
1.643824e-001,-5.706874e-006,0.000000e+000
1.651765e-001,-7.553216e-006,0.000000e+000
1.659706e-001,-4.364080e-006,0.000000e+000
1.667647e-001,-4.364080e-006,0.000000e+000
1.675588e-001,-4.867628e-006,0.000000e+000
1.683529e-001,-5.539025e-006,0.000000e+000
1.691471e-001,-4.196231e-006,0.000000e+000
1.699412e-001,-6.881819e-006,0.000000e+000
1.707353e-001,-8.224612e-006,0.000000e+000
1.715294e-001,-7.553216e-006,0.000000e+000
1.723235e-001,-4.867628e-006,0.000000e+000
1.731176e-001,-5.539025e-006,0.000000e+000
1.739118e-001,-4.531929e-006,0.000000e+000
1.747059e-001,-4.867628e-006,0.000000e+000
1.755000e-001,-5.539025e-006,0.000000e+000
1.762941e-001,-5.203327e-006,0.000000e+000
1.770882e-001,-5.539025e-006,0.000000e+000
1.778824e-001,-4.867628e-006,0.000000e+000
1.786765e-001,-5.203327e-006,0.000000e+000
1.794706e-001,-7.888914e-006,0.000000e+000
1.802647e-001,-5.203327e-006,0.000000e+000
1.810588e-001,-6.210422e-006,0.000000e+000
1.818529e-001,-4.867628e-006,0.000000e+000
1.826471e-001,-7.553216e-006,0.000000e+000
1.834412e-001,-5.539025e-006,0.000000e+000
1.842353e-001,-5.706874e-006,0.000000e+000
1.850294e-001,-4.196231e-006,0.000000e+000
1.858235e-001,-5.539025e-006,0.000000e+000
1.866176e-001,-5.539025e-006,0.000000e+000
1.874118e-001,-5.203327e-006,0.000000e+000
1.882059e-001,-6.881819e-006,0.000000e+000
1.890000e-001,-5.539025e-006,0.000000e+000
1.897941e-001,-4.196231e-006,0.000000e+000
1.905882e-001,-4.364080e-006,0.000000e+000
1.913824e-001,-6.546120e-006,0.000000e+000
1.921765e-001,-5.539025e-006,0.000000e+000
1.929706e-001,-4.531929e-006,0.000000e+000
1.937647e-001,-5.539025e-006,0.000000e+000
1.945588e-001,-6.210422e-006,0.000000e+000
1.953529e-001,-2.853437e-006,0.000000e+000
1.961471e-001,-3.524834e-006,0.000000e+000
1.969412e-001,-7.217518e-006,0.000000e+000
1.977353e-001,-8.224612e-006,0.000000e+000
1.985294e-001,-7.049668e-006,0.000000e+000
1.993235e-001,-4.196231e-006,0.000000e+000
2.001176e-001,-5.539025e-006,0.000000e+000
2.009118e-001,-7.217518e-006,0.000000e+000
2.017059e-001,-5.539025e-006,0.000000e+000
2.025000e-001,-6.210422e-006,0.000000e+000
2.032941e-001,-7.217518e-006,0.000000e+000
2.040882e-001,-7.553216e-006,0.000000e+000
2.048824e-001,-6.881819e-006,0.000000e+000
2.056765e-001,-6.210422e-006,0.000000e+000
2.064706e-001,-6.881819e-006,0.000000e+000
2.072647e-001,-5.706874e-006,0.000000e+000
2.080588e-001,-5.539025e-006,0.000000e+000
2.088529e-001,-7.217518e-006,0.000000e+000
2.096471e-001,-6.546120e-006,0.000000e+000
2.104412e-001,-2.853437e-006,0.000000e+000
2.112353e-001,-2.517739e-006,0.000000e+000
2.120294e-001,-4.196231e-006,0.000000e+000
2.128235e-001,-5.203327e-006,0.000000e+000
2.136176e-001,-2.349889e-006,0.000000e+000
2.144118e-001,-3.189136e-006,0.000000e+000
2.152059e-001,-5.539025e-006,0.000000e+000
2.160000e-001,-5.874723e-006,0.000000e+000
2.167941e-001,-4.196231e-006,0.000000e+000
2.175882e-001,-2.853437e-006,0.000000e+000
2.183824e-001,-4.531929e-006,0.000000e+000
2.191765e-001,-4.196231e-006,0.000000e+000
2.199706e-001,-4.196231e-006,0.000000e+000
2.207647e-001,-4.196231e-006,0.000000e+000
2.215588e-001,-4.867628e-006,0.000000e+000
2.223529e-001,-8.224612e-006,0.000000e+000
2.231471e-001,-5.539025e-006,0.000000e+000
2.239412e-001,-7.553216e-006,0.000000e+000
2.247353e-001,-8.560311e-006,0.000000e+000
2.255294e-001,-7.553216e-006,0.000000e+000
2.263235e-001,-4.364080e-006,0.000000e+000
2.271176e-001,-3.692683e-006,0.000000e+000
2.279118e-001,-6.881819e-006,0.000000e+000
2.287059e-001,-7.553216e-006,0.000000e+000
2.295000e-001,-6.210422e-006,0.000000e+000
2.302941e-001,-5.203327e-006,0.000000e+000
2.310882e-001,-7.217518e-006,0.000000e+000
2.318824e-001,-8.896010e-006,0.000000e+000
2.326765e-001,-5.539025e-006,0.000000e+000
2.334706e-001,-5.203327e-006,0.000000e+000
2.342647e-001,-6.881819e-006,0.000000e+000
2.350588e-001,-6.210422e-006,0.000000e+000
2.358529e-001,-9.231709e-006,0.000000e+000
2.366471e-001,-4.196231e-006,0.000000e+000
2.374412e-001,-4.867628e-006,0.000000e+000
2.382353e-001,-4.196231e-006,0.000000e+000
2.390294e-001,-4.196231e-006,0.000000e+000
2.398235e-001,-6.881819e-006,0.000000e+000
2.406176e-001,-8.224612e-006,0.000000e+000
2.414118e-001,-7.049668e-006,0.000000e+000
2.422059e-001,-7.217518e-006,0.000000e+000
2.430000e-001,-5.539025e-006,0.000000e+000
2.437941e-001,-5.539025e-006,0.000000e+000
2.445882e-001,-8.560311e-006,0.000000e+000
2.453824e-001,-6.881819e-006,0.000000e+000
2.461765e-001,-4.196231e-006,0.000000e+000
2.469706e-001,-5.203327e-006,0.000000e+000
2.477647e-001,-5.874723e-006,0.000000e+000
2.485588e-001,-2.853437e-006,0.000000e+000
2.493529e-001,-5.539025e-006,4.629630e-006
2.501471e-001,-6.881819e-006,4.640171e-006
2.509412e-001,-3.524834e-006,4.656394e-006
2.517353e-001,-2.349889e-006,4.660641e-006
2.525294e-001,-6.042573e-006,4.662527e-006
2.533235e-001,-4.531929e-006,4.674981e-006
2.541176e-001,-5.035477e-006,4.681971e-006
2.549118e-001,-4.531929e-006,4.690587e-006
2.557059e-001,-4.196231e-006,4.697554e-006
2.565000e-001,-6.881819e-006,4.703519e-006
2.572941e-001,-4.867628e-006,4.719525e-006
2.580882e-001,-4.867628e-006,4.727513e-006
2.588824e-001,-5.539025e-006,4.735487e-006
2.596765e-001,-5.203327e-006,4.745792e-006
2.604706e-001,-4.531929e-006,4.754868e-006
2.612647e-001,-6.210422e-006,4.761741e-006
2.620588e-001,-5.539025e-006,4.774621e-006
2.628529e-001,-5.035477e-006,4.784843e-006
2.636471e-001,-3.524834e-006,4.793273e-006
2.644412e-001,-5.874723e-006,4.797399e-006
2.652353e-001,-6.881819e-006,4.808840e-006
2.660294e-001,-4.867628e-006,4.824497e-006
2.668235e-001,-4.196231e-006,4.832311e-006
2.676176e-001,-5.539025e-006,4.838110e-006
2.684118e-001,-4.867628e-006,4.848197e-006
2.692059e-001,-7.049668e-006,4.855973e-006
2.700000e-001,-7.217518e-006,4.872243e-006
2.707941e-001,-6.210422e-006,4.889238e-006
2.715882e-001,-5.539025e-006,4.901784e-006
2.723824e-001,-5.874723e-006,4.911740e-006
2.731765e-001,-6.546120e-006,4.922917e-006
2.739706e-001,-5.539025e-006,4.936758e-006
2.747647e-001,-4.196231e-006,4.946644e-006
2.755588e-001,-3.524834e-006,4.952309e-006
2.763529e-001,-6.881819e-006,4.956302e-006
2.771471e-001,-7.217518e-006,4.971494e-006
2.779412e-001,-5.539025e-006,4.988152e-006
2.787353e-001,-4.531929e-006,4.997937e-006
2.795294e-001,-3.860533e-006,5.004476e-006
2.803235e-001,-4.867628e-006,5.009216e-006
2.811176e-001,-8.224612e-006,5.016742e-006
2.819118e-001,-5.539025e-006,5.038167e-006
2.827059e-001,-5.539025e-006,5.047855e-006
2.835000e-001,-7.888914e-006,5.057524e-006
2.842941e-001,-6.881819e-006,5.077081e-006
2.850882e-001,-6.210422e-006,5.091913e-006
2.858824e-001,-4.867628e-006,5.103960e-006
2.866765e-001,-5.874723e-006,5.111347e-006
2.874706e-001,-2.517739e-006,5.122087e-006
2.882647e-001,-4.196231e-006,5.124058e-006
2.890588e-001,-4.196231e-006,5.129526e-006
2.898529e-001,-4.867628e-006,5.134990e-006
2.906471e-001,-3.189136e-006,5.142332e-006
2.914412e-001,-2.853437e-006,5.145480e-006
2.922353e-001,-6.881819e-006,5.147999e-006
2.930294e-001,-5.539025e-006,5.162628e-006
2.938235e-001,-5.539025e-006,5.172082e-006
2.946176e-001,-5.539025e-006,5.181520e-006
2.954118e-001,-5.539025e-006,5.190940e-006
2.962059e-001,-4.867628e-006,5.200343e-006
2.970000e-001,-5.874723e-006,5.207593e-006
2.977941e-001,-7.049668e-006,5.218135e-006
2.985882e-001,-8.224612e-006,5.233279e-006
2.993824e-001,-5.539025e-006,5.253821e-006
3.001765e-001,-6.881819e-006,5.263112e-006
3.009706e-001,-6.210422e-006,5.277421e-006
3.017647e-001,-7.385367e-006,5.289046e-006
3.025588e-001,-6.881819e-006,5.305442e-006
3.033529e-001,-3.524834e-006,5.319637e-006
3.041471e-001,-6.546120e-006,5.323355e-006
3.049412e-001,-5.539025e-006,5.336158e-006
3.057353e-001,-7.553216e-006,5.345305e-006
3.065294e-001,-6.210422e-006,5.362274e-006
3.073235e-001,-4.867628e-006,5.373715e-006
3.081176e-001,-5.539025e-006,5.380732e-006
3.089118e-001,-6.881819e-006,5.389804e-006
3.097059e-001,-4.531929e-006,5.403777e-006
3.105000e-001,-4.867628e-006,5.409826e-006
3.112941e-001,-6.546120e-006,5.416796e-006
3.120882e-001,-6.881819e-006,5.429378e-006
3.128824e-001,-6.881819e-006,5.443250e-006
3.136765e-001,-5.706874e-006,5.457087e-006
3.144706e-001,-8.392462e-007,5.466582e-006
3.152647e-001,-4.196231e-006,5.466788e-006
3.160588e-001,-5.539025e-006,5.471914e-006
3.168529e-001,-4.364080e-006,5.480835e-006
3.176471e-001,-4.196231e-006,5.486366e-006
3.184412e-001,-4.867628e-006,5.491474e-006
3.192353e-001,-5.874723e-006,5.498340e-006
3.200294e-001,-2.853437e-006,5.508326e-006
3.208235e-001,-5.203327e-006,5.510679e-006
3.216176e-001,-4.531929e-006,5.518497e-006
3.224118e-001,-5.203327e-006,5.524420e-006
3.232059e-001,-5.035477e-006,5.532218e-006
3.240000e-001,-6.210422e-006,5.539511e-006
3.247941e-001,-8.392462e-006,5.550587e-006
3.255882e-001,-5.874723e-006,5.570756e-006
3.263824e-001,-4.531929e-006,5.580612e-006
3.271765e-001,-8.896010e-006,5.586469e-006
3.279706e-001,-6.881819e-006,5.608982e-006
3.287647e-001,-6.210422e-006,5.622411e-006
3.295588e-001,-6.881819e-006,5.633324e-006
3.303529e-001,-5.874723e-006,5.646695e-006
3.311471e-001,-5.203327e-006,5.656419e-006
3.319412e-001,-6.546120e-006,5.664036e-006
3.327353e-001,-4.196231e-006,5.676070e-006
3.335294e-001,-5.539025e-006,5.681007e-006
3.343235e-001,-4.867628e-006,5.689601e-006
3.351176e-001,-5.539025e-006,5.696228e-006
3.359118e-001,-4.364080e-006,5.704798e-006
3.367059e-001,-6.881819e-006,5.710112e-006
3.375000e-001,-5.874723e-006,5.723304e-006
3.382941e-001,-7.217518e-006,5.732898e-006
3.390882e-001,-7.217518e-006,5.747348e-006
3.398824e-001,-1.040665e-005,5.761763e-006
3.406765e-001,-9.567407e-006,5.791616e-006
3.414706e-001,-9.567407e-006,5.816728e-006
3.422647e-001,-1.258869e-005,5.841733e-006
3.430588e-001,-8.896010e-006,5.884772e-006
3.438529e-001,-8.224612e-006,5.906147e-006
3.446471e-001,-6.881819e-006,5.892276e-006
3.454412e-001,-6.881819e-006,5.898668e-006
3.462353e-001,-8.560311e-006,5.905054e-006
3.470294e-001,-6.881819e-006,5.919258e-006
3.478235e-001,-5.874723e-006,5.927257e-006
3.486176e-001,-6.210422e-006,5.926167e-006
3.494118e-001,-6.210422e-006,5.929716e-006
3.502059e-001,-6.210422e-006,5.928566e-006
3.510000e-001,-6.210422e-006,5.929655e-006
3.517941e-001,-6.210422e-006,5.923297e-006
3.525882e-001,-4.196231e-006,5.920933e-006
3.533824e-001,-2.853437e-006,5.919296e-006
3.541765e-001,-3.189136e-006,5.912721e-006
3.549706e-001,-1.510643e-006,5.907195e-006
3.557647e-001,-1.678492e-006,5.901421e-006
3.565588e-001,-3.356985e-007,5.897429e-006
3.573529e-001,-2.853437e-006,5.884658e-006
3.581471e-001,-1.678492e-007,5.874036e-006
3.589412e-001,-1.678492e-007,5.855678e-006
3.597353e-001,-1.510643e-006,5.837262e-006
3.605294e-001,5.035477e-007,5.826777e-006
3.613235e-001,-2.349889e-006,5.811235e-006
3.621176e-001,-4.364080e-006,5.799759e-006
3.629118e-001,-5.203327e-006,5.786401e-006
3.637059e-001,-4.867628e-006,5.789005e-006
3.645000e-001,-3.524834e-006,5.790679e-006
3.652941e-001,-4.531929e-006,5.789253e-006
3.660882e-001,-6.881819e-006,5.792661e-006
3.668824e-001,-4.531929e-006,5.805596e-006
3.676765e-001,-5.203327e-006,5.807821e-006
3.684706e-001,-7.553216e-006,5.799596e-006
3.692647e-001,-7.888914e-006,5.807821e-006
3.700588e-001,-8.224612e-006,5.817453e-006
3.708529e-001,-6.881819e-006,5.820352e-006
3.716471e-001,-2.853437e-006,5.822756e-006
3.724412e-001,-2.182040e-006,5.818502e-006
3.732353e-001,-5.539025e-006,5.814985e-006
3.740294e-001,-4.867628e-006,5.810416e-006
3.748235e-001,-1.846342e-006,5.806338e-006
3.756176e-001,-4.867628e-006,5.787145e-006
3.764118e-001,-7.553216e-006,5.777959e-006
3.772059e-001,-5.539025e-006,5.781871e-006
3.780000e-001,-3.524834e-006,5.783795e-006
3.787941e-001,-6.210422e-006,5.782367e-006
3.795882e-001,-6.881819e-006,5.786904e-006
3.803824e-001,-7.553216e-006,5.792956e-006
3.811765e-001,-6.210422e-006,5.803787e-006
3.819706e-001,-5.539025e-006,5.805951e-006
3.827647e-001,-8.896010e-006,5.808733e-006
3.835588e-001,-8.224612e-006,5.825575e-006
3.843529e-001,-8.392462e-006,5.835670e-006
3.851471e-001,-8.224612e-006,5.847489e-006
3.859412e-001,-6.210422e-006,5.859446e-006
3.867353e-001,-5.539025e-006,5.863487e-006
3.875294e-001,-7.721065e-006,5.867036e-006
3.883235e-001,-6.881819e-006,5.876777e-006
3.891176e-001,-6.210422e-006,5.883186e-006
3.899118e-001,-8.896010e-006,5.888856e-006
3.907059e-001,-6.881819e-006,5.898660e-006
3.915000e-001,-5.203327e-006,5.898660e-006
3.922941e-001,-3.860533e-006,5.902614e-006
3.930882e-001,-7.217518e-006,5.901884e-006
3.938824e-001,-5.874723e-006,5.905532e-006
3.946765e-001,-5.539025e-006,5.899451e-006
3.954706e-001,-4.196231e-006,5.896165e-006
3.962647e-001,-3.860533e-006,5.893608e-006
3.970588e-001,-4.531929e-006,5.890784e-006
3.978529e-001,-3.189136e-006,5.878037e-006
3.986471e-001,-2.182040e-006,5.866669e-006
3.994412e-001,-5.203327e-006,5.859630e-006
4.002353e-001,-9.063859e-006,5.857608e-006
4.010294e-001,-6.881819e-006,5.867059e-006
4.018235e-001,-6.881819e-006,5.869445e-006
4.026176e-001,-6.881819e-006,5.866815e-006
4.034118e-001,-6.210422e-006,5.864184e-006
4.042059e-001,-5.203327e-006,5.869078e-006
4.050000e-001,-6.210422e-006,5.862286e-006
4.057941e-001,-6.210422e-006,5.864428e-006
4.065882e-001,-7.888914e-006,5.864428e-006
4.073824e-001,-6.210422e-006,5.867182e-006
4.081765e-001,-7.553216e-006,5.864795e-006
4.089706e-001,-7.217518e-006,5.876899e-006
4.097647e-001,-4.867628e-006,5.889710e-006
4.105588e-001,-6.210422e-006,5.895496e-006
4.113529e-001,-5.874723e-006,5.901884e-006
4.121471e-001,-4.867628e-006,5.904802e-006
4.129412e-001,-6.210422e-006,5.907841e-006
4.137353e-001,-4.196231e-006,5.904195e-006
4.145294e-001,-1.510643e-006,5.900159e-006
4.153235e-001,-4.531929e-006,5.885359e-006
4.161176e-001,-4.867628e-006,5.885763e-006
4.169118e-001,-5.539025e-006,5.887020e-006
4.177059e-001,-5.539025e-006,5.888910e-006
4.185000e-001,-5.203327e-006,5.888910e-006
4.192941e-001,-6.210422e-006,5.891469e-006
4.200882e-001,-7.553216e-006,5.889093e-006
4.208824e-001,-7.217518e-006,5.886228e-006
4.216765e-001,-3.524834e-006,5.884886e-006
4.224706e-001,-5.539025e-006,5.881836e-006
4.232647e-001,-5.539025e-006,5.881836e-006
4.240588e-001,-5.539025e-006,5.884581e-006
4.248529e-001,-4.531929e-006,5.886472e-006
4.256471e-001,-3.524834e-006,5.883727e-006
4.264412e-001,-5.539025e-006,5.879761e-006
4.272353e-001,-5.539025e-006,5.879761e-006
4.280294e-001,-4.867628e-006,5.881653e-006
4.288235e-001,-6.881819e-006,5.880738e-006
4.296176e-001,-8.560311e-006,5.876709e-006
4.304118e-001,-6.546120e-006,5.889215e-006
4.312059e-001,-6.210422e-006,5.890372e-006
4.320000e-001,-6.881819e-006,5.894392e-006
4.327941e-001,-6.881819e-006,5.891774e-006
4.335882e-001,-6.881819e-006,5.896280e-006
4.343824e-001,-4.867628e-006,5.900273e-006
4.351765e-001,-7.553216e-006,5.901915e-006
4.359706e-001,-7.553216e-006,5.909025e-006
4.367647e-001,-7.049668e-006,5.916127e-006
4.375588e-001,-6.546120e-006,5.922213e-006
4.383529e-001,-5.874723e-006,5.921001e-006
4.391471e-001,-7.217518e-006,5.922032e-006
4.399412e-001,-5.874723e-006,5.931297e-006
4.407353e-001,-2.853437e-006,5.935447e-006
4.415294e-001,-5.706874e-006,5.926128e-006
4.423235e-001,-5.539025e-006,5.926635e-006
4.431176e-001,-3.524834e-006,5.929360e-006
4.439118e-001,-4.867628e-006,5.924454e-006
4.447059e-001,-6.881819e-006,5.920455e-006
4.455000e-001,-6.881819e-006,5.930994e-006
4.462941e-001,-2.853437e-006,5.940366e-006
4.470882e-001,-2.853437e-006,5.928573e-006
4.478824e-001,-3.692683e-006,5.912569e-006
4.486765e-001,-4.531929e-006,5.902849e-006
4.494706e-001,-6.210422e-006,5.903640e-006
4.502647e-001,-7.553216e-006,5.905767e-006
4.510588e-001,-6.378271e-006,5.907104e-006
4.518529e-001,-4.196231e-006,5.909799e-006
4.526471e-001,-3.524834e-006,5.904149e-006
4.534412e-001,-8.224612e-006,5.893441e-006
4.542353e-001,-7.888914e-006,5.896302e-006
4.550294e-001,-5.874723e-006,5.900318e-006
4.558235e-001,-5.539025e-006,5.899223e-006
4.566176e-001,-6.210422e-006,5.894719e-006
4.574118e-001,-4.364080e-006,5.896340e-006
4.582059e-001,-4.196231e-006,5.893197e-006
4.590000e-001,-4.531929e-006,5.883872e-006
4.597941e-001,-5.539025e-006,5.877830e-006
4.605882e-001,-5.874723e-006,5.883933e-006
4.613824e-001,-4.867628e-006,5.891552e-006
4.621765e-001,-2.853437e-006,5.893196e-006
4.629706e-001,-6.546120e-006,5.888079e-006
4.637647e-001,-5.874723e-006,5.898165e-006
4.645588e-001,-4.867628e-006,5.904734e-006
4.653529e-001,-5.539025e-006,5.902849e-006
4.661471e-001,-2.853437e-006,5.901815e-006
4.669412e-001,-7.553216e-006,5.899261e-006
4.677353e-001,-6.378271e-006,5.912448e-006
4.685294e-001,-6.210422e-006,5.917871e-006
4.693235e-001,-7.888914e-006,5.923508e-006
4.701176e-001,-9.231709e-006,5.935492e-006
4.709118e-001,-7.217518e-006,5.953605e-006
4.717059e-001,-8.224612e-006,5.961195e-006
4.725000e-001,-6.210422e-006,5.961196e-006
4.732941e-001,-5.539025e-006,5.963303e-006
4.740882e-001,-5.539025e-006,5.956257e-006
4.748824e-001,-5.035477e-006,5.944858e-006
4.756765e-001,-3.189136e-006,5.936362e-006
4.764706e-001,-1.510643e-006,5.933981e-006
4.772647e-001,-4.867628e-006,5.930934e-006
4.780588e-001,-4.196231e-006,5.924577e-006
4.788529e-001,-3.860533e-006,5.913966e-006
4.796471e-001,-5.203327e-006,5.907591e-006
4.804412e-001,-6.378271e-006,5.907591e-006
4.812353e-001,-5.874723e-006,5.904514e-006
4.820294e-001,-4.867628e-006,5.892467e-006
4.828235e-001,-7.553216e-006,5.890578e-006
4.836176e-001,-5.539025e-006,5.898676e-006
4.844118e-001,-3.356985e-006,5.894172e-006
4.852059e-001,-6.881819e-006,5.886792e-006
4.860000e-001,-7.553216e-006,5.876541e-006
4.867941e-001,-7.049668e-006,5.887219e-006
4.875882e-001,-6.881819e-006,5.894248e-006
4.883824e-001,-8.224612e-006,5.902280e-006
4.891765e-001,-4.531929e-006,5.915764e-006
4.899706e-001,-6.210422e-006,5.908540e-006
4.907647e-001,-7.553216e-006,5.900699e-006
4.915588e-001,-5.539025e-006,5.902683e-006
4.923529e-001,-7.049668e-006,5.896904e-006
4.931471e-001,-6.881819e-006,5.902037e-006
4.939412e-001,-8.560311e-006,5.906535e-006
4.947353e-001,-6.881819e-006,5.906535e-006
4.955294e-001,-5.539025e-006,5.906535e-006
4.963235e-001,-4.196231e-006,5.910058e-006
4.971176e-001,-4.867628e-006,5.907507e-006
4.979118e-001,-4.867628e-006,5.904590e-006
4.987059e-001,-5.539025e-006,5.908783e-006
4.995000e-001,-5.539025e-006,5.908783e-006
5.002941e-001,-6.210422e-006,5.904286e-006
5.010882e-001,-6.210422e-006,5.911334e-006
5.018824e-001,-4.364080e-006,5.920229e-006
5.026765e-001,-1.510643e-006,5.915529e-006
5.034706e-001,-4.196231e-006,5.910612e-006
5.042647e-001,-5.706874e-006,5.908525e-006
5.050588e-001,-4.196231e-006,5.911766e-006
5.058529e-001,-4.531929e-006,5.911766e-006
5.066471e-001,-6.210422e-006,5.904537e-006
5.074412e-001,-4.867628e-006,5.908548e-006
5.082353e-001,-4.867628e-006,5.908547e-006
5.090294e-001,-6.881819e-006,5.906664e-006
5.098235e-001,-5.874723e-006,5.912130e-006
5.106176e-001,-8.224612e-006,5.915893e-006
5.114118e-001,-6.713969e-006,5.923714e-006
5.122059e-001,-7.217518e-006,5.927582e-006
5.130000e-001,-6.881819e-006,5.934760e-006
5.137941e-001,-4.867628e-006,5.944126e-006
5.145882e-001,-6.881819e-006,5.941227e-006
5.153824e-001,-7.049668e-006,5.941227e-006
5.161765e-001,-3.860533e-006,5.948193e-006
5.169706e-001,-4.196231e-006,5.947468e-006
5.177647e-001,-6.546120e-006,5.943968e-006
5.185588e-001,-6.210422e-006,5.949098e-006
5.193529e-001,-5.539025e-006,5.946118e-006
5.201471e-001,-5.539025e-006,5.940381e-006
5.209412e-001,-4.867628e-006,5.938266e-006
5.217353e-001,-5.539025e-006,5.936392e-006
5.225294e-001,-6.378271e-006,5.935365e-006
5.233235e-001,-5.539025e-006,5.934783e-006
5.241176e-001,-4.867628e-006,5.934783e-006
5.249118e-001,-4.196231e-006,5.936415e-006
5.257059e-001,-5.539025e-006,5.937806e-006
5.265000e-001,-5.539025e-006,5.933332e-006
5.272941e-001,-3.860533e-006,5.927582e-006
5.280882e-001,-4.531929e-006,5.923343e-006
5.288824e-001,-5.874723e-006,5.923343e-006
5.296765e-001,-3.860533e-006,5.928612e-006
5.304706e-001,-4.867628e-006,5.926250e-006
5.312647e-001,-4.531929e-006,5.914429e-006
5.320588e-001,-6.210422e-006,5.911698e-006
5.328529e-001,-5.706874e-006,5.913822e-006
5.336471e-001,-6.881819e-006,5.905829e-006
5.344412e-001,-7.721065e-006,5.905829e-006
5.352353e-001,-4.867628e-006,5.911500e-006
5.360294e-001,-5.035477e-006,5.911500e-006
5.368235e-001,-7.385367e-006,5.909033e-006
5.376176e-001,-7.217518e-006,5.922010e-006
5.384118e-001,-5.539025e-006,5.931275e-006
5.392059e-001,-5.539025e-006,5.934783e-006
5.400000e-001,-7.553216e-006,5.936658e-006
5.407941e-001,-7.888914e-006,5.949219e-006
5.415882e-001,-5.539025e-006,5.963680e-006
5.423824e-001,-4.196231e-006,5.959225e-006
5.431765e-001,-4.867628e-006,5.955731e-006
5.439706e-001,-6.210422e-006,5.953862e-006
5.447647e-001,-4.867628e-006,5.955972e-006
5.455588e-001,-4.867628e-006,5.954103e-006
5.463529e-001,-4.364080e-006,5.954103e-006
5.471471e-001,-3.189136e-006,5.949965e-006
5.479412e-001,-5.203327e-006,5.939378e-006
5.487353e-001,-4.531929e-006,5.928491e-006
5.495294e-001,-3.189136e-006,5.925766e-006
5.503235e-001,-4.531929e-006,5.915765e-006
5.511176e-001,-6.881819e-006,5.910909e-006
5.519118e-001,-3.524834e-006,5.908973e-006
5.527059e-001,-4.196231e-006,5.899552e-006
5.535000e-001,-7.217518e-006,5.900951e-006
5.542941e-001,-7.049668e-006,5.903444e-006
5.550882e-001,-5.539025e-006,5.908571e-006
5.558824e-001,-4.867628e-006,5.901460e-006
5.566765e-001,-5.874723e-006,5.897445e-006
5.574706e-001,-8.896010e-006,5.900365e-006
5.582647e-001,-8.560311e-006,5.913429e-006
5.590588e-001,-4.196231e-006,5.920404e-006
5.598529e-001,-2.517739e-006,5.919616e-006
5.606471e-001,-5.539025e-006,5.914946e-006
5.614412e-001,-6.881819e-006,5.911668e-006
5.622353e-001,-7.049668e-006,5.911668e-006
5.630294e-001,-5.203327e-006,5.912298e-006
5.638235e-001,-4.196231e-006,5.910818e-006
5.646176e-001,-5.874723e-006,5.915370e-006
5.654118e-001,-5.874723e-006,5.919919e-006
5.662059e-001,-5.539025e-006,5.920950e-006
5.670000e-001,-7.888914e-006,5.924078e-006
5.677941e-001,-6.210422e-006,5.936061e-006
5.685882e-001,-5.539025e-006,5.940050e-006
5.693824e-001,-5.539025e-006,5.939023e-006
5.701765e-001,-4.531929e-006,5.945063e-006
5.709706e-001,-3.524834e-006,5.943312e-006
5.717647e-001,-5.539025e-006,5.941138e-006
5.725588e-001,-5.203327e-006,5.942104e-006
5.733529e-001,-6.546120e-006,5.942565e-006
5.741471e-001,-5.203327e-006,5.943712e-006
5.749412e-001,-5.539025e-006,5.932085e-006
5.757353e-001,-7.553216e-006,5.931056e-006
5.765294e-001,-8.224612e-006,5.940851e-006
5.773235e-001,-4.867628e-006,5.937769e-006
5.781176e-001,-5.874723e-006,5.931419e-006
5.789118e-001,-6.210422e-006,5.930330e-006
5.797059e-001,-6.378271e-006,5.927969e-006
5.805000e-001,-6.210422e-006,5.929626e-006
5.812941e-001,-5.539025e-006,5.932713e-006
5.820882e-001,-6.881819e-006,5.929445e-006
5.828824e-001,-5.539025e-006,5.937429e-006
5.836765e-001,-4.196231e-006,5.937429e-006
5.844706e-001,-5.539025e-006,5.935797e-006
5.852647e-001,-6.881819e-006,5.935797e-006
5.860588e-001,-7.217518e-006,5.943388e-006
5.868529e-001,-1.023880e-005,5.944656e-006
5.876471e-001,-7.721065e-006,5.963462e-006
5.884412e-001,-6.881819e-006,5.965470e-006
5.892353e-001,-6.881819e-006,5.964207e-006
5.900294e-001,-5.539025e-006,5.947915e-006
5.908235e-001,-6.881819e-006,5.931601e-006
5.916176e-001,-6.881819e-006,5.919730e-006
5.924118e-001,-6.210422e-006,5.889764e-006
5.932059e-001,-5.539025e-006,5.878786e-006
5.940000e-001,-5.035477e-006,5.868766e-006
5.947941e-001,-4.867628e-006,5.862792e-006
5.955882e-001,-4.531929e-006,5.856361e-006
5.963824e-001,-4.196231e-006,5.842003e-006
5.971765e-001,-3.021286e-006,5.833888e-006
5.979706e-001,-5.539025e-006,5.826955e-006
5.987647e-001,-4.196231e-006,5.824799e-006
5.995588e-001,-5.203327e-006,5.819066e-006
6.003529e-001,-5.539025e-006,5.815920e-006
6.011471e-001,-3.692683e-006,5.813759e-006
6.019412e-001,-4.196231e-006,5.806926e-006
6.027353e-001,-6.881819e-006,5.806926e-006
6.035294e-001,-7.553216e-006,5.817670e-006
6.043235e-001,-5.874723e-006,5.830488e-006
6.051176e-001,-4.867628e-006,5.839284e-006
6.059118e-001,-5.874723e-006,5.844974e-006
6.067059e-001,-6.881819e-006,5.854338e-006
6.075000e-001,-4.867628e-006,5.864995e-006
6.082941e-001,-4.867628e-006,5.871417e-006
6.090882e-001,-5.706874e-006,5.877832e-006
6.098824e-001,-6.881819e-006,5.886031e-006
6.106765e-001,-6.546120e-006,5.898761e-006
6.114706e-001,-4.196231e-006,5.908829e-006
6.122647e-001,-4.196231e-006,5.908442e-006
6.130588e-001,-7.217518e-006,5.905890e-006
6.138529e-001,-6.881819e-006,5.913542e-006
6.146471e-001,-5.539025e-006,5.922941e-006
6.154412e-001,-6.042573e-006,5.925668e-006
6.162353e-001,-4.867628e-006,5.922752e-006
6.170294e-001,-3.189136e-006,5.923600e-006
6.178235e-001,-4.867628e-006,5.919055e-006
6.186176e-001,-8.224612e-006,5.910074e-006
6.194118e-001,-6.210422e-006,5.911531e-006
6.202059e-001,-5.539025e-006,5.903694e-006
6.210000e-001,-4.196231e-006,5.899194e-006
6.217941e-001,-5.706874e-006,5.901749e-006
6.225882e-001,-3.189136e-006,5.909247e-006
6.233824e-001,-4.867628e-006,5.903717e-006
6.241765e-001,-7.888914e-006,5.903717e-006
6.249706e-001,-8.896010e-006,5.919563e-006
6.257647e-001,-6.881819e-006,5.934459e-006
6.265588e-001,-5.539025e-006,5.931858e-006
6.273529e-001,-4.196231e-006,5.931858e-006
6.281471e-001,-6.210422e-006,5.933249e-006
6.289412e-001,-5.539025e-006,5.933249e-006
6.297353e-001,-3.524834e-006,5.928771e-006
6.305294e-001,-6.881819e-006,5.916773e-006
6.313235e-001,-7.553216e-006,5.919139e-006
6.321176e-001,-7.553216e-006,5.926228e-006
6.329118e-001,-6.881819e-006,5.920291e-006
6.337059e-001,-4.196231e-006,5.914832e-006
6.345000e-001,-2.182040e-006,5.900592e-006
6.352941e-001,-2.853437e-006,5.883598e-006
6.360882e-001,-3.692683e-006,5.875357e-006
6.368824e-001,-3.860533e-006,5.870736e-006
6.376765e-001,-2.853437e-006,5.858596e-006
6.384706e-001,-4.867628e-006,5.847927e-006
6.392647e-001,-4.867628e-006,5.843875e-006
6.400588e-001,-5.874723e-006,5.828748e-006
6.408529e-001,-7.888914e-006,5.825237e-006
6.416471e-001,-7.217518e-006,5.834840e-006
6.424412e-001,-5.035477e-006,5.844980e-006
6.432353e-001,-7.217518e-006,5.837692e-006
6.440294e-001,-5.706874e-006,5.842485e-006
6.448235e-001,-6.713969e-006,5.843000e-006
6.456176e-001,-8.392462e-006,5.850481e-006
6.464118e-001,-5.203327e-006,5.865576e-006
6.472059e-001,-6.378271e-006,5.867350e-006
6.480000e-001,-7.553216e-006,5.875625e-006
6.487941e-001,-7.217518e-006,5.889778e-006
6.495882e-001,-8.224612e-006,5.896538e-006
6.503824e-001,-6.210422e-006,5.892619e-006
6.511765e-001,-5.203327e-006,5.890243e-006
6.519706e-001,-5.539025e-006,5.884757e-006
6.527647e-001,-6.881819e-006,5.880242e-006
6.535588e-001,-7.553216e-006,5.882622e-006
6.543529e-001,-5.874723e-006,5.890730e-006
6.551471e-001,-4.364080e-006,5.889633e-006
6.559412e-001,-4.867628e-006,5.884353e-006
6.567353e-001,-6.881819e-006,5.873914e-006
6.575294e-001,-6.546120e-006,5.876296e-006
6.583235e-001,-2.853437e-006,5.872447e-006
6.591176e-001,-4.196231e-006,5.860518e-006
6.599118e-001,-6.378271e-006,5.858864e-006
6.607059e-001,-5.539025e-006,5.859438e-006
6.615000e-001,-5.539025e-006,5.858397e-006
6.622941e-001,-6.210422e-006,5.860295e-006
6.630882e-001,-4.867628e-006,5.860295e-006
6.638824e-001,-5.203327e-006,5.861949e-006
6.646765e-001,-4.196231e-006,5.868680e-006
6.654706e-001,-4.196231e-006,5.867885e-006
6.662647e-001,-2.182040e-006,5.866233e-006
6.670588e-001,-2.182040e-006,5.859193e-006
6.678529e-001,-4.867628e-006,5.852145e-006
6.686471e-001,-5.539025e-006,5.851225e-006
6.694412e-001,-5.203327e-006,5.849078e-006
6.702353e-001,-6.210422e-006,5.840911e-006
6.710294e-001,-6.881819e-006,5.837223e-006
6.718235e-001,-5.539025e-006,5.846745e-006
6.726176e-001,-5.035477e-006,5.846745e-006
6.734118e-001,-6.210422e-006,5.845295e-006
6.742059e-001,-3.524834e-006,5.847444e-006
6.750000e-001,-6.210422e-006,5.845234e-006
6.757941e-001,-6.210422e-006,5.852352e-006
6.765882e-001,-5.874723e-006,5.854498e-006
6.773824e-001,-6.881819e-006,5.855540e-006
6.781765e-001,-5.874723e-006,5.861972e-006
6.789706e-001,-4.531929e-006,5.858481e-006
6.797647e-001,-4.531929e-006,5.844129e-006
6.805588e-001,-7.888914e-006,5.838046e-006
6.813529e-001,-7.553216e-006,5.844497e-006
6.821471e-001,-7.721065e-006,5.847137e-006
6.829412e-001,-8.560311e-006,5.850473e-006
6.837353e-001,-7.553216e-006,5.857524e-006
6.845294e-001,-9.231709e-006,5.866585e-006
6.853235e-001,-5.874723e-006,5.874227e-006
6.861176e-001,-4.867628e-006,5.868114e-006
6.869118e-001,-6.881819e-006,5.861054e-006
6.877059e-001,-5.203327e-006,5.862278e-006
6.885000e-001,-3.692683e-006,5.860257e-006
6.892941e-001,-4.867628e-006,5.849799e-006
6.900882e-001,-5.539025e-006,5.846853e-006
6.908824e-001,-6.546120e-006,5.852988e-006
6.916765e-001,-6.881819e-006,5.855785e-006
6.924706e-001,-4.196231e-006,5.860319e-006
6.932647e-001,-4.196231e-006,5.861727e-006
6.940588e-001,-4.867628e-006,5.860074e-006
6.948529e-001,-4.196231e-006,5.853639e-006
6.956471e-001,-4.867628e-006,5.845540e-006
6.964412e-001,-2.853437e-006,5.849775e-006
6.972353e-001,-2.182040e-006,5.849775e-006
6.980294e-001,-5.539025e-006,5.847359e-006
6.988235e-001,-5.539025e-006,5.850120e-006
6.996176e-001,-4.196231e-006,5.847973e-006
7.004118e-001,-6.210422e-006,5.837223e-006
7.012059e-001,-6.881819e-006,5.836646e-006
7.020000e-001,-4.196231e-006,5.844757e-006
7.027941e-001,-4.531929e-006,5.846170e-006
7.035882e-001,-9.567407e-006,5.833325e-006
7.043824e-001,-6.881819e-006,5.841318e-006
7.051765e-001,-7.888914e-006,5.844819e-006
7.059706e-001,-6.210422e-006,5.853409e-006
7.067647e-001,-5.539025e-006,5.853409e-006
7.075588e-001,-7.217518e-006,5.856574e-006
7.083529e-001,-8.224612e-006,5.865943e-006
7.091471e-001,-6.210422e-006,5.878716e-006
7.099412e-001,-5.706874e-006,5.880852e-006
7.107353e-001,-6.210422e-006,5.880326e-006
7.115294e-001,-4.196231e-006,5.884353e-006
7.123235e-001,-4.196231e-006,5.886914e-006
7.131176e-001,-6.881819e-006,5.880082e-006
7.139118e-001,-5.539025e-006,5.883560e-006
7.147059e-001,-2.853437e-006,5.885450e-006
7.155000e-001,-3.860533e-006,5.879349e-006
7.162941e-001,-6.881819e-006,5.881181e-006
7.170882e-001,-5.539025e-006,5.878556e-006
7.178824e-001,-6.881819e-006,5.875846e-006
7.186765e-001,-6.881819e-006,5.878228e-006
7.194706e-001,-4.867628e-006,5.874197e-006
7.202647e-001,-4.867628e-006,5.857493e-006
7.210588e-001,-4.867628e-006,5.849768e-006
7.218529e-001,-6.210422e-006,5.837792e-006
7.226471e-001,-4.867628e-006,5.837792e-006
7.234412e-001,-4.196231e-006,5.835886e-006
7.242353e-001,-3.524834e-006,5.832318e-006
7.250294e-001,-3.524834e-006,5.828786e-006
7.258235e-001,-7.721065e-006,5.829402e-006
7.266176e-001,-6.881819e-006,5.845042e-006
7.274118e-001,-6.881819e-006,5.851486e-006
7.282059e-001,-7.553216e-006,5.859577e-006
7.290000e-001,-5.539025e-006,5.871019e-006
7.297941e-001,-5.203327e-006,5.871997e-006
7.305882e-001,-4.364080e-006,5.868306e-006
7.313824e-001,-4.531929e-006,5.864107e-006
7.321765e-001,-5.539025e-006,5.863250e-006
7.329706e-001,-5.874723e-006,5.856084e-006
7.337647e-001,-3.860533e-006,5.857126e-006
7.345588e-001,-6.210422e-006,5.858114e-006
7.353529e-001,-6.210422e-006,5.855724e-006
7.361471e-001,-4.364080e-006,5.850696e-006
7.369412e-001,-5.539025e-006,5.842347e-006
7.377353e-001,-6.210422e-006,5.837800e-006
7.385294e-001,-6.881819e-006,5.829864e-006
7.393235e-001,-6.881819e-006,5.837185e-006
7.401176e-001,-6.210422e-006,5.839583e-006
7.409118e-001,-6.210422e-006,5.834541e-006
7.417059e-001,-4.196231e-006,5.836694e-006
7.425000e-001,-2.853437e-006,5.827932e-006
7.432941e-001,-4.531929e-006,5.817207e-006
7.440882e-001,-4.867628e-006,5.802752e-006
7.448824e-001,-4.196231e-006,5.796254e-006
7.456765e-001,-4.531929e-006,5.792662e-006
7.464706e-001,-4.531929e-006,5.793468e-006
7.472647e-001,-3.189136e-006,5.792600e-006
7.480588e-001,-4.867628e-006,5.788881e-006
7.488529e-001,-6.546120e-006,5.786959e-006
7.496471e-001,-7.049668e-006,5.790307e-006
7.504412e-001,-5.539025e-006,5.793367e-006
7.512353e-001,-5.539025e-006,5.791198e-006
7.520294e-001,-5.539025e-006,5.794396e-006
7.528235e-001,-6.210422e-006,5.802196e-006
7.536176e-001,-6.881819e-006,5.807945e-006
7.544118e-001,-7.888914e-006,5.811999e-006
7.552059e-001,-6.210422e-006,5.824213e-006
7.560000e-001,-4.531929e-006,5.829140e-006
7.567941e-001,-5.874723e-006,5.824213e-006
7.575882e-001,-5.539025e-006,5.827170e-006
7.583824e-001,-5.203327e-006,5.829079e-006
7.591765e-001,-6.881819e-006,5.823535e-006
7.599706e-001,-5.874723e-006,5.827047e-006
7.607647e-001,-3.189136e-006,5.817986e-006
7.615588e-001,-4.196231e-006,5.808424e-006
7.623529e-001,-4.196231e-006,5.798963e-006
7.631471e-001,-6.210422e-006,5.790787e-006
7.639412e-001,-7.553216e-006,5.794876e-006
7.647353e-001,-4.867628e-006,5.797539e-006
7.655294e-001,-3.189136e-006,5.790392e-006
7.663235e-001,-7.553216e-006,5.789091e-006
7.671176e-001,-8.224612e-006,5.799930e-006
7.679118e-001,-4.196231e-006,5.806732e-006
7.687059e-001,-4.364080e-006,5.800981e-006
7.695000e-001,-8.896010e-006,5.797787e-006
7.702941e-001,-7.888914e-006,5.811080e-006
7.710882e-001,-6.210422e-006,5.821632e-006
7.718824e-001,-7.553216e-006,5.823789e-006
7.726765e-001,-5.203327e-006,5.828263e-006
7.734706e-001,-6.881819e-006,5.827278e-006
7.742647e-001,-6.210422e-006,5.833741e-006
7.750588e-001,-5.203327e-006,5.839459e-006
7.758529e-001,-7.217518e-006,5.838476e-006
7.766471e-001,-7.553216e-006,5.844313e-006
7.774412e-001,-5.539025e-006,5.855785e-006
7.782353e-001,-7.553216e-006,5.858542e-006
7.790294e-001,-6.881819e-006,5.864666e-006
7.798235e-001,-3.524834e-006,5.873471e-006
7.806176e-001,-4.531929e-006,5.870415e-006
7.814118e-001,-4.364080e-006,5.870415e-006
7.822059e-001,-6.881819e-006,5.865117e-006
7.830000e-001,-8.224612e-006,5.869131e-006
7.837941e-001,-7.553216e-006,5.874632e-006
7.845882e-001,-7.217518e-006,5.873937e-006
7.853824e-001,-5.874723e-006,5.881630e-006
7.861765e-001,-3.860533e-006,5.884109e-006
7.869706e-001,-4.196231e-006,5.873372e-006
7.877647e-001,-4.364080e-006,5.864015e-006
7.885588e-001,-5.203327e-006,5.860854e-006
7.893529e-001,-6.881819e-006,5.859874e-006
7.901471e-001,-5.203327e-006,5.857240e-006
7.909412e-001,-4.196231e-006,5.847673e-006
7.917353e-001,-4.867628e-006,5.844113e-006
7.925294e-001,-4.867628e-006,5.845771e-006
7.933235e-001,-7.049668e-006,5.845771e-006
7.941176e-001,-6.881819e-006,5.848802e-006
7.949118e-001,-4.531929e-006,5.855241e-006
7.957059e-001,-3.189136e-006,5.854383e-006
7.965000e-001,-4.196231e-006,5.851969e-006
7.972941e-001,-6.546120e-006,5.853992e-006
7.980882e-001,-4.196231e-006,5.858282e-006
7.988824e-001,-4.867628e-006,5.857485e-006
7.996765e-001,-4.699779e-006,5.861160e-006
8.004706e-001,-5.203327e-006,5.861581e-006
8.012647e-001,-4.867628e-006,5.856069e-006
8.020588e-001,-6.881819e-006,5.859132e-006
8.028529e-001,-5.874723e-006,5.867212e-006
8.036471e-001,-4.867628e-006,5.862439e-006
8.044412e-001,-3.524834e-006,5.855371e-006
8.052353e-001,-5.539025e-006,5.850404e-006
8.060294e-001,-5.874723e-006,5.852306e-006
8.068235e-001,-5.539025e-006,5.852306e-006
8.076176e-001,-6.546120e-006,5.839106e-006
8.084118e-001,-6.210422e-006,5.830802e-006
8.092059e-001,-5.539025e-006,5.836524e-006
8.100000e-001,-4.196231e-006,5.843161e-006
8.107941e-001,-5.874723e-006,5.839598e-006
8.115882e-001,-7.553216e-006,5.836093e-006
8.123824e-001,-6.881819e-006,5.838099e-006
8.131765e-001,-3.524834e-006,5.843629e-006
8.139706e-001,-5.539025e-006,5.842217e-006
8.147647e-001,-4.196231e-006,5.841172e-006
8.155588e-001,-4.196231e-006,5.836562e-006
8.163529e-001,-6.881819e-006,5.832995e-006
8.171471e-001,-7.049668e-006,5.828932e-006
8.179412e-001,-5.874723e-006,5.831972e-006
8.187353e-001,-4.196231e-006,5.833018e-006
8.195294e-001,-5.539025e-006,5.829448e-006
8.203235e-001,-5.203327e-006,5.832218e-006
8.211176e-001,-5.874723e-006,5.836217e-006
8.219118e-001,-5.203327e-006,5.837262e-006
8.227059e-001,-5.874723e-006,5.837262e-006
8.235000e-001,-6.546120e-006,5.834986e-006
8.242941e-001,-6.210422e-006,5.839291e-006
8.250882e-001,-6.881819e-006,5.841441e-006
8.258824e-001,-8.224612e-006,5.838799e-006
8.266765e-001,-7.553216e-006,5.838799e-006
8.274706e-001,-5.539025e-006,5.847889e-006
8.282647e-001,-5.539025e-006,5.846845e-006
8.290588e-001,-3.692683e-006,5.844697e-006
8.298529e-001,-5.539025e-006,5.837323e-006
8.306471e-001,-3.524834e-006,5.835171e-006
8.314412e-001,-5.203327e-006,5.830187e-006
8.322353e-001,-8.224612e-006,5.824644e-006
8.330294e-001,-7.217518e-006,5.834740e-006
8.338235e-001,-7.888914e-006,5.844144e-006
8.346176e-001,-6.210422e-006,5.852735e-006
8.354118e-001,-4.867628e-006,5.850343e-006
8.362059e-001,-4.531929e-006,5.842608e-006
8.370000e-001,-6.210422e-006,5.819589e-006
8.377941e-001,-5.539025e-006,5.813828e-006
8.385882e-001,-5.539025e-006,5.809258e-006
8.393824e-001,-8.224612e-006,5.804684e-006
8.401765e-001,-4.867628e-006,5.814816e-006
8.409706e-001,-5.706874e-006,5.808331e-006
8.417647e-001,-6.210422e-006,5.804275e-006
8.425588e-001,-4.867628e-006,5.804275e-006
8.433529e-001,-4.699779e-006,5.802358e-006
8.441471e-001,-6.210422e-006,5.801461e-006
8.449412e-001,-6.881819e-006,5.805543e-006
8.457353e-001,-2.182040e-006,5.812894e-006
8.465294e-001,-1.846342e-006,5.809374e-006
8.473235e-001,-3.860533e-006,5.807806e-006
8.481176e-001,-6.210422e-006,5.803478e-006
8.489118e-001,-4.196231e-006,5.809227e-006
8.497059e-001,-4.196231e-006,5.806632e-006
8.505000e-001,-4.867628e-006,5.803046e-006
8.512941e-001,-5.874723e-006,5.805805e-006
8.520882e-001,-6.042573e-006,5.810440e-006
8.528824e-001,-6.210422e-006,5.807466e-006
8.536765e-001,-4.364080e-006,5.802397e-006
8.544706e-001,-3.524834e-006,5.798150e-006
8.552647e-001,-4.531929e-006,5.795055e-006
8.560588e-001,-5.035477e-006,5.791213e-006
8.568529e-001,-6.881819e-006,5.785160e-006
8.576471e-001,-5.203327e-006,5.791670e-006
8.584412e-001,-4.196231e-006,5.792600e-006
8.592353e-001,-6.546120e-006,5.788486e-006
8.600294e-001,-5.203327e-006,5.787246e-006
8.608235e-001,-6.881819e-006,5.782903e-006
8.616176e-001,-6.881819e-006,5.791089e-006
8.624118e-001,-7.553216e-006,5.799264e-006
8.632059e-001,-4.867628e-006,5.800626e-006
8.640000e-001,-4.196231e-006,5.794126e-006
8.647941e-001,-5.539025e-006,5.790532e-006
8.655882e-001,-7.553216e-006,5.788928e-006
8.663824e-001,-8.224612e-006,5.798096e-006
8.671765e-001,-4.531929e-006,5.813859e-006
8.679706e-001,-6.378271e-006,5.812995e-006
8.687647e-001,-6.881819e-006,5.805604e-006
8.695588e-001,-8.224612e-006,5.808015e-006
8.703529e-001,-6.378271e-006,5.818140e-006
8.711471e-001,-5.874723e-006,5.824452e-006
8.719412e-001,-6.210422e-006,5.824983e-006
8.727353e-001,-3.860533e-006,5.832741e-006
8.735294e-001,-4.196231e-006,5.830341e-006
8.743235e-001,-9.567407e-006,5.818140e-006
8.751176e-001,-5.539025e-006,5.821532e-006
8.759118e-001,-6.210422e-006,5.816968e-006
8.767059e-001,-4.531929e-006,5.819127e-006
8.775000e-001,-3.189136e-006,5.819929e-006
8.782941e-001,-6.881819e-006,5.812154e-006
8.790882e-001,-1.023880e-005,5.816722e-006
8.798824e-001,-6.210422e-006,5.841964e-006
8.806765e-001,-7.721065e-006,5.839568e-006
8.814706e-001,-5.539025e-006,5.840267e-006
8.822647e-001,-3.524834e-006,5.833072e-006
8.830588e-001,-3.189136e-006,5.823528e-006
8.838529e-001,-4.196231e-006,5.821494e-006
8.846471e-001,-5.539025e-006,5.825007e-006
8.854412e-001,-8.560311e-006,5.831165e-006
8.862353e-001,-9.567407e-006,5.847429e-006
8.870294e-001,-6.881819e-006,5.868260e-006
8.878235e-001,-5.203327e-006,5.878892e-006
8.886176e-001,-5.874723e-006,5.879808e-006
8.894118e-001,-5.874723e-006,5.882737e-006
8.902059e-001,-6.210422e-006,5.882737e-006
8.910000e-001,-6.378271e-006,5.876328e-006
8.917941e-001,-5.874723e-006,5.873235e-006
8.925882e-001,-5.539025e-006,5.875717e-006
8.933824e-001,-2.853437e-006,5.869912e-006
8.941765e-001,-4.867628e-006,5.863281e-006
8.949706e-001,-2.853437e-006,5.857471e-006
8.957647e-001,-2.182040e-006,5.840513e-006
8.965588e-001,-6.210422e-006,5.834426e-006
8.973529e-001,-6.881819e-006,5.833849e-006
8.981471e-001,-4.531929e-006,5.831203e-006
8.989412e-001,-5.203327e-006,5.822580e-006
8.997353e-001,-4.196231e-006,5.811474e-006
9.005294e-001,-2.853437e-006,5.805729e-006
9.013235e-001,-4.196231e-006,5.800533e-006
9.021176e-001,-4.531929e-006,5.796944e-006
9.029118e-001,-3.860533e-006,5.789571e-006
9.037059e-001,-3.860533e-006,5.777968e-006
9.045000e-001,-4.196231e-006,5.772561e-006
9.052941e-001,-6.210422e-006,5.772165e-006
9.060882e-001,-6.881819e-006,5.776267e-006
9.068824e-001,-5.539025e-006,5.776267e-006
9.076765e-001,-7.553216e-006,5.772911e-006
9.084706e-001,-6.881819e-006,5.786386e-006
9.092647e-001,-5.203327e-006,5.794567e-006
9.100588e-001,-6.881819e-006,5.790827e-006
9.108529e-001,-7.553216e-006,5.795411e-006
9.116471e-001,-7.553216e-006,5.802652e-006
9.124412e-001,-5.874723e-006,5.807722e-006
9.132353e-001,-4.196231e-006,5.810687e-006
9.140294e-001,-1.510643e-006,5.808092e-006
9.148235e-001,-3.692683e-006,5.803889e-006
9.156176e-001,-1.846342e-006,5.802799e-006
9.164118e-001,-4.867628e-006,5.802428e-006
9.172059e-001,-5.203327e-006,5.807621e-006
9.180000e-001,-4.196231e-006,5.808548e-006
9.187941e-001,-5.874723e-006,5.804963e-006
9.195882e-001,-7.888914e-006,5.807003e-006
9.203824e-001,-7.553216e-006,5.813489e-006
9.211765e-001,-5.874723e-006,5.816143e-006
9.219706e-001,-4.196231e-006,5.817192e-006
9.227647e-001,-4.531929e-006,5.815070e-006
9.235588e-001,-6.881819e-006,5.810131e-006
9.243529e-001,-6.378271e-006,5.819697e-006
9.251471e-001,-6.881819e-006,5.820276e-006
9.259412e-001,-7.553216e-006,5.822680e-006
9.267353e-001,-6.210422e-006,5.828841e-006
9.275294e-001,-5.539025e-006,5.826439e-006
9.283235e-001,-6.881819e-006,5.825391e-006
9.291176e-001,-4.196231e-006,5.832718e-006
9.299118e-001,-4.867628e-006,5.831918e-006
9.307059e-001,-6.546120e-006,5.821385e-006
9.315000e-001,-5.539025e-006,5.817500e-006
9.322941e-001,-6.210422e-006,5.809575e-006
9.330882e-001,-3.860533e-006,5.800054e-006
9.338824e-001,-4.196231e-006,5.788471e-006
9.346765e-001,-4.867628e-006,5.769840e-006
9.354706e-001,-2.182040e-006,5.766854e-006
9.362647e-001,-4.196231e-006,5.761623e-006
9.370588e-001,-4.531929e-006,5.753395e-006
9.378529e-001,-5.539025e-006,5.751586e-006
9.386471e-001,-7.217518e-006,5.756303e-006
9.394412e-001,-4.867628e-006,5.764154e-006
9.402353e-001,-4.867628e-006,5.762223e-006
9.410294e-001,-7.721065e-006,5.756926e-006
9.418235e-001,-7.888914e-006,5.760315e-006
9.426176e-001,-5.035477e-006,5.772638e-006
9.434118e-001,-5.874723e-006,5.774775e-006
9.442059e-001,-4.867628e-006,5.777757e-006
9.450000e-001,-3.524834e-006,5.779434e-006
9.457941e-001,-4.531929e-006,5.776329e-006
9.465882e-001,-4.699779e-006,5.779745e-006
9.473824e-001,-2.853437e-006,5.784516e-006
9.481765e-001,-4.196231e-006,5.778309e-006
9.489706e-001,-5.035477e-006,5.774705e-006
9.497647e-001,-5.203327e-006,5.776841e-006
9.505588e-001,-5.203327e-006,5.773672e-006
9.513529e-001,-8.224612e-006,5.768075e-006
9.521471e-001,-6.881819e-006,5.781871e-006
9.529412e-001,-8.224612e-006,5.789253e-006
9.537353e-001,-8.896010e-006,5.782678e-006
9.545294e-001,-8.224612e-006,5.791423e-006
9.553235e-001,-8.392462e-006,5.792910e-006
9.561176e-001,-1.174945e-005,5.801662e-006
9.569118e-001,-1.091020e-005,5.831057e-006
9.577059e-001,-9.231709e-006,5.849308e-006
9.585000e-001,-9.903105e-006,5.854092e-006
9.592941e-001,-1.057450e-005,5.870254e-006
9.600882e-001,-1.158160e-005,5.891713e-006
9.608824e-001,-9.063859e-006,5.917484e-006
9.616765e-001,-6.546120e-006,5.934828e-006
9.624706e-001,-4.531929e-006,5.941597e-006
9.632647e-001,-4.196231e-006,5.934404e-006
9.640588e-001,-4.531929e-006,5.930895e-006
9.648529e-001,-6.210422e-006,5.934223e-006
9.656471e-001,-6.881819e-006,5.940570e-006
9.664412e-001,-5.539025e-006,5.940570e-006
9.672353e-001,-4.531929e-006,5.940570e-006
9.680294e-001,-5.874723e-006,5.933376e-006
9.688235e-001,-4.196231e-006,5.929927e-006
9.696176e-001,-4.196231e-006,5.928293e-006
9.704118e-001,-4.867628e-006,5.926658e-006
9.712059e-001,-1.510643e-006,5.926658e-006
9.720000e-001,-1.007095e-006,5.916900e-006
9.727941e-001,-1.510643e-006,5.910793e-006
9.735882e-001,1.678492e-007,5.906663e-006
9.743824e-001,-1.678492e-007,5.903320e-006
9.751765e-001,-2.517739e-006,5.899976e-006
9.759706e-001,-2.853437e-006,5.885579e-006
9.767647e-001,-2.349889e-006,5.874959e-006
9.775588e-001,-2.182040e-006,5.863609e-006
9.783529e-001,-3.524834e-006,5.849392e-006
9.791471e-001,-4.364080e-006,5.844419e-006
9.799412e-001,-4.867628e-006,5.842231e-006
9.807353e-001,-4.867628e-006,5.843498e-006
9.815294e-001,-4.867628e-006,5.844358e-006
9.823235e-001,-3.189136e-006,5.842454e-006
9.831176e-001,-3.524834e-006,5.835816e-006
9.839118e-001,-3.860533e-006,5.835140e-006
9.847059e-001,-4.867628e-006,5.828678e-006
9.855000e-001,-5.874723e-006,5.824613e-006
9.862941e-001,-2.853437e-006,5.828840e-006
9.870882e-001,-3.860533e-006,5.822679e-006
9.878824e-001,-7.888914e-006,5.816204e-006
9.886765e-001,-7.217518e-006,5.820275e-006
9.894706e-001,-5.539025e-006,5.821570e-006
9.902647e-001,-8.224612e-006,5.819411e-006
9.910588e-001,-6.881819e-006,5.827362e-006
9.918529e-001,-5.874723e-006,5.835485e-006
9.926471e-001,-5.539025e-006,5.842677e-006
9.934412e-001,-4.196231e-006,5.845440e-006
9.942353e-001,-5.874723e-006,5.843782e-006
9.950294e-001,-7.888914e-006,5.848387e-006
9.958235e-001,-8.224612e-006,5.859728e-006
9.966176e-001,-5.539025e-006,5.872515e-006
9.974118e-001,-2.517739e-006,5.878074e-006
9.982059e-001,-5.539025e-006,5.873370e-006
9.990000e-001,-8.560311e-006,5.870070e-006
9.997941e-001,-7.553216e-006,5.876463e-006
1.000588e+000,-4.867628e-006,5.883604e-006
1.001382e+000,-6.210422e-006,5.881713e-006
1.002176e+000,-5.539025e-006,5.883848e-006
1.002971e+000,-5.874723e-006,5.881713e-006
1.003765e+000,-4.867628e-006,5.878234e-006
1.004559e+000,-8.560311e-006,5.867784e-006
1.005353e+000,-8.224612e-006,5.877196e-006
1.006147e+000,-6.546120e-006,5.889945e-006
1.006941e+000,-6.881819e-006,5.892199e-006
1.007735e+000,-9.567407e-006,5.896704e-006
1.008529e+000,-4.196231e-006,5.914086e-006
1.009324e+000,-4.196231e-006,5.906070e-006
1.010118e+000,-4.531929e-006,5.901511e-006
1.010912e+000,-6.210422e-006,5.904307e-006
1.011706e+000,-5.203327e-006,5.909958e-006
1.012500e+000,-4.867628e-006,5.912508e-006
1.013294e+000,-4.867628e-006,5.908500e-006
1.014088e+000,-2.517739e-006,5.899503e-006
1.014882e+000,-6.546120e-006,5.894817e-006
1.015676e+000,-6.881819e-006,5.903639e-006
1.016471e+000,-5.539025e-006,5.901024e-006
1.017265e+000,-4.531929e-006,5.891041e-006
1.018059e+000,-4.867628e-006,5.891833e-006
1.018853e+000,-7.553216e-006,5.893090e-006
1.019647e+000,-4.867628e-006,5.887118e-006
1.020441e+000,-3.860533e-006,5.876684e-006
1.021235e+000,-6.881819e-006,5.870268e-006
1.022029e+000,-5.539025e-006,5.867639e-006
1.022824e+000,-5.539025e-006,5.868617e-006
1.023618e+000,-4.531929e-006,5.864090e-006
1.024412e+000,-7.217518e-006,5.859192e-006
1.025206e+000,-8.224612e-006,5.865987e-006
1.026000e+000,-8.728161e-006,5.870207e-006
1.026794e+000,-7.553216e-006,5.875394e-006
1.027588e+000,-6.546120e-006,5.882537e-006
1.028382e+000,-6.546120e-006,5.878692e-006
1.029176e+000,-8.224612e-006,5.877471e-006
1.029971e+000,-5.539025e-006,5.892412e-006
1.030765e+000,-5.539025e-006,5.895152e-006
1.031559e+000,-5.539025e-006,5.898295e-006
1.032353e+000,-4.196231e-006,5.893790e-006
1.033147e+000,-3.524834e-006,5.880256e-006
1.033941e+000,-6.378271e-006,5.868159e-006
1.034735e+000,-5.706874e-006,5.865062e-006
1.035529e+000,-2.349889e-006,5.864534e-006
1.036324e+000,-5.539025e-006,5.861986e-006
1.037118e+000,-6.881819e-006,5.865536e-006
1.037912e+000,-3.692683e-006,5.873218e-006
1.038706e+000,-5.539025e-006,5.869573e-006
1.039500e+000,-6.210422e-006,5.865047e-006
1.040294e+000,-4.867628e-006,5.868167e-006
1.041088e+000,-5.539025e-006,5.869818e-006
1.041882e+000,-6.210422e-006,5.871713e-006
1.042676e+000,-4.867628e-006,5.875746e-006
1.043471e+000,-3.189136e-006,5.868694e-006
1.044265e+000,-4.867628e-006,5.858595e-006
1.045059e+000,-2.853437e-006,5.859452e-006
1.045853e+000,-1.846342e-006,5.858901e-006
1.046647e+000,-3.189136e-006,5.855041e-006
1.047441e+000,-7.553216e-006,5.846146e-006
1.048235e+000,-7.553216e-006,5.856879e-006
1.049029e+000,-6.378271e-006,5.865942e-006
1.049824e+000,-6.210422e-006,5.870987e-006
1.050618e+000,-7.217518e-006,5.874104e-006
1.051412e+000,-7.217518e-006,5.881797e-006
1.052206e+000,-6.210422e-006,5.883078e-006
1.053000e+000,-4.531929e-006,5.884176e-006
1.053794e+000,-5.539025e-006,5.883323e-006
1.054588e+000,-6.546120e-006,5.888262e-006
1.055382e+000,-7.553216e-006,5.891552e-006
1.056176e+000,-8.224612e-006,5.897640e-006
1.056971e+000,-7.217518e-006,5.907612e-006
1.057765e+000,-8.224612e-006,5.910102e-006
1.058559e+000,-7.888914e-006,5.917931e-006
1.059353e+000,-5.203327e-006,5.926415e-006
1.060147e+000,-6.378271e-006,5.928958e-006
1.060941e+000,-5.874723e-006,5.930615e-006
1.061735e+000,-5.539025e-006,5.924560e-006
1.062529e+000,-5.874723e-006,5.920076e-006
1.063324e+000,-2.853437e-006,5.926014e-006
1.064118e+000,-4.364080e-006,5.919955e-006
1.064912e+000,-4.867628e-006,5.920341e-006
1.065706e+000,-4.196231e-006,5.921978e-006
1.066500e+000,-3.692683e-006,5.913972e-006
1.067294e+000,-4.196231e-006,5.904255e-006
1.068088e+000,-3.021286e-006,5.899694e-006
1.068882e+000,-1.510643e-006,5.897405e-006
1.069676e+000,-3.524834e-006,5.889732e-006
1.070471e+000,-5.203327e-006,5.885770e-006
1.071265e+000,-3.524834e-006,5.883757e-006
1.072059e+000,-3.189136e-006,5.879791e-006
1.072853e+000,-6.210422e-006,5.873195e-006
1.073647e+000,-8.224612e-006,5.872034e-006
1.074441e+000,-6.881819e-006,5.879913e-006
1.075235e+000,-4.867628e-006,5.879913e-006
1.076029e+000,-6.210422e-006,5.867998e-006
1.076824e+000,-7.217518e-006,5.862981e-006
1.077618e+000,-5.539025e-006,5.868793e-006
1.078412e+000,-6.881819e-006,5.868793e-006
1.079206e+000,-8.224612e-006,5.877936e-006
1.080000e+000,-4.531929e-006,5.887941e-006
1.080794e+000,-4.196231e-006,5.890135e-006
1.081588e+000,-5.539025e-006,5.887575e-006
1.082382e+000,-6.210422e-006,5.877569e-006
1.083176e+000,-5.035477e-006,5.873905e-006
1.083971e+000,-5.539025e-006,5.863898e-006
1.084765e+000,-6.881819e-006,5.861756e-006
1.085559e+000,-8.224612e-006,5.868181e-006
1.086353e+000,-7.553216e-006,5.880950e-006
1.087147e+000,-8.224612e-006,5.885952e-006
1.087941e+000,-7.553216e-006,5.895943e-006
1.088735e+000,-7.049668e-006,5.903061e-006
1.089529e+000,-6.881819e-006,5.898218e-006
1.090324e+000,-5.539025e-006,5.904603e-006
1.091118e+000,-2.182040e-006,5.904094e-006
1.091912e+000,-2.853437e-006,5.894969e-006
1.092706e+000,-5.539025e-006,5.890767e-006
1.093500e+000,-6.210422e-006,5.893089e-006
1.094294e+000,-5.539025e-006,5.893089e-006
1.095088e+000,-4.196231e-006,5.888581e-006
1.095882e+000,-6.210422e-006,5.892054e-006
1.096676e+000,-6.881819e-006,5.901549e-006
1.097471e+000,-4.531929e-006,5.910299e-006
1.098265e+000,-4.364080e-006,5.905440e-006
1.099059e+000,-7.553216e-006,5.905827e-006
1.099853e+000,-7.553216e-006,5.916452e-006
1.100647e+000,-5.874723e-006,5.925423e-006
1.101441e+000,-5.539025e-006,5.925423e-006
1.102235e+000,-4.196231e-006,5.923856e-006
1.103029e+000,-4.196231e-006,5.918219e-006
1.103824e+000,-5.539025e-006,5.917832e-006
1.104618e+000,-6.378271e-006,5.922742e-006
1.105412e+000,-7.553216e-006,5.928156e-006
1.106206e+000,-5.706874e-006,5.936663e-006
1.107000e+000,-4.196231e-006,5.932694e-006
1.107794e+000,-3.524834e-006,5.930153e-006
1.108588e+000,-5.874723e-006,5.928761e-006
1.109382e+000,-7.553216e-006,5.926521e-006
1.110176e+000,-7.049668e-006,5.934569e-006
1.110971e+000,-5.035477e-006,5.935197e-006
1.111765e+000,-5.874723e-006,5.929291e-006
1.112559e+000,-5.539025e-006,5.923234e-006
1.113353e+000,-4.867628e-006,5.925112e-006
1.114147e+000,-6.210422e-006,5.926748e-006
1.114941e+000,-8.224612e-006,5.928867e-006
1.115735e+000,-6.210422e-006,5.931712e-006
1.116529e+000,-4.531929e-006,5.923901e-006
1.117324e+000,-4.196231e-006,5.923901e-006
1.118118e+000,-8.224612e-006,5.917696e-006
1.118912e+000,-6.881819e-006,5.923152e-006
1.119706e+000,-2.517739e-006,5.917696e-006
1.120500e+000,-4.196231e-006,5.908449e-006
1.121294e+000,-6.881819e-006,5.903891e-006
1.122088e+000,-5.035477e-006,5.906261e-006
1.122882e+000,-5.539025e-006,5.909078e-006
1.123676e+000,-6.210422e-006,5.912600e-006
1.124471e+000,-6.881819e-006,5.898318e-006
1.125265e+000,-6.881819e-006,5.902819e-006
1.126059e+000,-7.217518e-006,5.905190e-006
1.126853e+000,-6.210422e-006,5.913693e-006
1.127647e+000,-6.546120e-006,5.921335e-006
1.128441e+000,-6.210422e-006,5.920122e-006
1.129235e+000,-5.539025e-006,5.902272e-006
1.130029e+000,-7.553216e-006,5.900144e-006
1.130824e+000,-6.881819e-006,5.899451e-006
1.131618e+000,-5.203327e-006,5.903952e-006
1.132412e+000,-5.874723e-006,5.907902e-006
1.133206e+000,-5.539025e-006,5.914459e-006
1.134000e+000,-2.853437e-006,5.917977e-006
1.134794e+000,-6.546120e-006,5.911910e-006
1.135588e+000,-7.553216e-006,5.903708e-006
1.136382e+000,-2.853437e-006,5.894400e-006
1.137176e+000,-3.524834e-006,5.883796e-006
1.137971e+000,-4.364080e-006,5.879830e-006
1.138765e+000,-2.853437e-006,5.875639e-006
1.139559e+000,-6.210422e-006,5.868489e-006
1.140353e+000,-8.224612e-006,5.868489e-006
1.141147e+000,-4.867628e-006,5.875800e-006
1.141941e+000,-3.189136e-006,5.872867e-006
1.142735e+000,-4.531929e-006,5.867303e-006
1.143529e+000,-4.867628e-006,5.870667e-006
1.144324e+000,-5.203327e-006,5.870667e-006
1.145118e+000,-4.867628e-006,5.875800e-006
1.145912e+000,-3.524834e-006,5.880928e-006
1.146706e+000,-4.531929e-006,5.873845e-006
1.147500e+000,-4.531929e-006,5.866569e-006
1.148294e+000,-4.867628e-006,5.866569e-006
1.149088e+000,-4.867628e-006,5.865651e-006
1.149882e+000,-4.867628e-006,5.867303e-006
1.150676e+000,-4.867628e-006,5.871523e-006
1.151471e+000,-6.210422e-006,5.873173e-006
1.152265e+000,-6.881819e-006,5.878059e-006
1.153059e+000,-3.189136e-006,5.886845e-006
1.153853e+000,-5.539025e-006,5.885565e-006
1.154647e+000,-6.881819e-006,5.889101e-006
1.155441e+000,-6.881819e-006,5.891477e-006
1.156235e+000,-7.553216e-006,5.891477e-006
1.157029e+000,-6.881819e-006,5.898600e-006
1.157824e+000,-4.531929e-006,5.895983e-006
1.158618e+000,-5.874723e-006,5.888734e-006
1.159412e+000,-4.196231e-006,5.890745e-006
1.160206e+000,-5.203327e-006,5.882698e-006
1.161000e+000,-6.210422e-006,5.874578e-006
1.161794e+000,-4.867628e-006,5.869566e-006
1.162588e+000,-6.546120e-006,5.866631e-006
1.163382e+000,-8.224612e-006,5.873478e-006
1.164176e+000,-1.007095e-005,5.891171e-006
1.164971e+000,-9.567407e-006,5.914853e-006
1.165765e+000,-9.567407e-006,5.938530e-006
1.166559e+000,-7.217518e-006,5.956693e-006
1.167353e+000,-5.539025e-006,5.963378e-006
1.168147e+000,-3.524834e-006,5.966867e-006
1.168941e+000,-5.874723e-006,5.960970e-006
1.169735e+000,-7.553216e-006,5.953560e-006
1.170529e+000,-5.539025e-006,5.953560e-006
1.171324e+000,-2.182040e-006,5.952535e-006
1.172118e+000,-4.196231e-006,5.949097e-006
1.172912e+000,-3.189136e-006,5.948312e-006
1.173706e+000,-3.189136e-006,5.938349e-006
1.174500e+000,-6.210422e-006,5.930161e-006
1.175294e+000,-7.217518e-006,5.927800e-006
1.176088e+000,-5.539025e-006,5.926468e-006
1.176882e+000,-4.531929e-006,5.924348e-006
1.177676e+000,-4.196231e-006,5.921622e-006
1.178471e+000,-3.524834e-006,5.913616e-006
1.179265e+000,-5.539025e-006,5.912220e-006
1.180059e+000,-4.196231e-006,5.914102e-006
1.180853e+000,-3.860533e-006,5.907301e-006
1.181647e+000,-4.196231e-006,5.903047e-006
1.182441e+000,-3.524834e-006,5.897390e-006
1.183235e+000,-5.539025e-006,5.896720e-006
1.184029e+000,-5.874723e-006,5.900250e-006
1.184824e+000,-5.706874e-006,5.903168e-006
1.185618e+000,-6.210422e-006,5.910665e-006
1.186412e+000,-4.867628e-006,5.916309e-006
1.187206e+000,-5.539025e-006,5.917158e-006
1.188000e+000,-7.553216e-006,5.917158e-006
1.188794e+000,-5.539025e-006,5.918492e-006
1.189588e+000,-8.728161e-006,5.920372e-006
1.190382e+000,-7.553216e-006,5.934472e-006
1.191176e+000,-5.539025e-006,5.933784e-006
1.191971e+000,-6.210422e-006,5.925310e-006
1.192765e+000,-6.881819e-006,5.928860e-006
1.193559e+000,-5.203327e-006,5.932310e-006
1.194353e+000,-5.874723e-006,5.933217e-006
1.195147e+000,-6.210422e-006,5.939142e-006
1.195941e+000,-4.531929e-006,5.943974e-006
1.196735e+000,-6.210422e-006,5.943559e-006
1.197529e+000,-7.888914e-006,5.951706e-006
1.198324e+000,-7.049668e-006,5.963633e-006
1.199118e+000,-4.867628e-006,5.970129e-006
1.199912e+000,-5.874723e-006,5.969227e-006
1.200706e+000,-5.203327e-006,5.971211e-006
1.201500e+000,-6.881819e-006,5.960383e-006
1.202294e+000,-6.210422e-006,5.960383e-006
1.203088e+000,-4.867628e-006,5.952610e-006
1.203882e+000,-4.531929e-006,5.937760e-006
1.204676e+000,-3.860533e-006,5.925113e-006
1.205471e+000,-2.853437e-006,5.910171e-006
1.206265e+000,-5.539025e-006,5.875067e-006
1.207059e+000,-5.706874e-006,5.851071e-006
1.207853e+000,-7.553216e-006,5.836723e-006
1.208647e+000,-7.553216e-006,5.825521e-006
1.209441e+000,-4.531929e-006,5.810532e-006
1.210235e+000,-7.553216e-006,5.779318e-006
1.211029e+000,-4.867628e-006,5.772397e-006
1.211824e+000,-8.392462e-007,5.767110e-006
1.212618e+000,-5.539025e-006,5.761631e-006
1.213412e+000,-7.553216e-006,5.765242e-006
1.214206e+000,-4.867628e-006,5.775318e-006
1.215000e+000,-2.349889e-006,5.771215e-006
1.215794e+000,-3.860533e-006,5.759660e-006
1.216588e+000,-6.210422e-006,5.755297e-006
1.217382e+000,-2.853437e-006,5.760283e-006
1.218176e+000,-5.706874e-006,5.752989e-006
1.218971e+000,-5.539025e-006,5.757129e-006
1.219765e+000,-4.196231e-006,5.760743e-006
1.220559e+000,-7.217518e-006,5.759061e-006
1.221353e+000,-7.553216e-006,5.772817e-006
1.222147e+000,-7.553216e-006,5.788253e-006
1.222941e+000,-6.546120e-006,5.803301e-006
1.223735e+000,-5.539025e-006,5.815039e-006
1.224529e+000,-5.874723e-006,5.823427e-006
1.225324e+000,-6.546120e-006,5.831125e-006
1.226118e+000,-7.217518e-006,5.840596e-006
1.226912e+000,-6.546120e-006,5.853279e-006
1.227706e+000,-6.881819e-006,5.863632e-006
1.228500e+000,-5.539025e-006,5.873112e-006
1.229294e+000,-3.860533e-006,5.876266e-006
1.230088e+000,-6.210422e-006,5.873883e-006
1.230882e+000,-6.546120e-006,5.877915e-006
1.231676e+000,-6.210422e-006,5.883102e-006
1.232471e+000,-5.706874e-006,5.890784e-006
1.233265e+000,-3.692683e-006,5.896226e-006
1.234059e+000,-4.196231e-006,5.895884e-006
1.234853e+000,-3.524834e-006,5.894240e-006
1.235647e+000,-4.196231e-006,5.888270e-006
1.236441e+000,-4.867628e-006,5.890829e-006
1.237235e+000,-6.210422e-006,5.893205e-006
1.238029e+000,-6.881819e-006,5.886807e-006
1.238824e+000,-5.539025e-006,5.885527e-006
1.239618e+000,-4.867628e-006,5.885527e-006
1.240412e+000,-4.196231e-006,5.873624e-006
1.241206e+000,-6.881819e-006,5.865552e-006
1.242000e+000,-6.210422e-006,5.869039e-006
1.242794e+000,-5.035477e-006,5.871179e-006
1.243588e+000,-5.203327e-006,5.873280e-006
1.244382e+000,-7.217518e-006,5.871263e-006
1.245176e+000,-6.881819e-006,5.868511e-006
1.245971e+000,-6.210422e-006,5.863005e-006
1.246765e+000,-5.539025e-006,5.865147e-006
1.247559e+000,-5.539025e-006,5.871752e-006
1.248353e+000,-3.524834e-006,5.871752e-006
1.249147e+000,-6.881819e-006,5.855225e-006
1.249941e+000,-6.881819e-006,5.852589e-006
1.250735e+000,-4.867628e-006,5.859024e-006
1.251529e+000,-7.553216e-006,5.854980e-006
1.252324e+000,-7.553216e-006,5.862148e-006
1.253118e+000,-8.560311e-006,5.868267e-006
1.253912e+000,-6.881819e-006,5.881706e-006
1.254706e+000,-6.210422e-006,5.874685e-006
1.255500e+000,-6.881819e-006,5.866799e-006
1.256294e+000,-5.539025e-006,5.868022e-006
1.257088e+000,-5.539025e-006,5.863495e-006
1.257882e+000,-6.881819e-006,5.846945e-006
1.258676e+000,-6.881819e-006,5.855042e-006
1.259471e+000,-5.874723e-006,5.863128e-006
1.260265e+000,-5.539025e-006,5.866922e-006
1.261059e+000,-6.881819e-006,5.864780e-006
1.261853e+000,-7.553216e-006,5.870285e-006
1.262647e+000,-5.874723e-006,5.879326e-006
1.263441e+000,-5.874723e-006,5.882256e-006
1.264235e+000,-5.539025e-006,5.889878e-006
1.265029e+000,-4.867628e-006,5.886586e-006
1.265824e+000,-4.196231e-006,5.880181e-006
1.266618e+000,-5.035477e-006,5.876640e-006
1.267412e+000,-5.539025e-006,5.877945e-006
1.268206e+000,-3.524834e-006,5.879838e-006
1.269000e+000,-4.867628e-006,5.867740e-006
1.269794e+000,-6.210422e-006,5.867740e-006
1.270588e+000,-2.853437e-006,5.874158e-006
1.271382e+000,-2.182040e-006,5.863518e-006
1.272176e+000,-2.182040e-006,5.856474e-006
1.272971e+000,-2.853437e-006,5.849422e-006
1.273765e+000,-4.196231e-006,5.846047e-006
1.274559e+000,-5.539025e-006,5.836647e-006
1.275353e+000,-5.539025e-006,5.826553e-006
1.276147e+000,-4.531929e-006,5.814105e-006
1.276941e+000,-5.706874e-006,5.804097e-006
1.277735e+000,-4.867628e-006,5.801275e-006
1.278529e+000,-5.539025e-006,5.796014e-006
1.279324e+000,-4.196231e-006,5.785850e-006
1.280118e+000,-4.196231e-006,5.782251e-006
1.280912e+000,-6.378271e-006,5.778650e-006
1.281706e+000,-6.881819e-006,5.781405e-006
1.282500e+000,-5.203327e-006,5.789594e-006
1.283294e+000,-4.196231e-006,5.793622e-006
1.284088e+000,-5.874723e-006,5.787277e-006
1.284882e+000,-5.539025e-006,5.787811e-006
1.285676e+000,-4.867628e-006,5.794729e-006
1.286471e+000,-7.049668e-006,5.792809e-006
1.287265e+000,-6.210422e-006,5.793452e-006
1.288059e+000,-6.210422e-006,5.800301e-006
1.288853e+000,-6.210422e-006,5.802466e-006
1.289647e+000,-7.217518e-006,5.802466e-006
1.290441e+000,-7.553216e-006,5.810254e-006
1.291235e+000,-6.881819e-006,5.817477e-006
1.292029e+000,-7.888914e-006,5.819882e-006
1.292824e+000,-5.539025e-006,5.830418e-006
1.293618e+000,-4.196231e-006,5.836016e-006
1.294412e+000,-4.196231e-006,5.834356e-006
1.295206e+000,-6.210422e-006,5.836939e-006
1.296000e+000,-5.539025e-006,5.846523e-006
1.296794e+000,-6.210422e-006,5.852106e-006
1.297588e+000,-6.881819e-006,5.847075e-006
1.298382e+000,-5.539025e-006,5.844435e-006
1.299176e+000,-4.867628e-006,5.841709e-006
1.299971e+000,-4.196231e-006,5.837653e-006
1.300765e+000,-6.881819e-006,5.828239e-006
1.301559e+000,-5.539025e-006,5.826946e-006
1.302353e+000,-4.531929e-006,5.824790e-006
1.303147e+000,-5.539025e-006,5.824790e-006
1.303941e+000,-5.874723e-006,5.824790e-006
1.304735e+000,-6.210422e-006,5.822510e-006
1.305529e+000,-4.196231e-006,5.817453e-006
1.306324e+000,-5.539025e-006,5.803741e-006
1.307118e+000,-6.881819e-006,5.797863e-006
1.307912e+000,-8.224612e-006,5.792289e-006
1.308706e+000,-7.553216e-006,5.793776e-006
1.309500e+000,-5.539025e-006,5.802009e-006
1.310294e+000,-3.524834e-006,5.799263e-006
1.311088e+000,-6.210422e-006,5.793195e-006
1.311882e+000,-4.531929e-006,5.795363e-006
1.312676e+000,-6.210422e-006,5.791522e-006
1.313471e+000,-7.888914e-006,5.799882e-006
1.314265e+000,-8.224612e-006,5.811728e-006
1.315059e+000,-6.881819e-006,5.823757e-006
1.315853e+000,-6.881819e-006,5.831886e-006
1.316647e+000,-3.189136e-006,5.841087e-006
1.317441e+000,-4.364080e-006,5.839059e-006
1.318235e+000,-5.874723e-006,5.841763e-006
1.319029e+000,-5.874723e-006,5.850542e-006
1.319824e+000,-7.553216e-006,5.856551e-006
1.320618e+000,-4.867628e-006,5.864695e-006
1.321412e+000,-4.531929e-006,5.867754e-006
1.322206e+000,-4.196231e-006,5.870567e-006
1.323000e+000,-3.189136e-006,5.864879e-006
1.323794e+000,-4.196231e-006,5.849253e-006
1.324588e+000,-4.196231e-006,5.841148e-006
1.325382e+000,-3.356985e-006,5.839489e-006
1.326176e+000,-5.874723e-006,5.832040e-006
1.326971e+000,-5.539025e-006,5.827238e-006
1.327765e+000,-4.867628e-006,5.827238e-006
1.328559e+000,-5.539025e-006,5.820767e-006
1.329353e+000,-6.210422e-006,5.810647e-006
1.330147e+000,-5.874723e-006,5.815586e-006
1.330941e+000,-4.867628e-006,5.820213e-006
1.331735e+000,-5.539025e-006,5.818300e-006
1.332529e+000,-4.531929e-006,5.816141e-006
1.333324e+000,-3.860533e-006,5.814822e-006
1.334118e+000,-7.553216e-006,5.810500e-006
1.334912e+000,-8.896010e-006,5.813155e-006
1.335706e+000,-7.217518e-006,5.816303e-006
1.336500e+000,-6.210422e-006,5.814946e-006
1.337294e+000,-4.867628e-006,5.806978e-006
1.338088e+000,-5.539025e-006,5.797824e-006
1.338882e+000,-6.210422e-006,5.792599e-006
1.339676e+000,-6.210422e-006,5.790182e-006
1.340471e+000,-7.553216e-006,5.792351e-006
1.341265e+000,-6.546120e-006,5.806708e-006
1.342059e+000,-6.881819e-006,5.816219e-006
1.342853e+000,-5.203327e-006,5.820783e-006
1.343647e+000,-4.531929e-006,5.817637e-006
1.344441e+000,-4.867628e-006,5.814861e-006
1.345235e+000,-3.524834e-006,5.816527e-006
1.346029e+000,-2.182040e-006,5.809365e-006
1.346824e+000,-4.867628e-006,5.797677e-006
1.347618e+000,-7.217518e-006,5.798544e-006
1.348412e+000,-8.224612e-006,5.807612e-006
1.349206e+000,-5.706874e-006,5.810516e-006
1.350000e+000,-5.539025e-006,5.803803e-006
1.350794e+000,-4.531929e-006,5.802751e-006
1.351588e+000,-2.853437e-006,5.799967e-006
1.352382e+000,-6.210422e-006,5.797368e-006
1.353176e+000,-5.035477e-006,5.803122e-006
1.353971e+000,-5.203327e-006,5.801661e-006
1.354765e+000,-6.210422e-006,5.797925e-006
1.355559e+000,-3.021286e-006,5.792847e-006
1.356353e+000,-3.524834e-006,5.786400e-006
1.357147e+000,-6.881819e-006,5.784973e-006
1.357941e+000,-7.888914e-006,5.794581e-006
1.358735e+000,-6.210422e-006,5.802195e-006
1.359529e+000,-6.546120e-006,5.797120e-006
1.360324e+000,-5.874723e-006,5.795239e-006
1.361118e+000,-5.874723e-006,5.797755e-006
1.361912e+000,-6.210422e-006,5.797755e-006
1.362706e+000,-6.881819e-006,5.799921e-006
1.363500e+000,-7.049668e-006,5.806415e-006
1.364294e+000,-6.210422e-006,5.809466e-006
1.365088e+000,-4.196231e-006,5.801491e-006
1.365882e+000,-4.531929e-006,5.795735e-006
1.366676e+000,-6.881819e-006,5.795735e-006
1.367471e+000,-6.881819e-006,5.803903e-006
1.368265e+000,-4.867628e-006,5.798335e-006
1.369059e+000,-4.364080e-006,5.791832e-006
1.369853e+000,-7.049668e-006,5.795325e-006
1.370647e+000,-5.203327e-006,5.804135e-006
1.371441e+000,-8.560311e-006,5.798568e-006
1.372235e+000,-8.896010e-006,5.811713e-006
1.373029e+000,-5.539025e-006,5.824974e-006
1.373824e+000,-2.853437e-006,5.822817e-006
1.374618e+000,-5.539025e-006,5.812083e-006
1.375412e+000,-5.539025e-006,5.807512e-006
1.376206e+000,-6.378271e-006,5.801638e-006
1.377000e+000,-4.867628e-006,5.802218e-006
1.377794e+000,-3.524834e-006,5.796958e-006
1.378588e+000,-4.867628e-006,5.789772e-006
1.379382e+000,-4.867628e-006,5.787850e-006
1.380176e+000,-4.867628e-006,5.778665e-006
1.380971e+000,-6.210422e-006,5.772140e-006
1.381765e+000,-7.049668e-006,5.775310e-006
1.382559e+000,-6.210422e-006,5.779495e-006
1.383353e+000,-5.539025e-006,5.781669e-006
1.384147e+000,-4.196231e-006,5.787873e-006
1.384941e+000,-5.203327e-006,5.780923e-006
1.385735e+000,-5.539025e-006,5.772661e-006
1.386529e+000,-5.203327e-006,5.778875e-006
1.387324e+000,-5.203327e-006,5.782910e-006
1.388118e+000,-4.867628e-006,5.785121e-006
1.388912e+000,-6.378271e-006,5.789399e-006
1.389706e+000,-6.210422e-006,5.789981e-006
1.390500e+000,-4.867628e-006,5.781979e-006
1.391294e+000,-4.867628e-006,5.781979e-006
1.392088e+000,-6.210422e-006,5.785702e-006
1.392882e+000,-5.706874e-006,5.790663e-006
1.393676e+000,-5.539025e-006,5.793103e-006
1.394471e+000,-4.867628e-006,5.794094e-006
1.395265e+000,-2.517739e-006,5.794094e-006
1.396059e+000,-4.364080e-006,5.792421e-006
1.396853e+000,-5.539025e-006,5.792011e-006
1.397647e+000,-6.210422e-006,5.794798e-006
1.398441e+000,-3.524834e-006,5.798885e-006
1.399235e+000,-4.867628e-006,5.795789e-006
1.400029e+000,-6.042573e-006,5.795789e-006
1.400824e+000,-6.210422e-006,5.799310e-006
1.401618e+000,-5.203327e-006,5.799310e-006
1.402412e+000,-5.706874e-006,5.793738e-006
1.403206e+000,-7.553216e-006,5.799890e-006
1.404000e+000,-5.874723e-006,5.807125e-006
1.404794e+000,-7.888914e-006,5.803602e-006
1.405588e+000,-5.874723e-006,5.807682e-006
1.406382e+000,-4.867628e-006,5.801498e-006
1.407176e+000,-6.881819e-006,5.794999e-006
1.407971e+000,-4.867628e-006,5.802365e-006
1.408765e+000,-4.196231e-006,5.799395e-006
1.409559e+000,-5.539025e-006,5.799395e-006
1.410353e+000,-5.874723e-006,5.800385e-006
1.411147e+000,-3.860533e-006,5.799271e-006
1.411941e+000,-5.874723e-006,5.796857e-006
1.412735e+000,-6.210422e-006,5.794566e-006
1.413529e+000,-4.867628e-006,5.786570e-006
1.414324e+000,-6.210422e-006,5.765141e-006
1.415118e+000,-3.860533e-006,5.750493e-006
1.415912e+000,-3.860533e-006,5.729234e-006
1.416706e+000,-6.210422e-006,5.718888e-006
1.417500e+000,-6.881819e-006,5.721084e-006
1.418294e+000,-4.196231e-006,5.730800e-006
1.419088e+000,-2.853437e-006,5.726100e-006
1.419882e+000,-5.874723e-006,5.712483e-006
1.420676e+000,-5.706874e-006,5.713551e-006
1.421471e+000,-8.224612e-006,5.721296e-006
1.422265e+000,-8.224612e-006,5.735205e-006
1.423059e+000,-7.553216e-006,5.751140e-006
1.423853e+000,-6.210422e-006,5.764106e-006
1.424647e+000,-5.035477e-006,5.764106e-006
1.425441e+000,-7.217518e-006,5.756715e-006
1.426235e+000,-6.881819e-006,5.762634e-006
1.427029e+000,-5.539025e-006,5.770041e-006
1.427824e+000,-5.539025e-006,5.773647e-006
1.428618e+000,-4.531929e-006,5.778680e-006
1.429412e+000,-5.539025e-006,5.775885e-006
1.430206e+000,-7.217518e-006,5.779488e-006
1.431000e+000,-5.539025e-006,5.789726e-006
1.431794e+000,-6.210422e-006,5.793320e-006
1.432588e+000,-6.546120e-006,5.800502e-006
1.433382e+000,-7.217518e-006,5.803842e-006
1.434176e+000,-4.867628e-006,5.808663e-006
1.434971e+000,-4.364080e-006,5.806230e-006
1.435765e+000,-2.853437e-006,5.800873e-006
1.436559e+000,-3.524834e-006,5.796603e-006
1.437353e+000,-3.189136e-006,5.791585e-006
1.438147e+000,-2.853437e-006,5.778681e-006
1.438941e+000,-2.853437e-006,5.772467e-006
1.439735e+000,-5.539025e-006,5.753668e-006
1.440529e+000,-4.196231e-006,5.746365e-006
1.441324e+000,-4.196231e-006,5.742741e-006
1.442118e+000,-7.217518e-006,5.736927e-006
1.442912e+000,-7.888914e-006,5.738240e-006
1.443706e+000,-6.210422e-006,5.747989e-006
1.444500e+000,-6.546120e-006,5.749112e-006
1.445294e+000,-4.196231e-006,5.750298e-006
1.446088e+000,-4.196231e-006,5.749487e-006
1.446882e+000,-8.224612e-006,5.743679e-006
1.447676e+000,-4.867628e-006,5.745178e-006
1.448471e+000,-4.531929e-006,5.737967e-006
1.449265e+000,-6.210422e-006,5.737091e-006
1.450059e+000,-5.203327e-006,5.738217e-006
1.450853e+000,-5.539025e-006,5.738217e-006
1.451647e+000,-4.196231e-006,5.733586e-006
1.452441e+000,-4.531929e-006,5.727762e-006
1.453235e+000,-6.210422e-006,5.726885e-006
1.454029e+000,-6.210422e-006,5.731896e-006
1.454824e+000,-5.874723e-006,5.738467e-006
1.455618e+000,-5.874723e-006,5.745780e-006
1.456412e+000,-6.210422e-006,5.746841e-006
1.457206e+000,-5.035477e-006,5.748504e-006
1.458000e+000,-7.217518e-006,5.739717e-006
1.458794e+000,-9.567407e-006,5.738342e-006
1.459588e+000,-8.224612e-006,5.758009e-006
1.460382e+000,-6.881819e-006,5.760938e-006
1.461176e+000,-5.539025e-006,5.767476e-006
1.461971e+000,-4.196231e-006,5.775746e-006
1.462765e+000,-7.721065e-006,5.772140e-006
1.463559e+000,-5.874723e-006,5.772848e-006
1.464353e+000,-5.203327e-006,5.775831e-006
1.465147e+000,-3.860533e-006,5.781770e-006
1.465941e+000,-5.203327e-006,5.781770e-006
1.466735e+000,-5.874723e-006,5.778604e-006
1.467529e+000,-5.706874e-006,5.785866e-006
1.468324e+000,-6.881819e-006,5.785866e-006
1.469118e+000,-7.217518e-006,5.790454e-006
1.469912e+000,-5.706874e-006,5.799929e-006
1.470706e+000,-2.853437e-006,5.794566e-006
1.471500e+000,-4.364080e-006,5.781110e-006
1.472294e+000,-5.539025e-006,5.770632e-006
1.473088e+000,-4.196231e-006,5.767273e-006
1.473882e+000,-5.203327e-006,5.763663e-006
1.474676e+000,-4.867628e-006,5.761608e-006
1.475471e+000,-3.692683e-006,5.756310e-006
1.476265e+000,-4.196231e-006,5.745662e-006
1.477059e+000,-3.524834e-006,5.738662e-006
1.477853e+000,-4.867628e-006,5.728960e-006
1.478647e+000,-5.539025e-006,5.727018e-006
1.479441e+000,-4.867628e-006,5.731403e-006
1.480235e+000,-5.539025e-006,5.727269e-006
1.481029e+000,-7.217518e-006,5.723884e-006
1.481824e+000,-6.881819e-006,5.727645e-006
1.482618e+000,-4.531929e-006,5.731755e-006
1.483412e+000,-5.539025e-006,5.733672e-006
1.484206e+000,-3.524834e-006,5.737302e-006
1.485000e+000,-7.217518e-006,5.737302e-006
1.485794e+000,-5.874723e-006,5.746865e-006
1.486588e+000,-4.531929e-006,5.749861e-006
1.487382e+000,-5.035477e-006,5.744866e-006
1.488176e+000,-5.874723e-006,5.738764e-006
1.488971e+000,-7.553216e-006,5.739827e-006
1.489765e+000,-6.881819e-006,5.749073e-006
1.490559e+000,-5.874723e-006,5.757308e-006
1.491353e+000,-6.881819e-006,5.753754e-006
1.492147e+000,-4.867628e-006,5.756186e-006
1.492941e+000,-3.189136e-006,5.755726e-006
1.493735e+000,-2.182040e-006,5.751047e-006
1.494529e+000,-3.524834e-006,5.737927e-006
1.495324e+000,-3.524834e-006,5.728224e-006
1.496118e+000,-5.706874e-006,5.720952e-006
1.496912e+000,-7.049668e-006,5.721477e-006
1.497706e+000,-6.881819e-006,5.726767e-006
1.498500e+000,-7.217518e-006,5.736473e-006
1.499294e+000,-6.210422e-006,5.737787e-006
1.500088e+000,-6.210422e-006,5.735346e-006
1.500882e+000,-6.210422e-006,5.739475e-006
1.501676e+000,-6.210422e-006,5.734345e-006
1.502471e+000,-5.874723e-006,5.729210e-006
1.503265e+000,-8.224612e-006,5.718426e-006
1.504059e+000,-6.378271e-006,5.724071e-006
1.504853e+000,-5.203327e-006,5.724659e-006
1.505647e+000,-5.539025e-006,5.719014e-006
1.506441e+000,-6.881819e-006,5.719014e-006
1.507235e+000,-4.867628e-006,5.723656e-006
1.508029e+000,-3.692683e-006,5.717068e-006
1.508824e+000,-2.853437e-006,5.707667e-006
1.509618e+000,-4.196231e-006,5.700306e-006
1.510412e+000,-6.546120e-006,5.696653e-006
1.511206e+000,-5.874723e-006,5.695393e-006
1.512000e+000,-5.539025e-006,5.689088e-006
1.512794e+000,-5.539025e-006,5.688015e-006
1.513588e+000,-6.881819e-006,5.686943e-006
1.514382e+000,-7.049668e-006,5.691611e-006
1.515176e+000,-4.699779e-006,5.698881e-006
1.515971e+000,-4.867628e-006,5.700133e-006
1.516765e+000,-5.706874e-006,5.699669e-006
1.517559e+000,-7.888914e-006,5.700196e-006
1.518353e+000,-4.196231e-006,5.714093e-006
1.519147e+000,-2.853437e-006,5.712398e-006
1.519941e+000,-6.881819e-006,5.703909e-006
1.520735e+000,-5.539025e-006,5.714847e-006
1.521529e+000,-4.867628e-006,5.722065e-006
1.522324e+000,-6.210422e-006,5.727331e-006
1.523118e+000,-6.546120e-006,5.735784e-006
1.523912e+000,-4.699779e-006,5.742788e-006
1.524706e+000,-4.196231e-006,5.740405e-006
1.525500e+000,-4.531929e-006,5.736777e-006
1.526294e+000,-6.210422e-006,5.736777e-006
1.527088e+000,-2.182040e-006,5.738443e-006
1.527882e+000,-3.189136e-006,5.733187e-006
1.528676e+000,-4.196231e-006,5.727487e-006
1.529471e+000,-5.874723e-006,5.727487e-006
1.530265e+000,-6.881819e-006,5.732185e-006
1.531059e+000,-4.867628e-006,5.734039e-006
1.531853e+000,-5.539025e-006,5.727464e-006
1.532647e+000,-5.539025e-006,5.728466e-006
1.533441e+000,-4.196231e-006,5.732099e-006
1.534235e+000,-5.539025e-006,5.727401e-006
1.535029e+000,-6.378271e-006,5.727401e-006
1.535824e+000,-5.706874e-006,5.732123e-006
1.536618e+000,-4.531929e-006,5.727362e-006
1.537412e+000,-4.531929e-006,5.722346e-006
1.538206e+000,-4.196231e-006,5.717327e-006
1.539000e+000,-4.196231e-006,5.711486e-006
1.539794e+000,-7.217518e-006,5.701864e-006
1.540588e+000,-6.881819e-006,5.700479e-006
1.541382e+000,-6.881819e-006,5.700479e-006
1.542176e+000,-5.706874e-006,5.696322e-006
1.542971e+000,-3.189136e-006,5.696850e-006
1.543765e+000,-5.203327e-006,5.694770e-006
1.544559e+000,-8.224612e-006,5.697417e-006
1.545353e+000,-5.874723e-006,5.705537e-006
1.546147e+000,-4.196231e-006,5.706606e-006
1.546941e+000,-4.196231e-006,5.700754e-006
1.547735e+000,-5.874723e-006,5.692438e-006
1.548529e+000,-6.210422e-006,5.693510e-006
1.549324e+000,-5.203327e-006,5.697668e-006
1.550118e+000,-5.706874e-006,5.700314e-006
1.550912e+000,-5.203327e-006,5.696180e-006
1.551706e+000,-4.196231e-006,5.695172e-006
1.552500e+000,-4.531929e-006,5.694353e-006
1.553294e+000,-6.546120e-006,5.691516e-006
1.554088e+000,-5.035477e-006,5.693848e-006
1.554882e+000,-8.224612e-006,5.690152e-006
1.555676e+000,-6.881819e-006,5.704137e-006
1.556471e+000,-5.874723e-006,5.708791e-006
1.557265e+000,-7.553216e-006,5.705206e-006
1.558059e+000,-8.224612e-006,5.702249e-006
1.558853e+000,-7.217518e-006,5.705206e-006
1.559647e+000,-8.224612e-006,5.711179e-006
1.560441e+000,-1.091020e-005,5.726554e-006
1.561235e+000,-1.225299e-005,5.748885e-006
1.562029e+000,-1.023880e-005,5.784670e-006
1.562824e+000,-7.553216e-006,5.802882e-006
1.563618e+000,-8.224612e-006,5.801459e-006
1.564412e+000,-7.553216e-006,5.801459e-006
1.565206e+000,-9.063859e-006,5.804119e-006
1.566000e+000,-7.721065e-006,5.813657e-006
1.566794e+000,-5.539025e-006,5.827183e-006
1.567588e+000,-6.881819e-006,5.830362e-006
1.568382e+000,-4.196231e-006,5.833870e-006
1.569176e+000,-4.196231e-006,5.829254e-006
1.569971e+000,-6.881819e-006,5.818470e-006
1.570765e+000,-5.539025e-006,5.824943e-006
1.571559e+000,-3.524834e-006,5.827715e-006
1.572353e+000,-5.874723e-006,5.826298e-006
1.573147e+000,-3.021286e-006,5.832947e-006
1.573941e+000,-3.524834e-006,5.830631e-006
1.574735e+000,-8.392462e-007,5.829215e-006
1.575529e+000,-2.349889e-006,5.826329e-006
1.576324e+000,-1.174945e-006,5.818400e-006
1.577118e+000,-8.392462e-007,5.810376e-006
1.577912e+000,-8.392462e-007,5.804072e-006
1.578706e+000,-1.678492e-007,5.795842e-006
1.579500e+000,-8.392462e-007,5.785244e-006
1.580294e+000,-8.392462e-007,5.775931e-006
1.581088e+000,-2.853437e-006,5.769590e-006
1.581882e+000,-4.196231e-006,5.763366e-006
1.582676e+000,-3.524834e-006,5.762556e-006
1.583471e+000,-4.531929e-006,5.761871e-006
1.584265e+000,-4.531929e-006,5.751771e-006
1.585059e+000,-3.524834e-006,5.735525e-006
1.585853e+000,-5.035477e-006,5.724502e-006
1.586647e+000,-5.874723e-006,5.720825e-006
1.587441e+000,-5.706874e-006,5.723835e-006
1.588235e+000,-4.364080e-006,5.724361e-006
1.589029e+000,-4.531929e-006,5.718927e-006
1.589824e+000,-4.196231e-006,5.713905e-006
1.590618e+000,-4.867628e-006,5.702902e-006
1.591412e+000,-4.196231e-006,5.697550e-006
1.592206e+000,-5.539025e-006,5.689229e-006
1.593000e+000,-5.539025e-006,5.690240e-006
1.593794e+000,-7.217518e-006,5.693077e-006
1.594588e+000,-5.203327e-006,5.701015e-006
1.595382e+000,-2.853437e-006,5.705105e-006
1.596176e+000,-6.210422e-006,5.706049e-006
1.596971e+000,-3.692683e-006,5.710198e-006
1.597765e+000,-3.021286e-006,5.699464e-006
1.598559e+000,-9.567407e-006,5.683092e-006
1.599353e+000,-8.560311e-006,5.699590e-006
1.600147e+000,-5.203327e-006,5.711479e-006
1.600941e+000,-4.867628e-006,5.713301e-006
1.601735e+000,-8.224612e-006,5.717633e-006
1.602529e+000,-4.531929e-006,5.725725e-006
1.603324e+000,-6.210422e-006,5.724385e-006
1.604118e+000,-8.896010e-006,5.727582e-006
1.604912e+000,-6.881819e-006,5.738850e-006
1.605706e+000,-6.210422e-006,5.749448e-006
1.606500e+000,-7.049668e-006,5.756684e-006
1.607294e+000,-8.224612e-006,5.757332e-006
1.608088e+000,-8.224612e-006,5.758828e-006
1.608882e+000,-5.539025e-006,5.766861e-006
1.609676e+000,-6.210422e-006,5.763499e-006
1.610471e+000,-7.888914e-006,5.764620e-006
1.611265e+000,-7.553216e-006,5.772273e-006
1.612059e+000,-7.553216e-006,5.777369e-006
1.612853e+000,-7.217518e-006,5.780040e-006
1.613647e+000,-7.217518e-006,5.780700e-006
1.614441e+000,-4.196231e-006,5.784424e-006
1.615235e+000,-6.210422e-006,5.784424e-006
1.616029e+000,-5.874723e-006,5.789385e-006
1.616824e+000,-6.210422e-006,5.785851e-006
1.617618e+000,-3.860533e-006,5.783431e-006
1.618412e+000,-4.196231e-006,5.781010e-006
1.619206e+000,-4.196231e-006,5.780614e-006
1.620000e+000,-4.867628e-006,5.771768e-006
1.620794e+000,-5.539025e-006,5.770835e-006
1.621588e+000,-7.553216e-006,5.759069e-006
1.622382e+000,-5.874723e-006,5.752958e-006
1.623176e+000,-8.896010e-006,5.754019e-006
1.623971e+000,-6.881819e-006,5.773633e-006
1.624765e+000,-4.196231e-006,5.778231e-006
1.625559e+000,-5.874723e-006,5.774627e-006
1.626353e+000,-6.881819e-006,5.772926e-006
1.627147e+000,-5.539025e-006,5.779450e-006
1.627941e+000,-4.867628e-006,5.784477e-006
1.628735e+000,-5.203327e-006,5.784477e-006
1.629529e+000,-6.378271e-006,5.785408e-006
1.630324e+000,-4.867628e-006,5.790082e-006
1.631118e+000,-5.539025e-006,5.785989e-006
1.631912e+000,-2.853437e-006,5.780753e-006
1.632706e+000,-4.196231e-006,5.772366e-006
1.633500e+000,-5.539025e-006,5.768758e-006
1.634294e+000,-4.196231e-006,5.772366e-006
1.635088e+000,-3.021286e-006,5.769754e-006
1.635882e+000,-3.189136e-006,5.763803e-006
1.636676e+000,-3.189136e-006,5.759131e-006
1.637471e+000,-4.531929e-006,5.754455e-006
1.638265e+000,-6.881819e-006,5.753582e-006
1.639059e+000,-6.881819e-006,5.755430e-006
1.639853e+000,-6.210422e-006,5.757861e-006
1.640647e+000,-6.881819e-006,5.761974e-006
1.641441e+000,-4.867628e-006,5.768510e-006
1.642235e+000,-6.210422e-006,5.764402e-006
1.643029e+000,-4.867628e-006,5.766060e-006
1.643824e+000,-5.539025e-006,5.764130e-006
1.644618e+000,-7.049668e-006,5.766060e-006
1.645412e+000,-5.539025e-006,5.778021e-006
1.646206e+000,-5.874723e-006,5.781227e-006
1.647000e+000,-5.874723e-006,5.782282e-006
1.647794e+000,-2.182040e-006,5.781165e-006
1.648588e+000,-2.517739e-006,5.779054e-006
1.649382e+000,-2.853437e-006,5.774270e-006
1.650176e+000,-5.035477e-006,5.766441e-006
1.650971e+000,-4.364080e-006,5.762791e-006
1.651765e+000,-8.896010e-006,5.760572e-006
1.652559e+000,-7.217518e-006,5.773431e-006
1.653353e+000,-4.531929e-006,5.772063e-006
1.654147e+000,-5.203327e-006,5.768207e-006
1.654941e+000,-5.203327e-006,5.758493e-006
1.655735e+000,-8.224612e-006,5.756435e-006
1.656529e+000,-5.874723e-006,5.768580e-006
1.657324e+000,-4.196231e-006,5.765033e-006
1.658118e+000,-6.546120e-006,5.763352e-006
1.658912e+000,-7.888914e-006,5.770322e-006
1.659706e+000,-8.224612e-006,5.779023e-006
1.660500e+000,-7.217518e-006,5.788145e-006
1.661294e+000,-6.042573e-006,5.798367e-006
1.662088e+000,-6.881819e-006,5.798916e-006
1.662882e+000,-4.531929e-006,5.801329e-006
1.663676e+000,-4.531929e-006,5.800463e-006
1.664471e+000,-3.524834e-006,5.795511e-006
1.665265e+000,-4.867628e-006,5.794830e-006
1.666059e+000,-5.539025e-006,5.797245e-006
1.666853e+000,-4.867628e-006,5.795077e-006
1.667647e+000,-6.210422e-006,5.788571e-006
1.668441e+000,-6.881819e-006,5.794334e-006
1.669235e+000,-5.539025e-006,5.805102e-006
1.670029e+000,-6.881819e-006,5.804050e-006
1.670824e+000,-5.539025e-006,5.808107e-006
1.671618e+000,-5.539025e-006,5.797964e-006
1.672412e+000,-4.196231e-006,5.787804e-006
1.673206e+000,-5.203327e-006,5.776942e-006
1.674000e+000,-6.881819e-006,5.773773e-006
1.674794e+000,-6.881819e-006,5.779838e-006
1.675588e+000,-3.524834e-006,5.778534e-006
1.676382e+000,-5.539025e-006,5.768899e-006
1.677176e+000,-6.210422e-006,5.768899e-006
1.677971e+000,-5.539025e-006,5.771076e-006
1.678765e+000,-5.874723e-006,5.773874e-006
1.679559e+000,-5.539025e-006,5.774930e-006
1.680353e+000,-4.196231e-006,5.769024e-006
1.681147e+000,-6.546120e-006,5.765414e-006
1.681941e+000,-6.210422e-006,5.766597e-006
1.682735e+000,-6.881819e-006,5.765414e-006
1.683529e+000,-5.539025e-006,5.764107e-006
1.684324e+000,-6.881819e-006,5.766037e-006
1.685118e+000,-6.881819e-006,5.773851e-006
1.685912e+000,-3.860533e-006,5.784656e-006
1.686706e+000,-4.196231e-006,5.785339e-006
1.687500e+000,-3.860533e-006,5.787385e-006
1.688294e+000,-3.860533e-006,5.789246e-006
1.689088e+000,-4.867628e-006,5.791105e-006
1.689882e+000,-4.196231e-006,5.789183e-006
1.690676e+000,-5.539025e-006,5.789183e-006
1.691471e+000,-3.860533e-006,5.792778e-006
1.692265e+000,-5.874723e-006,5.782546e-006
1.693059e+000,-2.853437e-006,5.774907e-006
1.693853e+000,-4.867628e-006,5.766511e-006
1.694647e+000,-4.196231e-006,5.761218e-006
1.695441e+000,-5.203327e-006,5.761218e-006
1.696235e+000,-3.860533e-006,5.763834e-006
1.697029e+000,-4.531929e-006,5.749245e-006
1.697824e+000,-4.867628e-006,5.748371e-006
1.698618e+000,-6.881819e-006,5.749245e-006
1.699412e+000,-3.524834e-006,5.751679e-006
1.700206e+000,-5.706874e-006,5.747622e-006
1.701000e+000,-7.553216e-006,5.748145e-006
1.701794e+000,-5.539025e-006,5.759061e-006
1.702588e+000,-7.553216e-006,5.761864e-006
1.703382e+000,-6.881819e-006,5.766970e-006
1.704176e+000,-6.378271e-006,5.769396e-006
1.704971e+000,-6.210422e-006,5.771099e-006
1.705765e+000,-5.539025e-006,5.772219e-006
1.706559e+000,-4.867628e-006,5.770042e-006
1.707353e+000,-6.210422e-006,5.769583e-006
1.708147e+000,-5.874723e-006,5.765849e-006
1.708941e+000,-6.881819e-006,5.750080e-006
1.709735e+000,-3.524834e-006,5.744460e-006
1.710529e+000,-2.853437e-006,5.734767e-006
1.711324e+000,-5.539025e-006,5.728506e-006
1.712118e+000,-6.881819e-006,5.732139e-006
1.712912e+000,-5.874723e-006,5.728733e-006
1.713706e+000,-4.867628e-006,5.728733e-006
1.714500e+000,-5.203327e-006,5.727793e-006
1.715294e+000,-6.546120e-006,5.731176e-006
1.716088e+000,-5.874723e-006,5.735558e-006
1.716882e+000,-6.881819e-006,5.735558e-006
1.717676e+000,-5.539025e-006,5.739663e-006
1.718471e+000,-2.853437e-006,5.735034e-006
1.719265e+000,-7.049668e-006,5.722818e-006
1.720059e+000,-7.888914e-006,5.727582e-006
1.720853e+000,-7.721065e-006,5.742601e-006
1.721647e+000,-5.706874e-006,5.753840e-006
1.722441e+000,-4.196231e-006,5.754362e-006
1.723235e+000,-3.860533e-006,5.754362e-006
1.724029e+000,-5.539025e-006,5.750993e-006
1.724824e+000,-4.867628e-006,5.752927e-006
1.725618e+000,-6.210422e-006,5.755710e-006
1.726412e+000,-6.210422e-006,5.761506e-006
1.727206e+000,-4.867628e-006,5.768728e-006
1.728000e+000,-6.210422e-006,5.768728e-006
1.728794e+000,-6.881819e-006,5.770905e-006
1.729588e+000,-5.539025e-006,5.777431e-006
1.730382e+000,-4.531929e-006,5.777431e-006
1.731176e+000,-4.531929e-006,5.768728e-006
1.731971e+000,-6.881819e-006,5.761320e-006
1.732765e+000,-6.042573e-006,5.768728e-006
1.733559e+000,-4.867628e-006,5.770337e-006
1.734353e+000,-6.881819e-006,5.773446e-006
1.735147e+000,-6.210422e-006,5.772141e-006
1.735941e+000,-5.539025e-006,5.773260e-006
1.736735e+000,-3.860533e-006,5.776057e-006
1.737529e+000,-6.378271e-006,5.773175e-006
1.738324e+000,-7.721065e-006,5.774876e-006
1.739118e+000,-3.524834e-006,5.775583e-006
1.739912e+000,-5.035477e-006,5.765943e-006
1.740706e+000,-7.888914e-006,5.763414e-006
1.741500e+000,-9.231709e-006,5.767522e-006
1.742294e+000,-6.546120e-006,5.784485e-006
1.743088e+000,-7.217518e-006,5.793475e-006
1.743882e+000,-5.539025e-006,5.806470e-006
1.744676e+000,-4.867628e-006,5.811474e-006
1.745471e+000,-6.378271e-006,5.814561e-006
1.746265e+000,-5.874723e-006,5.816783e-006
1.747059e+000,-4.196231e-006,5.812624e-006
1.747853e+000,-4.196231e-006,5.804468e-006
1.748647e+000,-6.546120e-006,5.795000e-006
1.749441e+000,-4.196231e-006,5.796177e-006
1.750235e+000,-2.853437e-006,5.790415e-006
1.751029e+000,-5.539025e-006,5.782042e-006
1.751824e+000,-4.867628e-006,5.779869e-006
1.752618e+000,-6.881819e-006,5.776888e-006
1.753412e+000,-6.546120e-006,5.771294e-006
1.754206e+000,-6.210422e-006,5.771892e-006
1.755000e+000,-4.196231e-006,5.775062e-006
1.755794e+000,-4.531929e-006,5.771457e-006
1.756588e+000,-5.539025e-006,5.764052e-006
1.757382e+000,-4.867628e-006,5.765982e-006
1.758176e+000,-4.196231e-006,5.768759e-006
1.758971e+000,-6.881819e-006,5.771371e-006
1.759765e+000,-6.881819e-006,5.779574e-006
1.760559e+000,-5.706874e-006,5.780816e-006
1.761353e+000,-7.217518e-006,5.780280e-006
1.762147e+000,-6.378271e-006,5.786176e-006
1.762941e+000,-3.860533e-006,5.788927e-006
1.763735e+000,-5.539025e-006,5.779993e-006
1.764529e+000,-6.546120e-006,5.774752e-006
1.765324e+000,-3.524834e-006,5.780474e-006
1.766118e+000,-5.539025e-006,5.777369e-006
1.766912e+000,-6.210422e-006,5.776849e-006
1.767706e+000,-4.196231e-006,5.770322e-006
1.768500e+000,-4.531929e-006,5.770322e-006
1.769294e+000,-3.860533e-006,5.773742e-006
1.770088e+000,-2.853437e-006,5.764784e-006
1.770882e+000,-7.888914e-006,5.758555e-006
1.771676e+000,-7.217518e-006,5.769202e-006
1.772471e+000,-5.539025e-006,5.772933e-006
1.773265e+000,-4.531929e-006,5.769576e-006
1.774059e+000,-4.531929e-006,5.769148e-006
1.774853e+000,-8.224612e-006,5.769956e-006
1.775647e+000,-8.560311e-006,5.782942e-006
1.776441e+000,-7.553216e-006,5.792491e-006
1.777235e+000,-5.539025e-006,5.806848e-006
1.778029e+000,-6.881819e-006,5.812470e-006
1.778824e+000,-4.196231e-006,5.820614e-006
1.779618e+000,-4.531929e-006,5.815988e-006
1.780412e+000,-8.224612e-006,5.808640e-006
1.781206e+000,-7.217518e-006,5.820676e-006
1.782000e+000,-6.210422e-006,5.826531e-006
1.782794e+000,-5.539025e-006,5.828686e-006
1.783588e+000,-5.035477e-006,5.832256e-006
1.784382e+000,-4.531929e-006,5.830802e-006
1.785176e+000,-2.853437e-006,5.825299e-006
1.785971e+000,-3.524834e-006,5.818618e-006
1.786765e+000,-5.874723e-006,5.816397e-006
1.787559e+000,-2.349889e-006,5.820221e-006
1.788353e+000,-3.524834e-006,5.816913e-006
1.789147e+000,-3.189136e-006,5.815494e-006
1.789941e+000,-5.035477e-006,5.804004e-006
1.790735e+000,-4.531929e-006,5.797964e-006
1.791529e+000,-4.867628e-006,5.790593e-006
1.792324e+000,-5.874723e-006,5.788152e-006
1.793118e+000,-5.874723e-006,5.794845e-006
1.793912e+000,-4.867628e-006,5.796888e-006
1.794706e+000,-4.531929e-006,5.784803e-006
1.795500e+000,-5.539025e-006,5.780955e-006
1.796294e+000,-4.196231e-006,5.784555e-006
1.797088e+000,-5.203327e-006,5.784555e-006
1.797882e+000,-6.378271e-006,5.782507e-006
1.798676e+000,-5.539025e-006,5.783089e-006
1.799471e+000,-6.881819e-006,5.784082e-006
1.800265e+000,-6.881819e-006,5.788152e-006
1.801059e+000,-4.531929e-006,5.793730e-006
1.801853e+000,-8.224612e-006,5.794535e-006
1.802647e+000,-6.546120e-006,5.807466e-006
1.803441e+000,-4.196231e-006,5.807466e-006
1.804235e+000,-5.203327e-006,5.805341e-006
1.805029e+000,-4.364080e-006,5.794202e-006
1.805824e+000,-4.196231e-006,5.786416e-006
1.806618e+000,-6.546120e-006,5.781762e-006
1.807412e+000,-5.539025e-006,5.777850e-006
1.808206e+000,-5.203327e-006,5.767654e-006
1.809000e+000,-5.203327e-006,5.760743e-006
1.809794e+000,-5.874723e-006,5.749518e-006
1.810588e+000,-7.049668e-006,5.726062e-006
1.811382e+000,-5.874723e-006,5.698063e-006
1.812176e+000,-6.210422e-006,5.678377e-006
1.812971e+000,-7.553216e-006,5.673192e-006
1.813765e+000,-4.196231e-006,5.670218e-006
1.814559e+000,-5.539025e-006,5.659131e-006
1.815353e+000,-7.217518e-006,5.644628e-006
1.816147e+000,-4.196231e-006,5.642506e-006
1.816941e+000,-3.524834e-006,5.638816e-006
1.817735e+000,-3.524834e-006,5.628942e-006
1.818529e+000,-5.539025e-006,5.627475e-006
1.819324e+000,-5.539025e-006,5.631173e-006
1.820118e+000,-6.378271e-006,5.626455e-006
1.820912e+000,-6.546120e-006,5.629285e-006
1.821706e+000,-6.210422e-006,5.637885e-006
1.822500e+000,-3.692683e-006,5.639031e-006
1.823294e+000,-4.196231e-006,5.640304e-006
1.824088e+000,-6.546120e-006,5.641767e-006
1.824882e+000,-8.560311e-006,5.653650e-006
1.825676e+000,-7.888914e-006,5.672702e-006
1.826471e+000,-8.896010e-006,5.689759e-006
1.827265e+000,-7.553216e-006,5.711668e-006
1.828059e+000,-6.881819e-006,5.727355e-006
1.828853e+000,-5.539025e-006,5.740499e-006
1.829647e+000,-2.853437e-006,5.748808e-006
1.830441e+000,-5.539025e-006,5.750868e-006
1.831235e+000,-4.196231e-006,5.757106e-006
1.832029e+000,-5.706874e-006,5.757105e-006
1.832824e+000,-4.531929e-006,5.762674e-006
1.833618e+000,-2.182040e-006,5.762674e-006
1.834412e+000,-4.867628e-006,5.758313e-006
1.835206e+000,-4.867628e-006,5.761428e-006
1.836000e+000,-4.196231e-006,5.760969e-006
1.836794e+000,-4.867628e-006,5.756295e-006
1.837588e+000,-4.867628e-006,5.753839e-006
1.838382e+000,-6.210422e-006,5.755126e-006
1.839176e+000,-3.524834e-006,5.760112e-006
1.839971e+000,-3.860533e-006,5.758679e-006
1.840765e+000,-6.210422e-006,5.756248e-006
1.841559e+000,-5.874723e-006,5.762044e-006
1.842353e+000,-5.539025e-006,5.763102e-006
1.843147e+000,-4.867628e-006,5.763102e-006
1.843941e+000,-7.049668e-006,5.755250e-006
1.844735e+000,-6.210422e-006,5.761506e-006
1.845529e+000,-5.539025e-006,5.769909e-006
1.846324e+000,-4.867628e-006,5.767732e-006
1.847118e+000,-5.539025e-006,5.770508e-006
1.847912e+000,-7.217518e-006,5.776452e-006
1.848706e+000,-6.210422e-006,5.765569e-006
1.849500e+000,-4.196231e-006,5.755975e-006
1.850294e+000,-6.546120e-006,5.753355e-006
1.851088e+000,-6.881819e-006,5.758655e-006
1.851882e+000,-6.210422e-006,5.753043e-006
1.852676e+000,-7.553216e-006,5.758032e-006
1.853471e+000,-6.881819e-006,5.763141e-006
1.854265e+000,-4.531929e-006,5.754353e-006
1.855059e+000,-4.531929e-006,5.746926e-006
1.855853e+000,-7.553216e-006,5.741928e-006
1.856647e+000,-6.881819e-006,5.743967e-006
1.857441e+000,-8.224612e-006,5.738341e-006
1.858235e+000,-8.560311e-006,5.738341e-006
1.859029e+000,-6.210422e-006,5.750149e-006
1.859824e+000,-5.539025e-006,5.750149e-006
1.860618e+000,-4.867628e-006,5.741404e-006
1.861412e+000,-4.196231e-006,5.732145e-006
1.862206e+000,-4.531929e-006,5.721178e-006
1.863000e+000,-6.546120e-006,5.712389e-006
1.863794e+000,-4.867628e-006,5.709812e-006
1.864588e+000,-1.846342e-006,5.711509e-006
1.865382e+000,-2.517739e-006,5.701698e-006
1.866176e+000,-5.539025e-006,5.693825e-006
1.866971e+000,-5.539025e-006,5.691618e-006
1.867765e+000,-6.881819e-006,5.696030e-006
1.868559e+000,-4.531929e-006,5.704341e-006
1.869353e+000,-4.867628e-006,5.705159e-006
1.870147e+000,-5.203327e-006,5.705159e-006
1.870941e+000,-6.881819e-006,5.704152e-006
1.871735e+000,-6.210422e-006,5.701447e-006
1.872529e+000,-3.524834e-006,5.702580e-006
1.873324e+000,-3.524834e-006,5.683920e-006
1.874118e+000,-4.867628e-006,5.674125e-006
1.874912e+000,-5.539025e-006,5.675832e-006
1.875706e+000,-5.539025e-006,5.674757e-006
1.876500e+000,-6.210422e-006,5.670075e-006
1.877294e+000,-4.867628e-006,5.672290e-006
1.878088e+000,-4.867628e-006,5.672290e-006
1.878882e+000,-5.874723e-006,5.671341e-006
1.879676e+000,-5.539025e-006,5.669609e-006
1.880471e+000,-7.217518e-006,5.671571e-006
1.881265e+000,-6.881819e-006,5.677579e-006
1.882059e+000,-7.553216e-006,5.688567e-006
1.882853e+000,-6.210422e-006,5.699598e-006
1.883647e+000,-5.539025e-006,5.701801e-006
1.884441e+000,-5.539025e-006,5.705451e-006
1.885235e+000,-2.853437e-006,5.711463e-006
1.886029e+000,-6.210422e-006,5.710897e-006
1.886824e+000,-6.546120e-006,5.718810e-006
1.887618e+000,-5.539025e-006,5.725019e-006
1.888412e+000,-5.874723e-006,5.720379e-006
1.889206e+000,-3.524834e-006,5.716802e-006
1.890000e+000,-3.189136e-006,5.709514e-006
1.890794e+000,-4.196231e-006,5.699133e-006
1.891588e+000,-5.874723e-006,5.697433e-006
1.892382e+000,-4.867628e-006,5.696299e-006
1.893176e+000,-5.539025e-006,5.696299e-006
1.893971e+000,-6.210422e-006,5.696299e-006
1.894765e+000,-4.867628e-006,5.693187e-006
1.895559e+000,-4.531929e-006,5.691232e-006
1.896353e+000,-5.539025e-006,5.687321e-006
1.897147e+000,-4.867628e-006,5.686248e-006
1.897941e+000,-4.867628e-006,5.691547e-006
1.898735e+000,-3.524834e-006,5.696401e-006
1.899529e+000,-4.531929e-006,5.697598e-006
1.900324e+000,-3.524834e-006,5.696251e-006
1.901118e+000,-5.539025e-006,5.694400e-006
1.901912e+000,-7.888914e-006,5.680833e-006
1.902706e+000,-7.553216e-006,5.683676e-006
1.903500e+000,-5.874723e-006,5.693896e-006
1.904294e+000,-4.196231e-006,5.695976e-006
1.905088e+000,-7.553216e-006,5.693329e-006
1.905882e+000,-7.553216e-006,5.690365e-006
1.906676e+000,-7.721065e-006,5.696669e-006
1.907471e+000,-7.888914e-006,5.708398e-006
1.908265e+000,-7.553216e-006,5.713803e-006
1.909059e+000,-6.881819e-006,5.712358e-006
1.909853e+000,-5.203327e-006,5.706700e-006
1.910647e+000,-6.546120e-006,5.699715e-006
1.911441e+000,-6.881819e-006,5.701486e-006
1.912235e+000,-4.196231e-006,5.701486e-006
1.913029e+000,-2.517739e-006,5.700667e-006
1.913824e+000,-3.524834e-006,5.696700e-006
1.914618e+000,-4.867628e-006,5.696700e-006
1.915412e+000,-5.203327e-006,5.696700e-006
1.916206e+000,-5.539025e-006,5.695691e-006
1.917000e+000,-5.539025e-006,5.697646e-006
1.917794e+000,-6.881819e-006,5.695441e-006
1.918588e+000,-8.224612e-006,5.695440e-006
1.919382e+000,-4.196231e-006,5.705765e-006
1.920176e+000,-4.196231e-006,5.697457e-006
1.920971e+000,-6.881819e-006,5.693802e-006
1.921765e+000,-6.546120e-006,5.698465e-006
1.922559e+000,-5.539025e-006,5.705514e-006
1.923353e+000,-4.531929e-006,5.706520e-006
1.924147e+000,-5.539025e-006,5.699031e-006
1.924941e+000,-6.881819e-006,5.694369e-006
1.925735e+000,-6.546120e-006,5.704130e-006
1.926529e+000,-6.881819e-006,5.707526e-006
1.927324e+000,-4.196231e-006,5.709978e-006
1.928118e+000,-7.217518e-006,5.706331e-006
1.928912e+000,-7.553216e-006,5.711235e-006
1.929706e+000,-5.539025e-006,5.718583e-006
1.930500e+000,-4.196231e-006,5.722222e-006
1.931294e+000,-4.531929e-006,5.715193e-006
1.932088e+000,-4.867628e-006,5.710167e-006
1.932882e+000,-6.210422e-006,5.703564e-006
1.933676e+000,-6.881819e-006,5.705765e-006
1.934471e+000,-5.874723e-006,5.705765e-006
1.935265e+000,-4.531929e-006,5.702179e-006
1.936059e+000,-4.531929e-006,5.703752e-006
1.936853e+000,-5.539025e-006,5.704570e-006
1.937647e+000,-5.539025e-006,5.708972e-006
1.938441e+000,-3.860533e-006,5.713371e-006
1.939235e+000,-4.867628e-006,5.710921e-006
1.940029e+000,-6.210422e-006,5.712617e-006
1.940824e+000,-6.210422e-006,5.714816e-006
1.941618e+000,-3.189136e-006,5.721406e-006
1.942412e+000,-1.007095e-006,5.714628e-006
1.943206e+000,-3.692683e-006,5.712641e-006
1.944000e+000,-3.524834e-006,5.709837e-006
1.944794e+000,-5.539025e-006,5.708391e-006
1.945588e+000,-4.531929e-006,5.709397e-006
1.946382e+000,-5.035477e-006,5.710968e-006
1.947176e+000,-4.531929e-006,5.712311e-006
1.947971e+000,-8.224612e-006,5.711432e-006
1.948765e+000,-9.567407e-006,5.717084e-006
1.949559e+000,-8.560311e-006,5.739076e-006
1.950353e+000,-8.896010e-006,5.750361e-006
1.951147e+000,-7.553216e-006,5.756474e-006
1.951941e+000,-6.881819e-006,5.763764e-006
1.952735e+000,-7.217518e-006,5.761086e-006
1.953529e+000,-6.881819e-006,5.762394e-006
1.954324e+000,-6.881819e-006,5.764239e-006
1.955118e+000,-5.874723e-006,5.766666e-006
1.955912e+000,-6.881819e-006,5.767724e-006
1.956706e+000,-5.539025e-006,5.774254e-006
1.957500e+000,-6.881819e-006,5.772079e-006
1.958294e+000,-8.224612e-006,5.775622e-006
1.959088e+000,-4.867628e-006,5.781211e-006
1.959882e+000,-7.553216e-006,5.784314e-006
1.960676e+000,-5.539025e-006,5.797763e-006
1.961471e+000,-4.531929e-006,5.797763e-006
1.962265e+000,-3.860533e-006,5.790392e-006
1.963059e+000,-3.189136e-006,5.784997e-006
1.963853e+000,-1.510643e-006,5.781274e-006
1.964647e+000,-4.867628e-006,5.774441e-006
1.965441e+000,-6.881819e-006,5.769155e-006
1.966235e+000,-4.196231e-006,5.772700e-006
1.967029e+000,-3.189136e-006,5.764488e-006
1.967824e+000,-4.196231e-006,5.758819e-006
1.968618e+000,-5.539025e-006,5.761437e-006
1.969412e+000,-5.539025e-006,5.756178e-006
1.970206e+000,-6.210422e-006,5.747443e-006
1.971000e+000,-4.867628e-006,5.741609e-006
1.971794e+000,-4.196231e-006,5.739147e-006
1.972588e+000,-6.378271e-006,5.739147e-006
1.973382e+000,-4.867628e-006,5.746295e-006
1.974176e+000,-6.210422e-006,5.744359e-006
1.974971e+000,-5.874723e-006,5.748480e-006
1.975765e+000,-6.881819e-006,5.747356e-006
1.976559e+000,-7.553216e-006,5.749791e-006
1.977353e+000,-5.539025e-006,5.759022e-006
1.978147e+000,-5.539025e-006,5.756840e-006
1.978941e+000,-6.210422e-006,5.752225e-006
1.979735e+000,-9.063859e-006,5.754408e-006
1.980529e+000,-8.896010e-006,5.771433e-006
1.981324e+000,-5.539025e-006,5.787579e-006
1.982118e+000,-4.196231e-006,5.782988e-006
1.982912e+000,-6.210422e-006,5.777781e-006
1.983706e+000,-4.196231e-006,5.781879e-006
1.984500e+000,-5.539025e-006,5.773679e-006
1.985294e+000,-8.392462e-006,5.771503e-006
1.986088e+000,-5.539025e-006,5.782460e-006
1.986882e+000,-3.524834e-006,5.786803e-006
1.987676e+000,-5.706874e-006,5.779023e-006
1.988471e+000,-6.881819e-006,5.771565e-006
1.989265e+000,-4.531929e-006,5.781195e-006
1.990059e+000,-2.517739e-006,5.779868e-006
1.990853e+000,-3.021286e-006,5.764448e-006
1.991647e+000,-4.196231e-006,5.743389e-006
1.992441e+000,-4.364080e-006,5.736386e-006
1.993235e+000,-2.853437e-006,5.727205e-006
1.994029e+000,-4.867628e-006,5.720935e-006
1.994824e+000,-4.196231e-006,5.720935e-006
1.995618e+000,-4.867628e-006,5.714509e-006
1.996412e+000,-5.539025e-006,5.711494e-006
1.997206e+000,-1.091020e-005,5.715137e-006
1.998000e+000,-1.158160e-005,5.743327e-006
1.998794e+000,-1.091020e-005,5.768579e-006
1.999588e+000,-5.874723e-006,5.796509e-006
2.000382e+000,-4.867628e-006,5.803748e-006
2.001176e+000,-5.539025e-006,5.801831e-006
2.001971e+000,-2.853437e-006,5.803748e-006
2.002765e+000,-4.364080e-006,5.792978e-006
2.003559e+000,-5.539025e-006,5.786431e-006
2.004353e+000,-1.359579e-005,5.784259e-006
2.005147e+000,-2.702373e-005,5.830117e-006
2.005941e+000,-3.273060e-005,6.020846e-006
2.006735e+000,-3.205920e-005,6.290043e-006
2.007529e+000,-2.500954e-005,6.539297e-006
2.008324e+000,-1.493858e-005,6.685678e-006
2.009118e+000,-1.510643e-006,6.727419e-006
2.009912e+000,8.560311e-006,6.716741e-006
2.010706e+000,2.064546e-005,6.726385e-006
2.011500e+000,2.668803e-005,6.814381e-006
2.012294e+000,2.232395e-005,6.969544e-006
2.013088e+000,1.930266e-005,7.079139e-006
2.013882e+000,1.258869e-005,7.155634e-006
2.014676e+000,1.242084e-005,7.181318e-006
2.015471e+000,8.560311e-006,7.212703e-006
2.016265e+000,5.035477e-007,7.222101e-006
2.017059e+000,-8.392462e-007,7.213649e-006
2.017853e+000,-4.699779e-006,7.209916e-006
2.018647e+000,-6.881819e-006,7.210258e-006
2.019441e+000,-9.231709e-006,7.217423e-006
2.020235e+000,-1.124590e-005,7.234409e-006
2.021029e+000,-1.158160e-005,7.248534e-006
2.021824e+000,-1.158160e-005,7.266534e-006
2.022618e+000,-1.124590e-005,7.289169e-006
2.023412e+000,-1.393149e-005,7.312274e-006
2.024206e+000,-2.098116e-005,7.349970e-006
2.025000e+000,-2.903792e-005,7.430247e-006
2.025794e+000,-2.719158e-005,7.593454e-006
2.026588e+000,-2.836652e-005,7.735216e-006
2.027382e+000,-3.172351e-005,7.892938e-006
2.028176e+000,-2.652018e-005,8.084100e-006
2.028971e+000,-8.560311e-006,8.218058e-006
2.029765e+000,9.903105e-006,8.228270e-006
2.030559e+000,2.064546e-005,8.234157e-006
2.031353e+000,1.661708e-005,8.306195e-006
2.032147e+000,2.517739e-006,8.351612e-006
2.032941e+000,3.860533e-006,8.346969e-006
2.033735e+000,1.930266e-005,8.344975e-006
2.034529e+000,2.635233e-005,8.411885e-006
2.035324e+000,5.874723e-006,8.540813e-006
2.036118e+000,-1.661708e-005,8.544930e-006
2.036912e+000,-1.560998e-005,8.589837e-006
2.037706e+000,-1.292439e-005,8.633871e-006
2.038500e+000,-1.644922e-005,8.662340e-006
2.039294e+000,-2.030976e-005,8.710078e-006
2.040088e+000,-1.913481e-005,8.780567e-006
2.040882e+000,-1.644922e-005,8.843021e-006
2.041676e+000,-1.426719e-005,8.887365e-006
2.042471e+000,-8.224612e-006,8.917601e-006
2.043265e+000,-3.860533e-006,8.923515e-006
2.044059e+000,-4.867628e-006,8.921947e-006
2.044853e+000,-3.356985e-007,8.922510e-006
2.045647e+000,4.364080e-006,8.917053e-006
2.046441e+000,3.524834e-006,8.917309e-006
2.047235e+000,-4.196231e-006,8.914692e-006
2.048029e+000,-1.829557e-005,8.910571e-006
2.048824e+000,-3.709468e-005,8.964740e-006
2.049618e+000,-4.179446e-005,9.197714e-006
2.050412e+000,-3.843748e-005,9.487366e-006
2.051206e+000,-2.030976e-005,9.728819e-006
2.052000e+000,-1.846342e-006,9.785098e-006
2.052794e+000,1.124590e-005,9.778678e-006
2.053588e+000,1.326009e-005,9.796388e-006
2.054382e+000,1.326009e-005,9.820538e-006
2.055176e+000,1.779202e-005,9.845928e-006
2.055971e+000,2.668803e-005,9.894157e-006
2.056765e+000,3.575189e-005,1.000131e-005
2.057559e+000,3.675899e-005,1.019800e-005
2.058353e+000,2.333104e-005,1.040270e-005
2.059147e+000,1.174945e-006,1.048158e-005
2.059941e+000,-1.493858e-005,1.047655e-005
2.060735e+000,-1.527428e-005,1.050288e-005
2.061529e+000,-9.063859e-006,1.053298e-005
2.062324e+000,-1.426719e-005,1.053956e-005
2.063118e+000,-2.165255e-005,1.056167e-005
2.063912e+000,-2.500954e-005,1.062949e-005
2.064706e+000,-3.038071e-005,1.071822e-005
2.065500e+000,-3.743038e-005,1.084683e-005
2.066294e+000,-3.793393e-005,1.104806e-005
2.067088e+000,-3.390555e-005,1.125179e-005
2.067882e+000,-3.642328e-005,1.141159e-005
2.068676e+000,-4.179446e-005,1.159101e-005
2.069471e+000,-4.615854e-005,1.182442e-005
2.070265e+000,-3.642328e-005,1.210259e-005
2.071059e+000,-1.007095e-006,1.227034e-005
2.071853e+000,2.668803e-005,1.226547e-005
2.072647e+000,4.380865e-005,1.235583e-005
2.073441e+000,3.541619e-005,1.259851e-005
2.074235e+000,1.913481e-005,1.275071e-005
2.075029e+000,6.378271e-006,1.278724e-005
2.075824e+000,4.867628e-006,1.278455e-005
2.076618e+000,1.594568e-005,1.277764e-005
2.077412e+000,8.560311e-006,1.280220e-005
2.078206e+000,-2.517739e-005,1.280542e-005
2.079000e+000,-4.582284e-005,1.288021e-005
2.079794e+000,-1.762417e-005,1.313625e-005
2.080588e+000,3.205920e-005,1.317014e-005
2.081382e+000,6.814679e-005,1.329171e-005
2.082176e+000,7.603571e-005,1.383314e-005
2.082971e+000,5.757229e-005,1.448111e-005
2.083765e+000,4.414435e-005,1.484059e-005
2.084559e+000,2.803082e-005,1.504573e-005
2.085353e+000,1.678492e-007,1.512616e-005
2.086147e+000,-1.091020e-005,1.512431e-005
2.086941e+000,-4.867628e-006,1.513434e-005
2.087735e+000,-9.735256e-006,1.513435e-005
2.088529e+000,-3.273060e-005,1.514026e-005
2.089324e+000,-5.555810e-005,1.525122e-005
2.090118e+000,-4.985122e-005,1.556863e-005
2.090912e+000,-3.205920e-005,1.581689e-005
2.091706e+000,-4.531929e-006,1.591657e-005
2.092500e+000,3.860533e-006,1.591556e-005
2.093294e+000,-5.035477e-007,1.591468e-005
2.094088e+000,-3.524834e-006,1.590973e-005
2.094882e+000,-1.527428e-005,1.590712e-005
2.095676e+000,-2.702373e-005,1.592739e-005
2.096471e+000,-3.642328e-005,1.599787e-005
2.097265e+000,-3.256275e-005,1.612635e-005
2.098059e+000,-4.045167e-005,1.622560e-005
2.098853e+000,-6.126497e-005,1.638165e-005
2.099647e+000,-6.965744e-005,1.674085e-005
2.100441e+000,-7.704280e-005,1.719221e-005
2.101235e+000,-6.260777e-005,1.772920e-005
2.102029e+000,-2.769513e-005,1.807443e-005
2.102824e+000,1.846342e-006,1.813687e-005
2.103618e+000,2.232395e-005,1.813301e-005
2.104412e+000,3.105211e-005,1.817492e-005
2.105206e+000,3.810178e-005,1.825741e-005
2.106000e+000,5.069047e-005,1.837865e-005
2.106794e+000,5.085832e-005,1.859589e-005
2.107588e+000,3.273060e-005,1.881035e-005
2.108382e+000,5.539025e-006,1.889465e-005
2.109176e+000,-4.364080e-006,1.889398e-005
2.109971e+000,-8.392462e-007,1.889300e-005
2.110765e+000,2.400244e-005,1.889106e-005
2.111559e+000,4.078737e-005,1.893808e-005
2.112353e+000,2.668803e-005,1.907574e-005
2.113147e+000,8.560311e-006,1.913153e-005
2.113941e+000,-1.510643e-006,1.913566e-005
2.114735e+000,-3.189136e-006,1.913557e-005
2.115529e+000,1.007095e-006,1.913588e-005
2.116324e+000,1.963836e-005,1.913341e-005
2.117118e+000,2.853437e-005,1.916294e-005
2.117912e+000,1.460288e-005,1.922655e-005
2.118706e+000,-7.553216e-006,1.924251e-005
2.119500e+000,-3.508049e-005,1.924527e-005
2.120294e+000,-8.644236e-005,1.934459e-005
2.121088e+000,-1.357900e-004,1.994642e-005
2.121882e+000,-1.539178e-004,2.136491e-005
2.122676e+000,-1.579461e-004,2.306226e-005
2.123471e+000,-1.562676e-004,2.472402e-005
2.124265e+000,-1.285725e-004,2.624826e-005
2.125059e+000,-6.764325e-005,2.723086e-005
2.125853e+000,1.997406e-005,2.749534e-005
2.126647e+000,1.099413e-004,2.751621e-005
2.127441e+000,1.515679e-004,2.820568e-005
2.128235e+000,1.287404e-004,2.947281e-005
2.129029e+000,6.965744e-005,3.035326e-005
2.129824e+000,2.668803e-005,3.060515e-005
2.130618e+000,4.112306e-005,3.063948e-005
2.131412e+000,1.018845e-004,3.072479e-005
2.132206e+000,1.273976e-004,3.125523e-005
2.133000e+000,6.160067e-005,3.206954e-005
2.133794e+000,-1.426719e-005,3.225588e-005
2.134588e+000,-3.105211e-005,3.226442e-005
2.135382e+000,-3.189136e-006,3.231157e-005
2.136176e+000,3.860533e-006,3.231017e-005
2.136971e+000,-3.659113e-005,3.230879e-005
2.137765e+000,-2.299535e-005,3.237321e-005
2.138559e+000,1.059129e-004,3.239751e-005
2.139353e+000,2.230716e-004,3.294364e-005
2.140147e+000,2.093080e-004,3.526649e-005
2.140941e+000,1.119554e-004,3.719128e-005
2.141735e+000,1.963836e-005,3.772266e-005
2.142529e+000,-3.239490e-005,3.773793e-005
2.143324e+000,-9.684901e-005,3.778089e-005
2.144118e+000,-1.485466e-004,3.817257e-005
2.144912e+000,-1.425040e-004,3.908124e-005
2.145706e+000,-1.324331e-004,3.989927e-005
2.146500e+000,-1.351186e-004,4.059198e-005
2.147294e+000,-1.498894e-004,4.130105e-005
2.148088e+000,-1.653315e-004,4.215747e-005
2.148882e+000,-1.660029e-004,4.317713e-005
2.149676e+000,-1.472038e-004,4.418100e-005
2.150471e+000,-1.005417e-004,4.495476e-005
2.151265e+000,-1.628138e-005,4.531033e-005
2.152059e+000,6.227207e-005,4.531745e-005
2.152853e+000,5.723659e-005,4.545151e-005
2.153647e+000,1.644922e-005,4.556494e-005
2.154441e+000,-1.963836e-005,4.557377e-005
2.155235e+000,-2.232395e-005,4.558525e-005
2.156029e+000,-7.553216e-006,4.560067e-005
2.156824e+000,-4.867628e-006,4.560058e-005
2.157618e+000,-1.527428e-005,4.559923e-005
2.158412e+000,5.035477e-007,4.560539e-005
2.159206e+000,6.193637e-005,4.560374e-005
2.160000e+000,8.644236e-005,4.573655e-005
2.160794e+000,8.006408e-005,4.599448e-005
2.161588e+000,6.596475e-005,4.621425e-005
2.162382e+000,6.831464e-005,4.636333e-005
2.163176e+000,8.073549e-005,4.652312e-005
2.163971e+000,6.562905e-005,4.674526e-005
2.164765e+000,4.548714e-005,4.689095e-005
2.165559e+000,3.860533e-005,4.696025e-005
2.166353e+000,2.064546e-005,4.700971e-005
