X [s],L DELTOID MEDIUS: EMG 8 [V],L DELTOID MEDIUS: EMG 8->filter (FilterSlidingRMS21) [V]
0.000000e+000,0.000000e+000,0.000000e+000
7.941176e-004,0.000000e+000,0.000000e+000
1.588235e-003,0.000000e+000,0.000000e+000
2.382353e-003,0.000000e+000,0.000000e+000
3.176471e-003,0.000000e+000,0.000000e+000
3.970588e-003,0.000000e+000,0.000000e+000
4.764706e-003,0.000000e+000,0.000000e+000
5.558824e-003,0.000000e+000,0.000000e+000
6.352941e-003,0.000000e+000,0.000000e+000
7.147059e-003,0.000000e+000,0.000000e+000
7.941176e-003,0.000000e+000,0.000000e+000
8.735294e-003,0.000000e+000,0.000000e+000
9.529412e-003,0.000000e+000,0.000000e+000
1.032353e-002,0.000000e+000,0.000000e+000
1.111765e-002,0.000000e+000,0.000000e+000
1.191176e-002,0.000000e+000,0.000000e+000
1.270588e-002,0.000000e+000,0.000000e+000
1.350000e-002,0.000000e+000,0.000000e+000
1.429412e-002,0.000000e+000,0.000000e+000
1.508824e-002,0.000000e+000,0.000000e+000
1.588235e-002,0.000000e+000,0.000000e+000
1.667647e-002,0.000000e+000,0.000000e+000
1.747059e-002,0.000000e+000,0.000000e+000
1.826471e-002,0.000000e+000,0.000000e+000
1.905882e-002,0.000000e+000,0.000000e+000
1.985294e-002,0.000000e+000,0.000000e+000
2.064706e-002,0.000000e+000,0.000000e+000
2.144118e-002,0.000000e+000,0.000000e+000
2.223529e-002,0.000000e+000,0.000000e+000
2.302941e-002,0.000000e+000,0.000000e+000
2.382353e-002,0.000000e+000,0.000000e+000
2.461765e-002,0.000000e+000,0.000000e+000
2.541176e-002,0.000000e+000,0.000000e+000
2.620588e-002,0.000000e+000,0.000000e+000
2.700000e-002,0.000000e+000,0.000000e+000
2.779412e-002,0.000000e+000,0.000000e+000
2.858824e-002,0.000000e+000,0.000000e+000
2.938235e-002,0.000000e+000,0.000000e+000
3.017647e-002,0.000000e+000,0.000000e+000
3.097059e-002,0.000000e+000,0.000000e+000
3.176471e-002,0.000000e+000,0.000000e+000
3.255882e-002,0.000000e+000,0.000000e+000
3.335294e-002,0.000000e+000,0.000000e+000
3.414706e-002,0.000000e+000,0.000000e+000
3.494118e-002,0.000000e+000,0.000000e+000
3.573529e-002,0.000000e+000,0.000000e+000
3.652941e-002,0.000000e+000,0.000000e+000
3.732353e-002,0.000000e+000,0.000000e+000
3.811765e-002,0.000000e+000,0.000000e+000
3.891176e-002,0.000000e+000,0.000000e+000
3.970588e-002,0.000000e+000,0.000000e+000
4.050000e-002,0.000000e+000,0.000000e+000
4.129412e-002,0.000000e+000,0.000000e+000
4.208824e-002,0.000000e+000,0.000000e+000
4.288235e-002,0.000000e+000,0.000000e+000
4.367647e-002,0.000000e+000,0.000000e+000
4.447059e-002,0.000000e+000,0.000000e+000
4.526471e-002,0.000000e+000,0.000000e+000
4.605882e-002,0.000000e+000,0.000000e+000
4.685294e-002,0.000000e+000,0.000000e+000
4.764706e-002,0.000000e+000,0.000000e+000
4.844118e-002,0.000000e+000,0.000000e+000
4.923529e-002,0.000000e+000,0.000000e+000
5.002941e-002,0.000000e+000,0.000000e+000
5.082353e-002,0.000000e+000,0.000000e+000
5.161765e-002,0.000000e+000,0.000000e+000
5.241176e-002,0.000000e+000,0.000000e+000
5.320588e-002,0.000000e+000,0.000000e+000
5.400000e-002,0.000000e+000,0.000000e+000
5.479412e-002,0.000000e+000,0.000000e+000
5.558824e-002,0.000000e+000,0.000000e+000
5.638235e-002,0.000000e+000,0.000000e+000
5.717647e-002,0.000000e+000,0.000000e+000
5.797059e-002,0.000000e+000,0.000000e+000
5.876471e-002,0.000000e+000,0.000000e+000
5.955882e-002,0.000000e+000,0.000000e+000
6.035294e-002,0.000000e+000,0.000000e+000
6.114706e-002,0.000000e+000,0.000000e+000
6.194118e-002,0.000000e+000,0.000000e+000
6.273529e-002,0.000000e+000,0.000000e+000
6.352941e-002,0.000000e+000,0.000000e+000
6.432353e-002,0.000000e+000,0.000000e+000
6.511765e-002,0.000000e+000,0.000000e+000
6.591176e-002,0.000000e+000,0.000000e+000
6.670588e-002,0.000000e+000,0.000000e+000
6.750000e-002,0.000000e+000,0.000000e+000
6.829412e-002,0.000000e+000,0.000000e+000
6.908824e-002,0.000000e+000,0.000000e+000
6.988235e-002,0.000000e+000,0.000000e+000
7.067647e-002,0.000000e+000,0.000000e+000
7.147059e-002,0.000000e+000,0.000000e+000
7.226471e-002,0.000000e+000,0.000000e+000
7.305882e-002,0.000000e+000,0.000000e+000
7.385294e-002,0.000000e+000,0.000000e+000
7.464706e-002,0.000000e+000,0.000000e+000
7.544118e-002,0.000000e+000,0.000000e+000
7.623529e-002,0.000000e+000,0.000000e+000
7.702941e-002,0.000000e+000,0.000000e+000
7.782353e-002,0.000000e+000,0.000000e+000
7.861765e-002,0.000000e+000,0.000000e+000
7.941176e-002,0.000000e+000,0.000000e+000
8.020588e-002,0.000000e+000,0.000000e+000
8.100000e-002,0.000000e+000,0.000000e+000
8.179412e-002,0.000000e+000,0.000000e+000
8.258824e-002,0.000000e+000,0.000000e+000
8.338235e-002,0.000000e+000,0.000000e+000
8.417647e-002,0.000000e+000,0.000000e+000
8.497059e-002,0.000000e+000,0.000000e+000
8.576471e-002,0.000000e+000,0.000000e+000
8.655882e-002,0.000000e+000,0.000000e+000
8.735294e-002,0.000000e+000,0.000000e+000
8.814706e-002,0.000000e+000,0.000000e+000
8.894118e-002,0.000000e+000,0.000000e+000
8.973529e-002,0.000000e+000,0.000000e+000
9.052941e-002,0.000000e+000,0.000000e+000
9.132353e-002,0.000000e+000,0.000000e+000
9.211765e-002,0.000000e+000,0.000000e+000
9.291176e-002,0.000000e+000,0.000000e+000
9.370588e-002,0.000000e+000,0.000000e+000
9.450000e-002,-2.182040e-005,0.000000e+000
9.529412e-002,-1.560998e-005,0.000000e+000
9.608824e-002,-1.896696e-005,0.000000e+000
9.688235e-002,-2.030976e-005,0.000000e+000
9.767647e-002,-1.963836e-005,0.000000e+000
9.847059e-002,-1.896696e-005,0.000000e+000
9.926471e-002,-1.896696e-005,0.000000e+000
1.000588e-001,-1.795987e-005,0.000000e+000
1.008529e-001,-1.963836e-005,0.000000e+000
1.016471e-001,-2.165255e-005,0.000000e+000
1.024412e-001,-1.896696e-005,0.000000e+000
1.032353e-001,-1.628138e-005,0.000000e+000
1.040294e-001,-1.527428e-005,0.000000e+000
1.048235e-001,-1.577783e-005,0.000000e+000
1.056176e-001,-1.628138e-005,0.000000e+000
1.064118e-001,-1.292439e-005,0.000000e+000
1.072059e-001,-1.242084e-005,0.000000e+000
1.080000e-001,-1.225299e-005,0.000000e+000
1.087941e-001,-1.393149e-005,0.000000e+000
1.095882e-001,-1.661708e-005,0.000000e+000
1.103824e-001,-1.493858e-005,0.000000e+000
1.111765e-001,-1.191730e-005,0.000000e+000
1.119706e-001,-1.393149e-005,0.000000e+000
1.127647e-001,-1.258869e-005,0.000000e+000
1.135588e-001,-9.567407e-006,0.000000e+000
1.143529e-001,-7.553216e-006,0.000000e+000
1.151471e-001,-7.553216e-006,0.000000e+000
1.159412e-001,-1.158160e-005,0.000000e+000
1.167353e-001,-1.426719e-005,0.000000e+000
1.175294e-001,-1.292439e-005,0.000000e+000
1.183235e-001,-1.359579e-005,0.000000e+000
1.191176e-001,-1.728847e-005,0.000000e+000
1.199118e-001,-1.695277e-005,0.000000e+000
1.207059e-001,-1.493858e-005,0.000000e+000
1.215000e-001,-1.527428e-005,0.000000e+000
1.222941e-001,-1.695277e-005,0.000000e+000
1.230882e-001,-1.695277e-005,0.000000e+000
1.238824e-001,-1.426719e-005,0.000000e+000
1.246765e-001,-1.158160e-005,0.000000e+000
1.254706e-001,-1.191730e-005,0.000000e+000
1.262647e-001,-1.191730e-005,0.000000e+000
1.270588e-001,-9.567407e-006,0.000000e+000
1.278529e-001,-8.560311e-006,0.000000e+000
1.286471e-001,-9.735256e-006,0.000000e+000
1.294412e-001,-9.735256e-006,0.000000e+000
1.302353e-001,-1.292439e-005,0.000000e+000
1.310294e-001,-1.443504e-005,0.000000e+000
1.318235e-001,-1.292439e-005,0.000000e+000
1.326176e-001,-1.359579e-005,0.000000e+000
1.334118e-001,-1.678492e-005,0.000000e+000
1.342059e-001,-1.644922e-005,0.000000e+000
1.350000e-001,-1.393149e-005,0.000000e+000
1.357941e-001,-1.258869e-005,0.000000e+000
1.365882e-001,-1.393149e-005,0.000000e+000
1.373824e-001,-1.393149e-005,0.000000e+000
1.381765e-001,-1.460288e-005,0.000000e+000
1.389706e-001,-1.426719e-005,0.000000e+000
1.397647e-001,-1.426719e-005,0.000000e+000
1.405588e-001,-1.628138e-005,0.000000e+000
1.413529e-001,-1.846342e-005,0.000000e+000
1.421471e-001,-2.366674e-005,0.000000e+000
1.429412e-001,-2.433814e-005,0.000000e+000
1.437353e-001,-2.299535e-005,0.000000e+000
1.445294e-001,-2.568093e-005,0.000000e+000
1.453235e-001,-2.500954e-005,0.000000e+000
1.461176e-001,-2.198825e-005,0.000000e+000
1.469118e-001,-1.762417e-005,0.000000e+000
1.477059e-001,-1.628138e-005,0.000000e+000
1.485000e-001,-1.292439e-005,0.000000e+000
1.492941e-001,-8.224612e-006,0.000000e+000
1.500882e-001,-9.231709e-006,0.000000e+000
1.508824e-001,-9.231709e-006,0.000000e+000
1.516765e-001,-9.567407e-006,0.000000e+000
1.524706e-001,-9.903105e-006,0.000000e+000
1.532647e-001,-9.567407e-006,0.000000e+000
1.540588e-001,-6.881819e-006,0.000000e+000
1.548529e-001,-3.524834e-006,0.000000e+000
1.556471e-001,-2.853437e-006,0.000000e+000
1.564412e-001,-8.392462e-007,0.000000e+000
1.572353e-001,1.678492e-007,0.000000e+000
1.580294e-001,-5.539025e-006,0.000000e+000
1.588235e-001,-5.874723e-006,0.000000e+000
1.596176e-001,-7.553216e-006,0.000000e+000
1.604118e-001,-1.292439e-005,0.000000e+000
1.612059e-001,-1.393149e-005,0.000000e+000
1.620000e-001,-1.443504e-005,0.000000e+000
1.627941e-001,-1.493858e-005,0.000000e+000
1.635882e-001,-1.695277e-005,0.000000e+000
1.643824e-001,-1.695277e-005,0.000000e+000
1.651765e-001,-1.762417e-005,0.000000e+000
1.659706e-001,-1.728847e-005,0.000000e+000
1.667647e-001,-1.124590e-005,0.000000e+000
1.675588e-001,-1.158160e-005,0.000000e+000
1.683529e-001,-1.393149e-005,0.000000e+000
1.691471e-001,-1.426719e-005,0.000000e+000
1.699412e-001,-1.292439e-005,0.000000e+000
1.707353e-001,-1.359579e-005,0.000000e+000
1.715294e-001,-1.762417e-005,0.000000e+000
1.723235e-001,-1.661708e-005,0.000000e+000
1.731176e-001,-1.225299e-005,0.000000e+000
1.739118e-001,-1.359579e-005,0.000000e+000
1.747059e-001,-1.644922e-005,0.000000e+000
1.755000e-001,-1.359579e-005,0.000000e+000
1.762941e-001,-1.158160e-005,0.000000e+000
1.770882e-001,-1.393149e-005,0.000000e+000
1.778824e-001,-1.326009e-005,0.000000e+000
1.786765e-001,-1.359579e-005,0.000000e+000
1.794706e-001,-1.560998e-005,0.000000e+000
1.802647e-001,-1.493858e-005,0.000000e+000
1.810588e-001,-1.460288e-005,0.000000e+000
1.818529e-001,-1.426719e-005,0.000000e+000
1.826471e-001,-1.628138e-005,0.000000e+000
1.834412e-001,-1.661708e-005,0.000000e+000
1.842353e-001,-1.779202e-005,0.000000e+000
1.850294e-001,-2.030976e-005,0.000000e+000
1.858235e-001,-1.963836e-005,0.000000e+000
1.866176e-001,-1.527428e-005,0.000000e+000
1.874118e-001,-1.678492e-005,0.000000e+000
1.882059e-001,-1.762417e-005,0.000000e+000
1.890000e-001,-2.064546e-005,0.000000e+000
1.897941e-001,-1.795987e-005,0.000000e+000
1.905882e-001,-1.762417e-005,0.000000e+000
1.913824e-001,-1.829557e-005,0.000000e+000
1.921765e-001,-1.661708e-005,0.000000e+000
1.929706e-001,-1.728847e-005,0.000000e+000
1.937647e-001,-1.628138e-005,0.000000e+000
1.945588e-001,-1.326009e-005,0.000000e+000
1.953529e-001,-1.258869e-005,0.000000e+000
1.961471e-001,-1.326009e-005,0.000000e+000
1.969412e-001,-1.577783e-005,0.000000e+000
1.977353e-001,-1.493858e-005,0.000000e+000
1.985294e-001,-1.426719e-005,0.000000e+000
1.993235e-001,-1.560998e-005,0.000000e+000
2.001176e-001,-1.426719e-005,0.000000e+000
2.009118e-001,-1.661708e-005,0.000000e+000
2.017059e-001,-1.762417e-005,0.000000e+000
2.025000e-001,-1.309224e-005,0.000000e+000
2.032941e-001,-1.191730e-005,0.000000e+000
2.040882e-001,-9.231709e-006,0.000000e+000
2.048824e-001,-5.539025e-006,0.000000e+000
2.056765e-001,-8.560311e-006,0.000000e+000
2.064706e-001,-1.158160e-005,0.000000e+000
2.072647e-001,-1.091020e-005,0.000000e+000
2.080588e-001,-1.174945e-005,0.000000e+000
2.088529e-001,-1.225299e-005,0.000000e+000
2.096471e-001,-1.091020e-005,0.000000e+000
2.104412e-001,-8.896010e-006,0.000000e+000
2.112353e-001,-1.057450e-005,0.000000e+000
2.120294e-001,-1.258869e-005,0.000000e+000
2.128235e-001,-9.735256e-006,0.000000e+000
2.136176e-001,-1.091020e-005,0.000000e+000
2.144118e-001,-1.359579e-005,0.000000e+000
2.152059e-001,-1.628138e-005,0.000000e+000
2.160000e-001,-1.594568e-005,0.000000e+000
2.167941e-001,-1.661708e-005,0.000000e+000
2.175882e-001,-1.628138e-005,0.000000e+000
2.183824e-001,-1.359579e-005,0.000000e+000
2.191765e-001,-1.359579e-005,0.000000e+000
2.199706e-001,-1.359579e-005,0.000000e+000
2.207647e-001,-1.493858e-005,0.000000e+000
2.215588e-001,-1.628138e-005,0.000000e+000
2.223529e-001,-1.510643e-005,0.000000e+000
2.231471e-001,-1.359579e-005,0.000000e+000
2.239412e-001,-1.527428e-005,0.000000e+000
2.247353e-001,-1.661708e-005,0.000000e+000
2.255294e-001,-1.963836e-005,0.000000e+000
2.263235e-001,-1.930266e-005,0.000000e+000
2.271176e-001,-1.795987e-005,0.000000e+000
2.279118e-001,-1.493858e-005,0.000000e+000
2.287059e-001,-1.174945e-005,0.000000e+000
2.295000e-001,-1.091020e-005,0.000000e+000
2.302941e-001,-9.567407e-006,0.000000e+000
2.310882e-001,-6.881819e-006,0.000000e+000
2.318824e-001,-4.196231e-006,0.000000e+000
2.326765e-001,-8.224612e-006,0.000000e+000
2.334706e-001,-1.225299e-005,0.000000e+000
2.342647e-001,-1.258869e-005,0.000000e+000
2.350588e-001,-1.292439e-005,0.000000e+000
2.358529e-001,-1.124590e-005,0.000000e+000
2.366471e-001,-1.359579e-005,0.000000e+000
2.374412e-001,-1.158160e-005,0.000000e+000
2.382353e-001,-1.292439e-005,0.000000e+000
2.390294e-001,-2.030976e-005,0.000000e+000
2.398235e-001,-1.997406e-005,0.000000e+000
2.406176e-001,-1.527428e-005,0.000000e+000
2.414118e-001,-1.762417e-005,0.000000e+000
2.422059e-001,-1.762417e-005,0.000000e+000
2.430000e-001,-1.644922e-005,0.000000e+000
2.437941e-001,-1.292439e-005,0.000000e+000
2.445882e-001,-1.225299e-005,0.000000e+000
2.453824e-001,-1.493858e-005,0.000000e+000
2.461765e-001,-1.779202e-005,0.000000e+000
2.469706e-001,-1.292439e-005,0.000000e+000
2.477647e-001,-1.124590e-005,0.000000e+000
2.485588e-001,-1.258869e-005,0.000000e+000
2.493529e-001,-1.023880e-005,1.161647e-005
2.501471e-001,-1.158160e-005,1.163083e-005
2.509412e-001,-1.191730e-005,1.164918e-005
2.517353e-001,-1.091020e-005,1.166858e-005
2.525294e-001,-1.191730e-005,1.168481e-005
2.533235e-001,-1.225299e-005,1.170415e-005
2.541176e-001,-8.896010e-006,1.172456e-005
2.549118e-001,-1.225299e-005,1.173530e-005
2.557059e-001,-1.896696e-005,1.175565e-005
2.565000e-001,-1.963836e-005,1.180428e-005
2.572941e-001,-1.846342e-005,1.185619e-005
2.580882e-001,-1.762417e-005,1.190189e-005
2.588824e-001,-1.359579e-005,1.194337e-005
2.596765e-001,-1.527428e-005,1.196799e-005
2.604706e-001,-1.426719e-005,1.199899e-005
2.612647e-001,-1.812772e-005,1.202598e-005
2.620588e-001,-1.779202e-005,1.206941e-005
2.628529e-001,-1.493858e-005,1.211110e-005
2.636471e-001,-1.628138e-005,1.214041e-005
2.644412e-001,-1.393149e-005,1.217513e-005
2.652353e-001,-1.023880e-005,1.220048e-005
2.660294e-001,-8.560311e-006,1.221416e-005
2.668235e-001,-8.896010e-006,1.222371e-005
2.676176e-001,-1.292439e-005,1.223401e-005
2.684118e-001,-1.712062e-005,1.225574e-005
2.692059e-001,-1.695277e-005,1.229376e-005
2.700000e-001,-1.326009e-005,1.233093e-005
2.707941e-001,-1.225299e-005,1.235362e-005
2.715882e-001,-1.493858e-005,1.237295e-005
2.723824e-001,-1.762417e-005,1.240164e-005
2.731765e-001,-1.829557e-005,1.244146e-005
2.739706e-001,-2.030976e-005,1.248422e-005
2.747647e-001,-1.963836e-005,1.253673e-005
2.755588e-001,-1.795987e-005,1.258562e-005
2.763529e-001,-1.762417e-005,1.262636e-005
2.771471e-001,-1.695277e-005,1.266547e-005
2.779412e-001,-1.460288e-005,1.270155e-005
2.787353e-001,-1.426719e-005,1.272826e-005
2.795294e-001,-1.594568e-005,1.275370e-005
2.803235e-001,-1.326009e-005,1.278541e-005
2.811176e-001,-9.567407e-006,1.280729e-005
2.819118e-001,-9.735256e-006,1.281866e-005
2.827059e-001,-9.903105e-006,1.283043e-005
2.835000e-001,-6.210422e-006,1.284260e-005
2.842941e-001,-3.524834e-006,1.284738e-005
2.850882e-001,-7.888914e-006,1.284892e-005
2.858824e-001,-1.091020e-005,1.285663e-005
2.866765e-001,-8.224612e-006,1.287136e-005
2.874706e-001,-8.560311e-006,1.287973e-005
2.882647e-001,-5.539025e-006,1.288878e-005
2.890588e-001,-5.203327e-006,1.289257e-005
2.898529e-001,-4.867628e-006,1.289592e-005
2.906471e-001,-4.364080e-006,1.289884e-005
2.914412e-001,-8.896010e-006,1.290119e-005
2.922353e-001,-1.040665e-005,1.291096e-005
2.930294e-001,-1.023880e-005,1.292431e-005
2.938235e-001,-1.225299e-005,1.293722e-005
2.946176e-001,-1.393149e-005,1.295568e-005
2.954118e-001,-1.560998e-005,1.297952e-005
2.962059e-001,-1.695277e-005,1.300938e-005
2.970000e-001,-1.829557e-005,1.304451e-005
2.977941e-001,-1.930266e-005,1.308530e-005
2.985882e-001,-1.795987e-005,1.313057e-005
2.993824e-001,-1.661708e-005,1.316962e-005
3.001765e-001,-1.762417e-005,1.320297e-005
3.009706e-001,-1.930266e-005,1.324038e-005
3.017647e-001,-2.030976e-005,1.328511e-005
3.025588e-001,-1.930266e-005,1.333446e-005
3.033529e-001,-1.762417e-005,1.337888e-005
3.041471e-001,-1.661708e-005,1.341580e-005
3.049412e-001,-1.896696e-005,1.344853e-005
3.057353e-001,-1.762417e-005,1.349106e-005
3.065294e-001,-1.527428e-005,1.352767e-005
3.073235e-001,-1.426719e-005,1.355511e-005
3.081176e-001,-1.560998e-005,1.357900e-005
3.089118e-001,-1.560998e-005,1.360754e-005
3.097059e-001,-1.577783e-005,1.363603e-005
3.105000e-001,-1.896696e-005,1.366507e-005
3.112941e-001,-1.829557e-005,1.370692e-005
3.120882e-001,-1.493858e-005,1.374575e-005
3.128824e-001,-1.762417e-005,1.377158e-005
3.136765e-001,-1.896696e-005,1.380745e-005
3.144706e-001,-1.644922e-005,1.384888e-005
3.152647e-001,-1.661708e-005,1.387995e-005
3.160588e-001,-1.829557e-005,1.391159e-005
3.168529e-001,-1.728847e-005,1.394986e-005
3.176471e-001,-1.896696e-005,1.398393e-005
3.184412e-001,-1.628138e-005,1.402484e-005
3.192353e-001,-1.359579e-005,1.405490e-005
3.200294e-001,-1.158160e-005,1.407583e-005
3.208235e-001,-8.560311e-006,1.409099e-005
3.216176e-001,-8.560311e-006,1.409927e-005
3.224118e-001,-9.903105e-006,1.410755e-005
3.232059e-001,-1.225299e-005,1.411861e-005
3.240000e-001,-8.896010e-006,1.413553e-005
3.247941e-001,-7.553216e-006,1.414445e-005
3.255882e-001,-1.158160e-005,1.415087e-005
3.263824e-001,-1.158160e-005,1.416595e-005
3.271765e-001,-1.124590e-005,1.418102e-005
3.279706e-001,-1.493858e-005,1.419522e-005
3.287647e-001,-1.091020e-005,1.422023e-005
3.295588e-001,-8.224612e-006,1.423355e-005
3.303529e-001,-9.063859e-006,1.424112e-005
3.311471e-001,-1.225299e-005,1.425030e-005
3.319412e-001,-1.326009e-005,1.426707e-005
3.327353e-001,-1.292439e-005,1.428668e-005
3.335294e-001,-1.225299e-005,1.430528e-005
3.343235e-001,-9.567407e-006,1.432199e-005
3.351176e-001,-8.896010e-006,1.433216e-005
3.359118e-001,-1.091020e-005,1.434095e-005
3.367059e-001,-1.426719e-005,1.435416e-005
3.375000e-001,-1.510643e-005,1.437672e-005
3.382941e-001,-1.426719e-005,1.440198e-005
3.390882e-001,-1.527428e-005,1.442446e-005
3.398824e-001,-1.359579e-005,1.445020e-005
3.406765e-001,-1.225299e-005,1.447055e-005
3.414706e-001,-1.359579e-005,1.448706e-005
3.422647e-001,-1.040665e-005,1.450737e-005
3.430588e-001,-8.224612e-006,1.451925e-005
3.438529e-001,-7.553216e-006,1.452667e-005
3.446471e-001,-8.896010e-006,1.448066e-005
3.454412e-001,-9.567407e-006,1.446255e-005
3.462353e-001,-1.023880e-005,1.443299e-005
3.470294e-001,-1.225299e-005,1.439901e-005
3.478235e-001,-1.158160e-005,1.437294e-005
3.486176e-001,-1.762417e-005,1.434792e-005
3.494118e-001,-1.762417e-005,1.434247e-005
3.502059e-001,-1.997406e-005,1.434114e-005
3.510000e-001,-1.896696e-005,1.434262e-005
3.517941e-001,-1.762417e-005,1.433050e-005
3.525882e-001,-1.863127e-005,1.432504e-005
3.533824e-001,-1.829557e-005,1.433416e-005
3.541765e-001,-1.695277e-005,1.434542e-005
3.549706e-001,-1.359579e-005,1.434969e-005
3.557647e-001,-1.225299e-005,1.434078e-005
3.565588e-001,-1.493858e-005,1.433890e-005
3.573529e-001,-1.426719e-005,1.434655e-005
3.581471e-001,-1.359579e-005,1.435248e-005
3.589412e-001,-1.359579e-005,1.435145e-005
3.597353e-001,-1.091020e-005,1.434132e-005
3.605294e-001,-7.553216e-006,1.432976e-005
3.613235e-001,-1.023880e-005,1.432031e-005
3.621176e-001,-1.426719e-005,1.431038e-005
3.629118e-001,-1.158160e-005,1.431540e-005
3.637059e-001,-7.553216e-006,1.432014e-005
3.645000e-001,-9.903105e-006,1.432013e-005
3.652941e-001,-8.224612e-006,1.432470e-005
3.660882e-001,-1.023880e-005,1.431730e-005
3.668824e-001,-1.359579e-005,1.430632e-005
3.676765e-001,-1.057450e-005,1.430830e-005
3.684706e-001,-1.124590e-005,1.430017e-005
3.692647e-001,-1.493858e-005,1.428096e-005
3.700588e-001,-1.628138e-005,1.427379e-005
3.708529e-001,-1.795987e-005,1.427847e-005
3.716471e-001,-2.064546e-005,1.428842e-005
3.724412e-001,-1.930266e-005,1.430388e-005
3.732353e-001,-2.165255e-005,1.431337e-005
3.740294e-001,-2.098116e-005,1.434285e-005
3.748235e-001,-2.165255e-005,1.437679e-005
3.756176e-001,-2.232395e-005,1.441294e-005
3.764118e-001,-2.098116e-005,1.445226e-005
3.772059e-001,-1.930266e-005,1.449062e-005
3.780000e-001,-1.728847e-005,1.452348e-005
3.787941e-001,-1.795987e-005,1.454584e-005
3.795882e-001,-1.560998e-005,1.457075e-005
3.803824e-001,-1.376364e-005,1.457912e-005
3.811765e-001,-1.628138e-005,1.457706e-005
3.819706e-001,-1.191730e-005,1.458776e-005
3.827647e-001,-9.903105e-006,1.458309e-005
3.835588e-001,-9.903105e-006,1.456302e-005
3.843529e-001,-1.191730e-005,1.454414e-005
3.851471e-001,-1.023880e-005,1.453844e-005
3.859412e-001,-8.224612e-006,1.453257e-005
3.867353e-001,-8.392462e-006,1.451871e-005
3.875294e-001,-1.124590e-005,1.450514e-005
3.883235e-001,-1.023880e-005,1.449561e-005
3.891176e-001,-1.023880e-005,1.448476e-005
3.899118e-001,-1.376364e-005,1.447390e-005
3.907059e-001,-1.896696e-005,1.446558e-005
3.915000e-001,-1.846342e-005,1.446765e-005
3.922941e-001,-1.393149e-005,1.444350e-005
3.930882e-001,-1.443504e-005,1.439953e-005
3.938824e-001,-1.762417e-005,1.436405e-005
3.946765e-001,-2.030976e-005,1.432532e-005
3.954706e-001,-1.695277e-005,1.430163e-005
3.962647e-001,-1.359579e-005,1.427978e-005
3.970588e-001,-1.460288e-005,1.426575e-005
3.978529e-001,-1.577783e-005,1.425996e-005
3.986471e-001,-1.628138e-005,1.426910e-005
3.994412e-001,-1.762417e-005,1.429112e-005
4.002353e-001,-1.628138e-005,1.431621e-005
4.010294e-001,-1.258869e-005,1.433620e-005
4.018235e-001,-1.426719e-005,1.434363e-005
4.026176e-001,-1.527428e-005,1.435534e-005
4.034118e-001,-1.560998e-005,1.437106e-005
4.042059e-001,-1.560998e-005,1.439279e-005
4.050000e-001,-1.225299e-005,1.441835e-005
4.057941e-001,-1.091020e-005,1.443403e-005
4.065882e-001,-1.359579e-005,1.444708e-005
4.073824e-001,-1.493858e-005,1.446743e-005
4.081765e-001,-1.292439e-005,1.448860e-005
4.089706e-001,-9.567407e-006,1.450316e-005
4.097647e-001,-1.023880e-005,1.450695e-005
4.105588e-001,-1.057450e-005,1.450011e-005
4.113529e-001,-1.527428e-005,1.449108e-005
4.121471e-001,-1.695277e-005,1.449382e-005
4.129412e-001,-1.695277e-005,1.450087e-005
4.137353e-001,-1.762417e-005,1.450087e-005
4.145294e-001,-1.661708e-005,1.450342e-005
4.153235e-001,-1.896696e-005,1.449963e-005
4.161176e-001,-1.829557e-005,1.450632e-005
4.169118e-001,-1.560998e-005,1.452916e-005
4.177059e-001,-1.577783e-005,1.454116e-005
4.185000e-001,-1.560998e-005,1.454716e-005
4.192941e-001,-1.426719e-005,1.455156e-005
4.200882e-001,-1.628138e-005,1.455555e-005
4.208824e-001,-1.795987e-005,1.456433e-005
4.216765e-001,-1.997406e-005,1.456563e-005
4.224706e-001,-1.896696e-005,1.457905e-005
4.232647e-001,-1.628138e-005,1.460193e-005
4.240588e-001,-1.829557e-005,1.461068e-005
4.248529e-001,-1.829557e-005,1.461767e-005
4.256471e-001,-1.795987e-005,1.463399e-005
4.264412e-001,-1.712062e-005,1.465447e-005
4.272353e-001,-1.460288e-005,1.466523e-005
4.280294e-001,-9.903105e-006,1.466929e-005
4.288235e-001,-6.881819e-006,1.465987e-005
4.296176e-001,-8.224612e-006,1.463853e-005
4.304118e-001,-8.896010e-006,1.462161e-005
4.312059e-001,-7.721065e-006,1.460699e-005
4.320000e-001,-1.023880e-005,1.459129e-005
4.327941e-001,-7.049668e-006,1.457379e-005
4.335882e-001,-4.531929e-006,1.454903e-005
4.343824e-001,-4.531929e-006,1.451660e-005
4.351765e-001,-5.035477e-006,1.447354e-005
4.359706e-001,-6.210422e-006,1.443385e-005
4.367647e-001,-6.881819e-006,1.441235e-005
4.375588e-001,-1.225299e-005,1.438643e-005
4.383529e-001,-1.158160e-005,1.436866e-005
4.391471e-001,-1.560998e-005,1.433625e-005
4.399412e-001,-1.762417e-005,1.432748e-005
4.407353e-001,-1.292439e-005,1.432748e-005
4.415294e-001,-1.493858e-005,1.430883e-005
4.423235e-001,-1.644922e-005,1.430294e-005
4.431176e-001,-1.493858e-005,1.429979e-005
4.439118e-001,-1.560998e-005,1.429512e-005
4.447059e-001,-1.493858e-005,1.430267e-005
4.455000e-001,-1.158160e-005,1.430987e-005
4.462941e-001,-1.091020e-005,1.430523e-005
4.470882e-001,-1.359579e-005,1.429076e-005
4.478824e-001,-1.359579e-005,1.428649e-005
4.486765e-001,-1.493858e-005,1.428441e-005
4.494706e-001,-1.292439e-005,1.428212e-005
4.502647e-001,-1.124590e-005,1.427805e-005
4.510588e-001,-1.174945e-005,1.426135e-005
4.518529e-001,-1.225299e-005,1.424207e-005
4.526471e-001,-1.023880e-005,1.423969e-005
4.534412e-001,-1.393149e-005,1.423553e-005
4.542353e-001,-1.527428e-005,1.424770e-005
4.550294e-001,-1.577783e-005,1.427033e-005
4.558235e-001,-1.158160e-005,1.428992e-005
4.566176e-001,-1.191730e-005,1.428992e-005
4.574118e-001,-1.560998e-005,1.429248e-005
4.582059e-001,-1.560998e-005,1.430424e-005
4.590000e-001,-1.376364e-005,1.431465e-005
4.597941e-001,-1.426719e-005,1.432248e-005
4.605882e-001,-1.393149e-005,1.433631e-005
4.613824e-001,-1.628138e-005,1.434544e-005
4.621765e-001,-1.560998e-005,1.435727e-005
4.629706e-001,-1.191730e-005,1.437378e-005
4.637647e-001,-1.023880e-005,1.437632e-005
4.645588e-001,-1.426719e-005,1.436746e-005
4.653529e-001,-1.443504e-005,1.436064e-005
4.661471e-001,-1.292439e-005,1.435555e-005
4.669412e-001,-8.560311e-006,1.434344e-005
4.677353e-001,-1.107805e-005,1.432213e-005
4.685294e-001,-1.242084e-005,1.431522e-005
4.693235e-001,-1.141375e-005,1.431182e-005
4.701176e-001,-1.191730e-005,1.430575e-005
4.709118e-001,-1.292439e-005,1.429671e-005
4.717059e-001,-1.493858e-005,1.428579e-005
4.725000e-001,-1.628138e-005,1.428523e-005
4.732941e-001,-1.863127e-005,1.429417e-005
4.740882e-001,-1.896696e-005,1.430684e-005
4.748824e-001,-1.560998e-005,1.431615e-005
4.756765e-001,-1.594568e-005,1.430035e-005
4.764706e-001,-1.795987e-005,1.428716e-005
4.772647e-001,-1.712062e-005,1.428716e-005
4.780588e-001,-1.963836e-005,1.429496e-005
4.788529e-001,-1.997406e-005,1.432251e-005
4.796471e-001,-1.695277e-005,1.435360e-005
4.804412e-001,-1.628138e-005,1.437532e-005
4.812353e-001,-1.527428e-005,1.439941e-005
4.820294e-001,-1.191730e-005,1.442325e-005
4.828235e-001,-1.359579e-005,1.443145e-005
4.836176e-001,-1.695277e-005,1.443528e-005
4.844118e-001,-1.795987e-005,1.444950e-005
4.852059e-001,-2.064546e-005,1.446663e-005
4.860000e-001,-2.098116e-005,1.449958e-005
4.867941e-001,-1.913481e-005,1.452760e-005
4.875882e-001,-1.493858e-005,1.455301e-005
4.883824e-001,-1.426719e-005,1.455915e-005
4.891765e-001,-1.158160e-005,1.453628e-005
4.899706e-001,-1.057450e-005,1.450724e-005
4.907647e-001,-1.225299e-005,1.449390e-005
4.915588e-001,-1.393149e-005,1.447626e-005
4.923529e-001,-1.158160e-005,1.446343e-005
4.931471e-001,-1.225299e-005,1.444840e-005
4.939412e-001,-9.567407e-006,1.444654e-005
4.947353e-001,-7.888914e-006,1.444008e-005
4.955294e-001,-8.560311e-006,1.442232e-005
4.963235e-001,-9.567407e-006,1.439544e-005
4.971176e-001,-1.091020e-005,1.438708e-005
4.979118e-001,-9.735256e-006,1.438626e-005
4.987059e-001,-1.158160e-005,1.437921e-005
4.995000e-001,-9.735256e-006,1.438245e-005
5.002941e-001,-8.896010e-006,1.437810e-005
5.010882e-001,-4.531929e-006,1.437113e-005
5.018824e-001,-6.210422e-006,1.436021e-005
5.026765e-001,-1.124590e-005,1.434874e-005
5.034706e-001,-1.359579e-005,1.434611e-005
5.042647e-001,-1.527428e-005,1.435784e-005
5.050588e-001,-1.695277e-005,1.436706e-005
5.058529e-001,-1.930266e-005,1.435904e-005
5.066471e-001,-1.695277e-005,1.435759e-005
5.074412e-001,-1.762417e-005,1.435165e-005
5.082353e-001,-1.762417e-005,1.435165e-005
5.090294e-001,-1.997406e-005,1.436560e-005
5.098235e-001,-2.064546e-005,1.438395e-005
5.106176e-001,-1.963836e-005,1.440858e-005
5.114118e-001,-1.762417e-005,1.441489e-005
5.122059e-001,-1.628138e-005,1.441423e-005
5.130000e-001,-1.594568e-005,1.441886e-005
5.137941e-001,-1.527428e-005,1.441766e-005
5.145882e-001,-1.930266e-005,1.442199e-005
5.153824e-001,-1.628138e-005,1.445153e-005
5.161765e-001,-1.191730e-005,1.447265e-005
5.169706e-001,-1.225299e-005,1.447956e-005
5.177647e-001,-1.023880e-005,1.447770e-005
5.185588e-001,-9.735256e-006,1.445698e-005
5.193529e-001,-8.560311e-006,1.443575e-005
5.201471e-001,-7.217518e-006,1.442443e-005
5.209412e-001,-8.896010e-006,1.441360e-005
5.217353e-001,-1.174945e-005,1.439769e-005
5.225294e-001,-1.040665e-005,1.437859e-005
5.233235e-001,-1.326009e-005,1.435349e-005
5.241176e-001,-1.292439e-005,1.432721e-005
5.249118e-001,-1.225299e-005,1.430289e-005
5.257059e-001,-1.527428e-005,1.428368e-005
5.265000e-001,-1.644922e-005,1.427506e-005
5.272941e-001,-1.661708e-005,1.427319e-005
5.280882e-001,-1.863127e-005,1.428020e-005
5.288824e-001,-2.165255e-005,1.429620e-005
5.296765e-001,-2.265965e-005,1.432008e-005
5.304706e-001,-2.232395e-005,1.435758e-005
5.312647e-001,-2.030976e-005,1.440262e-005
5.320588e-001,-1.795987e-005,1.443771e-005
5.328529e-001,-1.846342e-005,1.446245e-005
5.336471e-001,-1.695277e-005,1.449569e-005
5.344412e-001,-1.393149e-005,1.452587e-005
5.352353e-001,-1.091020e-005,1.454032e-005
5.360294e-001,-1.124590e-005,1.454032e-005
5.368235e-001,-1.124590e-005,1.454676e-005
5.376176e-001,-1.091020e-005,1.455258e-005
5.384118e-001,-9.567407e-006,1.456224e-005
5.392059e-001,-6.881819e-006,1.456929e-005
5.400000e-001,-4.196231e-006,1.457187e-005
5.407941e-001,-4.196231e-006,1.457172e-005
5.415882e-001,-4.867628e-006,1.456499e-005
5.423824e-001,-7.553216e-006,1.455574e-005
5.431765e-001,-7.888914e-006,1.455051e-005
5.439706e-001,-8.896010e-006,1.454089e-005
5.447647e-001,-1.174945e-005,1.452830e-005
5.455588e-001,-1.493858e-005,1.451672e-005
5.463529e-001,-1.460288e-005,1.450967e-005
5.471471e-001,-1.493858e-005,1.449633e-005
5.479412e-001,-1.393149e-005,1.447991e-005
5.487353e-001,-1.443504e-005,1.446577e-005
5.495294e-001,-1.493858e-005,1.445831e-005
5.503235e-001,-8.896010e-006,1.444867e-005
5.511176e-001,-1.091020e-005,1.441630e-005
5.519118e-001,-1.359579e-005,1.438385e-005
5.527059e-001,-9.903105e-006,1.436305e-005
5.535000e-001,-8.896010e-006,1.433947e-005
5.542941e-001,-9.567407e-006,1.431757e-005
5.550882e-001,-1.158160e-005,1.428771e-005
5.558824e-001,-1.225299e-005,1.426803e-005
5.566765e-001,-1.426719e-005,1.425875e-005
5.574706e-001,-1.879912e-005,1.425875e-005
5.582647e-001,-1.963836e-005,1.427100e-005
5.590588e-001,-1.896696e-005,1.428683e-005
5.598529e-001,-1.628138e-005,1.429918e-005
5.606471e-001,-1.628138e-005,1.428863e-005
5.614412e-001,-1.829557e-005,1.428087e-005
5.622353e-001,-1.493858e-005,1.429330e-005
5.630294e-001,-1.158160e-005,1.428356e-005
5.638235e-001,-1.091020e-005,1.425838e-005
5.646176e-001,-1.393149e-005,1.424145e-005
5.654118e-001,-1.443504e-005,1.423227e-005
5.662059e-001,-1.225299e-005,1.421813e-005
5.670000e-001,-8.896010e-006,1.420146e-005
5.677941e-001,-1.359579e-005,1.416996e-005
5.685882e-001,-1.426719e-005,1.416094e-005
5.693824e-001,-1.594568e-005,1.416304e-005
5.701765e-001,-1.493858e-005,1.417654e-005
5.709706e-001,-1.628138e-005,1.419337e-005
5.717647e-001,-1.359579e-005,1.421487e-005
5.725588e-001,-1.158160e-005,1.422459e-005
5.733529e-001,-1.040665e-005,1.422280e-005
5.741471e-001,-6.546120e-006,1.422606e-005
5.749412e-001,-6.210422e-006,1.422447e-005
5.757353e-001,-9.567407e-006,1.421377e-005
5.765294e-001,-1.124590e-005,1.420900e-005
5.773235e-001,-1.158160e-005,1.420900e-005
5.781176e-001,-1.091020e-005,1.419902e-005
5.789118e-001,-1.426719e-005,1.419902e-005
5.797059e-001,-1.963836e-005,1.421425e-005
5.805000e-001,-1.510643e-005,1.424821e-005
5.812941e-001,-1.124590e-005,1.425693e-005
5.820882e-001,-1.695277e-005,1.425142e-005
5.828824e-001,-1.963836e-005,1.426486e-005
5.836765e-001,-2.165255e-005,1.429113e-005
5.844706e-001,-2.198825e-005,1.433310e-005
5.852647e-001,-1.863127e-005,1.437796e-005
5.860588e-001,-1.460288e-005,1.440319e-005
5.868529e-001,-1.527428e-005,1.440427e-005
5.876471e-001,-1.393149e-005,1.440483e-005
5.884412e-001,-1.628138e-005,1.440378e-005
5.892353e-001,-1.560998e-005,1.440730e-005
5.900294e-001,-1.628138e-005,1.441380e-005
5.908235e-001,-1.493858e-005,1.442649e-005
5.916176e-001,-1.242084e-005,1.443072e-005
5.924118e-001,-1.359579e-005,1.443579e-005
5.932059e-001,-1.493858e-005,1.444871e-005
5.940000e-001,-1.326009e-005,1.446701e-005
5.947941e-001,-1.426719e-005,1.447765e-005
5.955882e-001,-1.560998e-005,1.448996e-005
5.963824e-001,-1.728847e-005,1.450521e-005
5.971765e-001,-1.829557e-005,1.452153e-005
5.979706e-001,-2.030976e-005,1.454351e-005
5.987647e-001,-2.165255e-005,1.455466e-005
5.995588e-001,-2.265965e-005,1.457196e-005
6.003529e-001,-2.030976e-005,1.458447e-005
6.011471e-001,-1.963836e-005,1.459023e-005
6.019412e-001,-2.064546e-005,1.459841e-005
6.027353e-001,-2.232395e-005,1.460704e-005
6.035294e-001,-2.098116e-005,1.462487e-005
6.043235e-001,-1.829557e-005,1.464150e-005
6.051176e-001,-1.728847e-005,1.465779e-005
6.059118e-001,-1.829557e-005,1.467394e-005
6.067059e-001,-1.829557e-005,1.468604e-005
6.075000e-001,-1.560998e-005,1.470026e-005
6.082941e-001,-1.493858e-005,1.470663e-005
6.090882e-001,-1.560998e-005,1.471078e-005
6.098824e-001,-1.292439e-005,1.472426e-005
6.106765e-001,-8.224612e-006,1.473615e-005
6.114706e-001,-7.553216e-006,1.473213e-005
6.122647e-001,-9.567407e-006,1.471629e-005
6.130588e-001,-6.378271e-006,1.471168e-005
6.138529e-001,-8.560311e-006,1.470991e-005
6.146471e-001,-1.359579e-005,1.470722e-005
6.154412e-001,-1.493858e-005,1.471991e-005
6.162353e-001,-1.560998e-005,1.473270e-005
6.170294e-001,-1.359579e-005,1.473906e-005
6.178235e-001,-1.493858e-005,1.474695e-005
6.186176e-001,-1.393149e-005,1.475738e-005
6.194118e-001,-1.124590e-005,1.475425e-005
6.202059e-001,-1.040665e-005,1.473928e-005
6.210000e-001,-8.560311e-006,1.471611e-005
6.217941e-001,-1.292439e-005,1.467787e-005
6.225882e-001,-1.292439e-005,1.465555e-005
6.233824e-001,-1.158160e-005,1.462273e-005
6.241765e-001,-1.040665e-005,1.458936e-005
6.249706e-001,-1.091020e-005,1.454995e-005
6.257647e-001,-7.217518e-006,1.450838e-005
6.265588e-001,-5.706874e-006,1.446572e-005
6.273529e-001,-8.896010e-006,1.442824e-005
6.281471e-001,-9.903105e-006,1.440397e-005
6.289412e-001,-7.553216e-006,1.437913e-005
6.297353e-001,-9.231709e-006,1.435845e-005
6.305294e-001,-1.023880e-005,1.434689e-005
6.313235e-001,-1.023880e-005,1.432909e-005
6.321176e-001,-1.158160e-005,1.432496e-005
6.329118e-001,-1.393149e-005,1.432897e-005
6.337059e-001,-1.594568e-005,1.433963e-005
6.345000e-001,-1.510643e-005,1.435209e-005
6.352941e-001,-1.493858e-005,1.436577e-005
6.360882e-001,-1.359579e-005,1.438300e-005
6.368824e-001,-1.493858e-005,1.439566e-005
6.376765e-001,-1.829557e-005,1.440635e-005
6.384706e-001,-1.829557e-005,1.443174e-005
6.392647e-001,-2.030976e-005,1.445708e-005
6.400588e-001,-2.064546e-005,1.448163e-005
6.408529e-001,-2.098116e-005,1.448894e-005
6.416471e-001,-1.795987e-005,1.449985e-005
6.424412e-001,-1.493858e-005,1.451395e-005
6.432353e-001,-1.527428e-005,1.451557e-005
6.440294e-001,-1.930266e-005,1.450709e-005
6.448235e-001,-2.030976e-005,1.450271e-005
6.456176e-001,-1.896696e-005,1.451644e-005
6.464118e-001,-1.963836e-005,1.453561e-005
6.472059e-001,-2.030976e-005,1.455449e-005
6.480000e-001,-1.628138e-005,1.457237e-005
6.487941e-001,-1.242084e-005,1.457237e-005
6.495882e-001,-9.231709e-006,1.455528e-005
6.503824e-001,-1.091020e-005,1.453559e-005
6.511765e-001,-1.158160e-005,1.453127e-005
6.519706e-001,-7.888914e-006,1.452366e-005
6.527647e-001,-8.224612e-006,1.450489e-005
6.535588e-001,-1.258869e-005,1.448555e-005
6.543529e-001,-1.309224e-005,1.447618e-005
6.551471e-001,-1.359579e-005,1.447852e-005
6.559412e-001,-1.493858e-005,1.448576e-005
6.567353e-001,-1.426719e-005,1.448997e-005
6.575294e-001,-1.661708e-005,1.448782e-005
6.583235e-001,-1.863127e-005,1.449980e-005
6.591176e-001,-1.829557e-005,1.452784e-005
6.599118e-001,-1.560998e-005,1.455302e-005
6.607059e-001,-1.762417e-005,1.456744e-005
6.615000e-001,-1.762417e-005,1.457589e-005
6.622941e-001,-1.527428e-005,1.457842e-005
6.630882e-001,-1.292439e-005,1.457251e-005
6.638824e-001,-8.560311e-006,1.455681e-005
6.646765e-001,-8.896010e-006,1.453461e-005
6.654706e-001,-1.191730e-005,1.450383e-005
6.662647e-001,-8.896010e-006,1.448266e-005
6.670588e-001,-2.182040e-006,1.446456e-005
6.678529e-001,-2.853437e-006,1.443765e-005
6.686471e-001,-3.189136e-006,1.441165e-005
6.694412e-001,-6.546120e-006,1.439027e-005
6.702353e-001,-1.292439e-005,1.436566e-005
6.710294e-001,-1.493858e-005,1.434841e-005
6.718235e-001,-1.292439e-005,1.432889e-005
6.726176e-001,-1.091020e-005,1.430746e-005
6.734118e-001,-1.158160e-005,1.429119e-005
6.742059e-001,-1.359579e-005,1.426882e-005
6.750000e-001,-1.292439e-005,1.425209e-005
6.757941e-001,-1.292439e-005,1.423470e-005
6.765882e-001,-1.762417e-005,1.422059e-005
6.773824e-001,-1.829557e-005,1.423149e-005
6.781765e-001,-1.628138e-005,1.425794e-005
6.789706e-001,-1.258869e-005,1.428224e-005
6.797647e-001,-1.191730e-005,1.429236e-005
6.805588e-001,-1.158160e-005,1.429937e-005
6.813529e-001,-9.567407e-006,1.430766e-005
6.821471e-001,-1.158160e-005,1.430618e-005
6.829412e-001,-1.091020e-005,1.431558e-005
6.837353e-001,-1.258869e-005,1.432653e-005
6.845294e-001,-1.292439e-005,1.434185e-005
6.853235e-001,-1.393149e-005,1.435757e-005
6.861176e-001,-1.628138e-005,1.437481e-005
6.869118e-001,-1.577783e-005,1.439891e-005
6.877059e-001,-1.359579e-005,1.440983e-005
6.885000e-001,-1.560998e-005,1.441543e-005
6.892941e-001,-1.695277e-005,1.441543e-005
6.900882e-001,-1.493858e-005,1.441287e-005
6.908824e-001,-1.426719e-005,1.441907e-005
6.916765e-001,-1.695277e-005,1.441690e-005
6.924706e-001,-1.896696e-005,1.441876e-005
6.932647e-001,-1.628138e-005,1.443384e-005
6.940588e-001,-1.594568e-005,1.443620e-005
6.948529e-001,-1.661708e-005,1.443963e-005
6.956471e-001,-1.863127e-005,1.445528e-005
6.964412e-001,-2.030976e-005,1.448038e-005
6.972353e-001,-2.265965e-005,1.450539e-005
6.980294e-001,-2.165255e-005,1.454142e-005
6.988235e-001,-2.098116e-005,1.456830e-005
6.996176e-001,-1.896696e-005,1.459813e-005
7.004118e-001,-1.628138e-005,1.462355e-005
7.012059e-001,-1.695277e-005,1.463738e-005
7.020000e-001,-1.644922e-005,1.465230e-005
7.027941e-001,-1.628138e-005,1.467030e-005
7.035882e-001,-1.292439e-005,1.467801e-005
7.043824e-001,-1.493858e-005,1.467082e-005
7.051765e-001,-1.493858e-005,1.466802e-005
7.059706e-001,-1.309224e-005,1.467768e-005
7.067647e-001,-1.527428e-005,1.468087e-005
7.075588e-001,-1.174945e-005,1.467974e-005
7.083529e-001,-8.896010e-006,1.466828e-005
7.091471e-001,-9.567407e-006,1.465630e-005
7.099412e-001,-1.023880e-005,1.464413e-005
7.107353e-001,-1.091020e-005,1.463442e-005
7.115294e-001,-1.393149e-005,1.461852e-005
7.123235e-001,-1.158160e-005,1.461312e-005
7.131176e-001,-1.225299e-005,1.461226e-005
7.139118e-001,-1.225299e-005,1.461720e-005
7.147059e-001,-1.124590e-005,1.461138e-005
7.155000e-001,-1.493858e-005,1.460245e-005
7.162941e-001,-1.460288e-005,1.460857e-005
7.170882e-001,-1.393149e-005,1.462381e-005
7.178824e-001,-1.443504e-005,1.463158e-005
7.186765e-001,-1.292439e-005,1.463747e-005
7.194706e-001,-1.242084e-005,1.464147e-005
7.202647e-001,-1.258869e-005,1.464280e-005
7.210588e-001,-1.393149e-005,1.464187e-005
7.218529e-001,-1.493858e-005,1.463871e-005
7.226471e-001,-1.493858e-005,1.463414e-005
7.234412e-001,-1.426719e-005,1.462065e-005
7.242353e-001,-1.158160e-005,1.460363e-005
7.250294e-001,-1.242084e-005,1.459168e-005
7.258235e-001,-1.560998e-005,1.458077e-005
7.266176e-001,-1.242084e-005,1.457215e-005
7.274118e-001,-1.393149e-005,1.455697e-005
7.282059e-001,-1.896696e-005,1.453600e-005
7.290000e-001,-1.930266e-005,1.453170e-005
7.297941e-001,-2.047761e-005,1.454103e-005
7.305882e-001,-1.460288e-005,1.455791e-005
7.313824e-001,-1.174945e-005,1.455572e-005
7.321765e-001,-1.158160e-005,1.455529e-005
7.329706e-001,-1.091020e-005,1.454974e-005
7.337647e-001,-1.124590e-005,1.453130e-005
7.345588e-001,-8.224612e-006,1.450980e-005
7.353529e-001,-6.210422e-006,1.447039e-005
7.361471e-001,-8.224612e-006,1.442612e-005
7.369412e-001,-9.567407e-006,1.439314e-005
7.377353e-001,-9.567407e-006,1.437857e-005
7.385294e-001,-1.091020e-005,1.436616e-005
7.393235e-001,-9.903105e-006,1.436448e-005
7.401176e-001,-1.091020e-005,1.436296e-005
7.409118e-001,-1.762417e-005,1.435951e-005
7.417059e-001,-1.628138e-005,1.437243e-005
7.425000e-001,-1.393149e-005,1.438693e-005
7.432941e-001,-1.426719e-005,1.439179e-005
7.440882e-001,-1.326009e-005,1.440418e-005
7.448824e-001,-1.426719e-005,1.441673e-005
7.456765e-001,-1.644922e-005,1.443111e-005
7.464706e-001,-1.225299e-005,1.445086e-005
7.472647e-001,-1.258869e-005,1.445428e-005
7.480588e-001,-1.225299e-005,1.446130e-005
7.488529e-001,-1.091020e-005,1.446306e-005
7.496471e-001,-1.359579e-005,1.446573e-005
7.504412e-001,-1.426719e-005,1.447736e-005
7.512353e-001,-1.560998e-005,1.449748e-005
7.520294e-001,-1.426719e-005,1.451999e-005
7.528235e-001,-1.326009e-005,1.452844e-005
7.536176e-001,-1.493858e-005,1.452745e-005
7.544118e-001,-1.695277e-005,1.452634e-005
7.552059e-001,-1.980621e-005,1.452634e-005
7.560000e-001,-1.896696e-005,1.452850e-005
7.567941e-001,-1.493858e-005,1.453643e-005
7.575882e-001,-1.426719e-005,1.452684e-005
7.583824e-001,-1.225299e-005,1.451510e-005
7.591765e-001,-1.023880e-005,1.448778e-005
7.599706e-001,-8.896010e-006,1.445241e-005
7.607647e-001,-9.903105e-006,1.441860e-005
7.615588e-001,-7.217518e-006,1.439511e-005
7.623529e-001,-7.049668e-006,1.437153e-005
7.631471e-001,-5.874723e-006,1.434884e-005
7.639412e-001,-7.888914e-006,1.432677e-005
7.647353e-001,-1.057450e-005,1.429223e-005
7.655294e-001,-1.091020e-005,1.427514e-005
7.663235e-001,-9.567407e-006,1.427258e-005
7.671176e-001,-1.158160e-005,1.426604e-005
7.679118e-001,-1.493858e-005,1.426931e-005
7.687059e-001,-1.829557e-005,1.428363e-005
7.695000e-001,-1.712062e-005,1.431275e-005
7.702941e-001,-1.426719e-005,1.433954e-005
7.710882e-001,-1.527428e-005,1.435335e-005
7.718824e-001,-1.762417e-005,1.436391e-005
7.726765e-001,-2.030976e-005,1.438632e-005
7.734706e-001,-2.232395e-005,1.441249e-005
7.742647e-001,-1.863127e-005,1.444905e-005
7.750588e-001,-1.896696e-005,1.447074e-005
7.758529e-001,-1.829557e-005,1.448465e-005
7.766471e-001,-1.762417e-005,1.449170e-005
7.774412e-001,-1.628138e-005,1.449549e-005
7.782353e-001,-1.560998e-005,1.448648e-005
7.790294e-001,-1.695277e-005,1.446170e-005
7.798235e-001,-1.560998e-005,1.443679e-005
7.806176e-001,-1.628138e-005,1.440867e-005
7.814118e-001,-1.560998e-005,1.439237e-005
7.822059e-001,-1.225299e-005,1.438364e-005
7.830000e-001,-1.225299e-005,1.436251e-005
7.837941e-001,-1.359579e-005,1.434728e-005
7.845882e-001,-6.881819e-006,1.434626e-005
7.853824e-001,-7.217518e-006,1.433830e-005
7.861765e-001,-7.553216e-006,1.433004e-005
7.869706e-001,-7.721065e-006,1.432232e-005
7.877647e-001,-9.231709e-006,1.431571e-005
7.885588e-001,-1.225299e-005,1.431501e-005
7.893529e-001,-1.359579e-005,1.432644e-005
7.901471e-001,-1.426719e-005,1.434501e-005
7.909412e-001,-1.426719e-005,1.436564e-005
7.917353e-001,-1.426719e-005,1.438556e-005
7.925294e-001,-1.493858e-005,1.440177e-005
7.933235e-001,-1.359579e-005,1.441955e-005
7.941176e-001,-1.460288e-005,1.443122e-005
7.949118e-001,-1.728847e-005,1.443952e-005
7.957059e-001,-1.795987e-005,1.444786e-005
7.965000e-001,-1.695277e-005,1.445991e-005
7.972941e-001,-1.628138e-005,1.446698e-005
7.980882e-001,-1.695277e-005,1.447479e-005
7.988824e-001,-1.896696e-005,1.448348e-005
7.996765e-001,-2.165255e-005,1.449849e-005
8.004706e-001,-2.467384e-005,1.454123e-005
8.012647e-001,-2.265965e-005,1.459476e-005
8.020588e-001,-2.333104e-005,1.463057e-005
8.028529e-001,-2.265965e-005,1.467906e-005
8.036471e-001,-1.930266e-005,1.472610e-005
8.044412e-001,-1.762417e-005,1.475646e-005
8.052353e-001,-1.695277e-005,1.477549e-005
8.060294e-001,-1.493858e-005,1.479028e-005
8.068235e-001,-1.158160e-005,1.479239e-005
8.076176e-001,-9.567407e-006,1.476877e-005
8.084118e-001,-7.721065e-006,1.473702e-005
8.092059e-001,-8.560311e-006,1.470455e-005
8.100000e-001,-8.224612e-006,1.468377e-005
8.107941e-001,-1.091020e-005,1.466234e-005
8.115882e-001,-9.231709e-006,1.463890e-005
8.123824e-001,-5.539025e-006,1.462389e-005
8.131765e-001,-6.881819e-006,1.461262e-005
8.139706e-001,-4.867628e-006,1.460480e-005
8.147647e-001,-6.546120e-006,1.458621e-005
8.155588e-001,-8.224612e-006,1.456813e-005
8.163529e-001,-9.567407e-006,1.455911e-005
8.171471e-001,-9.231709e-006,1.456047e-005
8.179412e-001,-8.896010e-006,1.454957e-005
8.187353e-001,-9.231709e-006,1.453595e-005
8.195294e-001,-8.224612e-006,1.451742e-005
8.203235e-001,-1.023880e-005,1.450035e-005
8.211176e-001,-1.242084e-005,1.448274e-005
8.219118e-001,-1.174945e-005,1.447938e-005
8.227059e-001,-1.628138e-005,1.447981e-005
8.235000e-001,-1.863127e-005,1.449704e-005
8.242941e-001,-1.829557e-005,1.453043e-005
8.250882e-001,-1.762417e-005,1.456284e-005
8.258824e-001,-1.695277e-005,1.458678e-005
8.266765e-001,-2.030976e-005,1.460434e-005
8.274706e-001,-2.030976e-005,1.463465e-005
8.282647e-001,-1.795987e-005,1.466655e-005
8.290588e-001,-1.930266e-005,1.467946e-005
8.298529e-001,-1.963836e-005,1.467805e-005
8.306471e-001,-1.896696e-005,1.469512e-005
8.314412e-001,-1.728847e-005,1.472037e-005
8.322353e-001,-1.728847e-005,1.472162e-005
8.330294e-001,-1.963836e-005,1.471223e-005
8.338235e-001,-1.628138e-005,1.470323e-005
8.346176e-001,-1.460288e-005,1.467955e-005
8.354118e-001,-1.829557e-005,1.466502e-005
8.362059e-001,-2.030976e-005,1.467821e-005
8.370000e-001,-1.762417e-005,1.469763e-005
8.377941e-001,-1.426719e-005,1.471025e-005
8.385882e-001,-1.829557e-005,1.470359e-005
8.393824e-001,-1.712062e-005,1.471345e-005
8.401765e-001,-1.762417e-005,1.471648e-005
8.409706e-001,-1.493858e-005,1.472594e-005
8.417647e-001,-1.292439e-005,1.473339e-005
8.425588e-001,-1.191730e-005,1.473146e-005
8.433529e-001,-1.426719e-005,1.472269e-005
8.441471e-001,-1.628138e-005,1.472569e-005
8.449412e-001,-1.628138e-005,1.473234e-005
8.457353e-001,-1.393149e-005,1.473466e-005
8.465294e-001,-1.426719e-005,1.472333e-005
8.473235e-001,-1.359579e-005,1.470913e-005
8.481176e-001,-1.527428e-005,1.468447e-005
8.489118e-001,-1.158160e-005,1.465890e-005
8.497059e-001,-1.292439e-005,1.461764e-005
8.505000e-001,-1.258869e-005,1.459088e-005
8.512941e-001,-9.567407e-006,1.456606e-005
8.520882e-001,-8.224612e-006,1.452943e-005
8.528824e-001,-1.225299e-005,1.448215e-005
8.536765e-001,-1.107805e-005,1.445022e-005
8.544706e-001,-8.896010e-006,1.442684e-005
8.552647e-001,-9.903105e-006,1.440256e-005
8.560588e-001,-8.224612e-006,1.437637e-005
8.568529e-001,-7.553216e-006,1.434676e-005
8.576471e-001,-9.231709e-006,1.432603e-005
8.584412e-001,-9.567407e-006,1.431069e-005
8.592353e-001,-9.903105e-006,1.429375e-005
8.600294e-001,-1.309224e-005,1.428607e-005
8.608235e-001,-1.359579e-005,1.429763e-005
8.616176e-001,-1.292439e-005,1.431186e-005
8.624118e-001,-1.174945e-005,1.432025e-005
8.632059e-001,-1.493858e-005,1.433108e-005
8.640000e-001,-1.594568e-005,1.434772e-005
8.647941e-001,-1.963836e-005,1.435542e-005
8.655882e-001,-1.846342e-005,1.437344e-005
8.663824e-001,-1.762417e-005,1.438420e-005
8.671765e-001,-1.728847e-005,1.439812e-005
8.679706e-001,-1.628138e-005,1.440649e-005
8.687647e-001,-1.594568e-005,1.441434e-005
8.695588e-001,-1.577783e-005,1.442845e-005
8.703529e-001,-1.527428e-005,1.444396e-005
8.711471e-001,-1.560998e-005,1.446159e-005
8.719412e-001,-1.493858e-005,1.447003e-005
8.727353e-001,-1.460288e-005,1.447620e-005
8.735294e-001,-1.493858e-005,1.448490e-005
8.743235e-001,-1.225299e-005,1.449752e-005
8.751176e-001,-1.158160e-005,1.450094e-005
8.759118e-001,-1.023880e-005,1.450994e-005
8.767059e-001,-8.560311e-006,1.451787e-005
8.775000e-001,-1.091020e-005,1.451723e-005
8.782941e-001,-1.225299e-005,1.451953e-005
8.790882e-001,-1.292439e-005,1.452973e-005
8.798824e-001,-1.493858e-005,1.453870e-005
8.806765e-001,-1.527428e-005,1.455165e-005
8.814706e-001,-1.728847e-005,1.456570e-005
8.822647e-001,-1.560998e-005,1.458370e-005
8.830588e-001,-1.628138e-005,1.458912e-005
8.838529e-001,-1.426719e-005,1.459030e-005
8.846471e-001,-1.359579e-005,1.458761e-005
8.854412e-001,-1.594568e-005,1.458342e-005
8.862353e-001,-1.426719e-005,1.459100e-005
8.870294e-001,-1.191730e-005,1.458886e-005
8.878235e-001,-1.292439e-005,1.456781e-005
8.886176e-001,-1.191730e-005,1.454947e-005
8.894118e-001,-1.124590e-005,1.451984e-005
8.902059e-001,-1.023880e-005,1.448693e-005
8.910000e-001,-8.224612e-006,1.445002e-005
8.917941e-001,-1.023880e-005,1.442190e-005
8.925882e-001,-1.225299e-005,1.440883e-005
8.933824e-001,-1.191730e-005,1.439964e-005
8.941765e-001,-1.292439e-005,1.437412e-005
8.949706e-001,-1.174945e-005,1.434690e-005
8.957647e-001,-1.158160e-005,1.432227e-005
8.965588e-001,-1.023880e-005,1.429428e-005
8.973529e-001,-1.225299e-005,1.425997e-005
8.981471e-001,-1.393149e-005,1.424713e-005
8.989412e-001,-1.628138e-005,1.425157e-005
8.997353e-001,-1.695277e-005,1.427166e-005
9.005294e-001,-1.762417e-005,1.429043e-005
9.013235e-001,-1.762417e-005,1.431008e-005
9.021176e-001,-1.795987e-005,1.433769e-005
9.029118e-001,-2.030976e-005,1.436598e-005
9.037059e-001,-2.165255e-005,1.439410e-005
9.045000e-001,-1.695277e-005,1.442697e-005
9.052941e-001,-1.762417e-005,1.443828e-005
9.060882e-001,-1.829557e-005,1.444792e-005
9.068824e-001,-1.628138e-005,1.446238e-005
9.076765e-001,-1.762417e-005,1.446116e-005
9.084706e-001,-2.131685e-005,1.445714e-005
9.092647e-001,-2.064546e-005,1.447031e-005
9.100588e-001,-2.098116e-005,1.449039e-005
9.108529e-001,-1.762417e-005,1.450463e-005
9.116471e-001,-1.661708e-005,1.450463e-005
9.124412e-001,-1.577783e-005,1.450933e-005
9.132353e-001,-1.661708e-005,1.451831e-005
9.140294e-001,-1.628138e-005,1.454054e-005
9.148235e-001,-1.158160e-005,1.456089e-005
9.156176e-001,-1.091020e-005,1.456003e-005
9.164118e-001,-1.359579e-005,1.456439e-005
9.172059e-001,-1.158160e-005,1.458407e-005
9.180000e-001,-1.191730e-005,1.459782e-005
9.187941e-001,-1.225299e-005,1.461219e-005
9.195882e-001,-1.292439e-005,1.462388e-005
9.203824e-001,-9.903105e-006,1.462388e-005
9.211765e-001,-1.258869e-005,1.461025e-005
9.219706e-001,-1.326009e-005,1.460932e-005
9.227647e-001,-1.292439e-005,1.461551e-005
9.235588e-001,-1.040665e-005,1.461909e-005
9.243529e-001,-1.107805e-005,1.461075e-005
9.251471e-001,-8.224612e-006,1.460592e-005
9.259412e-001,-6.881819e-006,1.459508e-005
9.267353e-001,-8.224612e-006,1.456633e-005
9.275294e-001,-1.124590e-005,1.453711e-005
9.283235e-001,-1.225299e-005,1.452191e-005
9.291176e-001,-1.493858e-005,1.452100e-005
9.299118e-001,-1.275654e-005,1.452989e-005
9.307059e-001,-1.326009e-005,1.453303e-005
9.315000e-001,-1.712062e-005,1.454226e-005
9.322941e-001,-1.695277e-005,1.455966e-005
9.330882e-001,-2.030976e-005,1.457806e-005
9.338824e-001,-1.795987e-005,1.460578e-005
9.346765e-001,-1.191730e-005,1.462272e-005
9.354706e-001,-1.124590e-005,1.461705e-005
9.362647e-001,-1.158160e-005,1.460195e-005
9.370588e-001,-8.560311e-006,1.458942e-005
9.378529e-001,-4.531929e-006,1.457724e-005
9.386471e-001,-5.203327e-006,1.455284e-005
9.394412e-001,-6.881819e-006,1.452433e-005
9.402353e-001,-8.224612e-006,1.450505e-005
9.410294e-001,-5.539025e-006,1.449012e-005
9.418235e-001,-5.874723e-006,1.446188e-005
9.426176e-001,-7.553216e-006,1.442602e-005
9.434118e-001,-1.091020e-005,1.440304e-005
9.442059e-001,-1.628138e-005,1.438808e-005
9.450000e-001,-1.510643e-005,1.438686e-005
9.457941e-001,-1.443504e-005,1.437369e-005
9.465882e-001,-1.493858e-005,1.435106e-005
9.473824e-001,-1.896696e-005,1.431882e-005
9.481765e-001,-2.030976e-005,1.430668e-005
9.489706e-001,-2.030976e-005,1.430359e-005
9.497647e-001,-2.030976e-005,1.430946e-005
9.505588e-001,-2.165255e-005,1.432586e-005
9.513529e-001,-2.047761e-005,1.434601e-005
9.521471e-001,-1.829557e-005,1.436251e-005
9.529412e-001,-2.064546e-005,1.437023e-005
9.537353e-001,-2.198825e-005,1.439892e-005
9.545294e-001,-2.030976e-005,1.442768e-005
9.553235e-001,-1.980621e-005,1.444856e-005
9.561176e-001,-1.795987e-005,1.447289e-005
9.569118e-001,-1.309224e-005,1.448270e-005
9.577059e-001,-1.292439e-005,1.448637e-005
9.585000e-001,-1.560998e-005,1.449603e-005
9.592941e-001,-1.493858e-005,1.451273e-005
9.600882e-001,-1.023880e-005,1.452571e-005
9.608824e-001,-8.896010e-006,1.452415e-005
9.616765e-001,-2.853437e-006,1.451154e-005
9.624706e-001,-1.678492e-007,1.449771e-005
9.632647e-001,-1.510643e-006,1.448121e-005
9.640588e-001,-4.196231e-006,1.446495e-005
9.648529e-001,-6.881819e-006,1.445296e-005
9.656471e-001,-1.292439e-005,1.443358e-005
9.664412e-001,-1.963836e-005,1.442848e-005
9.672353e-001,-2.500954e-005,1.444961e-005
9.680294e-001,-2.299535e-005,1.449550e-005
9.688235e-001,-2.568093e-005,1.453518e-005
9.696176e-001,-3.004501e-005,1.459043e-005
9.704118e-001,-3.038071e-005,1.467142e-005
9.712059e-001,-2.165255e-005,1.475032e-005
9.720000e-001,-1.930266e-005,1.477682e-005
9.727941e-001,-1.628138e-005,1.479291e-005
9.735882e-001,-1.393149e-005,1.479954e-005
9.743824e-001,-1.091020e-005,1.480599e-005
9.751765e-001,-1.124590e-005,1.480220e-005
9.759706e-001,-1.258869e-005,1.478958e-005
9.767647e-001,-1.258869e-005,1.479003e-005
9.775588e-001,-1.023880e-005,1.478620e-005
9.783529e-001,-1.091020e-005,1.475872e-005
9.791471e-001,-9.567407e-006,1.473134e-005
9.799412e-001,-7.553216e-006,1.469586e-005
9.807353e-001,-8.896010e-006,1.467893e-005
9.815294e-001,-1.493858e-005,1.467254e-005
9.823235e-001,-1.577783e-005,1.468220e-005
9.831176e-001,-1.426719e-005,1.469628e-005
9.839118e-001,-1.107805e-005,1.470463e-005
9.847059e-001,-6.546120e-006,1.471059e-005
9.855000e-001,-6.210422e-006,1.471106e-005
9.862941e-001,-5.203327e-006,1.470791e-005
9.870882e-001,-5.539025e-006,1.470093e-005
9.878824e-001,-2.853437e-006,1.469434e-005
9.886765e-001,3.189136e-006,1.468231e-005
9.894706e-001,-5.874723e-006,1.467278e-005
9.902647e-001,-1.091020e-005,1.466360e-005
9.910588e-001,-1.292439e-005,1.464278e-005
9.918529e-001,-1.393149e-005,1.463212e-005
9.926471e-001,-1.225299e-005,1.463212e-005
9.934412e-001,-1.309224e-005,1.462630e-005
9.942353e-001,-1.560998e-005,1.462582e-005
9.950294e-001,-1.594568e-005,1.463019e-005
9.958235e-001,-1.326009e-005,1.462841e-005
9.966176e-001,-1.225299e-005,1.463121e-005
9.974118e-001,-1.023880e-005,1.463030e-005
9.982059e-001,-5.874723e-006,1.462537e-005
9.990000e-001,1.174945e-006,1.461616e-005
9.997941e-001,5.035477e-007,1.459616e-005
1.000588e+000,-5.874723e-006,1.457397e-005
1.001382e+000,-6.881819e-006,1.455110e-005
1.002176e+000,-9.567407e-006,1.453399e-005
1.002971e+000,-1.896696e-005,1.452476e-005
1.003765e+000,-2.870222e-005,1.453972e-005
1.004559e+000,-3.105211e-005,1.459835e-005
1.005353e+000,-2.450599e-005,1.466061e-005
1.006147e+000,-2.030976e-005,1.468674e-005
1.006941e+000,-1.913481e-005,1.470725e-005
1.007735e+000,-1.829557e-005,1.472484e-005
1.008529e+000,-1.242084e-005,1.474479e-005
1.009324e+000,-5.706874e-006,1.475013e-005
1.010118e+000,-1.527428e-005,1.474510e-005
1.010912e+000,-3.071641e-005,1.475970e-005
1.011706e+000,-3.843748e-005,1.485556e-005
1.012500e+000,-3.843748e-005,1.500781e-005
1.013294e+000,-3.373770e-005,1.516014e-005
1.014088e+000,-2.433814e-005,1.527274e-005
1.014882e+000,-1.896696e-005,1.532276e-005
1.015676e+000,-1.762417e-005,1.534775e-005
1.016471e+000,-1.393149e-005,1.537046e-005
1.017265e+000,-1.107805e-005,1.537667e-005
1.018059e+000,-1.091020e-005,1.536627e-005
1.018853e+000,-8.224612e-006,1.534390e-005
1.019647e+000,-7.888914e-006,1.532049e-005
1.020441e+000,-9.567407e-006,1.530579e-005
1.021235e+000,-1.091020e-005,1.529103e-005
1.022029e+000,-1.023880e-005,1.527107e-005
1.022824e+000,-7.049668e-006,1.523896e-005
1.023618e+000,-9.567407e-006,1.519200e-005
1.024412e+000,-9.735256e-006,1.516519e-005
1.025206e+000,-1.326009e-005,1.513734e-005
1.026000e+000,-1.628138e-005,1.512062e-005
1.026794e+000,-1.359579e-005,1.511582e-005
1.027588e+000,-1.510643e-005,1.510737e-005
1.028382e+000,-1.712062e-005,1.510574e-005
1.029176e+000,-1.493858e-005,1.510634e-005
1.029971e+000,-1.359579e-005,1.510418e-005
1.030765e+000,-1.326009e-005,1.509572e-005
1.031559e+000,-6.210422e-006,1.508856e-005
1.032353e+000,-7.553216e-006,1.507678e-005
1.033147e+000,-1.728847e-005,1.506695e-005
1.033941e+000,-2.098116e-005,1.507899e-005
1.034735e+000,-1.829557e-005,1.512042e-005
1.035529e+000,-1.091020e-005,1.515016e-005
1.036324e+000,-7.721065e-006,1.515667e-005
1.037118e+000,4.867628e-006,1.515667e-005
1.037912e+000,2.098116e-005,1.515021e-005
1.038706e+000,3.004501e-005,1.518066e-005
1.039500e+000,1.728847e-005,1.525578e-005
1.040294e+000,-1.426719e-005,1.526572e-005
1.041088e+000,-3.508049e-005,1.526572e-005
1.041882e+000,-4.196231e-005,1.537248e-005
1.042676e+000,-4.313725e-005,1.553095e-005
1.043471e+000,-3.910887e-005,1.570184e-005
1.044265e+000,-3.877317e-005,1.583476e-005
1.045059e+000,-4.045167e-005,1.595543e-005
1.045853e+000,-3.776608e-005,1.608601e-005
1.046647e+000,-3.944457e-005,1.619835e-005
1.047441e+000,-4.582284e-005,1.632475e-005
1.048235e+000,-3.508049e-005,1.650058e-005
1.049029e+000,-1.225299e-005,1.658441e-005
1.049824e+000,-5.203327e-006,1.655379e-005
1.050618e+000,-1.493858e-005,1.649773e-005
1.051412e+000,-1.829557e-005,1.646969e-005
1.052206e+000,-1.359579e-005,1.644941e-005
1.053000e+000,-6.546120e-006,1.641757e-005
1.053794e+000,1.292439e-005,1.638556e-005
1.054588e+000,3.608759e-005,1.637160e-005
1.055382e+000,3.407340e-005,1.647002e-005
1.056176e+000,1.728847e-005,1.656044e-005
1.056971e+000,9.735256e-006,1.657628e-005
1.057765e+000,1.158160e-005,1.657659e-005
1.058559e+000,9.567407e-006,1.658374e-005
1.059353e+000,-7.217518e-006,1.658550e-005
1.060147e+000,-3.575189e-005,1.658400e-005
1.060941e+000,-5.790799e-005,1.669493e-005
1.061735e+000,-5.270466e-005,1.700379e-005
1.062529e+000,-4.800488e-005,1.725913e-005
1.063324e+000,-3.776608e-005,1.746613e-005
1.064118e+000,-3.239490e-005,1.759354e-005
1.064912e+000,-3.843748e-005,1.768441e-005
1.065706e+000,-4.246586e-005,1.781090e-005
1.066500e+000,-3.457694e-005,1.796329e-005
1.067294e+000,-3.138781e-005,1.806144e-005
1.068088e+000,-2.635233e-005,1.814115e-005
1.068882e+000,-1.628138e-005,1.819455e-005
1.069676e+000,-1.023880e-005,1.821182e-005
1.070471e+000,-6.210422e-006,1.821182e-005
1.071265e+000,5.035477e-007,1.820170e-005
1.072059e+000,1.678492e-007,1.818964e-005
1.072853e+000,5.035477e-007,1.816642e-005
1.073647e+000,5.539025e-006,1.813599e-005
1.074441e+000,1.107805e-005,1.810928e-005
1.075235e+000,1.124590e-005,1.809275e-005
1.076029e+000,8.896010e-006,1.807858e-005
1.076824e+000,7.217518e-006,1.804919e-005
1.077618e+000,5.203327e-006,1.801737e-005
1.078412e+000,2.517739e-006,1.799124e-005
1.079206e+000,-2.182040e-006,1.795879e-005
1.080000e+000,-4.196231e-006,1.792499e-005
1.080794e+000,-3.524834e-006,1.789457e-005
1.081588e+000,-5.874723e-006,1.786906e-005
1.082382e+000,-8.896010e-006,1.784548e-005
1.083176e+000,-1.292439e-005,1.781811e-005
1.083971e+000,-1.426719e-005,1.780935e-005
1.084765e+000,-2.030976e-005,1.780848e-005
1.085559e+000,-2.333104e-005,1.781543e-005
1.086353e+000,-1.762417e-005,1.782721e-005
1.087147e+000,-1.158160e-005,1.782721e-005
1.087941e+000,-9.567407e-006,1.782101e-005
1.088735e+000,-1.225299e-005,1.779927e-005
1.089529e+000,-1.158160e-005,1.778647e-005
1.090324e+000,-1.376364e-005,1.777066e-005
1.091118e+000,-1.594568e-005,1.776764e-005
1.091912e+000,-1.661708e-005,1.777546e-005
1.092706e+000,-1.863127e-005,1.778747e-005
1.093500e+000,-2.433814e-005,1.780032e-005
1.094294e+000,-1.779202e-005,1.782957e-005
1.095088e+000,-7.553216e-006,1.783416e-005
1.095882e+000,-5.035477e-007,1.782192e-005
1.096676e+000,-4.196231e-006,1.780375e-005
1.097471e+000,-1.158160e-005,1.778879e-005
1.098265e+000,-1.628138e-005,1.777991e-005
1.099059e+000,-2.098116e-005,1.779163e-005
1.099853e+000,-1.896696e-005,1.781606e-005
1.100647e+000,-1.460288e-005,1.783404e-005
1.101441e+000,-1.560998e-005,1.784491e-005
1.102235e+000,-2.165255e-005,1.786061e-005
1.103029e+000,-2.383459e-005,1.788900e-005
1.103824e+000,-2.098116e-005,1.792860e-005
1.104618e+000,-1.762417e-005,1.796064e-005
1.105412e+000,-1.896696e-005,1.797947e-005
1.106206e+000,-1.913481e-005,1.800532e-005
1.107000e+000,-1.779202e-005,1.803264e-005
1.107794e+000,-1.393149e-005,1.805305e-005
1.108588e+000,-1.242084e-005,1.806210e-005
1.109382e+000,-1.225299e-005,1.806705e-005
1.110176e+000,-9.735256e-006,1.806518e-005
1.110971e+000,-1.057450e-005,1.805724e-005
1.111765e+000,-1.443504e-005,1.805237e-005
1.112559e+000,-1.762417e-005,1.805857e-005
1.113353e+000,-1.695277e-005,1.806628e-005
1.114147e+000,-2.064546e-005,1.806920e-005
1.114941e+000,-1.913481e-005,1.807277e-005
1.115735e+000,-7.553216e-006,1.807500e-005
1.116529e+000,-6.210422e-006,1.805264e-005
1.117324e+000,-8.896010e-006,1.802967e-005
1.118118e+000,-6.881819e-006,1.801324e-005
1.118912e+000,-7.553216e-006,1.799494e-005
1.119706e+000,-6.210422e-006,1.797795e-005
1.120500e+000,-4.196231e-006,1.796069e-005
1.121294e+000,-3.189136e-006,1.794064e-005
1.122088e+000,-6.881819e-006,1.792172e-005
1.122882e+000,-3.860533e-006,1.790698e-005
1.123676e+000,-8.224612e-006,1.788845e-005
1.124471e+000,-1.493858e-005,1.788110e-005
1.125265e+000,-1.393149e-005,1.788903e-005
1.126059e+000,-2.970932e-005,1.789697e-005
1.126853e+000,-4.347295e-005,1.796884e-005
1.127647e+000,-3.843748e-005,1.812509e-005
1.128441e+000,-3.709468e-005,1.824133e-005
1.129235e+000,-3.273060e-005,1.834656e-005
1.130029e+000,-1.091020e-005,1.842003e-005
1.130824e+000,-1.107805e-005,1.841014e-005
1.131618e+000,-3.440909e-005,1.839490e-005
1.132412e+000,-4.179446e-005,1.847612e-005
1.133206e+000,-3.541619e-005,1.860338e-005
1.134000e+000,-2.366674e-005,1.869310e-005
1.134794e+000,-1.258869e-005,1.872504e-005
1.135588e+000,-7.553216e-006,1.871690e-005
1.136382e+000,-1.158160e-005,1.870443e-005
1.137176e+000,-2.534523e-005,1.870375e-005
1.137971e+000,-3.105211e-005,1.874418e-005
1.138765e+000,-2.819867e-005,1.881390e-005
1.139559e+000,-2.467384e-005,1.887041e-005
1.140353e+000,-2.836652e-005,1.891289e-005
1.141147e+000,-2.702373e-005,1.897484e-005
1.141941e+000,-6.881819e-006,1.902725e-005
1.142735e+000,8.392462e-006,1.901865e-005
1.143529e+000,2.333104e-005,1.901266e-005
1.144324e+000,2.198825e-005,1.904423e-005
1.145118e+000,-1.510643e-006,1.907309e-005
1.145912e+000,-2.165255e-005,1.906208e-005
1.146706e+000,-3.038071e-005,1.909246e-005
1.147500e+000,-3.323415e-005,1.915681e-005
1.148294e+000,-1.158160e-005,1.923234e-005
1.149088e+000,5.539025e-006,1.922150e-005
1.149882e+000,-6.210422e-006,1.920022e-005
1.150676e+000,-2.366674e-005,1.917764e-005
1.151471e+000,-3.273060e-005,1.919835e-005
1.152265e+000,-3.776608e-005,1.926035e-005
1.153059e+000,-2.702373e-005,1.934398e-005
1.153853e+000,-4.867628e-006,1.936549e-005
1.154647e+000,6.546120e-006,1.934380e-005
1.155441e+000,1.124590e-005,1.932174e-005
1.156235e+000,9.903105e-006,1.930457e-005
1.157029e+000,4.531929e-006,1.929079e-005
1.157824e+000,-1.007095e-006,1.926683e-005
1.158618e+000,-8.392462e-007,1.922932e-005
1.159412e+000,-6.713969e-007,1.919405e-005
1.160206e+000,-2.349889e-006,1.915753e-005
1.161000e+000,-5.539025e-006,1.913216e-005
1.161794e+000,-9.567407e-006,1.911172e-005
1.162588e+000,-1.023880e-005,1.909860e-005
1.163382e+000,-1.107805e-005,1.908431e-005
1.164176e+000,-9.567407e-006,1.907243e-005
1.164971e+000,-1.158160e-005,1.906887e-005
1.165765e+000,-1.359579e-005,1.907014e-005
1.166559e+000,-1.258869e-005,1.907014e-005
1.167353e+000,-8.896010e-006,1.907217e-005
1.168147e+000,-8.224612e-006,1.906692e-005
1.168941e+000,-6.210422e-006,1.906003e-005
1.169735e+000,-8.224612e-006,1.904929e-005
1.170529e+000,-9.567407e-006,1.904675e-005
1.171324e+000,-1.023880e-005,1.904115e-005
1.172118e+000,-9.567407e-006,1.903521e-005
1.172912e+000,-1.174945e-005,1.902889e-005
1.173706e+000,-9.903105e-006,1.903138e-005
1.174500e+000,-1.158160e-005,1.902932e-005
1.175294e+000,-1.628138e-005,1.903488e-005
1.176088e+000,-1.560998e-005,1.905309e-005
1.176882e+000,-1.493858e-005,1.906779e-005
1.177676e+000,-1.930266e-005,1.907587e-005
1.178471e+000,-2.299535e-005,1.909443e-005
1.179265e+000,-2.232395e-005,1.911990e-005
1.180059e+000,-2.400244e-005,1.914783e-005
1.180853e+000,-2.232395e-005,1.918109e-005
1.181647e+000,-1.863127e-005,1.919812e-005
1.182441e+000,-1.896696e-005,1.920307e-005
1.183235e+000,-1.997406e-005,1.919870e-005
1.184029e+000,-2.198825e-005,1.920504e-005
1.184824e+000,-2.299535e-005,1.923333e-005
1.185618e+000,-2.064546e-005,1.926661e-005
1.186412e+000,-2.047761e-005,1.929073e-005
1.187206e+000,-1.695277e-005,1.931928e-005
1.188000e+000,-1.527428e-005,1.934126e-005
1.188794e+000,-1.695277e-005,1.935823e-005
1.189588e+000,-1.594568e-005,1.937797e-005
1.190382e+000,-1.594568e-005,1.939330e-005
1.191176e+000,-1.896696e-005,1.941164e-005
1.191971e+000,-1.695277e-005,1.943830e-005
1.192765e+000,-1.560998e-005,1.945717e-005
1.193559e+000,-1.225299e-005,1.946736e-005
1.194353e+000,-8.896010e-006,1.945796e-005
1.195147e+000,-4.196231e-006,1.944576e-005
1.195941e+000,-2.182040e-006,1.943013e-005
1.196735e+000,-8.392462e-007,1.941222e-005
1.197529e+000,-5.539025e-006,1.938275e-005
1.198324e+000,-1.124590e-005,1.935136e-005
1.199118e+000,-1.426719e-005,1.932781e-005
1.199912e+000,-1.158160e-005,1.931059e-005
1.200706e+000,-5.539025e-006,1.928297e-005
1.201500e+000,2.517739e-006,1.925085e-005
1.202294e+000,4.867628e-006,1.922366e-005
1.203088e+000,2.517739e-006,1.919029e-005
1.203882e+000,-6.210422e-006,1.915066e-005
1.204676e+000,-1.124590e-005,1.911954e-005
1.205471e+000,-2.098116e-005,1.909739e-005
1.206265e+000,-2.030976e-005,1.910720e-005
1.207059e+000,-2.182040e-006,1.912728e-005
1.207853e+000,8.560311e-006,1.911376e-005
1.208647e+000,2.517739e-006,1.909956e-005
1.209441e+000,-2.853437e-006,1.908148e-005
1.210235e+000,-1.779202e-005,1.907341e-005
1.211029e+000,-3.642328e-005,1.909322e-005
1.211824e+000,-4.682994e-005,1.920287e-005
1.212618e+000,-5.387960e-005,1.938386e-005
1.213412e+000,-5.522240e-005,1.962071e-005
1.214206e+000,-5.539025e-005,1.986524e-005
1.215000e+000,-6.126497e-005,2.010592e-005
1.215794e+000,-5.387960e-005,2.038798e-005
1.216588e+000,-4.649424e-005,2.058365e-005
1.217382e+000,-3.524834e-005,2.070215e-005
1.218176e+000,-4.196231e-006,2.075697e-005
1.218971e+000,6.546120e-006,2.070767e-005
1.219765e+000,-1.510643e-006,2.064144e-005
1.220559e+000,-2.182040e-006,2.057029e-005
1.221353e+000,-2.853437e-006,2.053434e-005
1.222147e+000,-4.867628e-006,2.050606e-005
1.222941e+000,1.124590e-005,2.048730e-005
1.223735e+000,3.675899e-005,2.048205e-005
1.224529e+000,6.730755e-005,2.057762e-005
1.225324e+000,7.754635e-005,2.091563e-005
1.226118e+000,4.615854e-005,2.135673e-005
1.226912e+000,-9.567407e-006,2.150327e-005
1.227706e+000,-4.733349e-005,2.150228e-005
1.228500e+000,-6.999313e-005,2.165881e-005
1.229294e+000,-8.006408e-005,2.200942e-005
1.230088e+000,-7.670710e-005,2.246437e-005
1.230882e+000,-6.126497e-005,2.287214e-005
1.231676e+000,-4.313725e-005,2.311661e-005
1.232471e+000,-3.843748e-005,2.322737e-005
1.233265e+000,-4.112306e-005,2.331454e-005
1.234059e+000,-3.306630e-005,2.342141e-005
1.234853e+000,-1.762417e-005,2.349273e-005
1.235647e+000,-1.174945e-006,2.351116e-005
1.236441e+000,2.349889e-006,2.350942e-005
1.237235e+000,4.531929e-006,2.350771e-005
1.238029e+000,2.517739e-006,2.350855e-005
1.238824e+000,1.057450e-005,2.350829e-005
1.239618e+000,9.231709e-006,2.351353e-005
1.240412e+000,6.546120e-006,2.351124e-005
1.241206e+000,2.853437e-006,2.350283e-005
1.242000e+000,1.846342e-006,2.349023e-005
1.242794e+000,3.189136e-006,2.348028e-005
1.243588e+000,4.531929e-006,2.346934e-005
1.244382e+000,4.867628e-006,2.345420e-005
1.245176e+000,3.860533e-006,2.343854e-005
1.245971e+000,5.035477e-007,2.342760e-005
1.246765e+000,-2.182040e-006,2.341741e-005
1.247559e+000,-5.539025e-006,2.341061e-005
1.248353e+000,-3.692683e-006,2.341034e-005
1.249147e+000,-1.678492e-007,2.341118e-005
1.249941e+000,1.007095e-006,2.341116e-005
1.250735e+000,-2.853437e-006,2.340888e-005
1.251529e+000,-5.539025e-006,2.340622e-005
1.252324e+000,5.035477e-007,2.340208e-005
1.253118e+000,-1.846342e-006,2.337760e-005
1.253912e+000,-1.443504e-005,2.332165e-005
1.254706e+000,-2.568093e-005,2.326999e-005
1.255500e+000,-3.910887e-005,2.327402e-005
1.256294e+000,-5.522240e-005,2.335032e-005
1.257088e+000,-5.287251e-005,2.353260e-005
1.257882e+000,-3.709468e-005,2.369853e-005
1.258676e+000,-2.853437e-005,2.378048e-005
1.259471e+000,-2.500954e-005,2.383276e-005
1.260265e+000,-2.568093e-005,2.385895e-005
1.261059e+000,-2.500954e-005,2.383998e-005
1.261853e+000,-2.333104e-005,2.378301e-005
1.262647e+000,-1.695277e-005,2.372045e-005
1.263441e+000,-1.292439e-005,2.366327e-005
1.264235e+000,-1.527428e-005,2.363463e-005
1.265029e+000,-1.426719e-005,2.362611e-005
1.265824e+000,-7.217518e-006,2.361889e-005
1.266618e+000,7.553216e-006,2.360932e-005
1.267412e+000,2.853437e-005,2.360489e-005
1.268206e+000,4.045167e-005,2.365174e-005
1.269000e+000,3.743038e-005,2.375712e-005
1.269794e+000,3.004501e-005,2.384669e-005
1.270588e+000,4.145876e-005,2.390079e-005
1.271382e+000,6.630045e-005,2.400714e-005
1.272176e+000,5.790799e-005,2.429008e-005
1.272971e+000,3.524834e-006,2.450570e-005
1.273765e+000,-6.092927e-005,2.450056e-005
1.274559e+000,-1.018845e-004,2.473456e-005
1.275353e+000,-1.109483e-004,2.538301e-005
1.276147e+000,-9.852750e-005,2.612767e-005
1.276941e+000,-9.282063e-005,2.670174e-005
1.277735e+000,-1.005417e-004,2.719732e-005
1.278529e+000,-8.342107e-005,2.776606e-005
1.279324e+000,-7.066453e-005,2.814971e-005
1.280118e+000,-6.395056e-005,2.842042e-005
1.280912e+000,-4.850843e-005,2.863887e-005
1.281706e+000,-2.836652e-005,2.876727e-005
1.282500e+000,-1.560998e-005,2.880862e-005
1.283294e+000,-1.460288e-005,2.880557e-005
1.284088e+000,-1.712062e-005,2.879302e-005
1.284882e+000,-5.539025e-006,2.879072e-005
1.285676e+000,3.524834e-006,2.878583e-005
1.286471e+000,6.546120e-006,2.878322e-005
1.287265e+000,1.628138e-005,2.878428e-005
1.288059e+000,3.675899e-005,2.877459e-005
1.288853e+000,4.985122e-005,2.879940e-005
1.289647e+000,4.347295e-005,2.892003e-005
1.290441e+000,3.071641e-005,2.901273e-005
1.291235e+000,4.280156e-005,2.899696e-005
1.292029e+000,9.214923e-005,2.900087e-005
1.292824e+000,1.394827e-004,2.936269e-005
1.293618e+000,1.552606e-004,3.031924e-005
1.294412e+000,1.200122e-004,3.148394e-005
1.295206e+000,2.534523e-005,3.212315e-005
1.296000e+000,-5.958648e-005,3.208427e-005
1.296794e+000,-9.567407e-005,3.218311e-005
1.297588e+000,-1.253834e-004,3.253025e-005
1.298382e+000,-1.514000e-004,3.323198e-005
1.299176e+000,-1.754025e-004,3.430578e-005
1.299971e+000,-1.889983e-004,3.570407e-005
1.300765e+000,-1.955444e-004,3.725358e-005
1.301559e+000,-1.613031e-004,3.883992e-005
1.302353e+000,-1.038987e-004,3.988499e-005
1.303147e+000,-7.200732e-005,4.031197e-005
1.303941e+000,-4.481575e-005,4.050970e-005
1.304735e+000,-1.930266e-005,4.053745e-005
1.305529e+000,1.326009e-005,4.050647e-005
1.306324e+000,4.783703e-005,4.050163e-005
1.307118e+000,6.160067e-005,4.058778e-005
1.307912e+000,6.361486e-005,4.073114e-005
1.308706e+000,6.378271e-005,4.088548e-005
1.309500e+000,4.783703e-005,4.104159e-005
1.310294e+000,2.198825e-005,4.108077e-005
1.311088e+000,3.860533e-006,4.096938e-005
1.311882e+000,-2.517739e-006,4.086185e-005
1.312676e+000,8.560311e-006,4.077220e-005
1.313471e+000,1.863127e-005,4.071932e-005
1.314265e+000,1.191730e-005,4.069185e-005
1.315059e+000,1.007095e-006,4.063956e-005
1.315853e+000,-2.853437e-006,4.056888e-005
1.316647e+000,3.189136e-006,4.052224e-005
1.317441e+000,1.795987e-005,4.048391e-005
1.318235e+000,1.326009e-005,4.046928e-005
1.319029e+000,-4.531929e-006,4.046577e-005
1.319824e+000,-2.769513e-005,4.046245e-005
1.320618e+000,-3.239490e-005,4.049111e-005
1.321412e+000,-2.198825e-005,4.053235e-005
1.322206e+000,-1.107805e-005,4.055133e-005
1.323000e+000,-5.706874e-006,4.055614e-005
1.323794e+000,-5.539025e-006,4.055622e-005
1.324588e+000,-4.196231e-006,4.055260e-005
1.325382e+000,-2.853437e-006,4.054833e-005
1.326176e+000,-1.023880e-005,4.054554e-005
1.326971e+000,-2.702373e-005,4.054761e-005
1.327765e+000,-2.198825e-005,4.057522e-005
1.328559e+000,-1.628138e-005,4.059394e-005
1.329353e+000,-1.930266e-005,4.060415e-005
1.330147e+000,-2.232395e-005,4.061807e-005
1.330941e+000,-2.903792e-005,4.063712e-005
1.331735e+000,-3.306630e-005,4.066879e-005
1.332529e+000,-3.239490e-005,4.070849e-005
1.333324e+000,-2.903792e-005,4.074299e-005
1.334118e+000,-3.239490e-005,4.076798e-005
1.334912e+000,-3.675899e-005,4.079285e-005
1.335706e+000,-3.575189e-005,4.082434e-005
1.336500e+000,-3.038071e-005,4.086206e-005
1.337294e+000,-2.265965e-005,4.089279e-005
1.338088e+000,-1.577783e-005,4.090922e-005
1.338882e+000,-1.023880e-005,4.091306e-005
1.339676e+000,-1.040665e-005,4.091192e-005
1.340471e+000,-1.191730e-005,4.090877e-005
1.341265e+000,-1.225299e-005,4.090440e-005
1.342059e+000,-1.292439e-005,4.089949e-005
1.342853e+000,-1.309224e-005,4.089248e-005
1.343647e+000,-8.224612e-006,4.087609e-005
1.344441e+000,-5.539025e-006,4.086639e-005
1.345235e+000,-4.364080e-006,4.086536e-005
1.346029e+000,-6.881819e-006,4.086609e-005
1.346824e+000,-7.553216e-006,4.086725e-005
1.347618e+000,-8.224612e-006,4.086425e-005
1.348412e+000,-9.567407e-006,4.085655e-005
1.349206e+000,-5.874723e-006,4.084296e-005
1.350000e+000,-7.888914e-006,4.083028e-005
1.350794e+000,-9.231709e-006,4.082439e-005
1.351588e+000,-8.224612e-006,4.081821e-005
1.352382e+000,-9.735256e-006,4.080256e-005
1.353176e+000,-1.158160e-005,4.078408e-005
1.353971e+000,-1.124590e-005,4.077213e-005
1.354765e+000,-1.124590e-005,4.076493e-005
1.355559e+000,-1.359579e-005,4.075582e-005
1.356353e+000,-1.040665e-005,4.074874e-005
1.357147e+000,-7.553216e-006,4.074060e-005
1.357941e+000,-7.217518e-006,4.073524e-005
1.358735e+000,-8.896010e-006,4.073125e-005
1.359529e+000,-9.231709e-006,4.072847e-005
1.360324e+000,-1.023880e-005,4.072810e-005
1.361118e+000,-9.735256e-006,4.072782e-005
1.361912e+000,-7.888914e-006,4.072338e-005
1.362706e+000,-6.881819e-006,4.071367e-005
1.363500e+000,-6.881819e-006,4.070428e-005
1.364294e+000,-5.035477e-007,4.068946e-005
1.365088e+000,-8.392462e-007,4.067514e-005
1.365882e+000,5.035477e-006,4.067293e-005
1.366676e+000,1.795987e-005,4.067241e-005
1.367471e+000,1.728847e-005,4.068194e-005
1.368265e+000,8.392462e-006,4.069179e-005
1.369059e+000,1.863127e-005,4.069231e-005
1.369853e+000,2.198825e-005,4.070438e-005
1.370647e+000,1.980621e-005,4.072260e-005
1.371441e+000,1.997406e-005,4.073754e-005
1.372235e+000,-4.196231e-006,4.075128e-005
1.373029e+000,-5.790799e-005,4.075139e-005
1.373824e+000,-9.852750e-005,4.087957e-005
1.374618e+000,-1.089342e-004,4.124736e-005
1.375412e+000,-9.819181e-005,4.169555e-005
1.376206e+000,-8.426032e-005,4.202872e-005
1.377000e+000,-7.939269e-005,4.222565e-005
1.377794e+000,-6.562905e-005,4.240725e-005
1.378588e+000,-5.589380e-005,4.251716e-005
1.379382e+000,-4.783703e-005,4.259398e-005
1.380176e+000,-1.594568e-005,4.267500e-005
1.380971e+000,-4.196231e-006,4.267991e-005
1.381765e+000,-1.393149e-005,4.263637e-005
1.382559e+000,-1.712062e-005,4.257834e-005
1.383353e+000,-9.735256e-006,4.254238e-005
1.384147e+000,5.035477e-006,4.252496e-005
1.384941e+000,2.047761e-005,4.251998e-005
1.385735e+000,2.635233e-005,4.253354e-005
1.386529e+000,2.400244e-005,4.255451e-005
1.387324e+000,2.568093e-005,4.255203e-005
1.388118e+000,4.213016e-005,4.254063e-005
1.388912e+000,7.066453e-005,4.257729e-005
1.389706e+000,9.382772e-005,4.274095e-005
1.390500e+000,8.073549e-005,4.303793e-005
1.391294e+000,4.011597e-005,4.325155e-005
1.392088e+000,1.124590e-005,4.330902e-005
1.392882e+000,-3.306630e-005,4.331108e-005
1.393676e+000,-7.670710e-005,4.333126e-005
1.394471e+000,-9.684901e-005,4.352927e-005
1.395265e+000,-1.057450e-004,4.387096e-005
1.396059e+000,-9.214923e-005,4.425811e-005
1.396853e+000,-7.284657e-005,4.452958e-005
1.397647e+000,-6.361486e-005,4.467959e-005
1.398441e+000,-4.582284e-005,4.481882e-005
1.399235e+000,-3.642328e-005,4.489227e-005
1.400029e+000,-3.373770e-005,4.493794e-005
1.400824e+000,-2.467384e-005,4.495842e-005
1.401618e+000,-1.695277e-005,4.494203e-005
1.402412e+000,-8.560311e-006,4.490166e-005
1.403206e+000,-2.182040e-006,4.487836e-005
1.404000e+000,5.035477e-006,4.487769e-005
1.404794e+000,8.392462e-006,4.487707e-005
1.405588e+000,2.400244e-005,4.487508e-005
1.406382e+000,3.541619e-005,4.489204e-005
1.407176e+000,3.239490e-005,4.493578e-005
1.407971e+000,5.354391e-005,4.497292e-005
1.408765e+000,1.099413e-004,4.507429e-005
1.409559e+000,1.505608e-004,4.549927e-005
1.410353e+000,1.367971e-004,4.628563e-005
1.411147e+000,6.361486e-005,4.692396e-005
1.411941e+000,-4.582284e-005,4.705799e-005
1.412735e+000,-1.310903e-004,4.712545e-005
1.413529e+000,-1.547570e-004,4.769849e-005
1.414324e+000,-1.404898e-004,4.848842e-005
1.415118e+000,-1.357900e-004,4.912798e-005
1.415912e+000,-1.458610e-004,4.971611e-005
1.416706e+000,-1.445182e-004,5.038793e-005
1.417500e+000,-1.062486e-004,5.104121e-005
1.418294e+000,-6.395056e-005,5.139008e-005
1.419088e+000,-2.803082e-005,5.151546e-005
1.419882e+000,-4.867628e-006,5.153765e-005
1.420676e+000,9.231709e-006,5.153555e-005
1.421471e+000,1.863127e-005,5.153495e-005
1.422265e+000,2.366674e-005,5.154284e-005
1.423059e+000,2.584878e-005,5.155588e-005
1.423853e+000,2.383459e-005,5.157349e-005
1.424647e+000,2.131685e-005,5.158688e-005
1.425441e+000,2.198825e-005,5.159273e-005
1.426235e+000,2.131685e-005,5.160013e-005
1.427029e+000,1.527428e-005,5.160727e-005
1.427824e+000,1.762417e-005,5.160296e-005
1.428618e+000,1.560998e-005,5.159623e-005
1.429412e+000,8.560311e-006,5.158837e-005
1.430206e+000,1.124590e-005,5.157285e-005
1.431000e+000,4.531929e-006,5.156136e-005
1.431794e+000,1.174945e-006,5.155128e-005
1.432588e+000,1.980621e-005,5.154021e-005
1.433382e+000,4.347295e-005,5.154000e-005
1.434176e+000,3.944457e-005,5.158344e-005
1.434971e+000,1.560998e-005,5.161513e-005
1.435765e+000,-2.467384e-005,5.160950e-005
1.436559e+000,-5.455100e-005,5.161535e-005
1.437353e+000,-6.663615e-005,5.169822e-005
1.438147e+000,-6.092927e-005,5.182764e-005
1.438941e+000,-4.850843e-005,5.193276e-005
1.439735e+000,-4.380865e-005,5.199708e-005
1.440529e+000,-3.508049e-005,5.204804e-005
1.441324e+000,-2.517739e-005,5.207468e-005
1.442118e+000,-1.963836e-005,5.208527e-005
1.442912e+000,-1.896696e-005,5.208961e-005
1.443706e+000,-2.030976e-005,5.209602e-005
1.444500e+000,-1.661708e-005,5.210621e-005
1.445294e+000,-1.191730e-005,5.211410e-005
1.446088e+000,-1.158160e-005,5.211830e-005
1.446882e+000,-1.191730e-005,5.212238e-005
1.447676e+000,-1.023880e-005,5.212578e-005
1.448471e+000,-1.242084e-005,5.212512e-005
1.449265e+000,-7.217518e-006,5.212361e-005
1.450059e+000,-8.728161e-006,5.212110e-005
1.450853e+000,-7.553216e-006,5.212249e-005
1.451647e+000,-7.553216e-006,5.212404e-005
1.452441e+000,-1.023880e-005,5.212506e-005
1.453235e+000,-1.023880e-005,5.212807e-005
1.454029e+000,-8.560311e-006,5.213010e-005
1.454824e+000,-8.224612e-006,5.212847e-005
1.455618e+000,-9.567407e-006,5.211709e-005
1.456412e+000,-7.553216e-006,5.210728e-005
1.457206e+000,-7.049668e-006,5.210888e-005
1.458000e+000,-1.124590e-005,5.210816e-005
1.458794e+000,-1.359579e-005,5.211183e-005
1.459588e+000,-1.426719e-005,5.211723e-005
1.460382e+000,-1.577783e-005,5.211378e-005
1.461176e+000,-1.560998e-005,5.208084e-005
1.461971e+000,-1.695277e-005,5.202120e-005
1.462765e+000,-1.762417e-005,5.194108e-005
1.463559e+000,-1.728847e-005,5.185705e-005
1.464353e+000,-1.896696e-005,5.177194e-005
1.465147e+000,-1.762417e-005,5.166746e-005
1.465941e+000,-1.795987e-005,5.158750e-005
1.466735e+000,-1.527428e-005,5.153070e-005
1.467529e+000,-1.225299e-005,5.149950e-005
1.468324e+000,-1.158160e-005,5.150360e-005
1.469118e+000,-1.124590e-005,5.150642e-005
1.469912e+000,-1.292439e-005,5.151026e-005
1.470706e+000,-1.493858e-005,5.151528e-005
1.471500e+000,-1.493858e-005,5.152193e-005
1.472294e+000,-1.393149e-005,5.152809e-005
1.473088e+000,-1.393149e-005,5.153018e-005
1.473882e+000,-1.527428e-005,5.149441e-005
1.474676e+000,-1.695277e-005,5.136136e-005
1.475471e+000,-1.728847e-005,5.118353e-005
1.476265e+000,-2.030976e-005,5.112651e-005
1.477059e+000,-2.366674e-005,5.113651e-005
1.477853e+000,-2.299535e-005,5.108416e-005
1.478647e+000,-2.299535e-005,5.094775e-005
1.479441e+000,-2.131685e-005,5.076359e-005
1.480235e+000,-2.165255e-005,5.059299e-005
1.481029e+000,-1.963836e-005,5.048950e-005
1.481824e+000,-1.560998e-005,5.044296e-005
1.482618e+000,-1.225299e-005,5.040400e-005
1.483412e+000,-1.359579e-005,5.035529e-005
1.484206e+000,-1.426719e-005,5.032655e-005
1.485000e+000,-1.426719e-005,5.032316e-005
1.485794e+000,-1.846342e-005,5.032956e-005
1.486588e+000,-1.863127e-005,5.034017e-005
1.487382e+000,-1.628138e-005,5.035050e-005
1.488176e+000,-1.426719e-005,5.035869e-005
1.488971e+000,-1.091020e-005,5.036158e-005
1.489765e+000,-4.867628e-006,5.036265e-005
1.490559e+000,-8.392462e-007,5.036205e-005
1.491353e+000,-3.524834e-006,5.036181e-005
1.492147e+000,-3.692683e-006,5.036210e-005
1.492941e+000,4.531929e-006,5.036221e-005
1.493735e+000,3.021286e-006,5.036221e-005
1.494529e+000,-2.853437e-006,5.036175e-005
1.495324e+000,2.517739e-006,5.036153e-005
1.496118e+000,7.553216e-006,5.036173e-005
1.496912e+000,2.182040e-006,5.036338e-005
1.497706e+000,-1.174945e-006,5.036256e-005
1.498500e+000,-1.057450e-005,5.036217e-005
1.499294e+000,-1.963836e-005,5.036571e-005
1.500088e+000,-3.642328e-005,5.037787e-005
1.500882e+000,-5.119402e-005,5.041953e-005
1.501676e+000,-3.642328e-005,5.050126e-005
1.502471e+000,4.867628e-006,5.054307e-005
1.503265e+000,2.735943e-005,5.054371e-005
1.504059e+000,-6.713969e-007,5.056072e-005
1.504853e+000,-3.810178e-005,5.053996e-005
1.505647e+000,-6.932174e-005,5.053751e-005
1.506441e+000,-8.476387e-005,5.059281e-005
1.507235e+000,-6.462196e-005,5.073077e-005
1.508029e+000,-5.387960e-005,5.081858e-005
1.508824e+000,-5.925078e-005,5.088399e-005
1.509618e+000,-6.327916e-005,5.097420e-005
1.510412e+000,-6.395056e-005,5.107858e-005
1.511206e+000,-4.682994e-005,5.118646e-005
1.512000e+000,-2.568093e-005,5.123773e-005
1.512794e+000,-1.359579e-005,5.124929e-005
1.513588e+000,-9.567407e-006,5.124984e-005
1.514382e+000,-1.225299e-005,5.124544e-005
1.515176e+000,5.539025e-006,5.124378e-005
1.515971e+000,1.661708e-005,5.124311e-005
1.516765e+000,3.776608e-005,5.124992e-005
1.517559e+000,6.361486e-005,5.126893e-005
1.518353e+000,6.227207e-005,5.134374e-005
1.519147e+000,3.877317e-005,5.142050e-005
1.519941e+000,2.517739e-006,5.143910e-005
1.520735e+000,-1.242084e-005,5.138606e-005
1.521529e+000,-3.860533e-006,5.125446e-005
1.522324e+000,5.035477e-007,5.115063e-005
1.523118e+000,-4.196231e-006,5.115025e-005
1.523912e+000,-2.853437e-006,5.103511e-005
1.524706e+000,-1.057450e-005,5.071045e-005
1.525500e+000,-2.098116e-005,5.032597e-005
1.526294e+000,-2.030976e-005,5.003188e-005
1.527088e+000,-1.762417e-005,4.977011e-005
1.527882e+000,-1.762417e-005,4.945564e-005
1.528676e+000,-1.762417e-005,4.924111e-005
1.529471e+000,-1.795987e-005,4.908944e-005
1.530265e+000,-1.896696e-005,4.896709e-005
1.531059e+000,-2.299535e-005,4.890222e-005
1.531853e+000,-2.366674e-005,4.889324e-005
1.532647e+000,-2.299535e-005,4.890354e-005
1.533441e+000,-1.628138e-005,4.891382e-005
1.534235e+000,-1.292439e-005,4.891291e-005
1.535029e+000,-1.258869e-005,4.891734e-005
1.535824e+000,-9.567407e-006,4.892210e-005
1.536618e+000,-4.531929e-006,4.892368e-005
1.537412e+000,-4.196231e-006,4.891572e-005
1.538206e+000,-4.196231e-006,4.887229e-005
1.539000e+000,-7.553216e-006,4.879183e-005
1.539794e+000,-9.567407e-006,4.873197e-005
1.540588e+000,-1.091020e-005,4.870413e-005
1.541382e+000,-1.158160e-005,4.864809e-005
1.542176e+000,-1.359579e-005,4.837376e-005
1.542971e+000,-1.426719e-005,4.773520e-005
1.543765e+000,-1.292439e-005,4.693110e-005
1.544559e+000,-1.393149e-005,4.644557e-005
1.545353e+000,-1.359579e-005,4.643020e-005
1.546147e+000,-1.426719e-005,4.631462e-005
1.546941e+000,-1.594568e-005,4.600588e-005
1.547735e+000,-9.567407e-006,4.546740e-005
1.548529e+000,-1.023880e-005,4.466067e-005
1.549324e+000,-1.124590e-005,4.355374e-005
1.550118e+000,-9.567407e-006,4.223236e-005
1.550912e+000,-1.493858e-005,4.076871e-005
1.551706e+000,-1.661708e-005,3.974841e-005
1.552500e+000,-1.829557e-005,3.932476e-005
1.553294e+000,-1.560998e-005,3.912787e-005
1.554088e+000,-1.309224e-005,3.905598e-005
1.554882e+000,-1.493858e-005,3.904778e-005
1.555676e+000,-1.644922e-005,3.904971e-005
1.556471e+000,-2.131685e-005,3.896734e-005
1.557265e+000,-2.198825e-005,3.883061e-005
1.558059e+000,-2.165255e-005,3.868421e-005
1.558853e+000,-1.896696e-005,3.853576e-005
1.559647e+000,-1.795987e-005,3.845599e-005
1.560441e+000,-1.829557e-005,3.844932e-005
1.561235e+000,-1.493858e-005,3.846256e-005
1.562029e+000,-1.225299e-005,3.847154e-005
1.562824e+000,-1.359579e-005,3.847472e-005
1.563618e+000,-1.493858e-005,3.846800e-005
1.564412e+000,-1.527428e-005,3.847136e-005
1.565206e+000,-1.577783e-005,3.848098e-005
1.566000e+000,-1.628138e-005,3.849094e-005
1.566794e+000,-1.963836e-005,3.850148e-005
1.567588e+000,-1.779202e-005,3.850409e-005
1.568382e+000,-1.426719e-005,3.850991e-005
1.569176e+000,-1.225299e-005,3.851748e-005
1.569971e+000,-5.203327e-006,3.849197e-005
1.570765e+000,-1.678492e-007,3.844965e-005
1.571559e+000,9.903105e-006,3.842962e-005
1.572353e+000,2.735943e-005,3.842860e-005
1.573147e+000,6.613260e-005,3.845826e-005
1.573941e+000,7.100023e-005,3.863765e-005
1.574735e+000,3.709468e-005,3.884413e-005
1.575529e+000,-1.091020e-005,3.890016e-005
1.576324e+000,-5.958648e-005,3.890074e-005
1.577118e+000,-8.644236e-005,3.901602e-005
1.577912e+000,-9.013504e-005,3.930022e-005
1.578706e+000,-1.035630e-004,3.961737e-005
1.579500e+000,-1.223621e-004,4.003131e-005
1.580294e+000,-1.049058e-004,4.060298e-005
1.581088e+000,-7.402152e-005,4.099957e-005
1.581882e+000,-4.985122e-005,4.116955e-005
1.582676e+000,-2.467384e-005,4.122505e-005
1.583471e+000,-1.510643e-006,4.121599e-005
1.584265e+000,7.217518e-006,4.117552e-005
1.585059e+000,5.203327e-006,4.112524e-005
1.585853e+000,1.174945e-006,4.107677e-005
1.586647e+000,-7.888914e-006,4.104103e-005
1.587441e+000,-1.913481e-005,4.102352e-005
1.588235e+000,-2.903792e-005,4.102807e-005
1.589029e+000,-2.970932e-005,4.105672e-005
1.589824e+000,-3.105211e-005,4.108674e-005
1.590618e+000,-2.299535e-005,4.111859e-005
1.591412e+000,-4.531929e-006,4.113325e-005
1.592206e+000,6.042573e-006,4.112758e-005
1.593000e+000,1.326009e-005,4.112236e-005
1.593794e+000,1.963836e-005,4.112654e-005
1.594588e+000,1.846342e-005,4.114029e-005
1.595382e+000,1.661708e-005,4.115274e-005
1.596176e+000,1.980621e-005,4.116159e-005
1.596971e+000,1.493858e-005,4.117456e-005
1.597765e+000,7.217518e-006,4.118057e-005
1.598559e+000,3.189136e-006,4.117905e-005
1.599353e+000,2.182040e-006,4.117811e-005
1.600147e+000,-4.867628e-006,4.117588e-005
1.600941e+000,-6.210422e-006,4.117351e-005
1.601735e+000,-5.035477e-006,4.117238e-005
1.602529e+000,-7.721065e-006,4.116970e-005
1.603324e+000,-3.524834e-006,4.116682e-005
1.604118e+000,-8.392462e-007,4.116241e-005
1.604912e+000,-3.524834e-006,4.115754e-005
1.605706e+000,-8.224612e-006,4.115087e-005
1.606500e+000,-8.560311e-006,4.114930e-005
1.607294e+000,-4.196231e-006,4.114993e-005
1.608088e+000,-7.553216e-006,4.114859e-005
1.608882e+000,-6.881819e-006,4.114773e-005
1.609676e+000,-3.524834e-006,4.114627e-005
1.610471e+000,-1.091020e-005,4.114269e-005
1.611265e+000,-1.594568e-005,4.114363e-005
1.612059e+000,-1.896696e-005,4.115106e-005
1.612853e+000,-2.668803e-005,4.116315e-005
1.613647e+000,-2.568093e-005,4.118886e-005
1.614441e+000,-2.635233e-005,4.121434e-005
1.615235e+000,-2.500954e-005,4.124114e-005
1.616029e+000,-2.500954e-005,4.126430e-005
1.616824e+000,-1.963836e-005,4.127599e-005
1.617618e+000,-1.527428e-005,4.127933e-005
1.618412e+000,-1.762417e-005,4.128562e-005
1.619206e+000,-1.896696e-005,4.128421e-005
1.620000e+000,-1.795987e-005,4.127944e-005
1.620794e+000,-2.198825e-005,4.127675e-005
1.621588e+000,-1.930266e-005,4.128001e-005
1.622382e+000,-1.779202e-005,4.129370e-005
1.623176e+000,-1.426719e-005,4.117643e-005
1.623971e+000,-1.359579e-005,4.080723e-005
1.624765e+000,-9.903105e-006,4.034882e-005
1.625559e+000,-1.225299e-005,3.997041e-005
1.626353e+000,-1.594568e-005,3.969258e-005
1.627147e+000,-1.225299e-005,3.944917e-005
1.627941e+000,-1.292439e-005,3.928101e-005
1.628735e+000,-1.091020e-005,3.916095e-005
1.629529e+000,-6.881819e-006,3.907265e-005
1.630324e+000,-5.539025e-006,3.906421e-005
1.631118e+000,-1.023880e-005,3.906474e-005
1.631912e+000,-6.546120e-006,3.906111e-005
1.632706e+000,9.735256e-006,3.905090e-005
1.633500e+000,1.191730e-005,3.905090e-005
1.634294e+000,2.652018e-005,3.905566e-005
1.635088e+000,7.167162e-005,3.906724e-005
1.635882e+000,6.797894e-005,3.924789e-005
1.636676e+000,3.541619e-005,3.941166e-005
1.637471e+000,-1.628138e-005,3.943568e-005
1.638265e+000,-6.730755e-005,3.937467e-005
1.639059e+000,-9.987030e-005,3.935593e-005
1.639853e+000,-1.018845e-004,3.940326e-005
1.640647e+000,-1.049058e-004,3.955904e-005
1.641441e+000,-1.200122e-004,3.993545e-005
1.642235e+000,-1.144732e-004,4.050070e-005
1.643029e+000,-9.315633e-005,4.097020e-005
1.643824e+000,-7.838559e-005,4.107866e-005
1.644618e+000,-7.267872e-005,4.095305e-005
1.645412e+000,-6.294347e-005,4.072301e-005
1.646206e+000,-3.810178e-005,4.054550e-005
1.647000e+000,-9.063859e-006,4.039382e-005
1.647794e+000,7.888914e-006,4.023723e-005
1.648588e+000,1.460288e-005,4.015651e-005
1.649382e+000,1.527428e-005,4.011234e-005
1.650176e+000,1.460288e-005,4.007640e-005
1.650971e+000,2.635233e-005,4.006068e-005
1.651765e+000,3.306630e-005,4.007685e-005
1.652559e+000,3.205920e-005,4.011736e-005
1.653353e+000,3.071641e-005,4.015795e-005
1.654147e+000,3.138781e-005,4.019434e-005
1.654941e+000,2.803082e-005,4.023056e-005
1.655735e+000,2.131685e-005,4.023886e-005
1.656529e+000,1.510643e-005,4.020719e-005
1.657324e+000,7.553216e-006,4.017465e-005
1.658118e+000,3.692683e-006,4.006313e-005
1.658912e+000,3.860533e-006,3.958035e-005
1.659706e+000,3.524834e-006,3.865823e-005
1.660500e+000,2.014191e-006,3.788009e-005
1.661294e+000,1.174945e-006,3.770976e-005
1.662088e+000,-1.342794e-006,3.762105e-005
1.662882e+000,-4.196231e-006,3.688659e-005
1.663676e+000,-5.539025e-006,3.583858e-005
1.664471e+000,-1.023880e-005,3.495202e-005
1.665265e+000,-1.023880e-005,3.410652e-005
1.666059e+000,-1.158160e-005,3.310336e-005
1.666853e+000,-1.594568e-005,3.208965e-005
1.667647e+000,-1.527428e-005,3.153734e-005
1.668441e+000,-1.527428e-005,3.134202e-005
1.669235e+000,-1.762417e-005,3.131394e-005
1.670029e+000,-2.047761e-005,3.132853e-005
1.670824e+000,-2.534523e-005,3.134551e-005
1.671618e+000,-2.299535e-005,3.136050e-005
1.672412e+000,-4.196231e-006,3.135891e-005
1.673206e+000,3.138781e-005,3.132586e-005
1.674000e+000,6.898604e-005,3.134705e-005
1.674794e+000,5.958648e-005,3.156496e-005
1.675588e+000,-1.275654e-005,3.171931e-005
1.676382e+000,-5.320821e-005,3.170467e-005
1.677176e+000,-4.985122e-005,3.183487e-005
1.677971e+000,-3.843748e-005,3.194345e-005
1.678765e+000,-1.225299e-005,3.200490e-005
1.679559e+000,-1.359579e-005,3.200872e-005
1.680353e+000,-5.790799e-005,3.201162e-005
1.681147e+000,-1.203479e-004,3.217698e-005
1.681941e+000,-1.633173e-004,3.288586e-005
1.682735e+000,-1.547570e-004,3.413466e-005
1.683529e+000,-1.243763e-004,3.514867e-005
1.684324e+000,-7.939269e-005,3.577345e-005
1.685118e+000,-4.347295e-005,3.604217e-005
1.685912e+000,-2.030976e-005,3.609872e-005
1.686706e+000,1.023880e-005,3.598547e-005
1.687500e+000,2.467384e-005,3.579311e-005
1.688294e+000,1.326009e-005,3.565477e-005
1.689088e+000,9.231709e-006,3.555740e-005
1.689882e+000,1.326009e-005,3.547518e-005
1.690676e+000,1.728847e-005,3.542780e-005
1.691471e+000,3.138781e-005,3.541274e-005
1.692265e+000,3.877317e-005,3.543969e-005
1.693059e+000,4.129091e-005,3.549103e-005
1.693853e+000,3.810178e-005,3.554898e-005
1.694647e+000,4.078737e-005,3.560160e-005
1.695441e+000,4.347295e-005,3.566959e-005
1.696235e+000,6.227207e-005,3.574788e-005
1.697029e+000,9.047074e-005,3.591390e-005
1.697824e+000,7.637141e-005,3.627039e-005
1.698618e+000,2.702373e-005,3.651883e-005
1.699412e+000,-3.155566e-005,3.654839e-005
1.700206e+000,-6.092927e-005,3.658843e-005
1.701000e+000,-6.260777e-005,3.674717e-005
1.701794e+000,-5.522240e-005,3.691417e-005
1.702588e+000,-5.992218e-005,3.704098e-005
1.703382e+000,-4.985122e-005,3.719053e-005
1.704176e+000,-3.390555e-005,3.729366e-005
1.704971e+000,-3.273060e-005,3.733982e-005
1.705765e+000,-4.515145e-005,3.738158e-005
1.706559e+000,-1.762417e-005,3.746590e-005
1.707353e+000,2.467384e-005,3.747698e-005
1.708147e+000,2.064546e-005,3.749747e-005
1.708941e+000,9.567407e-006,3.750772e-005
1.709735e+000,-2.232395e-005,3.750296e-005
1.710529e+000,-5.925078e-005,3.751355e-005
1.711324e+000,-5.824369e-005,3.765197e-005
1.712118e+000,-3.541619e-005,3.778306e-005
1.712912e+000,-2.702373e-005,3.782281e-005
1.713706e+000,-4.179446e-005,3.784096e-005
1.714500e+000,-6.126497e-005,3.789928e-005
1.715294e+000,-7.469291e-005,3.804366e-005
1.716088e+000,-7.150377e-005,3.826304e-005
1.716882e+000,-5.337606e-005,3.846557e-005
1.717676e+000,-4.615854e-005,3.857714e-005
1.718471e+000,-3.776608e-005,3.865946e-005
1.719265e+000,-2.652018e-005,3.871296e-005
1.720059e+000,-2.786297e-005,3.873501e-005
1.720853e+000,-1.997406e-005,3.875775e-005
1.721647e+000,-2.182040e-006,3.876497e-005
1.722441e+000,7.553216e-006,3.875719e-005
1.723235e+000,1.393149e-005,3.875156e-005
1.724029e+000,1.695277e-005,3.874995e-005
1.724824e+000,1.863127e-005,3.874995e-005
1.725618e+000,2.265965e-005,3.875193e-005
1.726412e+000,2.400244e-005,3.875608e-005
1.727206e+000,2.500954e-005,3.875674e-005
1.728000e+000,2.400244e-005,3.876071e-005
1.728794e+000,1.963836e-005,3.876265e-005
1.729588e+000,1.258869e-005,3.875983e-005
1.730382e+000,7.217518e-006,3.874708e-005
1.731176e+000,-1.678492e-007,3.873336e-005
1.731971e+000,-1.510643e-006,3.872334e-005
1.732765e+000,-2.014191e-006,3.871727e-005
1.733559e+000,-8.560311e-006,3.870983e-005
1.734353e+000,-1.292439e-005,3.870447e-005
1.735147e+000,-1.292439e-005,3.870297e-005
1.735941e+000,-1.326009e-005,3.869582e-005
1.736735e+000,-1.426719e-005,3.868877e-005
1.737529e+000,-1.544213e-005,3.868623e-005
1.738324e+000,-1.829557e-005,3.868767e-005
1.739118e+000,-2.114900e-005,3.869655e-005
1.739912e+000,-2.165255e-005,3.871397e-005
1.740706e+000,-2.198825e-005,3.873322e-005
1.741500e+000,-2.568093e-005,3.875259e-005
1.742294e+000,-2.601663e-005,3.877912e-005
1.743088e+000,-2.098116e-005,3.880606e-005
1.743882e+000,-1.863127e-005,3.882375e-005
1.744676e+000,-1.795987e-005,3.883765e-005
1.745471e+000,-1.846342e-005,3.885061e-005
1.746265e+000,-2.030976e-005,3.886224e-005
1.747059e+000,-1.493858e-005,3.887894e-005
1.747853e+000,-1.359579e-005,3.888803e-005
1.748647e+000,-1.326009e-005,3.889102e-005
1.749441e+000,-1.426719e-005,3.888243e-005
1.750235e+000,-1.560998e-005,3.883640e-005
1.751029e+000,-1.460288e-005,3.873881e-005
1.751824e+000,-1.258869e-005,3.869302e-005
1.752618e+000,-1.124590e-005,3.869856e-005
1.753412e+000,-1.493858e-005,3.867296e-005
1.754206e+000,-1.560998e-005,3.868213e-005
1.755000e+000,-1.493858e-005,3.863237e-005
1.755794e+000,-1.393149e-005,3.844303e-005
1.756588e+000,-7.217518e-006,3.815236e-005
1.757382e+000,-1.678492e-007,3.797985e-005
1.758176e+000,3.189136e-006,3.785794e-005
1.758971e+000,8.896010e-006,3.771042e-005
1.759765e+000,1.292439e-005,3.754431e-005
1.760559e+000,1.174945e-006,3.737757e-005
1.761353e+000,-1.023880e-005,3.728409e-005
1.762147e+000,-1.980621e-005,3.726039e-005
1.762941e+000,-2.400244e-005,3.726926e-005
1.763735e+000,-2.131685e-005,3.728995e-005
1.764529e+000,-2.803082e-005,3.730294e-005
1.765324e+000,-3.642328e-005,3.733516e-005
1.766118e+000,-4.515145e-005,3.737994e-005
1.766912e+000,-4.145876e-005,3.740602e-005
1.767706e+000,-4.313725e-005,3.730679e-005
1.768500e+000,-3.910887e-005,3.722059e-005
1.769294e+000,-1.896696e-005,3.722171e-005
1.770088e+000,1.091020e-005,3.723683e-005
1.770882e+000,1.359579e-005,3.723532e-005
1.771676e+000,9.903105e-006,3.724259e-005
1.772471e+000,-1.712062e-005,3.724677e-005
1.773265e+000,-4.112306e-005,3.725855e-005
1.774059e+000,-4.213016e-005,3.733040e-005
1.774853e+000,-2.064546e-005,3.740128e-005
1.775647e+000,-2.853437e-006,3.740068e-005
1.776441e+000,-3.860533e-006,3.738346e-005
1.777235e+000,1.057450e-005,3.737086e-005
1.778029e+000,6.025788e-005,3.736240e-005
1.778824e+000,5.857939e-005,3.750364e-005
1.779618e+000,2.333104e-005,3.763541e-005
1.780412e+000,-4.448005e-005,3.764322e-005
1.781206e+000,-1.122911e-004,3.770450e-005
1.782000e+000,-1.164874e-004,3.820998e-005
1.782794e+000,-8.409247e-005,3.874961e-005
1.783588e+000,-5.992218e-005,3.902831e-005
1.784382e+000,-5.253681e-005,3.916775e-005
1.785176e+000,-4.716563e-005,3.927337e-005
1.785971e+000,-3.877317e-005,3.935977e-005
1.786765e+000,-1.594568e-005,3.941971e-005
1.787559e+000,-1.426719e-005,3.942927e-005
1.788353e+000,-1.896696e-005,3.943678e-005
1.789147e+000,-1.124590e-005,3.944899e-005
1.789941e+000,-4.196231e-006,3.945041e-005
1.790735e+000,5.539025e-006,3.944631e-005
1.791529e+000,5.539025e-006,3.944214e-005
1.792324e+000,-8.392462e-007,3.943591e-005
1.793118e+000,1.846342e-006,3.942772e-005
1.793912e+000,1.695277e-005,3.942111e-005
1.794706e+000,2.937362e-005,3.942488e-005
1.795500e+000,3.508049e-005,3.945225e-005
1.796294e+000,4.464790e-005,3.949369e-005
1.797088e+000,3.172351e-005,3.956375e-005
1.797882e+000,9.903105e-006,3.960055e-005
1.798676e+000,6.546120e-006,3.960028e-005
1.799471e+000,9.231709e-006,3.959692e-005
1.800265e+000,2.064546e-005,3.959666e-005
1.801059e+000,2.064546e-005,3.960483e-005
1.801853e+000,-3.189136e-006,3.961087e-005
1.802647e+000,-1.191730e-005,3.959782e-005
1.803441e+000,-2.635233e-005,3.959373e-005
1.804235e+000,-4.380865e-005,3.961476e-005
1.805029e+000,-4.985122e-005,3.968287e-005
1.805824e+000,-5.471885e-005,3.977164e-005
1.806618e+000,-4.867628e-005,3.987319e-005
1.807412e+000,-3.004501e-005,3.994843e-005
1.808206e+000,-2.702373e-005,3.996573e-005
1.809000e+000,-3.038071e-005,3.998049e-005
1.809794e+000,-3.205920e-005,4.000440e-005
1.810588e+000,-1.628138e-005,4.003197e-005
1.811382e+000,-6.881819e-006,4.003364e-005
1.812176e+000,-1.091020e-005,4.002955e-005
1.812971e+000,-1.846342e-005,4.002693e-005
1.813765e+000,-2.903792e-005,4.003162e-005
1.814559e+000,-2.450599e-005,4.005587e-005
1.815353e+000,-1.393149e-005,4.006984e-005
1.816147e+000,-6.881819e-006,4.006702e-005
1.816941e+000,3.860533e-006,4.005358e-005
1.817735e+000,1.678492e-007,4.004158e-005
1.818529e+000,-7.553216e-006,4.003348e-005
1.819324e+000,-4.699779e-006,4.002978e-005
1.820118e+000,-6.210422e-006,4.002958e-005
1.820912e+000,-1.527428e-005,4.003111e-005
1.821706e+000,-1.863127e-005,4.003650e-005
1.822500e+000,-1.493858e-005,4.002052e-005
1.823294e+000,-1.023880e-005,3.985505e-005
1.824088e+000,-7.721065e-006,3.965734e-005
1.824882e+000,-4.867628e-006,3.960444e-005
1.825676e+000,-2.182040e-006,3.960061e-005
1.826471e+000,-1.174945e-006,3.945778e-005
1.827265e+000,-1.174945e-006,3.915512e-005
1.828059e+000,7.553216e-006,3.882337e-005
1.828853e+000,1.124590e-005,3.838331e-005
1.829647e+000,4.867628e-006,3.776240e-005
1.830441e+000,-7.553216e-006,3.729646e-005
1.831235e+000,-2.198825e-005,3.706424e-005
1.832029e+000,-2.601663e-005,3.697814e-005
1.832824e+000,-2.702373e-005,3.698107e-005
1.833618e+000,-2.568093e-005,3.701241e-005
1.834412e+000,-2.366674e-005,3.703853e-005
1.835206e+000,-1.913481e-005,3.706144e-005
1.836000e+000,-1.158160e-005,3.707711e-005
1.836794e+000,-1.258869e-005,3.708020e-005
1.837588e+000,-2.030976e-005,3.707128e-005
1.838382e+000,-2.232395e-005,3.705277e-005
1.839176e+000,-1.779202e-005,3.703625e-005
1.839971e+000,-7.217518e-006,3.700840e-005
1.840765e+000,1.393149e-005,3.698788e-005
1.841559e+000,1.057450e-005,3.699535e-005
1.842353e+000,-1.628138e-005,3.699859e-005
1.843147e+000,-3.524834e-005,3.700244e-005
1.843941e+000,-4.716563e-005,3.703928e-005
1.844735e+000,-4.850843e-005,3.712018e-005
1.845529e+000,-3.793393e-005,3.720917e-005
1.846324e+000,-3.440909e-005,3.725394e-005
1.847118e+000,-4.179446e-005,3.729498e-005
1.847912e+000,-4.783703e-005,3.736727e-005
1.848706e+000,-4.985122e-005,3.746422e-005
1.849500e+000,-4.548714e-005,3.756950e-005
1.850294e+000,-2.735943e-005,3.765609e-005
1.851088e+000,-1.393149e-005,3.768610e-005
1.851882e+000,-7.217518e-006,3.769323e-005
1.852676e+000,-3.524834e-006,3.769292e-005
1.853471e+000,-1.678492e-007,3.769291e-005
1.854265e+000,-1.678492e-007,3.769289e-005
1.855059e+000,4.196231e-006,3.769236e-005
1.855853e+000,9.903105e-006,3.769025e-005
1.856647e+000,2.349889e-006,3.769130e-005
1.857441e+000,-3.356985e-007,3.769078e-005
1.858235e+000,2.467384e-005,3.768838e-005
1.859029e+000,3.038071e-005,3.771210e-005
1.859824e+000,1.884947e-004,3.775052e-005
1.860618e+000,6.480659e-004,3.921577e-005
1.861412e+000,6.717326e-004,5.361541e-005
1.862206e+000,5.389639e-004,6.565431e-005
1.863000e+000,4.365759e-004,7.234171e-005
1.863794e+000,3.244526e-004,7.640827e-005
1.864588e+000,2.328069e-004,7.855740e-005
1.865382e+000,1.446860e-004,7.963593e-005
1.866176e+000,5.488670e-005,8.004098e-005
1.866971e+000,-1.762417e-005,8.009322e-005
1.867765e+000,-7.133593e-005,8.009476e-005
1.868559e+000,-1.183337e-004,8.018970e-005
1.869353e+000,-1.505608e-004,8.046016e-005
1.870147e+000,-1.889983e-004,8.090119e-005
1.870941e+000,-2.072938e-004,8.159180e-005
1.871735e+000,-1.931945e-004,8.241896e-005
1.872529e+000,-1.955444e-004,8.313089e-005
1.873324e+000,-2.163577e-004,8.385626e-005
1.874118e+000,-2.371710e-004,8.473701e-005
1.874912e+000,-2.512703e-004,8.578572e-005
1.875706e+000,-2.291142e-004,8.694701e-005
1.876500e+000,-2.004120e-004,8.789852e-005
1.877294e+000,-2.314641e-004,8.862046e-005
1.878088e+000,-2.744335e-004,8.957498e-005
1.878882e+000,-3.125353e-004,9.090187e-005
1.879676e+000,-3.247883e-004,9.259631e-005
1.880471e+000,-3.031357e-004,9.439240e-005
1.881265e+000,-2.861829e-004,9.592830e-005
1.882059e+000,-2.845045e-004,9.727761e-005
1.882853e+000,-2.803082e-004,9.859214e-005
1.883647e+000,-2.485847e-004,9.985084e-005
1.884441e+000,-1.955444e-004,1.008204e-004
1.885235e+000,-1.559319e-004,1.013418e-004
1.886029e+000,-1.297475e-004,1.016508e-004
1.886824e+000,-8.476387e-005,1.018946e-004
1.887618e+000,-4.448005e-005,1.020026e-004
1.888412e+000,-2.299535e-005,1.019628e-004
1.889206e+000,-8.392462e-007,1.018152e-004
1.890000e+000,1.863127e-005,1.016527e-004
1.890794e+000,2.467384e-005,1.014856e-004
1.891588e+000,1.728847e-005,1.012690e-004
1.892382e+000,2.030976e-005,1.010674e-004
1.893176e+000,3.810178e-005,1.009371e-004
1.893971e+000,4.884413e-005,1.008630e-004
1.894765e+000,7.267872e-005,1.008173e-004
1.895559e+000,8.174258e-005,1.008382e-004
1.896353e+000,6.025788e-005,1.009207e-004
1.897147e+000,3.138781e-005,1.009767e-004
1.897941e+000,7.217518e-006,1.009912e-004
1.898735e+000,-1.393149e-005,1.009887e-004
1.899529e+000,-2.215610e-005,1.009881e-004
1.900324e+000,-2.299535e-005,1.009925e-004
1.901118e+000,-3.575189e-005,1.009898e-004
1.901912e+000,-3.978027e-005,1.009928e-004
1.902706e+000,-3.306630e-005,1.010015e-004
1.903500e+000,-6.881819e-006,1.010039e-004
1.904294e+000,1.913481e-005,1.009891e-004
1.905088e+000,3.138781e-005,1.009825e-004
1.905882e+000,3.474479e-005,1.009908e-004
1.906676e+000,2.937362e-005,1.010063e-004
1.907471e+000,2.870222e-005,1.010190e-004
1.908265e+000,2.098116e-005,1.010317e-004
1.909059e+000,1.023880e-005,1.010384e-004
1.909853e+000,1.795987e-005,1.010399e-004
1.910647e+000,4.347295e-005,1.010449e-004
1.911441e+000,6.932174e-005,1.010747e-004
1.912235e+000,6.898604e-005,1.011503e-004
1.913029e+000,5.001907e-005,1.012249e-004
1.913824e+000,2.030976e-005,1.012638e-004
1.914618e+000,-3.189136e-006,1.012687e-004
1.915412e+000,-1.930266e-005,1.012672e-004
1.916206e+000,-2.769513e-005,1.012709e-004
1.917000e+000,-1.963836e-005,1.012790e-004
1.917794e+000,-1.158160e-005,1.012814e-004
1.918588e+000,-9.567407e-006,1.012798e-004
1.919382e+000,9.231709e-006,1.012764e-004
1.920176e+000,3.709468e-005,1.012711e-004
1.920971e+000,5.152972e-005,1.012826e-004
1.921765e+000,4.649424e-005,1.013161e-004
1.922559e+000,1.695277e-005,1.013498e-004
1.923353e+000,-9.567407e-006,1.013388e-004
1.924147e+000,-4.531929e-006,1.012654e-004
1.924941e+000,1.661708e-005,1.012099e-004
1.925735e+000,1.174945e-006,1.012117e-004
1.926529e+000,-2.635233e-005,1.011672e-004
1.927324e+000,-3.978027e-005,1.011390e-004
1.928118e+000,-5.287251e-005,1.011406e-004
1.928912e+000,-6.327916e-005,1.011823e-004
1.929706e+000,-4.750134e-005,1.012424e-004
1.930500e+000,-2.366674e-005,1.012251e-004
1.931294e+000,5.035477e-007,1.010058e-004
1.932088e+000,-2.182040e-006,1.005845e-004
1.932882e+000,-1.695277e-005,1.002047e-004
1.933676e+000,-2.568093e-005,9.996314e-005
1.934471e+000,-2.366674e-005,9.987320e-005
1.935265e+000,-2.467384e-005,9.985200e-005
1.936059e+000,-1.762417e-005,9.985513e-005
1.936853e+000,3.021286e-006,9.985841e-005
1.937647e+000,2.366674e-005,9.984885e-005
1.938441e+000,4.682994e-005,9.985498e-005
1.939235e+000,4.951553e-005,9.988858e-005
1.940029e+000,4.078737e-005,9.992486e-005
1.940824e+000,5.488670e-005,9.994661e-005
1.941618e+000,5.673304e-005,9.997890e-005
1.942412e+000,4.145876e-005,1.000062e-004
1.943206e+000,1.896696e-005,1.000064e-004
1.944000e+000,-1.292439e-005,9.998905e-005
1.944794e+000,-2.635233e-005,9.996520e-005
1.945588e+000,-2.903792e-005,9.994616e-005
1.946382e+000,-1.426719e-005,9.989780e-005
1.947176e+000,-2.030976e-005,9.977050e-005
1.947971e+000,-2.937362e-005,9.968395e-005
1.948765e+000,-1.493858e-005,9.968607e-005
1.949559e+000,-4.196231e-006,9.967373e-005
1.950353e+000,1.023880e-005,9.961468e-005
1.951147e+000,1.728847e-005,9.955368e-005
1.951941e+000,4.867628e-006,9.950968e-005
1.952735e+000,-3.675899e-005,9.945258e-005
1.953529e+000,-8.409247e-005,9.943443e-005
1.954324e+000,-8.828870e-005,9.952921e-005
1.955118e+000,-7.418937e-005,9.963673e-005
1.955912e+000,-5.287251e-005,9.969210e-005
1.956706e+000,-3.659113e-005,9.973178e-005
1.957500e+000,-2.299535e-005,9.974344e-005
1.958294e+000,-3.524834e-006,9.974508e-005
1.959088e+000,7.888914e-006,9.974381e-005
1.959882e+000,5.203327e-006,9.973685e-005
1.960676e+000,-4.196231e-006,9.968122e-005
1.961471e+000,-2.030976e-005,9.962729e-005
1.962265e+000,-1.191730e-005,9.961383e-005
1.963059e+000,-1.510643e-006,9.960443e-005
1.963853e+000,3.189136e-006,9.957654e-005
1.964647e+000,3.004501e-005,9.951666e-005
1.965441e+000,3.675899e-005,9.944182e-005
1.966235e+000,2.198825e-005,9.938156e-005
1.967029e+000,1.460288e-005,9.934365e-005
1.967824e+000,1.359579e-005,9.931291e-005
1.968618e+000,1.963836e-005,9.929300e-005
1.969412e+000,2.198825e-005,9.928791e-005
1.970206e+000,1.091020e-005,9.928321e-005
1.971000e+000,3.860533e-006,9.927872e-005
1.971794e+000,-9.567407e-006,9.927888e-005
1.972588e+000,-1.896696e-005,9.927944e-005
1.973382e+000,-2.030976e-005,9.928209e-005
1.974176e+000,-1.359579e-005,9.928410e-005
1.974971e+000,-1.326009e-005,9.928150e-005
1.975765e+000,-2.232395e-005,9.927608e-005
1.976559e+000,-3.273060e-005,9.927484e-005
1.977353e+000,-4.783703e-005,9.928198e-005
1.978147e+000,-4.733349e-005,9.930944e-005
1.978941e+000,-5.589380e-005,9.933918e-005
1.979735e+000,-4.263371e-005,9.938671e-005
1.980529e+000,-6.210422e-006,9.941499e-005
1.981324e+000,3.675899e-005,9.941561e-005
1.982118e+000,7.335011e-005,9.943722e-005
1.982912e+000,7.972839e-005,9.952327e-005
1.983706e+000,7.100023e-005,9.962375e-005
1.984500e+000,5.455100e-005,9.970163e-005
1.985294e+000,5.992218e-005,9.974647e-005
1.986088e+000,6.260777e-005,9.980098e-005
1.986882e+000,1.829557e-005,9.986025e-005
1.987676e+000,-4.917983e-005,9.986179e-005
1.988471e+000,-1.096056e-004,9.989501e-005
1.989265e+000,-1.384756e-004,1.000792e-004
1.990059e+000,-1.435111e-004,1.003764e-004
1.990853e+000,-1.310903e-004,1.006950e-004
1.991647e+000,-8.375677e-005,1.009559e-004
1.992441e+000,-3.776608e-005,1.010559e-004
1.993235e+000,-5.186542e-005,1.010714e-004
1.994029e+000,-9.718471e-005,1.011083e-004
1.994824e+000,-1.243763e-004,1.012519e-004
1.995618e+000,-1.109483e-004,1.014895e-004
1.996412e+000,-6.344701e-005,1.016760e-004
1.997206e+000,-1.846342e-005,1.017355e-004
1.998000e+000,-1.225299e-005,1.017380e-004
1.998794e+000,-1.493858e-005,1.017376e-004
1.999588e+000,8.560311e-006,1.017379e-004
2.000382e+000,3.340200e-005,1.017352e-004
2.001176e+000,5.220111e-005,1.017493e-004
2.001971e+000,5.622950e-005,1.017895e-004
2.002765e+000,5.270466e-005,1.018370e-004
2.003559e+000,5.807584e-005,1.018769e-004
2.004353e+000,7.301442e-005,1.019258e-004
2.005147e+000,6.596475e-005,1.020056e-004
2.005941e+000,3.340200e-005,1.020704e-004
2.006735e+000,9.903105e-006,1.020870e-004
2.007529e+000,-1.510643e-006,1.020886e-004
2.008324e+000,-1.091020e-005,1.020884e-004
2.009118e+000,-1.628138e-005,1.020891e-004
2.009912e+000,-1.158160e-005,1.020906e-004
2.010706e+000,-5.085832e-005,1.020927e-004
2.011500e+000,-1.025559e-004,1.021314e-004
2.012294e+000,-1.216907e-004,1.022891e-004
2.013088e+000,-7.066453e-005,1.025104e-004
2.013882e+000,3.273060e-005,1.025809e-004
2.014676e+000,8.174258e-005,1.025853e-004
2.015471e+000,5.992218e-005,1.026684e-004
2.016265e+000,2.517739e-006,1.026925e-004
2.017059e+000,-4.850843e-005,1.026659e-004
2.017853e+000,-5.857939e-005,1.026736e-004
2.018647e+000,-2.568093e-005,1.027031e-004
2.019441e+000,-5.874723e-006,1.027077e-004
2.020235e+000,-2.165255e-005,1.027064e-004
2.021029e+000,-4.448005e-005,1.027108e-004
2.021824e+000,-4.917983e-005,1.027400e-004
2.022618e+000,-3.910887e-005,1.027729e-004
2.023412e+000,-1.695277e-005,1.027704e-004
2.024206e+000,-2.098116e-005,1.027473e-004
2.025000e+000,-3.038071e-005,1.027476e-004
2.025794e+000,-1.326009e-005,1.027617e-004
2.026588e+000,-3.524834e-006,1.027642e-004
2.027382e+000,-4.196231e-006,1.027627e-004
2.028176e+000,-1.091020e-005,1.027067e-004
2.028971e+000,-1.695277e-005,1.026553e-004
2.029765e+000,-1.762417e-005,1.026513e-004
2.030559e+000,-1.426719e-005,1.026255e-004
2.031353e+000,-9.735256e-006,1.024328e-004
2.032147e+000,-1.292439e-005,1.022231e-004
2.032941e+000,-1.124590e-005,1.021155e-004
2.033735e+000,3.189136e-006,1.020615e-004
2.034529e+000,4.951553e-005,1.020185e-004
2.035324e+000,7.603571e-005,1.020221e-004
2.036118e+000,6.361486e-005,1.020888e-004
2.036912e+000,2.366674e-005,1.021480e-004
2.037706e+000,-1.426719e-005,1.021535e-004
2.038500e+000,-3.743038e-005,1.021511e-004
2.039294e+000,-4.045167e-005,1.021710e-004
2.040088e+000,-4.045167e-005,1.021962e-004
2.040882e+000,-6.730755e-005,1.022212e-004
2.041676e+000,-8.509956e-005,1.022913e-004
2.042471e+000,-7.133593e-005,1.024039e-004
2.043265e+000,-6.143282e-005,1.024830e-004
2.044059e+000,-4.800488e-005,1.025371e-004
2.044853e+000,-2.635233e-005,1.025595e-004
2.045647e+000,-5.539025e-006,1.025512e-004
2.046441e+000,6.546120e-006,1.025207e-004
2.047235e+000,1.124590e-005,1.025058e-004
2.048029e+000,3.860533e-006,1.025062e-004
2.048824e+000,1.846342e-006,1.025058e-004
2.049618e+000,1.846342e-006,1.025045e-004
2.050412e+000,3.524834e-006,1.024979e-004
2.051206e+000,3.524834e-006,1.024915e-004
2.052000e+000,3.189136e-006,1.024915e-004
2.052794e+000,1.309224e-005,1.024895e-004
2.053588e+000,2.383459e-005,1.024814e-004
2.054382e+000,4.045167e-005,1.024604e-004
2.055176e+000,3.776608e-005,1.024472e-004
2.055971e+000,1.057450e-005,1.024228e-004
2.056765e+000,-1.628138e-005,1.023877e-004
2.057559e+000,-3.709468e-005,1.023778e-004
2.058353e+000,-3.843748e-005,1.023878e-004
2.059147e+000,-3.843748e-005,1.023964e-004
2.059941e+000,-3.843748e-005,1.024034e-004
2.060735e+000,-4.380865e-005,1.024223e-004
2.061529e+000,-4.917983e-005,1.024514e-004
2.062324e+000,-4.246586e-005,1.024871e-004
2.063118e+000,-3.440909e-005,1.025098e-004
2.063912e+000,-2.366674e-005,1.025151e-004
2.064706e+000,-2.450599e-005,1.025145e-004
2.065500e+000,-2.299535e-005,1.025208e-004
2.066294e+000,-8.560311e-006,1.025283e-004
2.067088e+000,2.937362e-005,1.025292e-004
2.067882e+000,6.948959e-005,1.025426e-004
2.068676e+000,5.287251e-005,1.026167e-004
2.069471e+000,-2.433814e-005,1.026597e-004
2.070265e+000,-8.476387e-005,1.026683e-004
2.071059e+000,-8.677805e-005,1.027761e-004
2.071853e+000,-8.039978e-005,1.028873e-004
2.072647e+000,-8.610666e-005,1.029838e-004
2.073441e+000,-8.610666e-005,1.030968e-004
2.074235e+000,-6.898604e-005,1.032103e-004
2.075029e+000,-3.860533e-005,1.032834e-004
2.075824e+000,-8.224612e-006,1.033063e-004
2.076618e+000,2.064546e-005,1.033073e-004
2.077412e+000,4.414435e-005,1.033138e-004
2.078206e+000,4.884413e-005,1.033430e-004
2.079000e+000,3.440909e-005,1.033778e-004
2.079794e+000,1.225299e-005,1.033957e-004
2.080588e+000,1.040665e-005,1.033971e-004
2.081382e+000,1.695277e-005,1.033913e-004
2.082176e+000,2.131685e-005,1.033853e-004
2.082971e+000,8.560311e-006,1.033811e-004
2.083765e+000,-1.393149e-005,1.033720e-004
2.084559e+000,-2.098116e-005,1.033664e-004
2.085353e+000,3.860533e-006,1.033675e-004
2.086147e+000,3.407340e-005,1.033657e-004
2.086941e+000,5.421531e-005,1.033811e-004
2.087735e+000,3.541619e-005,1.034201e-004
2.088529e+000,-2.182040e-005,1.034317e-004
2.089324e+000,-7.553216e-005,1.034342e-004
2.090118e+000,-8.073549e-005,1.035211e-004
2.090912e+000,-6.965744e-005,1.036184e-004
2.091706e+000,-6.680400e-005,1.036912e-004
2.092500e+000,-6.764325e-005,1.037556e-004
2.093294e+000,-9.080644e-005,1.038068e-004
2.094088e+000,-8.812085e-005,1.038991e-004
2.094882e+000,-3.810178e-005,1.039820e-004
2.095676e+000,6.378271e-006,1.039822e-004
2.096471e+000,1.527428e-005,1.039647e-004
2.097265e+000,2.064546e-005,1.039415e-004
2.098059e+000,2.316319e-005,1.039130e-004
2.098853e+000,1.661708e-005,1.038831e-004
2.099647e+000,1.510643e-006,1.038556e-004
2.100441e+000,5.874723e-006,1.038442e-004
2.101235e+000,1.863127e-005,1.038418e-004
2.102029e+000,-3.524834e-006,1.038463e-004
2.102824e+000,-5.589380e-005,1.038463e-004
2.103618e+000,-9.416342e-005,1.038942e-004
2.104412e+000,-6.764325e-005,1.040300e-004
2.105206e+000,-6.546120e-006,1.040997e-004
2.106000e+000,5.085832e-005,1.040989e-004
2.106794e+000,8.644236e-005,1.041384e-004
2.107588e+000,9.047074e-005,1.042525e-004
2.108382e+000,9.416342e-005,1.043682e-004
2.109176e+000,8.140688e-005,1.044893e-004
2.109971e+000,2.249180e-005,1.040479e-004
2.110765e+000,-6.260777e-005,9.741682e-005
2.111559e+000,-1.277333e-004,8.980813e-005
2.112353e+000,-1.525750e-004,8.480778e-005
2.113147e+000,-1.332723e-004,8.160572e-005
2.113941e+000,-9.819181e-005,7.987995e-005
2.114735e+000,-6.630045e-005,7.898673e-005
2.115529e+000,-1.359579e-005,7.865262e-005
2.116324e+000,3.407340e-005,7.859535e-005
2.117118e+000,4.548714e-005,7.861258e-005
2.117912e+000,2.769513e-005,7.855139e-005
2.118706e+000,6.546120e-006,7.828262e-005
2.119500e+000,8.896010e-006,7.782102e-005
2.120294e+000,1.728847e-005,7.708829e-005
2.121088e+000,1.292439e-005,7.620175e-005
2.121882e+000,-8.896010e-006,7.542130e-005
2.122676e+000,-1.963836e-005,7.461132e-005
2.123471e+000,-1.628138e-005,7.361385e-005
2.124265e+000,-8.224612e-006,7.239270e-005
2.125059e+000,2.165255e-005,7.099187e-005
2.125853e+000,3.172351e-005,6.981521e-005
2.126647e+000,1.393149e-005,6.891628e-005
2.127441e+000,-3.373770e-005,6.767162e-005
2.128235e+000,-7.267872e-005,6.590312e-005
2.129029e+000,-1.243763e-004,6.363149e-005
2.129824e+000,-1.547570e-004,6.133747e-005
2.130618e+000,-1.050736e-004,5.954755e-005
2.131412e+000,-6.462196e-005,5.762153e-005
2.132206e+000,-2.433814e-005,5.545954e-005
2.133000e+000,4.313725e-005,5.317345e-005
2.133794e+000,4.414435e-005,5.134729e-005
2.134588e+000,3.071641e-005,5.020931e-005
2.135382e+000,4.145876e-005,4.946255e-005
2.136176e+000,3.004501e-005,4.897351e-005
2.136971e+000,1.057450e-005,4.876882e-005
2.137765e+000,9.567407e-006,4.870783e-005
2.138559e+000,2.400244e-005,4.869354e-005
2.139353e+000,3.541619e-005,4.871235e-005
2.140147e+000,2.668803e-005,4.874200e-005
2.140941e+000,-6.881819e-006,4.874538e-005
2.141735e+000,-2.030976e-005,4.873716e-005
2.142529e+000,-1.728847e-005,4.873716e-005
2.143324e+000,-1.829557e-005,4.869948e-005
2.144118e+000,-1.292439e-005,4.863237e-005
2.144912e+000,9.903105e-006,4.846459e-005
2.145706e+000,1.258869e-005,4.824779e-005
2.146500e+000,1.594568e-005,4.813305e-005
2.147294e+000,4.867628e-006,4.810886e-005
2.148088e+000,-9.567407e-006,4.810792e-005
2.148882e+000,-7.032883e-005,4.810452e-005
2.149676e+000,-1.119554e-004,4.825178e-005
2.150471e+000,-8.879225e-005,4.864635e-005
2.151265e+000,-4.783703e-005,4.886210e-005
2.152059e+000,-4.548714e-005,4.888510e-005
2.152853e+000,-5.941863e-005,4.891687e-005
2.153647e+000,-8.073549e-005,4.903013e-005
2.154441e+000,-7.838559e-005,4.922953e-005
2.155235e+000,-4.179446e-005,4.939612e-005
2.156029e+000,1.007095e-006,4.941351e-005
2.156824e+000,2.500954e-005,4.938573e-005
2.157618e+000,3.340200e-005,4.937933e-005
2.158412e+000,4.112306e-005,4.940111e-005
2.159206e+000,4.246586e-005,4.945221e-005
2.160000e+000,3.306630e-005,4.949987e-005
2.160794e+000,4.867628e-006,4.947424e-005
2.161588e+000,-2.601663e-005,4.932010e-005
2.162382e+000,-2.568093e-005,4.918813e-005
2.163176e+000,-6.210422e-006,4.912844e-005
2.163971e+000,1.174945e-006,4.911632e-005
2.164765e+000,6.546120e-006,4.911604e-005
2.165559e+000,1.258869e-005,4.910535e-005
2.166353e+000,1.846342e-006,4.908561e-005
2.167147e+000,-2.165255e-005,4.907321e-005
2.167941e+000,-2.836652e-005,4.908406e-005
2.168735e+000,-2.836652e-005,4.910719e-005
2.169529e+000,-4.716563e-005,4.913051e-005
2.170324e+000,-2.970932e-005,4.915801e-005
2.171118e+000,4.531929e-006,4.910056e-005
2.171912e+000,4.800488e-005,4.903107e-005
2.172706e+000,9.919890e-005,4.909653e-005
