X [s],L BICEPS BRACHII: EMG 4 [V],L BICEPS BRACHII: EMG 4->filter (FilterSlidingRMS33) [V]
0.000000e+000,0.000000e+000,0.000000e+000
7.941176e-004,0.000000e+000,0.000000e+000
1.588235e-003,0.000000e+000,0.000000e+000
2.382353e-003,0.000000e+000,0.000000e+000
3.176471e-003,0.000000e+000,0.000000e+000
3.970588e-003,0.000000e+000,0.000000e+000
4.764706e-003,0.000000e+000,0.000000e+000
5.558824e-003,0.000000e+000,0.000000e+000
6.352941e-003,0.000000e+000,0.000000e+000
7.147059e-003,0.000000e+000,0.000000e+000
7.941176e-003,0.000000e+000,0.000000e+000
8.735294e-003,0.000000e+000,0.000000e+000
9.529412e-003,0.000000e+000,0.000000e+000
1.032353e-002,0.000000e+000,0.000000e+000
1.111765e-002,0.000000e+000,0.000000e+000
1.191176e-002,0.000000e+000,0.000000e+000
1.270588e-002,0.000000e+000,0.000000e+000
1.350000e-002,0.000000e+000,0.000000e+000
1.429412e-002,0.000000e+000,0.000000e+000
1.508824e-002,0.000000e+000,0.000000e+000
1.588235e-002,0.000000e+000,0.000000e+000
1.667647e-002,0.000000e+000,0.000000e+000
1.747059e-002,0.000000e+000,0.000000e+000
1.826471e-002,0.000000e+000,0.000000e+000
1.905882e-002,0.000000e+000,0.000000e+000
1.985294e-002,0.000000e+000,0.000000e+000
2.064706e-002,0.000000e+000,0.000000e+000
2.144118e-002,0.000000e+000,0.000000e+000
2.223529e-002,0.000000e+000,0.000000e+000
2.302941e-002,0.000000e+000,0.000000e+000
2.382353e-002,0.000000e+000,0.000000e+000
2.461765e-002,0.000000e+000,0.000000e+000
2.541176e-002,0.000000e+000,0.000000e+000
2.620588e-002,0.000000e+000,0.000000e+000
2.700000e-002,0.000000e+000,0.000000e+000
2.779412e-002,0.000000e+000,0.000000e+000
2.858824e-002,0.000000e+000,0.000000e+000
2.938235e-002,0.000000e+000,0.000000e+000
3.017647e-002,0.000000e+000,0.000000e+000
3.097059e-002,0.000000e+000,0.000000e+000
3.176471e-002,0.000000e+000,0.000000e+000
3.255882e-002,0.000000e+000,0.000000e+000
3.335294e-002,0.000000e+000,0.000000e+000
3.414706e-002,0.000000e+000,0.000000e+000
3.494118e-002,0.000000e+000,0.000000e+000
3.573529e-002,0.000000e+000,0.000000e+000
3.652941e-002,0.000000e+000,0.000000e+000
3.732353e-002,0.000000e+000,0.000000e+000
3.811765e-002,0.000000e+000,0.000000e+000
3.891176e-002,0.000000e+000,0.000000e+000
3.970588e-002,0.000000e+000,0.000000e+000
4.050000e-002,0.000000e+000,0.000000e+000
4.129412e-002,0.000000e+000,0.000000e+000
4.208824e-002,0.000000e+000,0.000000e+000
4.288235e-002,0.000000e+000,0.000000e+000
4.367647e-002,0.000000e+000,0.000000e+000
4.447059e-002,0.000000e+000,0.000000e+000
4.526471e-002,0.000000e+000,0.000000e+000
4.605882e-002,0.000000e+000,0.000000e+000
4.685294e-002,0.000000e+000,0.000000e+000
4.764706e-002,0.000000e+000,0.000000e+000
4.844118e-002,0.000000e+000,0.000000e+000
4.923529e-002,0.000000e+000,0.000000e+000
5.002941e-002,0.000000e+000,0.000000e+000
5.082353e-002,0.000000e+000,0.000000e+000
5.161765e-002,0.000000e+000,0.000000e+000
5.241176e-002,0.000000e+000,0.000000e+000
5.320588e-002,0.000000e+000,0.000000e+000
5.400000e-002,0.000000e+000,0.000000e+000
5.479412e-002,0.000000e+000,0.000000e+000
5.558824e-002,0.000000e+000,0.000000e+000
5.638235e-002,0.000000e+000,0.000000e+000
5.717647e-002,0.000000e+000,0.000000e+000
5.797059e-002,0.000000e+000,0.000000e+000
5.876471e-002,0.000000e+000,0.000000e+000
5.955882e-002,0.000000e+000,0.000000e+000
6.035294e-002,0.000000e+000,0.000000e+000
6.114706e-002,0.000000e+000,0.000000e+000
6.194118e-002,0.000000e+000,0.000000e+000
6.273529e-002,0.000000e+000,0.000000e+000
6.352941e-002,0.000000e+000,0.000000e+000
6.432353e-002,0.000000e+000,0.000000e+000
6.511765e-002,0.000000e+000,0.000000e+000
6.591176e-002,0.000000e+000,0.000000e+000
6.670588e-002,0.000000e+000,0.000000e+000
6.750000e-002,0.000000e+000,0.000000e+000
6.829412e-002,0.000000e+000,0.000000e+000
6.908824e-002,0.000000e+000,0.000000e+000
6.988235e-002,0.000000e+000,0.000000e+000
7.067647e-002,0.000000e+000,0.000000e+000
7.147059e-002,0.000000e+000,0.000000e+000
7.226471e-002,0.000000e+000,0.000000e+000
7.305882e-002,0.000000e+000,0.000000e+000
7.385294e-002,0.000000e+000,0.000000e+000
7.464706e-002,0.000000e+000,0.000000e+000
7.544118e-002,0.000000e+000,0.000000e+000
7.623529e-002,0.000000e+000,0.000000e+000
7.702941e-002,0.000000e+000,0.000000e+000
7.782353e-002,0.000000e+000,0.000000e+000
7.861765e-002,0.000000e+000,0.000000e+000
7.941176e-002,0.000000e+000,0.000000e+000
8.020588e-002,0.000000e+000,0.000000e+000
8.100000e-002,0.000000e+000,0.000000e+000
8.179412e-002,0.000000e+000,0.000000e+000
8.258824e-002,0.000000e+000,0.000000e+000
8.338235e-002,0.000000e+000,0.000000e+000
8.417647e-002,0.000000e+000,0.000000e+000
8.497059e-002,0.000000e+000,0.000000e+000
8.576471e-002,0.000000e+000,0.000000e+000
8.655882e-002,0.000000e+000,0.000000e+000
8.735294e-002,0.000000e+000,0.000000e+000
8.814706e-002,0.000000e+000,0.000000e+000
8.894118e-002,0.000000e+000,0.000000e+000
8.973529e-002,0.000000e+000,0.000000e+000
9.052941e-002,0.000000e+000,0.000000e+000
9.132353e-002,0.000000e+000,0.000000e+000
9.211765e-002,0.000000e+000,0.000000e+000
9.291176e-002,0.000000e+000,0.000000e+000
9.370588e-002,0.000000e+000,0.000000e+000
9.450000e-002,-1.258869e-005,0.000000e+000
9.529412e-002,-9.567407e-006,0.000000e+000
9.608824e-002,-2.182040e-006,0.000000e+000
9.688235e-002,1.174945e-006,0.000000e+000
9.767647e-002,-3.356985e-007,0.000000e+000
9.847059e-002,-1.678492e-007,0.000000e+000
9.926471e-002,-4.364080e-006,0.000000e+000
1.000588e-001,-1.292439e-005,0.000000e+000
1.008529e-001,-1.527428e-005,0.000000e+000
1.016471e-001,-1.527428e-005,0.000000e+000
1.024412e-001,-2.047761e-005,0.000000e+000
1.032353e-001,-2.198825e-005,0.000000e+000
1.040294e-001,-1.863127e-005,0.000000e+000
1.048235e-001,-1.426719e-005,0.000000e+000
1.056176e-001,-1.191730e-005,0.000000e+000
1.064118e-001,-1.359579e-005,0.000000e+000
1.072059e-001,-1.309224e-005,0.000000e+000
1.080000e-001,-1.426719e-005,0.000000e+000
1.087941e-001,-1.493858e-005,0.000000e+000
1.095882e-001,-1.594568e-005,0.000000e+000
1.103824e-001,-1.493858e-005,0.000000e+000
1.111765e-001,-1.225299e-005,0.000000e+000
1.119706e-001,-1.393149e-005,0.000000e+000
1.127647e-001,-1.493858e-005,0.000000e+000
1.135588e-001,-1.326009e-005,0.000000e+000
1.143529e-001,-1.359579e-005,0.000000e+000
1.151471e-001,-1.023880e-005,0.000000e+000
1.159412e-001,-1.107805e-005,0.000000e+000
1.167353e-001,-1.124590e-005,0.000000e+000
1.175294e-001,-9.567407e-006,0.000000e+000
1.183235e-001,-9.567407e-006,0.000000e+000
1.191176e-001,-8.896010e-006,0.000000e+000
1.199118e-001,-8.224612e-006,0.000000e+000
1.207059e-001,-1.023880e-005,0.000000e+000
1.215000e-001,-8.896010e-006,0.000000e+000
1.222941e-001,-9.063859e-006,0.000000e+000
1.230882e-001,-9.903105e-006,0.000000e+000
1.238824e-001,-1.225299e-005,0.000000e+000
1.246765e-001,-1.023880e-005,0.000000e+000
1.254706e-001,-9.231709e-006,0.000000e+000
1.262647e-001,-1.091020e-005,0.000000e+000
1.270588e-001,-1.091020e-005,0.000000e+000
1.278529e-001,-1.124590e-005,0.000000e+000
1.286471e-001,-1.258869e-005,0.000000e+000
1.294412e-001,-1.091020e-005,0.000000e+000
1.302353e-001,-1.091020e-005,0.000000e+000
1.310294e-001,-1.191730e-005,0.000000e+000
1.318235e-001,-1.158160e-005,0.000000e+000
1.326176e-001,-1.426719e-005,0.000000e+000
1.334118e-001,-1.225299e-005,0.000000e+000
1.342059e-001,-1.258869e-005,0.000000e+000
1.350000e-001,-1.292439e-005,0.000000e+000
1.357941e-001,-1.493858e-005,0.000000e+000
1.365882e-001,-1.258869e-005,0.000000e+000
1.373824e-001,-1.493858e-005,0.000000e+000
1.381765e-001,-2.064546e-005,0.000000e+000
1.389706e-001,-2.702373e-005,0.000000e+000
1.397647e-001,-3.944457e-005,0.000000e+000
1.405588e-001,-3.642328e-005,0.000000e+000
1.413529e-001,-2.702373e-005,0.000000e+000
1.421471e-001,-1.661708e-005,0.000000e+000
1.429412e-001,-1.326009e-005,0.000000e+000
1.437353e-001,-1.577783e-005,0.000000e+000
1.445294e-001,-1.896696e-005,0.000000e+000
1.453235e-001,-2.433814e-005,0.000000e+000
1.461176e-001,-2.131685e-005,0.000000e+000
1.469118e-001,-2.182040e-006,0.000000e+000
1.477059e-001,3.407340e-005,0.000000e+000
1.485000e-001,6.932174e-005,0.000000e+000
1.492941e-001,7.838559e-005,0.000000e+000
1.500882e-001,6.596475e-005,0.000000e+000
1.508824e-001,4.313725e-005,0.000000e+000
1.516765e-001,1.091020e-005,0.000000e+000
1.524706e-001,-3.323415e-005,0.000000e+000
1.532647e-001,-5.790799e-005,0.000000e+000
1.540588e-001,-5.555810e-005,0.000000e+000
1.548529e-001,-4.464790e-005,0.000000e+000
1.556471e-001,-3.810178e-005,0.000000e+000
1.564412e-001,-4.985122e-005,0.000000e+000
1.572353e-001,-8.342107e-005,0.000000e+000
1.580294e-001,-9.214923e-005,0.000000e+000
1.588235e-001,-7.536431e-005,0.000000e+000
1.596176e-001,-4.548714e-005,0.000000e+000
1.604118e-001,-1.091020e-005,0.000000e+000
1.612059e-001,1.779202e-005,0.000000e+000
1.620000e-001,3.994812e-005,0.000000e+000
1.627941e-001,4.850843e-005,0.000000e+000
1.635882e-001,4.649424e-005,0.000000e+000
1.643824e-001,3.608759e-005,0.000000e+000
1.651765e-001,2.182040e-005,0.000000e+000
1.659706e-001,9.231709e-006,0.000000e+000
1.667647e-001,-8.224612e-006,0.000000e+000
1.675588e-001,-2.987716e-005,0.000000e+000
1.683529e-001,-6.227207e-005,0.000000e+000
1.691471e-001,-7.368582e-005,0.000000e+000
1.699412e-001,-5.203327e-005,0.000000e+000
1.707353e-001,-2.702373e-005,0.000000e+000
1.715294e-001,-1.359579e-005,0.000000e+000
1.723235e-001,-9.735256e-006,0.000000e+000
1.731176e-001,-7.721065e-006,0.000000e+000
1.739118e-001,-9.567407e-006,0.000000e+000
1.747059e-001,-1.527428e-005,0.000000e+000
1.755000e-001,-2.114900e-005,0.000000e+000
1.762941e-001,-1.091020e-005,0.000000e+000
1.770882e-001,2.467384e-005,0.000000e+000
1.778824e-001,5.354391e-005,0.000000e+000
1.786765e-001,5.522240e-005,0.000000e+000
1.794706e-001,4.481575e-005,0.000000e+000
1.802647e-001,2.668803e-005,0.000000e+000
1.810588e-001,-5.035477e-007,0.000000e+000
1.818529e-001,-3.541619e-005,0.000000e+000
1.826471e-001,-5.555810e-005,0.000000e+000
1.834412e-001,-4.783703e-005,0.000000e+000
1.842353e-001,-3.776608e-005,0.000000e+000
1.850294e-001,-3.675899e-005,0.000000e+000
1.858235e-001,-3.138781e-005,0.000000e+000
1.866176e-001,-2.870222e-005,0.000000e+000
1.874118e-001,-2.568093e-005,0.000000e+000
1.882059e-001,-2.265965e-005,0.000000e+000
1.890000e-001,-2.098116e-005,0.000000e+000
1.897941e-001,-2.568093e-005,0.000000e+000
1.905882e-001,-2.366674e-005,0.000000e+000
1.913824e-001,-1.628138e-005,0.000000e+000
1.921765e-001,-1.695277e-005,0.000000e+000
1.929706e-001,-1.661708e-005,0.000000e+000
1.937647e-001,-3.591974e-005,0.000000e+000
1.945588e-001,-6.059357e-005,0.000000e+000
1.953529e-001,-5.622950e-005,0.000000e+000
1.961471e-001,-3.776608e-005,0.000000e+000
1.969412e-001,-1.963836e-005,0.000000e+000
1.977353e-001,-2.853437e-006,0.000000e+000
1.985294e-001,1.728847e-005,0.000000e+000
1.993235e-001,1.460288e-005,0.000000e+000
2.001176e-001,4.867628e-006,0.000000e+000
2.009118e-001,1.560998e-005,0.000000e+000
2.017059e-001,3.172351e-005,0.000000e+000
2.025000e-001,3.810178e-005,0.000000e+000
2.032941e-001,3.709468e-005,0.000000e+000
2.040882e-001,2.903792e-005,0.000000e+000
2.048824e-001,1.359579e-005,0.000000e+000
2.056765e-001,6.546120e-006,0.000000e+000
2.064706e-001,1.057450e-005,0.000000e+000
2.072647e-001,3.189136e-006,0.000000e+000
2.080588e-001,-1.191730e-005,0.000000e+000
2.088529e-001,-2.500954e-005,0.000000e+000
2.096471e-001,-2.735943e-005,0.000000e+000
2.104412e-001,-2.937362e-005,0.000000e+000
2.112353e-001,-3.440909e-005,0.000000e+000
2.120294e-001,-3.541619e-005,0.000000e+000
2.128235e-001,-3.054856e-005,0.000000e+000
2.136176e-001,-2.803082e-005,0.000000e+000
2.144118e-001,-2.719158e-005,0.000000e+000
2.152059e-001,-2.333104e-005,0.000000e+000
2.160000e-001,-2.299535e-005,0.000000e+000
2.167941e-001,-2.568093e-005,0.000000e+000
2.175882e-001,-2.433814e-005,0.000000e+000
2.183824e-001,-2.635233e-005,0.000000e+000
2.191765e-001,-3.205920e-005,0.000000e+000
2.199706e-001,-2.970932e-005,0.000000e+000
2.207647e-001,-2.870222e-005,0.000000e+000
2.215588e-001,-2.165255e-005,0.000000e+000
2.223529e-001,-1.594568e-005,0.000000e+000
2.231471e-001,-1.225299e-005,0.000000e+000
2.239412e-001,-4.531929e-006,0.000000e+000
2.247353e-001,3.524834e-006,0.000000e+000
2.255294e-001,7.888914e-006,0.000000e+000
2.263235e-001,7.553216e-006,0.000000e+000
2.271176e-001,9.567407e-006,0.000000e+000
2.279118e-001,8.560311e-006,0.000000e+000
2.287059e-001,4.867628e-006,0.000000e+000
2.295000e-001,-1.510643e-006,0.000000e+000
2.302941e-001,1.174945e-006,0.000000e+000
2.310882e-001,-3.189136e-006,0.000000e+000
2.318824e-001,-1.225299e-005,0.000000e+000
2.326765e-001,-1.460288e-005,0.000000e+000
2.334706e-001,-1.628138e-005,0.000000e+000
2.342647e-001,-2.165255e-005,0.000000e+000
2.350588e-001,-2.316319e-005,0.000000e+000
2.358529e-001,-2.131685e-005,0.000000e+000
2.366471e-001,-1.896696e-005,0.000000e+000
2.374412e-001,-1.762417e-005,0.000000e+000
2.382353e-001,-1.560998e-005,0.000000e+000
2.390294e-001,-1.493858e-005,0.000000e+000
2.398235e-001,-1.510643e-005,0.000000e+000
2.406176e-001,-8.896010e-006,0.000000e+000
2.414118e-001,-9.735256e-006,0.000000e+000
2.422059e-001,-9.567407e-006,0.000000e+000
2.430000e-001,-1.023880e-005,0.000000e+000
2.437941e-001,-9.567407e-006,0.000000e+000
2.445882e-001,-1.141375e-005,0.000000e+000
2.453824e-001,-1.225299e-005,0.000000e+000
2.461765e-001,-1.426719e-005,0.000000e+000
2.469706e-001,-1.493858e-005,0.000000e+000
2.477647e-001,-1.460288e-005,0.000000e+000
2.485588e-001,-1.359579e-005,0.000000e+000
2.493529e-001,-1.158160e-005,2.206658e-005
2.501471e-001,-1.426719e-005,2.207626e-005
2.509412e-001,-1.795987e-005,2.209094e-005
2.517353e-001,-1.510643e-005,2.211417e-005
2.525294e-001,-1.023880e-005,2.213060e-005
2.533235e-001,-9.903105e-006,2.213814e-005
2.541176e-001,-7.888914e-006,2.214520e-005
2.549118e-001,-5.539025e-006,2.214967e-005
2.557059e-001,-9.735256e-006,2.215187e-005
2.565000e-001,-8.224612e-006,2.215869e-005
2.572941e-001,-1.393149e-005,2.216355e-005
2.580882e-001,-2.735943e-005,2.217749e-005
2.588824e-001,-3.910887e-005,2.223117e-005
2.596765e-001,-4.783703e-005,2.234045e-005
2.604706e-001,-5.387960e-005,2.250297e-005
2.612647e-001,-4.716563e-005,2.270747e-005
2.620588e-001,-2.265965e-005,2.286293e-005
2.628529e-001,1.393149e-005,2.289866e-005
2.636471e-001,4.414435e-005,2.291216e-005
2.644412e-001,5.589380e-005,2.304719e-005
2.652353e-001,4.615854e-005,2.326204e-005
2.660294e-001,2.182040e-005,2.340743e-005
2.668235e-001,-4.867628e-006,2.343980e-005
2.676176e-001,-2.450599e-005,2.344141e-005
2.684118e-001,-3.172351e-005,2.348217e-005
2.692059e-001,-2.836652e-005,2.355031e-005
2.700000e-001,-2.769513e-005,2.360466e-005
2.707941e-001,-3.407340e-005,2.365634e-005
2.715882e-001,-4.481575e-005,2.373436e-005
2.723824e-001,-3.776608e-005,2.386873e-005
2.731765e-001,-3.038071e-005,2.396370e-005
2.739706e-001,-4.397650e-005,2.402495e-005
2.747647e-001,-4.112306e-005,2.415279e-005
2.755588e-001,-1.829557e-005,2.426402e-005
2.763529e-001,1.174945e-006,2.428598e-005
2.771471e-001,9.231709e-006,2.428607e-005
2.779412e-001,1.644922e-005,2.429166e-005
2.787353e-001,2.400244e-005,2.430939e-005
2.795294e-001,2.400244e-005,2.434710e-005
2.803235e-001,1.393149e-005,2.438475e-005
2.811176e-001,-2.299535e-005,2.439742e-005
2.819118e-001,-5.387960e-005,2.443191e-005
2.827059e-001,-4.179446e-005,2.462038e-005
2.835000e-001,-2.433814e-005,2.473310e-005
2.842941e-001,-8.224612e-006,2.477121e-005
2.850882e-001,4.867628e-006,2.477556e-005
2.858824e-001,2.265965e-005,2.477708e-005
2.866765e-001,3.407340e-005,2.481006e-005
2.874706e-001,3.810178e-005,2.488446e-005
2.882647e-001,2.735943e-005,2.497718e-005
2.890588e-001,1.728847e-005,2.502486e-005
2.898529e-001,4.531929e-006,2.504387e-005
2.906471e-001,-5.706874e-006,2.504518e-005
2.914412e-001,-1.493858e-005,2.504725e-005
2.922353e-001,-2.836652e-005,2.506143e-005
2.930294e-001,-3.541619e-005,2.511251e-005
2.938235e-001,-3.508049e-005,2.519192e-005
2.946176e-001,-3.373770e-005,2.526958e-005
2.954118e-001,-3.105211e-005,2.534121e-005
2.962059e-001,-3.038071e-005,2.540172e-005
2.970000e-001,-2.870222e-005,2.545952e-005
2.977941e-001,-2.836652e-005,2.551099e-005
2.985882e-001,-2.702373e-005,2.556117e-005
2.993824e-001,-2.467384e-005,2.560662e-005
3.001765e-001,-2.366674e-005,2.564445e-005
3.009706e-001,-2.232395e-005,2.567921e-005
3.017647e-001,-1.980621e-005,2.571009e-005
3.025588e-001,-1.376364e-005,2.573438e-005
3.033529e-001,-1.225299e-005,2.574610e-005
3.041471e-001,-9.567407e-006,2.575538e-005
3.049412e-001,-9.567407e-006,2.576104e-005
3.057353e-001,-9.735256e-006,2.576670e-005
3.065294e-001,-7.553216e-006,2.577255e-005
3.073235e-001,-8.224612e-006,2.577608e-005
3.081176e-001,-1.158160e-005,2.578025e-005
3.089118e-001,-1.326009e-005,2.578854e-005
3.097059e-001,-1.527428e-005,2.579939e-005
3.105000e-001,-1.359579e-005,2.581379e-005
3.112941e-001,-1.158160e-005,2.582519e-005
3.120882e-001,-1.191730e-005,2.583346e-005
3.128824e-001,-1.628138e-005,2.584221e-005
3.136765e-001,-2.568093e-005,2.585854e-005
3.144706e-001,-3.810178e-005,2.589912e-005
3.152647e-001,-5.119402e-005,2.598823e-005
3.160588e-001,-4.817273e-005,2.614832e-005
3.168529e-001,-3.978027e-005,2.628925e-005
3.176471e-001,-1.661708e-005,2.638493e-005
3.184412e-001,1.124590e-005,2.640159e-005
3.192353e-001,2.249180e-005,2.640922e-005
3.200294e-001,1.863127e-005,2.643970e-005
3.208235e-001,1.460288e-005,2.646060e-005
3.216176e-001,1.326009e-005,2.647343e-005
3.224118e-001,3.189136e-006,2.648400e-005
3.232059e-001,-4.196231e-006,2.648462e-005
3.240000e-001,2.182040e-006,2.648567e-005
3.247941e-001,1.460288e-005,2.648596e-005
3.255882e-001,1.661708e-005,2.649878e-005
3.263824e-001,1.678492e-006,2.651536e-005
3.271765e-001,-4.531929e-006,2.651553e-005
3.279706e-001,-5.539025e-006,2.651677e-005
3.287647e-001,-1.359579e-005,2.651861e-005
3.295588e-001,-2.299535e-005,2.652971e-005
3.303529e-001,-3.205920e-005,2.656143e-005
3.311471e-001,-2.970932e-005,2.662297e-005
3.319412e-001,-2.198825e-005,2.667571e-005
3.327353e-001,-1.628138e-005,2.670455e-005
3.335294e-001,-1.124590e-005,2.672036e-005
3.343235e-001,7.888914e-006,2.672789e-005
3.351176e-001,1.594568e-005,2.673160e-005
3.359118e-001,6.210422e-006,2.674674e-005
3.367059e-001,-1.678492e-007,2.674904e-005
3.375000e-001,-1.846342e-006,2.674904e-005
3.382941e-001,-7.217518e-006,2.674924e-005
3.390882e-001,-1.292439e-005,2.675234e-005
3.398824e-001,-1.863127e-005,2.676228e-005
3.406765e-001,-2.635233e-005,2.678293e-005
3.414706e-001,-2.098116e-005,2.682419e-005
3.422647e-001,-1.493858e-005,2.685030e-005
3.430588e-001,-2.467384e-005,2.686354e-005
3.438529e-001,-2.803082e-005,2.689960e-005
3.446471e-001,-2.735943e-005,2.693670e-005
3.454412e-001,-2.534523e-005,2.697551e-005
3.462353e-001,-1.947051e-005,2.701313e-005
3.470294e-001,-2.030976e-005,2.703538e-005
3.478235e-001,-2.568093e-005,2.705966e-005
3.486176e-001,-2.366674e-005,2.709844e-005
3.494118e-001,-1.997406e-005,2.713022e-005
3.502059e-001,-1.628138e-005,2.714383e-005
3.510000e-001,-1.661708e-005,2.714569e-005
3.517941e-001,-1.661708e-005,2.714820e-005
3.525882e-001,-1.762417e-005,2.713980e-005
3.533824e-001,-1.560998e-005,2.712966e-005
3.541765e-001,-1.359579e-005,2.712358e-005
3.549706e-001,-1.158160e-005,2.712248e-005
3.557647e-001,-8.560311e-006,2.712202e-005
3.565588e-001,-1.997406e-005,2.711547e-005
3.573529e-001,-2.970932e-005,2.712883e-005
3.581471e-001,-2.047761e-005,2.716866e-005
3.589412e-001,-9.567407e-006,2.718016e-005
3.597353e-001,-1.846342e-006,2.717062e-005
3.605294e-001,4.531929e-006,2.715774e-005
3.613235e-001,7.553216e-006,2.715014e-005
3.621176e-001,3.189136e-006,2.714210e-005
3.629118e-001,-1.846342e-006,2.712960e-005
3.637059e-001,-9.567407e-006,2.711948e-005
3.645000e-001,-1.158160e-005,2.711400e-005
3.652941e-001,-1.023880e-005,2.711572e-005
3.660882e-001,-4.867628e-006,2.711467e-005
3.668824e-001,3.189136e-006,2.710863e-005
3.676765e-001,4.531929e-006,2.710386e-005
3.684706e-001,-1.846342e-006,2.709968e-005
3.692647e-001,-8.224612e-006,2.709523e-005
3.700588e-001,-1.527428e-005,2.709523e-005
3.708529e-001,-2.702373e-005,2.710278e-005
3.716471e-001,-3.709468e-005,2.714101e-005
3.724412e-001,-4.750134e-005,2.721681e-005
3.732353e-001,-7.032883e-005,2.734280e-005
3.740294e-001,-6.596475e-005,2.762069e-005
3.748235e-001,-2.098116e-005,2.786443e-005
3.756176e-001,2.333104e-005,2.788471e-005
3.764118e-001,4.280156e-005,2.790899e-005
3.772059e-001,5.404745e-005,2.800655e-005
3.780000e-001,5.001907e-005,2.816499e-005
3.787941e-001,3.340200e-005,2.829717e-005
3.795882e-001,9.231709e-006,2.835320e-005
3.803824e-001,-7.553216e-006,2.835130e-005
3.811765e-001,-1.091020e-005,2.834653e-005
3.819706e-001,-7.553216e-006,2.834568e-005
3.827647e-001,-1.225299e-005,2.833745e-005
3.835588e-001,-1.980621e-005,2.833745e-005
3.843529e-001,-1.963836e-005,2.835059e-005
3.851471e-001,-2.232395e-005,2.836286e-005
3.859412e-001,-2.836652e-005,2.837831e-005
3.867353e-001,-3.306630e-005,2.841454e-005
3.875294e-001,-3.843748e-005,2.846327e-005
3.883235e-001,-3.810178e-005,2.852202e-005
3.891176e-001,-3.508049e-005,2.856227e-005
3.899118e-001,-3.138781e-005,2.854413e-005
3.907059e-001,-2.903792e-005,2.852507e-005
3.915000e-001,-2.719158e-005,2.853138e-005
3.922941e-001,-2.383459e-005,2.855722e-005
3.930882e-001,-2.030976e-005,2.857908e-005
3.938824e-001,-1.896696e-005,2.858819e-005
3.946765e-001,-1.896696e-005,2.858819e-005
3.954706e-001,-1.762417e-005,2.857524e-005
3.962647e-001,-1.225299e-005,2.856722e-005
3.970588e-001,-1.091020e-005,2.857532e-005
3.978529e-001,-1.023880e-005,2.851720e-005
3.986471e-001,-1.426719e-005,2.825350e-005
3.994412e-001,-1.795987e-005,2.791668e-005
4.002353e-001,-1.359579e-005,2.768592e-005
4.010294e-001,-1.023880e-005,2.758936e-005
4.018235e-001,-7.049668e-006,2.758854e-005
4.026176e-001,-2.299535e-005,2.752759e-005
4.034118e-001,-2.903792e-005,2.736372e-005
4.042059e-001,-2.500954e-005,2.723285e-005
4.050000e-001,-2.568093e-005,2.715274e-005
4.057941e-001,-2.383459e-005,2.710624e-005
4.065882e-001,-6.881819e-006,2.699339e-005
4.073824e-001,1.023880e-005,2.658254e-005
4.081765e-001,2.400244e-005,2.607532e-005
4.089706e-001,3.860533e-005,2.576176e-005
4.097647e-001,4.615854e-005,2.572597e-005
4.105588e-001,3.843748e-005,2.585018e-005
4.113529e-001,2.467384e-005,2.592159e-005
4.121471e-001,1.258869e-005,2.586089e-005
4.129412e-001,-6.546120e-006,2.572540e-005
4.137353e-001,-8.224612e-006,2.559391e-005
4.145294e-001,-1.174945e-005,2.551698e-005
4.153235e-001,-3.642328e-005,2.549587e-005
4.161176e-001,-5.992218e-005,2.557329e-005
4.169118e-001,-6.009003e-005,2.579172e-005
4.177059e-001,-3.944457e-005,2.595900e-005
4.185000e-001,5.035477e-007,2.581617e-005
4.192941e-001,2.937362e-005,2.547909e-005
4.200882e-001,3.910887e-005,2.536354e-005
4.208824e-001,2.668803e-005,2.541367e-005
4.216765e-001,5.203327e-006,2.544669e-005
4.224706e-001,-1.795987e-005,2.544246e-005
4.232647e-001,-3.340200e-005,2.545891e-005
4.240588e-001,-4.179446e-005,2.552288e-005
4.248529e-001,-3.709468e-005,2.561714e-005
4.256471e-001,-3.189136e-005,2.567480e-005
4.264412e-001,-3.105211e-005,2.573043e-005
4.272353e-001,-3.038071e-005,2.575242e-005
4.280294e-001,-3.608759e-005,2.563194e-005
4.288235e-001,-4.498360e-005,2.552317e-005
4.296176e-001,-3.776608e-005,2.552411e-005
4.304118e-001,-2.568093e-005,2.556861e-005
4.312059e-001,-1.829557e-005,2.560964e-005
4.320000e-001,-1.292439e-005,2.555240e-005
4.327941e-001,-1.023880e-005,2.536980e-005
4.335882e-001,-9.231709e-006,2.523237e-005
4.343824e-001,-7.553216e-006,2.514760e-005
4.351765e-001,-8.392462e-006,2.506552e-005
4.359706e-001,-6.546120e-006,2.500734e-005
4.367647e-001,-2.853437e-006,2.495756e-005
4.375588e-001,-1.846342e-006,2.491597e-005
4.383529e-001,-3.189136e-006,2.488335e-005
4.391471e-001,-8.896010e-006,2.485581e-005
4.399412e-001,-2.165255e-005,2.481860e-005
4.407353e-001,-2.098116e-005,2.481275e-005
4.415294e-001,-9.231709e-006,2.482398e-005
4.423235e-001,5.035477e-007,2.481101e-005
4.431176e-001,2.853437e-006,2.479330e-005
4.439118e-001,-1.678492e-007,2.471082e-005
4.447059e-001,-5.874723e-006,2.447308e-005
4.455000e-001,-4.531929e-006,2.426875e-005
4.462941e-001,-1.678492e-007,2.417634e-005
4.470882e-001,-2.182040e-006,2.415093e-005
4.478824e-001,-7.721065e-006,2.415071e-005
4.486765e-001,-1.359579e-005,2.413492e-005
4.494706e-001,-1.728847e-005,2.413305e-005
4.502647e-001,-2.702373e-005,2.415120e-005
4.510588e-001,-4.582284e-005,2.418326e-005
4.518529e-001,-5.387960e-005,2.425515e-005
4.526471e-001,-4.649424e-005,2.435024e-005
4.534412e-001,-3.675899e-005,2.440156e-005
4.542353e-001,-2.467384e-005,2.443469e-005
4.550294e-001,-1.493858e-005,2.446231e-005
4.558235e-001,-5.874723e-006,2.447404e-005
4.566176e-001,2.182040e-006,2.446901e-005
4.574118e-001,8.560311e-006,2.446866e-005
4.582059e-001,1.728847e-005,2.446418e-005
4.590000e-001,2.249180e-005,2.444292e-005
4.597941e-001,1.963836e-005,2.442711e-005
4.605882e-001,1.191730e-005,2.439598e-005
4.613824e-001,4.867628e-006,2.432788e-005
4.621765e-001,9.903105e-006,2.424719e-005
4.629706e-001,7.888914e-006,2.419229e-005
4.637647e-001,1.846342e-006,2.414462e-005
4.645588e-001,-3.524834e-006,2.409603e-005
4.653529e-001,-1.359579e-005,2.406086e-005
4.661471e-001,-2.366674e-005,2.403808e-005
4.669412e-001,-2.702373e-005,2.403150e-005
4.677353e-001,-2.601663e-005,2.404064e-005
4.685294e-001,-2.601663e-005,2.403947e-005
4.693235e-001,-2.500954e-005,2.401621e-005
4.701176e-001,-2.215610e-005,2.399916e-005
4.709118e-001,-2.165255e-005,2.397706e-005
4.717059e-001,-2.131685e-005,2.397706e-005
4.725000e-001,-2.131685e-005,2.399035e-005
4.732941e-001,-1.913481e-005,2.401053e-005
4.740882e-001,-1.594568e-005,2.403344e-005
4.748824e-001,-1.560998e-005,2.404946e-005
4.756765e-001,-1.426719e-005,2.406147e-005
4.764706e-001,-1.426719e-005,2.407117e-005
4.772647e-001,-1.527428e-005,2.407857e-005
4.780588e-001,-1.712062e-005,2.408915e-005
4.788529e-001,-1.829557e-005,2.410696e-005
4.796471e-001,-2.702373e-005,2.412891e-005
4.804412e-001,-2.903792e-005,2.417696e-005
4.812353e-001,-2.400244e-005,2.423177e-005
4.820294e-001,-2.030976e-005,2.425974e-005
4.828235e-001,-1.527428e-005,2.427282e-005
4.836176e-001,-8.224612e-006,2.427073e-005
4.844118e-001,-1.510643e-006,2.424440e-005
4.852059e-001,1.174945e-006,2.420928e-005
4.860000e-001,5.874723e-006,2.417947e-005
4.867941e-001,5.203327e-006,2.415804e-005
4.875882e-001,3.021286e-006,2.413935e-005
4.883824e-001,2.853437e-006,2.412387e-005
4.891765e-001,-8.392462e-007,2.410967e-005
4.899706e-001,-5.874723e-006,2.409464e-005
4.907647e-001,-1.258869e-005,2.409169e-005
4.915588e-001,-1.728847e-005,2.409590e-005
4.923529e-001,-1.661708e-005,2.410960e-005
4.931471e-001,-1.460288e-005,2.412091e-005
4.939412e-001,-1.258869e-005,2.412895e-005
4.947353e-001,-1.376364e-005,2.413081e-005
4.955294e-001,-1.359579e-005,2.413340e-005
4.963235e-001,-1.493858e-005,2.413217e-005
4.971176e-001,-1.493858e-005,2.413217e-005
4.979118e-001,-9.063859e-006,2.413282e-005
4.987059e-001,-6.881819e-006,2.412605e-005
4.995000e-001,-9.567407e-006,2.412032e-005
5.002941e-001,-1.762417e-005,2.411292e-005
5.010882e-001,-2.668803e-005,2.411213e-005
5.018824e-001,-3.978027e-005,2.414408e-005
5.026765e-001,-5.119402e-005,2.424134e-005
5.034706e-001,-5.119402e-005,2.440648e-005
5.042647e-001,-4.145876e-005,2.457285e-005
5.050588e-001,-2.182040e-005,2.468200e-005
5.058529e-001,1.795987e-005,2.470659e-005
5.066471e-001,4.750134e-005,2.472302e-005
5.074412e-001,4.448005e-005,2.485549e-005
5.082353e-001,3.340200e-005,2.493416e-005
5.090294e-001,2.500954e-005,2.490772e-005
5.098235e-001,8.560311e-006,2.480118e-005
5.106176e-001,-4.867628e-006,2.461883e-005
5.114118e-001,-7.553216e-006,2.447606e-005
5.122059e-001,-1.560998e-005,2.444635e-005
5.130000e-001,-2.601663e-005,2.444958e-005
5.137941e-001,-2.568093e-005,2.436660e-005
5.145882e-001,-4.112306e-005,2.420500e-005
5.153824e-001,-4.985122e-005,2.417607e-005
5.161765e-001,-4.380865e-005,2.430804e-005
5.169706e-001,-2.601663e-005,2.443189e-005
5.177647e-001,-9.567407e-006,2.443687e-005
5.185588e-001,7.553216e-006,2.437718e-005
5.193529e-001,2.047761e-005,2.432830e-005
5.201471e-001,3.105211e-005,2.430553e-005
5.209412e-001,2.803082e-005,2.429263e-005
5.217353e-001,1.712062e-005,2.421235e-005
5.225294e-001,1.023880e-005,2.413771e-005
5.233235e-001,-3.524834e-006,2.408368e-005
5.241176e-001,-1.997406e-005,2.395630e-005
5.249118e-001,-3.306630e-005,2.387025e-005
5.257059e-001,-3.457694e-005,2.392081e-005
5.265000e-001,-2.769513e-005,2.400017e-005
5.272941e-001,-2.635233e-005,2.404536e-005
5.280882e-001,-3.457694e-005,2.407342e-005
5.288824e-001,-4.078737e-005,2.411436e-005
5.296765e-001,-3.843748e-005,2.418606e-005
5.304706e-001,-3.105211e-005,2.427041e-005
5.312647e-001,-2.568093e-005,2.429896e-005
5.320588e-001,-2.182040e-005,2.415149e-005
5.328529e-001,-1.930266e-005,2.406757e-005
5.336471e-001,-1.930266e-005,2.405303e-005
5.344412e-001,-1.829557e-005,2.407320e-005
5.352353e-001,-1.426719e-005,2.409377e-005
5.360294e-001,-7.553216e-006,2.407328e-005
5.368235e-001,-6.881819e-006,2.400015e-005
5.376176e-001,-1.225299e-005,2.390679e-005
5.384118e-001,-1.678492e-005,2.386690e-005
5.392059e-001,-2.366674e-005,2.386575e-005
5.400000e-001,-3.306630e-005,2.390173e-005
5.407941e-001,-4.582284e-005,2.397229e-005
5.415882e-001,-4.615854e-005,2.409662e-005
5.423824e-001,-3.642328e-005,2.418408e-005
5.431765e-001,-1.292439e-005,2.418885e-005
5.439706e-001,2.400244e-005,2.411873e-005
5.447647e-001,5.018692e-005,2.408159e-005
5.455588e-001,6.160067e-005,2.418416e-005
5.463529e-001,5.018692e-005,2.437250e-005
5.471471e-001,2.635233e-005,2.448299e-005
5.479412e-001,-1.510643e-006,2.447582e-005
5.487353e-001,-2.098116e-005,2.442841e-005
5.495294e-001,-2.970932e-005,2.441742e-005
5.503235e-001,-2.366674e-005,2.443845e-005
5.511176e-001,-1.913481e-005,2.444247e-005
5.519118e-001,-1.896696e-005,2.444077e-005
5.527059e-001,-1.661708e-005,2.445186e-005
5.535000e-001,-1.963836e-005,2.446006e-005
5.542941e-001,-1.628138e-005,2.447920e-005
5.550882e-001,-1.376364e-005,2.449049e-005
5.558824e-001,-1.359579e-005,2.449664e-005
5.566765e-001,-1.695277e-005,2.450495e-005
5.574706e-001,-2.299535e-005,2.451923e-005
5.582647e-001,-2.903792e-005,2.454484e-005
5.590588e-001,-2.702373e-005,2.458810e-005
5.598529e-001,-2.030976e-005,2.462026e-005
5.606471e-001,-1.493858e-005,2.463498e-005
5.614412e-001,-1.225299e-005,2.464074e-005
5.622353e-001,-1.124590e-005,2.464126e-005
5.630294e-001,-1.292439e-005,2.463230e-005
5.638235e-001,-1.292439e-005,2.460045e-005
5.646176e-001,-1.023880e-005,2.451715e-005
5.654118e-001,-8.896010e-006,2.435319e-005
5.662059e-001,-6.210422e-006,2.420618e-005
5.670000e-001,-8.224612e-006,2.410441e-005
5.677941e-001,-1.560998e-005,2.409063e-005
5.685882e-001,-1.376364e-005,2.409838e-005
5.693824e-001,-1.225299e-005,2.407746e-005
5.701765e-001,-1.493858e-005,2.406443e-005
5.709706e-001,-2.232395e-005,2.406508e-005
5.717647e-001,-4.129091e-005,2.408641e-005
5.725588e-001,-3.843748e-005,2.419820e-005
5.733529e-001,-2.500954e-005,2.429407e-005
5.741471e-001,-1.174945e-005,2.433472e-005
5.749412e-001,-7.721065e-006,2.432980e-005
5.757353e-001,-1.510643e-006,2.431562e-005
5.765294e-001,7.888914e-006,2.431559e-005
5.773235e-001,1.258869e-005,2.431832e-005
5.781176e-001,1.158160e-005,2.432669e-005
5.789118e-001,1.191730e-005,2.432337e-005
5.797059e-001,1.057450e-005,2.429803e-005
5.805000e-001,6.546120e-006,2.423793e-005
5.812941e-001,1.510643e-006,2.418270e-005
5.820882e-001,-5.035477e-007,2.415099e-005
5.828824e-001,-8.224612e-006,2.413352e-005
5.836765e-001,-1.628138e-005,2.412964e-005
5.844706e-001,-2.249180e-005,2.414302e-005
5.852647e-001,-4.582284e-005,2.415961e-005
5.860588e-001,-4.481575e-005,2.429508e-005
5.868529e-001,-2.937362e-005,2.442636e-005
5.876471e-001,-1.594568e-005,2.448233e-005
5.884412e-001,-1.158160e-005,2.449547e-005
5.892353e-001,-9.231709e-006,2.449333e-005
5.900294e-001,-5.035477e-007,2.447630e-005
5.908235e-001,5.203327e-006,2.443110e-005
5.916176e-001,5.203327e-006,2.440415e-005
5.924118e-001,-1.510643e-006,2.439136e-005
5.932059e-001,-6.881819e-006,2.435173e-005
5.940000e-001,-1.158160e-005,2.430340e-005
5.947941e-001,-2.030976e-005,2.426311e-005
5.955882e-001,-1.795987e-005,2.424802e-005
5.963824e-001,-1.493858e-005,2.424430e-005
5.971765e-001,-1.527428e-005,2.423187e-005
5.979706e-001,-1.913481e-005,2.420384e-005
5.987647e-001,-1.829557e-005,2.419108e-005
5.995588e-001,-1.560998e-005,2.418685e-005
6.003529e-001,-1.493858e-005,2.418544e-005
6.011471e-001,-2.786297e-005,2.418195e-005
6.019412e-001,-2.652018e-005,2.421487e-005
6.027353e-001,-1.762417e-005,2.424068e-005
6.035294e-001,-1.628138e-005,2.424507e-005
6.043235e-001,-1.040665e-005,2.425034e-005
6.051176e-001,-4.531929e-006,2.424865e-005
6.059118e-001,-2.182040e-006,2.424518e-005
6.067059e-001,-4.196231e-006,2.421928e-005
6.075000e-001,-1.493858e-005,2.416234e-005
6.082941e-001,-2.668803e-005,2.414941e-005
6.090882e-001,-3.675899e-005,2.419030e-005
6.098824e-001,-5.152972e-005,2.427886e-005
6.106765e-001,-5.790799e-005,2.445106e-005
6.114706e-001,-5.018692e-005,2.466479e-005
6.122647e-001,-2.450599e-005,2.482621e-005
6.130588e-001,1.326009e-005,2.486448e-005
6.138529e-001,4.414435e-005,2.486988e-005
6.146471e-001,6.025788e-005,2.498579e-005
6.154412e-001,5.824369e-005,2.520952e-005
6.162353e-001,3.910887e-005,2.542141e-005
6.170294e-001,1.460288e-005,2.551640e-005
6.178235e-001,-8.224612e-006,2.552842e-005
6.186176e-001,-2.349889e-005,2.553243e-005
6.194118e-001,-1.846342e-005,2.556263e-005
6.202059e-001,-1.091020e-005,2.556933e-005
6.210000e-001,-1.326009e-005,2.553124e-005
6.217941e-001,-1.695277e-005,2.545627e-005
6.225882e-001,-1.695277e-005,2.533281e-005
6.233824e-001,-1.930266e-005,2.503826e-005
6.241765e-001,-1.661708e-005,2.478393e-005
6.249706e-001,-1.896696e-005,2.477338e-005
6.257647e-001,-2.400244e-005,2.476152e-005
6.265588e-001,-2.870222e-005,2.468062e-005
6.273529e-001,-2.970932e-005,2.454494e-005
6.281471e-001,-2.937362e-005,2.443966e-005
6.289412e-001,-3.776608e-005,2.442318e-005
6.297353e-001,-4.380865e-005,2.451046e-005
6.305294e-001,-4.011597e-005,2.463114e-005
6.313235e-001,-2.769513e-005,2.472729e-005
6.321176e-001,-1.829557e-005,2.477297e-005
6.329118e-001,-2.098116e-005,2.478483e-005
6.337059e-001,-1.527428e-005,2.478791e-005
6.345000e-001,1.174945e-006,2.477812e-005
6.352941e-001,1.560998e-005,2.474616e-005
6.360882e-001,1.795987e-005,2.471004e-005
6.368824e-001,1.560998e-005,2.466031e-005
6.376765e-001,1.124590e-005,2.458052e-005
6.384706e-001,8.224612e-006,2.449451e-005
6.392647e-001,1.174945e-006,2.441879e-005
6.400588e-001,-5.203327e-006,2.435455e-005
6.408529e-001,-6.210422e-006,2.430113e-005
6.416471e-001,-8.896010e-006,2.425517e-005
6.424412e-001,-1.292439e-005,2.422305e-005
6.432353e-001,-2.030976e-005,2.420691e-005
6.440294e-001,-2.198825e-005,2.421038e-005
6.448235e-001,-1.527428e-005,2.421851e-005
6.456176e-001,-1.628138e-005,2.421343e-005
6.464118e-001,-2.182040e-005,2.422099e-005
6.472059e-001,-2.467384e-005,2.424445e-005
6.480000e-001,-2.735943e-005,2.427753e-005
6.487941e-001,-3.575189e-005,2.431325e-005
6.495882e-001,-3.726253e-005,2.437576e-005
6.503824e-001,-2.366674e-005,2.445426e-005
6.511765e-001,-1.695277e-005,2.448389e-005
6.519706e-001,-1.359579e-005,2.449935e-005
6.527647e-001,-9.903105e-006,2.447698e-005
6.535588e-001,-6.210422e-006,2.442846e-005
6.543529e-001,-8.224612e-006,2.439017e-005
6.551471e-001,-1.023880e-005,2.435150e-005
6.559412e-001,-1.091020e-005,2.432119e-005
6.567353e-001,-9.567407e-006,2.432588e-005
6.575294e-001,-8.224612e-006,2.432501e-005
6.583235e-001,-2.853437e-006,2.429170e-005
6.591176e-001,-1.174945e-006,2.419434e-005
6.599118e-001,-5.035477e-007,2.405380e-005
6.607059e-001,-1.510643e-006,2.395581e-005
6.615000e-001,-4.196231e-006,2.391546e-005
6.622941e-001,-1.963836e-005,2.390608e-005
6.630882e-001,-2.064546e-005,2.392890e-005
6.638824e-001,-1.863127e-005,2.395275e-005
6.646765e-001,-1.560998e-005,2.396665e-005
6.654706e-001,-9.903105e-006,2.389458e-005
6.662647e-001,-1.326009e-005,2.366069e-005
6.670588e-001,-2.568093e-005,2.342838e-005
6.678529e-001,-3.306630e-005,2.336737e-005
6.686471e-001,-3.373770e-005,2.344175e-005
6.694412e-001,-2.265965e-005,2.346045e-005
6.702353e-001,1.057450e-005,2.339138e-005
6.710294e-001,4.548714e-005,2.335047e-005
6.718235e-001,6.025788e-005,2.348931e-005
6.726176e-001,6.294347e-005,2.371253e-005
6.734118e-001,4.280156e-005,2.390290e-005
6.742059e-001,1.258869e-005,2.390857e-005
6.750000e-001,-1.980621e-005,2.382735e-005
6.757941e-001,-4.246586e-005,2.378556e-005
6.765882e-001,-4.716563e-005,2.384167e-005
6.773824e-001,-4.280156e-005,2.392844e-005
6.781765e-001,-4.951553e-005,2.396366e-005
6.789706e-001,-6.327916e-005,2.399210e-005
6.797647e-001,-6.025788e-005,2.416260e-005
6.805588e-001,-4.548714e-005,2.435764e-005
6.813529e-001,-2.702373e-005,2.447076e-005
6.821471e-001,-1.225299e-005,2.450738e-005
6.829412e-001,1.678492e-007,2.451032e-005
6.837353e-001,1.191730e-005,2.450479e-005
6.845294e-001,1.930266e-005,2.451031e-005
6.853235e-001,1.661708e-005,2.452993e-005
6.861176e-001,1.057450e-005,2.454507e-005
6.869118e-001,5.035477e-007,2.455179e-005
6.877059e-001,-6.881819e-006,2.455159e-005
6.885000e-001,-1.091020e-005,2.455400e-005
6.892941e-001,-2.349889e-005,2.455659e-005
6.900882e-001,-3.642328e-005,2.456199e-005
6.908824e-001,-3.575189e-005,2.461940e-005
6.916765e-001,-3.373770e-005,2.469644e-005
6.924706e-001,-2.769513e-005,2.476970e-005
6.932647e-001,-2.098116e-005,2.481844e-005
6.940588e-001,-1.577783e-005,2.484666e-005
6.948529e-001,-1.023880e-005,2.486040e-005
6.956471e-001,-6.881819e-006,2.486580e-005
6.964412e-001,-4.867628e-006,2.486883e-005
6.972353e-001,-2.349889e-006,2.487004e-005
6.980294e-001,-8.224612e-006,2.486658e-005
6.988235e-001,-1.057450e-005,2.485907e-005
6.996176e-001,-1.359579e-005,2.484709e-005
7.004118e-001,-1.695277e-005,2.481211e-005
7.012059e-001,-1.762417e-005,2.469553e-005
7.020000e-001,-1.896696e-005,2.452780e-005
7.027941e-001,-1.930266e-005,2.441053e-005
7.035882e-001,-1.829557e-005,2.434661e-005
7.043824e-001,-1.560998e-005,2.432868e-005
7.051765e-001,-1.107805e-005,2.433002e-005
7.059706e-001,-8.224612e-006,2.433580e-005
7.067647e-001,-8.560311e-006,2.433991e-005
7.075588e-001,-7.553216e-006,2.433991e-005
7.083529e-001,-7.553216e-006,2.432408e-005
7.091471e-001,-9.063859e-006,2.429468e-005
7.099412e-001,-1.225299e-005,2.427478e-005
7.107353e-001,-1.812772e-005,2.427531e-005
7.115294e-001,-1.628138e-005,2.429531e-005
7.123235e-001,-1.124590e-005,2.430625e-005
7.131176e-001,-1.426719e-005,2.431046e-005
7.139118e-001,-1.225299e-005,2.432356e-005
7.147059e-001,-1.124590e-005,2.433258e-005
7.155000e-001,-1.191730e-005,2.432876e-005
7.162941e-001,-1.225299e-005,2.430138e-005
7.170882e-001,-9.567407e-006,2.426333e-005
7.178824e-001,-4.196231e-006,2.422489e-005
7.186765e-001,-2.853437e-006,2.418151e-005
7.194706e-001,-2.517739e-006,2.414083e-005
7.202647e-001,-5.539025e-006,2.410885e-005
7.210588e-001,-7.553216e-006,2.407989e-005
7.218529e-001,-9.567407e-006,2.405360e-005
7.226471e-001,-1.158160e-005,2.402956e-005
7.234412e-001,-1.023880e-005,2.401418e-005
7.242353e-001,-1.258869e-005,2.400427e-005
7.250294e-001,-1.292439e-005,2.399862e-005
7.258235e-001,-1.443504e-005,2.399620e-005
7.266176e-001,-2.165255e-005,2.399652e-005
7.274118e-001,-2.500954e-005,2.401214e-005
7.282059e-001,-2.836652e-005,2.403417e-005
7.290000e-001,-3.189136e-005,2.406529e-005
7.297941e-001,-2.249180e-005,2.408426e-005
7.305882e-001,-2.635233e-005,2.406194e-005
7.313824e-001,-4.179446e-005,2.406977e-005
7.321765e-001,-3.978027e-005,2.415788e-005
7.329706e-001,-4.246586e-005,2.424665e-005
7.337647e-001,-4.280156e-005,2.436037e-005
7.345588e-001,-3.726253e-005,2.447968e-005
7.353529e-001,-3.172351e-005,2.456974e-005
7.361471e-001,-1.846342e-006,2.463265e-005
7.369412e-001,4.750134e-005,2.463112e-005
7.377353e-001,8.577096e-005,2.477598e-005
7.385294e-001,9.987030e-005,2.524385e-005
7.393235e-001,8.509956e-005,2.586531e-005
7.401176e-001,6.059357e-005,2.630528e-005
7.409118e-001,3.743038e-005,2.651709e-005
7.417059e-001,1.544213e-005,2.658319e-005
7.425000e-001,-7.217518e-006,2.658093e-005
7.432941e-001,-2.165255e-005,2.657128e-005
7.440882e-001,-3.189136e-005,2.658987e-005
7.448824e-001,-3.709468e-005,2.663939e-005
7.456765e-001,-4.179446e-005,2.671049e-005
7.464706e-001,-4.850843e-005,2.680117e-005
7.472647e-001,-4.582284e-005,2.692742e-005
7.480588e-001,-4.464790e-005,2.704647e-005
7.488529e-001,-4.380865e-005,2.716080e-005
7.496471e-001,-3.877317e-005,2.726774e-005
7.504412e-001,-3.642328e-005,2.733730e-005
7.512353e-001,-3.373770e-005,2.737307e-005
7.520294e-001,-3.105211e-005,2.734721e-005
7.528235e-001,-2.316319e-005,2.725058e-005
7.536176e-001,-2.517739e-005,2.712852e-005
7.544118e-001,-3.205920e-005,2.706476e-005
7.552059e-001,-3.189136e-005,2.709720e-005
7.560000e-001,-2.803082e-005,2.713798e-005
7.567941e-001,-1.896696e-005,2.705155e-005
7.575882e-001,-1.225299e-005,2.695610e-005
7.583824e-001,-1.057450e-005,2.689900e-005
7.591765e-001,-5.874723e-006,2.686857e-005
7.599706e-001,3.189136e-006,2.686628e-005
7.607647e-001,8.224612e-006,2.686548e-005
7.615588e-001,8.560311e-006,2.686610e-005
7.623529e-001,7.217518e-006,2.685600e-005
7.631471e-001,1.678492e-006,2.681893e-005
7.639412e-001,-9.567407e-006,2.677991e-005
7.647353e-001,-1.628138e-005,2.668463e-005
7.655294e-001,-1.695277e-005,2.655182e-005
7.663235e-001,-1.577783e-005,2.645378e-005
7.671176e-001,-1.594568e-005,2.642801e-005
7.679118e-001,-2.232395e-005,2.643781e-005
7.687059e-001,-3.440909e-005,2.646438e-005
7.695000e-001,-4.112306e-005,2.651035e-005
7.702941e-001,-3.994812e-005,2.655397e-005
7.710882e-001,-4.011597e-005,2.660251e-005
7.718824e-001,-2.030976e-005,2.668117e-005
7.726765e-001,1.846342e-005,2.669953e-005
7.734706e-001,5.220111e-005,2.671911e-005
7.742647e-001,6.562905e-005,2.685737e-005
7.750588e-001,6.160067e-005,2.704725e-005
7.758529e-001,3.675899e-005,2.719983e-005
7.766471e-001,9.063859e-006,2.723401e-005
7.774412e-001,-1.393149e-005,2.719819e-005
7.782353e-001,-2.803082e-005,2.713949e-005
7.790294e-001,-3.541619e-005,2.708794e-005
7.798235e-001,-3.407340e-005,2.707482e-005
7.806176e-001,-2.970932e-005,2.708639e-005
7.814118e-001,-2.970932e-005,2.709950e-005
7.822059e-001,-3.306630e-005,2.712338e-005
7.830000e-001,-2.987716e-005,2.716566e-005
7.837941e-001,-3.508049e-005,2.719613e-005
7.845882e-001,-4.112306e-005,2.724853e-005
7.853824e-001,-2.870222e-005,2.733532e-005
7.861765e-001,-2.165255e-005,2.737995e-005
7.869706e-001,-1.393149e-005,2.740445e-005
7.877647e-001,-8.224612e-006,2.740701e-005
7.885588e-001,-4.867628e-006,2.739457e-005
7.893529e-001,-5.035477e-007,2.736337e-005
7.901471e-001,5.035477e-007,2.729968e-005
7.909412e-001,-7.553216e-006,2.717695e-005
7.917353e-001,-2.232395e-005,2.705518e-005
7.925294e-001,-2.165255e-005,2.700638e-005
7.933235e-001,-2.937362e-005,2.702417e-005
7.941176e-001,-2.668803e-005,2.704106e-005
7.949118e-001,-9.567407e-006,2.693447e-005
7.957059e-001,1.174945e-006,2.671465e-005
7.965000e-001,5.203327e-006,2.656418e-005
7.972941e-001,1.023880e-005,2.652414e-005
7.980882e-001,1.124590e-005,2.653030e-005
7.988824e-001,1.258869e-005,2.651146e-005
7.996765e-001,6.210422e-006,2.646793e-005
8.004706e-001,-9.567407e-006,2.643653e-005
8.012647e-001,-1.779202e-005,2.641999e-005
8.020588e-001,-2.098116e-005,2.641739e-005
8.028529e-001,-1.980621e-005,2.642727e-005
8.036471e-001,-1.628138e-005,2.642767e-005
8.044412e-001,-1.947051e-005,2.642767e-005
8.052353e-001,-1.695277e-005,2.643910e-005
8.060294e-001,-1.628138e-005,2.644527e-005
8.068235e-001,-1.577783e-005,2.644393e-005
8.076176e-001,-1.560998e-005,2.642707e-005
8.084118e-001,-1.661708e-005,2.639092e-005
8.092059e-001,-1.426719e-005,2.636351e-005
8.100000e-001,-1.225299e-005,2.635088e-005
8.107941e-001,-1.124590e-005,2.634647e-005
8.115882e-001,-1.644922e-005,2.634504e-005
8.123824e-001,-2.433814e-005,2.635375e-005
8.131765e-001,-2.400244e-005,2.637944e-005
8.139706e-001,-2.249180e-005,2.640412e-005
8.147647e-001,-2.030976e-005,2.642829e-005
8.155588e-001,-1.762417e-005,2.644837e-005
8.163529e-001,-2.182040e-005,2.646474e-005
8.171471e-001,-2.131685e-005,2.648931e-005
8.179412e-001,-8.560311e-006,2.650198e-005
8.187353e-001,8.392462e-007,2.649499e-005
8.195294e-001,-3.189136e-006,2.648601e-005
8.203235e-001,-5.035477e-006,2.647320e-005
8.211176e-001,-5.539025e-006,2.644474e-005
8.219118e-001,-6.210422e-006,2.634373e-005
8.227059e-001,-8.224612e-006,2.625661e-005
8.235000e-001,-1.762417e-005,2.622276e-005
8.242941e-001,-2.970932e-005,2.623324e-005
8.250882e-001,-3.306630e-005,2.628315e-005
8.258824e-001,-2.702373e-005,2.634917e-005
8.266765e-001,2.182040e-006,2.638951e-005
8.274706e-001,4.213016e-005,2.638023e-005
8.282647e-001,5.857939e-005,2.647909e-005
8.290588e-001,5.354391e-005,2.667618e-005
8.298529e-001,3.877317e-005,2.684013e-005
8.306471e-001,1.460288e-005,2.692664e-005
8.314412e-001,-1.829557e-005,2.693911e-005
8.322353e-001,-4.246586e-005,2.695888e-005
8.330294e-001,-4.867628e-005,2.706121e-005
8.338235e-001,-3.743038e-005,2.718475e-005
8.346176e-001,-3.323415e-005,2.723713e-005
8.354118e-001,-3.273060e-005,2.717888e-005
8.362059e-001,-2.719158e-005,2.712392e-005
8.370000e-001,-2.584878e-005,2.711667e-005
8.377941e-001,-2.433814e-005,2.714097e-005
8.385882e-001,-2.047761e-005,2.716784e-005
8.393824e-001,-2.467384e-005,2.718741e-005
8.401765e-001,-4.078737e-005,2.722303e-005
8.409706e-001,-5.925078e-005,2.731859e-005
8.417647e-001,-6.663615e-005,2.752089e-005
8.425588e-001,-5.673304e-005,2.777650e-005
8.433529e-001,-3.575189e-005,2.795771e-005
8.441471e-001,-1.091020e-005,2.802279e-005
8.449412e-001,8.560311e-006,2.800611e-005
8.457353e-001,2.467384e-005,2.799193e-005
8.465294e-001,3.306630e-005,2.801386e-005
8.473235e-001,3.440909e-005,2.806271e-005
8.481176e-001,3.205920e-005,2.810908e-005
8.489118e-001,2.467384e-005,2.814831e-005
8.497059e-001,1.930266e-005,2.816896e-005
8.505000e-001,2.517739e-006,2.817740e-005
8.512941e-001,-1.225299e-005,2.813386e-005
8.520882e-001,-1.225299e-005,2.810253e-005
8.528824e-001,-9.903105e-006,2.809343e-005
8.536765e-001,-1.309224e-005,2.808397e-005
8.544706e-001,-2.433814e-005,2.808754e-005
8.552647e-001,-3.138781e-005,2.811994e-005
8.560588e-001,-5.052262e-005,2.817541e-005
8.568529e-001,-5.824369e-005,2.831831e-005
8.576471e-001,-4.515145e-005,2.849596e-005
8.584412e-001,-2.970932e-005,2.856998e-005
8.592353e-001,-1.661708e-005,2.854385e-005
8.600294e-001,-5.035477e-006,2.841082e-005
8.608235e-001,6.546120e-006,2.822367e-005
8.616176e-001,1.560998e-005,2.808364e-005
8.624118e-001,1.930266e-005,2.806340e-005
8.632059e-001,1.728847e-005,2.807456e-005
8.640000e-001,1.326009e-005,2.798083e-005
8.647941e-001,9.903105e-006,2.778350e-005
8.655882e-001,8.392462e-007,2.759405e-005
8.663824e-001,-8.896010e-006,2.750569e-005
8.671765e-001,-2.030976e-005,2.749793e-005
8.679706e-001,-3.105211e-005,2.751789e-005
8.687647e-001,-4.313725e-005,2.754172e-005
8.695588e-001,-5.421531e-005,2.762946e-005
8.703529e-001,-4.733349e-005,2.779152e-005
8.711471e-001,-2.702373e-005,2.790956e-005
8.719412e-001,-1.510643e-005,2.793482e-005
8.727353e-001,-1.326009e-005,2.793145e-005
8.735294e-001,-1.359579e-005,2.792023e-005
8.743235e-001,-1.913481e-005,2.791502e-005
8.751176e-001,-2.735943e-005,2.791539e-005
8.759118e-001,-2.970932e-005,2.792522e-005
8.767059e-001,-2.265965e-005,2.792857e-005
8.775000e-001,1.846342e-006,2.790752e-005
8.782941e-001,2.937362e-005,2.785844e-005
8.790882e-001,4.917983e-005,2.782621e-005
8.798824e-001,4.213016e-005,2.785478e-005
8.806765e-001,1.863127e-005,2.786425e-005
8.814706e-001,-8.392462e-007,2.784024e-005
8.822647e-001,-1.644922e-005,2.782113e-005
8.830588e-001,-2.769513e-005,2.781142e-005
8.838529e-001,-2.836652e-005,2.784196e-005
8.846471e-001,-1.493858e-005,2.788787e-005
8.854412e-001,-7.553216e-006,2.788670e-005
8.862353e-001,-8.224612e-006,2.787153e-005
8.870294e-001,-1.091020e-005,2.786147e-005
8.878235e-001,-2.114900e-005,2.786105e-005
8.886176e-001,-4.548714e-005,2.788274e-005
8.894118e-001,-5.052262e-005,2.800057e-005
8.902059e-001,-3.575189e-005,2.814382e-005
8.910000e-001,-2.198825e-005,2.821387e-005
8.917941e-001,-1.326009e-005,2.823669e-005
8.925882e-001,-2.182040e-006,2.823718e-005
8.933824e-001,3.860533e-006,2.821418e-005
8.941765e-001,6.881819e-006,2.818772e-005
8.949706e-001,3.189136e-006,2.817722e-005
8.957647e-001,-8.392462e-007,2.816281e-005
8.965588e-001,-1.678492e-006,2.813591e-005
8.973529e-001,5.706874e-006,2.810159e-005
8.981471e-001,2.182040e-006,2.806100e-005
8.989412e-001,-9.063859e-006,2.798864e-005
8.997353e-001,-1.292439e-005,2.791422e-005
9.005294e-001,-1.292439e-005,2.789179e-005
9.013235e-001,-9.903105e-006,2.788491e-005
9.021176e-001,-1.057450e-005,2.787996e-005
9.029118e-001,-1.493858e-005,2.788074e-005
9.037059e-001,-2.299535e-005,2.789128e-005
9.045000e-001,-3.038071e-005,2.791760e-005
9.052941e-001,-2.970932e-005,2.796423e-005
9.060882e-001,-2.232395e-005,2.800767e-005
9.068824e-001,-2.249180e-005,2.803080e-005
9.076765e-001,-3.776608e-005,2.805568e-005
9.084706e-001,-3.474479e-005,2.813605e-005
9.092647e-001,-2.366674e-005,2.820421e-005
9.100588e-001,-1.527428e-005,2.823581e-005
9.108529e-001,-8.224612e-006,2.824883e-005
9.116471e-001,-4.531929e-006,2.825165e-005
9.124412e-001,1.678492e-007,2.823106e-005
9.132353e-001,1.678492e-006,2.820701e-005
9.140294e-001,-4.196231e-006,2.818757e-005
9.148235e-001,-4.196231e-006,2.817479e-005
9.156176e-001,-4.867628e-006,2.817025e-005
9.164118e-001,-1.292439e-005,2.816164e-005
9.172059e-001,-1.661708e-005,2.813379e-005
9.180000e-001,-1.661708e-005,2.808749e-005
9.187941e-001,-1.795987e-005,2.803857e-005
9.195882e-001,-1.930266e-005,2.802773e-005
9.203824e-001,-1.661708e-005,2.804254e-005
9.211765e-001,-1.628138e-005,2.794054e-005
9.219706e-001,-1.728847e-005,2.774805e-005
9.227647e-001,-8.560311e-006,2.753705e-005
9.235588e-001,-7.888914e-006,2.743516e-005
9.243529e-001,-1.393149e-005,2.742957e-005
9.251471e-001,-8.224612e-006,2.741806e-005
9.259412e-001,-1.510643e-006,2.731707e-005
9.267353e-001,2.517739e-006,2.718722e-005
9.275294e-001,-2.517739e-006,2.708008e-005
9.283235e-001,-1.510643e-005,2.693590e-005
9.291176e-001,-2.870222e-005,2.671174e-005
9.299118e-001,-3.373770e-005,2.654387e-005
9.307059e-001,-3.189136e-005,2.648797e-005
9.315000e-001,-3.709468e-005,2.650521e-005
9.322941e-001,-4.716563e-005,2.657875e-005
9.330882e-001,-5.673304e-005,2.671169e-005
9.338824e-001,-6.193637e-005,2.689448e-005
9.346765e-001,-3.743038e-005,2.709877e-005
9.354706e-001,1.124590e-005,2.716479e-005
9.362647e-001,5.589380e-005,2.716564e-005
9.370588e-001,8.207828e-005,2.734814e-005
9.378529e-001,8.912795e-005,2.773490e-005
9.386471e-001,7.368582e-005,2.818057e-005
9.394412e-001,3.709468e-005,2.845484e-005
9.402353e-001,-7.217518e-006,2.845760e-005
9.410294e-001,-3.239490e-005,2.838891e-005
9.418235e-001,-3.205920e-005,2.838393e-005
9.426176e-001,-1.930266e-005,2.839855e-005
9.434118e-001,-1.057450e-005,2.839476e-005
9.442059e-001,-5.539025e-006,2.838707e-005
9.450000e-001,-2.853437e-006,2.838291e-005
9.457941e-001,-1.678492e-006,2.838071e-005
9.465882e-001,-8.896010e-006,2.837954e-005
9.473824e-001,-1.997406e-005,2.838367e-005
9.481765e-001,-2.568093e-005,2.840225e-005
9.489706e-001,-2.903792e-005,2.843294e-005
9.497647e-001,-3.205920e-005,2.846979e-005
9.505588e-001,-2.987716e-005,2.851117e-005
9.513529e-001,-2.903792e-005,2.854365e-005
9.521471e-001,-2.970932e-005,2.857061e-005
9.529412e-001,-2.769513e-005,2.859902e-005
9.537353e-001,-2.702373e-005,2.862308e-005
9.545294e-001,-2.433814e-005,2.865014e-005
9.553235e-001,-2.232395e-005,2.867623e-005
9.561176e-001,-2.165255e-005,2.870014e-005
9.569118e-001,-2.047761e-005,2.872208e-005
9.577059e-001,-1.930266e-005,2.874215e-005
9.585000e-001,-1.695277e-005,2.875963e-005
9.592941e-001,-1.393149e-005,2.877100e-005
9.600882e-001,-1.292439e-005,2.877343e-005
9.608824e-001,-1.393149e-005,2.876449e-005
9.616765e-001,-1.292439e-005,2.876055e-005
9.624706e-001,-1.510643e-005,2.876280e-005
9.632647e-001,-1.628138e-005,2.876417e-005
9.640588e-001,-1.393149e-005,2.877053e-005
9.648529e-001,-1.023880e-005,2.877427e-005
9.656471e-001,-1.359579e-005,2.877221e-005
9.664412e-001,-1.661708e-005,2.877413e-005
9.672353e-001,-1.628138e-005,2.878434e-005
9.680294e-001,-1.426719e-005,2.879803e-005
9.688235e-001,-1.225299e-005,2.880884e-005
9.696176e-001,-1.292439e-005,2.881678e-005
9.704118e-001,-1.359579e-005,2.882432e-005
9.712059e-001,-1.426719e-005,2.883137e-005
9.720000e-001,-1.426719e-005,2.883756e-005
9.727941e-001,-1.527428e-005,2.884139e-005
9.735882e-001,-1.292439e-005,2.884848e-005
9.743824e-001,-1.023880e-005,2.884896e-005
9.751765e-001,-1.023880e-005,2.884552e-005
9.759706e-001,-1.493858e-005,2.883981e-005
9.767647e-001,-2.299535e-005,2.882624e-005
9.775588e-001,-2.568093e-005,2.882090e-005
9.783529e-001,-2.131685e-005,2.881287e-005
9.791471e-001,-1.091020e-005,2.878176e-005
9.799412e-001,-3.189136e-006,2.876035e-005
9.807353e-001,-1.225299e-005,2.872244e-005
9.815294e-001,-2.232395e-005,2.863379e-005
9.823235e-001,-2.433814e-005,2.857343e-005
9.831176e-001,-2.568093e-005,2.850587e-005
9.839118e-001,-2.299535e-005,2.844030e-005
9.847059e-001,-2.735943e-005,2.839212e-005
9.855000e-001,-3.038071e-005,2.837766e-005
9.862941e-001,-1.712062e-005,2.842921e-005
9.870882e-001,1.795987e-005,2.831903e-005
9.878824e-001,5.891508e-005,2.792071e-005
9.886765e-001,8.375677e-005,2.754734e-005
9.894706e-001,8.241398e-005,2.753423e-005
9.902647e-001,6.361486e-005,2.771410e-005
9.910588e-001,3.071641e-005,2.786571e-005
9.918529e-001,-2.064546e-005,2.790597e-005
9.926471e-001,-4.884413e-005,2.792731e-005
9.934412e-001,-4.850843e-005,2.803639e-005
9.942353e-001,-3.709468e-005,2.811217e-005
9.950294e-001,-3.239490e-005,2.811217e-005
9.958235e-001,-2.853437e-005,2.807264e-005
9.966176e-001,-2.064546e-005,2.798522e-005
9.974118e-001,-1.225299e-005,2.788983e-005
9.982059e-001,-5.874723e-006,2.778439e-005
9.990000e-001,-6.378271e-006,2.767617e-005
9.997941e-001,-7.553216e-006,2.759188e-005
1.000588e+000,-8.224612e-006,2.751852e-005
1.001382e+000,-1.359579e-005,2.745650e-005
1.002176e+000,-2.299535e-005,2.741126e-005
1.002971e+000,-2.500954e-005,2.741081e-005
1.003765e+000,-2.769513e-005,2.741032e-005
1.004559e+000,-2.903792e-005,2.739517e-005
1.005353e+000,-3.189136e-005,2.738506e-005
1.006147e+000,-3.273060e-005,2.739851e-005
1.006941e+000,-2.903792e-005,2.743983e-005
1.007735e+000,-2.400244e-005,2.748002e-005
1.008529e+000,-2.500954e-005,2.750691e-005
1.009324e+000,-2.719158e-005,2.754110e-005
1.010118e+000,-2.299535e-005,2.758323e-005
1.010912e+000,-1.963836e-005,2.760984e-005
1.011706e+000,-1.779202e-005,2.762785e-005
1.012500e+000,-1.628138e-005,2.764309e-005
1.013294e+000,-1.359579e-005,2.765819e-005
1.014088e+000,-1.158160e-005,2.766356e-005
1.014882e+000,-9.903105e-006,2.765602e-005
1.015676e+000,-2.333104e-005,2.764512e-005
1.016471e+000,-2.433814e-005,2.766213e-005
1.017265e+000,-1.359579e-005,2.768159e-005
1.018059e+000,-4.196231e-006,2.766355e-005
1.018853e+000,-2.517739e-006,2.759632e-005
1.019647e+000,2.517739e-006,2.749894e-005
1.020441e+000,6.210422e-006,2.740674e-005
1.021235e+000,6.210422e-006,2.731533e-005
1.022029e+000,-2.853437e-006,2.729352e-005
1.022824e+000,-1.158160e-005,2.727410e-005
1.023618e+000,-8.224612e-006,2.712242e-005
1.024412e+000,-1.359579e-005,2.687236e-005
1.025206e+000,-2.400244e-005,2.665760e-005
1.026000e+000,-2.970932e-005,2.661126e-005
1.026794e+000,-4.800488e-005,2.665912e-005
1.027588e+000,-6.059357e-005,2.678488e-005
1.028382e+000,-5.656519e-005,2.695589e-005
1.029176e+000,-3.105211e-005,2.707056e-005
1.029971e+000,1.057450e-005,2.705899e-005
1.030765e+000,5.152972e-005,2.701359e-005
1.031559e+000,6.562905e-005,2.711788e-005
1.032353e+000,5.287251e-005,2.730594e-005
1.033147e+000,3.743038e-005,2.741668e-005
1.033941e+000,2.131685e-005,2.742658e-005
1.034735e+000,5.203327e-006,2.735468e-005
1.035529e+000,-5.874723e-006,2.730826e-005
1.036324e+000,5.035477e-007,2.728292e-005
1.037118e+000,6.881819e-006,2.727161e-005
1.037912e+000,-2.349889e-006,2.727042e-005
1.038706e+000,-1.779202e-005,2.726936e-005
1.039500e+000,-2.702373e-005,2.728783e-005
1.040294e+000,-3.910887e-005,2.733039e-005
1.041088e+000,-3.608759e-005,2.741605e-005
1.041882e+000,-2.735943e-005,2.746271e-005
1.042676e+000,-2.030976e-005,2.747892e-005
1.043471e+000,-1.930266e-005,2.745281e-005
1.044265e+000,-1.896696e-005,2.743310e-005
1.045059e+000,-1.493858e-005,2.744867e-005
1.045853e+000,-1.326009e-005,2.746153e-005
1.046647e+000,-1.913481e-005,2.747015e-005
1.047441e+000,-2.333104e-005,2.748530e-005
1.048235e+000,-1.829557e-005,2.750950e-005
1.049029e+000,-1.762417e-005,2.751970e-005
1.049824e+000,-2.668803e-005,2.753543e-005
1.050618e+000,-3.340200e-005,2.757130e-005
1.051412e+000,-3.038071e-005,2.761742e-005
1.052206e+000,-2.316319e-005,2.764524e-005
1.053000e+000,-2.366674e-005,2.765355e-005
1.053794e+000,-3.071641e-005,2.767053e-005
1.054588e+000,-3.239490e-005,2.770299e-005
1.055382e+000,-2.668803e-005,2.774676e-005
1.056176e+000,-2.836652e-005,2.777241e-005
1.056971e+000,-3.373770e-005,2.780425e-005
1.057765e+000,-2.299535e-005,2.785544e-005
1.058559e+000,-6.881819e-006,2.786988e-005
1.059353e+000,1.846342e-006,2.786096e-005
1.060147e+000,9.231709e-006,2.785257e-005
1.060941e+000,1.460288e-005,2.785021e-005
1.061735e+000,1.191730e-005,2.784693e-005
1.062529e+000,7.385367e-006,2.782117e-005
1.063324e+000,7.049668e-006,2.779130e-005
1.064118e+000,1.326009e-005,2.776515e-005
1.064912e+000,7.553216e-006,2.775157e-005
1.065706e+000,-9.567407e-006,2.773702e-005
1.066500e+000,-1.829557e-005,2.771493e-005
1.067294e+000,-2.232395e-005,2.770806e-005
1.068088e+000,-2.433814e-005,2.773247e-005
1.068882e+000,-2.870222e-005,2.776642e-005
1.069676e+000,-2.702373e-005,2.781305e-005
1.070471e+000,-2.198825e-005,2.785338e-005
1.071265e+000,-1.795987e-005,2.787925e-005
1.072059e+000,-1.695277e-005,2.789547e-005
1.072853e+000,-2.198825e-005,2.790801e-005
1.073647e+000,-3.407340e-005,2.791787e-005
1.074441e+000,-3.642328e-005,2.793374e-005
1.075235e+000,-3.776608e-005,2.794704e-005
1.076029e+000,-2.668803e-005,2.798667e-005
1.076824e+000,6.378271e-006,2.802689e-005
1.077618e+000,4.347295e-005,2.792818e-005
1.078412e+000,5.891508e-005,2.784015e-005
1.079206e+000,3.877317e-005,2.787467e-005
1.080000e+000,7.888914e-006,2.787467e-005
1.080794e+000,-1.359579e-005,2.786605e-005
1.081588e+000,-2.568093e-005,2.785748e-005
1.082382e+000,-3.776608e-005,2.779202e-005
1.083176e+000,-4.347295e-005,2.773793e-005
1.083971e+000,-2.635233e-005,2.776598e-005
1.084765e+000,-4.364080e-006,2.774246e-005
1.085559e+000,8.896010e-006,2.768199e-005
1.086353e+000,1.795987e-005,2.764399e-005
1.087147e+000,2.265965e-005,2.762407e-005
1.087941e+000,2.534523e-005,2.761952e-005
1.088735e+000,1.258869e-005,2.763238e-005
1.089529e+000,-3.860533e-006,2.760642e-005
1.090324e+000,-6.881819e-006,2.751115e-005
1.091118e+000,-1.091020e-005,2.730996e-005
1.091912e+000,-1.963836e-005,2.705683e-005
1.092706e+000,-2.165255e-005,2.688958e-005
1.093500e+000,-1.997406e-005,2.684161e-005
1.094294e+000,-2.568093e-005,2.685821e-005
1.095088e+000,-3.105211e-005,2.689294e-005
1.095882e+000,-3.407340e-005,2.691398e-005
1.096676e+000,-3.239490e-005,2.691798e-005
1.097471e+000,-2.836652e-005,2.691002e-005
1.098265e+000,-2.970932e-005,2.689681e-005
1.099059e+000,-2.903792e-005,2.691302e-005
1.099853e+000,-2.836652e-005,2.694085e-005
1.100647e+000,-3.004501e-005,2.698799e-005
1.101441e+000,-3.172351e-005,2.703236e-005
1.102235e+000,-2.903792e-005,2.708275e-005
1.103029e+000,-2.433814e-005,2.712653e-005
1.103824e+000,-1.225299e-005,2.715123e-005
1.104618e+000,-2.853437e-006,2.712528e-005
1.105412e+000,-1.678492e-006,2.706786e-005
1.106206e+000,-3.524834e-006,2.691745e-005
1.107000e+000,-7.217518e-006,2.671675e-005
1.107794e+000,-1.712062e-005,2.659809e-005
1.108588e+000,-3.457694e-005,2.656277e-005
1.109382e+000,-4.179446e-005,2.661783e-005
1.110176e+000,-3.054856e-005,2.672061e-005
1.110971e+000,-1.527428e-005,2.677362e-005
1.111765e+000,-1.174945e-006,2.677300e-005
1.112559e+000,3.189136e-006,2.675092e-005
1.113353e+000,1.326009e-005,2.673373e-005
1.114147e+000,1.191730e-005,2.673373e-005
1.114941e+000,-3.692683e-006,2.673634e-005
1.115735e+000,-2.366674e-005,2.673711e-005
1.116529e+000,-3.273060e-005,2.676574e-005
1.117324e+000,-2.836652e-005,2.680491e-005
1.118118e+000,-1.460288e-005,2.679543e-005
1.118912e+000,8.224612e-006,2.669734e-005
1.119706e+000,3.877317e-005,2.652551e-005
1.120500e+000,6.411841e-005,2.648122e-005
1.121294e+000,6.831464e-005,2.668374e-005
1.122088e+000,4.917983e-005,2.694732e-005
1.122882e+000,1.728847e-005,2.707953e-005
1.123676e+000,-1.594568e-005,2.708623e-005
1.124471e+000,-3.440909e-005,2.707966e-005
1.125265e+000,-3.910887e-005,2.710525e-005
1.126059e+000,-3.910887e-005,2.714323e-005
1.126853e+000,-5.069047e-005,2.720277e-005
1.127647e+000,-5.455100e-005,2.735257e-005
1.128441e+000,-4.716563e-005,2.747530e-005
1.129235e+000,-4.045167e-005,2.746405e-005
1.130029e+000,-3.407340e-005,2.745601e-005
1.130824e+000,-2.500954e-005,2.750317e-005
1.131618e+000,-1.628138e-005,2.753932e-005
1.132412e+000,-8.560311e-006,2.753900e-005
1.133206e+000,-7.888914e-006,2.749886e-005
1.134000e+000,-2.098116e-005,2.745584e-005
1.134794e+000,-3.273060e-005,2.746842e-005
1.135588e+000,-2.316319e-005,2.752716e-005
1.136382e+000,-1.023880e-005,2.755427e-005
1.137176e+000,-1.057450e-005,2.755344e-005
1.137971e+000,-1.023880e-005,2.753405e-005
1.138765e+000,5.035477e-007,2.742022e-005
1.139559e+000,1.191730e-005,2.727160e-005
1.140353e+000,1.628138e-005,2.720518e-005
1.141147e+000,1.795987e-005,2.719239e-005
1.141941e+000,1.527428e-005,2.720098e-005
1.142735e+000,7.553216e-006,2.721436e-005
1.143529e+000,-1.510643e-006,2.721682e-005
1.144324e+000,-4.196231e-006,2.721419e-005
1.145118e+000,-1.091020e-005,2.721462e-005
1.145912e+000,-1.493858e-005,2.722154e-005
1.146706e+000,-2.484169e-005,2.723443e-005
1.147500e+000,-3.306630e-005,2.726859e-005
1.148294e+000,-2.769513e-005,2.733208e-005
1.149088e+000,-2.735943e-005,2.737195e-005
1.149882e+000,-3.004501e-005,2.740576e-005
1.150676e+000,-3.524834e-005,2.744847e-005
1.151471e+000,-3.709468e-005,2.751478e-005
1.152265e+000,-4.582284e-005,2.758784e-005
1.153059e+000,-4.045167e-005,2.769595e-005
1.153853e+000,-2.366674e-005,2.775955e-005
1.154647e+000,-1.762417e-005,2.773873e-005
1.155441e+000,-2.568093e-005,2.770587e-005
1.156235e+000,-2.198825e-005,2.771513e-005
1.157029e+000,-8.224612e-006,2.771385e-005
1.157824e+000,-4.531929e-006,2.763567e-005
1.158618e+000,-7.888914e-006,2.756721e-005
1.159412e+000,-6.210422e-006,2.753844e-005
1.160206e+000,-1.225299e-005,2.752718e-005
1.161000e+000,-1.359579e-005,2.753195e-005
1.161794e+000,-5.203327e-006,2.754145e-005
1.162588e+000,2.433814e-005,2.754301e-005
1.163382e+000,6.059357e-005,2.757707e-005
1.164176e+000,7.570001e-005,2.778726e-005
1.164971e+000,7.133593e-005,2.811273e-005
1.165765e+000,4.615854e-005,2.839818e-005
1.166559e+000,1.594568e-005,2.850807e-005
1.167353e+000,-1.695277e-005,2.850685e-005
1.168147e+000,-3.910887e-005,2.850748e-005
1.168941e+000,-5.001907e-005,2.857482e-005
1.169735e+000,-5.220111e-005,2.869323e-005
1.170529e+000,-4.884413e-005,2.882881e-005
1.171324e+000,-4.179446e-005,2.894571e-005
1.172118e+000,-3.407340e-005,2.902525e-005
1.172912e+000,-2.601663e-005,2.908486e-005
1.173706e+000,-2.030976e-005,2.911850e-005
1.174500e+000,-1.795987e-005,2.913043e-005
1.175294e+000,-1.913481e-005,2.914437e-005
1.176088e+000,-3.575189e-005,2.916424e-005
1.176882e+000,-4.750134e-005,2.923360e-005
1.177676e+000,-4.783703e-005,2.935590e-005
1.178471e+000,-4.045167e-005,2.946744e-005
1.179265e+000,-2.903792e-005,2.951132e-005
1.180059e+000,-1.359579e-005,2.949539e-005
1.180853e+000,1.846342e-006,2.945043e-005
1.181647e+000,9.231709e-006,2.937612e-005
1.182441e+000,1.393149e-005,2.925993e-005
1.183235e+000,1.326009e-005,2.909486e-005
1.184029e+000,5.035477e-007,2.889384e-005
1.184824e+000,-5.035477e-006,2.881654e-005
1.185618e+000,-1.846342e-006,2.881095e-005
1.186412e+000,-2.517739e-006,2.863795e-005
1.187206e+000,1.678492e-007,2.826124e-005
1.188000e+000,1.846342e-006,2.781005e-005
1.188794e+000,-2.853437e-006,2.749760e-005
1.189588e+000,-1.560998e-005,2.741827e-005
1.190382e+000,-2.232395e-005,2.742940e-005
1.191176e+000,-2.030976e-005,2.739739e-005
1.191971e+000,-1.963836e-005,2.736160e-005
1.192765e+000,-2.030976e-005,2.736236e-005
1.193559e+000,-2.265965e-005,2.737986e-005
1.194353e+000,-2.584878e-005,2.740792e-005
1.195147e+000,-2.299535e-005,2.744624e-005
1.195941e+000,-2.702373e-005,2.747674e-005
1.196735e+000,-3.440909e-005,2.751445e-005
1.197529e+000,-2.970932e-005,2.755984e-005
1.198324e+000,-1.695277e-005,2.757273e-005
1.199118e+000,-1.460288e-005,2.754061e-005
1.199912e+000,-1.057450e-005,2.749348e-005
1.200706e+000,3.692683e-006,2.744822e-005
1.201500e+000,1.544213e-005,2.740005e-005
1.202294e+000,1.762417e-005,2.736259e-005
1.203088e+000,-1.762417e-005,2.733601e-005
1.203882e+000,-6.126497e-005,2.731156e-005
1.204676e+000,-6.697185e-005,2.749524e-005
1.205471e+000,-4.917983e-005,2.772517e-005
1.206265e+000,-3.709468e-005,2.783693e-005
1.207059e+000,-1.863127e-005,2.789160e-005
1.207853e+000,2.366674e-005,2.789015e-005
1.208647e+000,7.234302e-005,2.790572e-005
1.209441e+000,9.634547e-005,2.819181e-005
1.210235e+000,8.912795e-005,2.870206e-005
1.211029e+000,6.260777e-005,2.912883e-005
1.211824e+000,3.071641e-005,2.933326e-005
1.212618e+000,-1.678492e-007,2.937206e-005
1.213412e+000,-1.359579e-005,2.935769e-005
1.214206e+000,-1.997406e-005,2.935718e-005
1.215000e+000,-3.575189e-005,2.937314e-005
1.215794e+000,-5.253681e-005,2.943235e-005
1.216588e+000,-5.186542e-005,2.956643e-005
1.217382e+000,-4.682994e-005,2.969674e-005
1.218176e+000,-4.347295e-005,2.980323e-005
1.218971e+000,-3.978027e-005,2.989604e-005
1.219765e+000,-4.515145e-005,2.997134e-005
1.220559e+000,-4.985122e-005,3.006967e-005
1.221353e+000,-5.723659e-005,3.019025e-005
1.222147e+000,-6.932174e-005,3.035187e-005
1.222941e+000,-7.402152e-005,3.059080e-005
1.223735e+000,-5.857939e-005,3.086608e-005
1.224529e+000,-3.239490e-005,3.103722e-005
1.225324e+000,9.903105e-006,3.108565e-005
1.226118e+000,5.152972e-005,3.107924e-005
1.226912e+000,7.754635e-005,3.118800e-005
1.227706e+000,7.200732e-005,3.146017e-005
1.228500e+000,5.085832e-005,3.169871e-005
1.229294e+000,2.735943e-005,3.182242e-005
1.230088e+000,-5.539025e-006,3.185935e-005
1.230882e+000,-1.628138e-005,3.185337e-005
1.231676e+000,-2.030976e-005,3.184171e-005
1.232471e+000,-2.970932e-005,3.183271e-005
1.233265e+000,-3.256275e-005,3.184388e-005
1.234059e+000,-3.373770e-005,3.187044e-005
1.234853e+000,-2.433814e-005,3.188991e-005
1.235647e+000,-1.628138e-005,3.187339e-005
1.236441e+000,-1.426719e-005,3.187199e-005
1.237235e+000,-1.292439e-005,3.186605e-005
1.238029e+000,-1.628138e-005,3.170052e-005
1.238824e+000,-1.460288e-005,3.135962e-005
1.239618e+000,-1.023880e-005,3.102377e-005
1.240412e+000,-6.881819e-006,3.082077e-005
1.241206e+000,-1.023880e-005,3.077444e-005
1.242000e+000,-2.030976e-005,3.075780e-005
1.242794e+000,-2.735943e-005,3.065548e-005
1.243588e+000,-2.836652e-005,3.057202e-005
1.244382e+000,-2.584878e-005,3.054224e-005
1.245176e+000,-2.635233e-005,3.052236e-005
1.245971e+000,-2.635233e-005,3.051611e-005
1.246765e+000,-3.004501e-005,3.053010e-005
1.247559e+000,-3.105211e-005,3.056933e-005
1.248353e+000,-2.836652e-005,3.061772e-005
1.249147e+000,-3.575189e-005,3.065743e-005
1.249941e+000,-3.373770e-005,3.072079e-005
1.250735e+000,-2.652018e-005,3.077623e-005
1.251529e+000,-2.568093e-005,3.080304e-005
1.252324e+000,-1.795987e-005,3.080980e-005
1.253118e+000,-1.242084e-005,3.079414e-005
1.253912e+000,-2.635233e-005,3.076244e-005
1.254706e+000,-3.172351e-005,3.075474e-005
1.255500e+000,-2.635233e-005,3.075418e-005
1.256294e+000,-1.326009e-005,3.073467e-005
1.257088e+000,-1.678492e-006,3.070007e-005
1.257882e+000,2.131685e-005,3.067032e-005
1.258676e+000,4.884413e-005,3.066144e-005
1.259471e+000,8.039978e-005,3.074682e-005
1.260265e+000,1.012131e-004,3.105268e-005
1.261059e+000,9.651331e-005,3.155417e-005
1.261853e+000,6.932174e-005,3.200504e-005
1.262647e+000,2.534523e-005,3.223015e-005
1.263441e+000,-1.493858e-005,3.225274e-005
1.264235e+000,-3.440909e-005,3.225714e-005
1.265029e+000,-3.675899e-005,3.231070e-005
1.265824e+000,-2.903792e-005,3.235044e-005
1.266618e+000,-3.256275e-005,3.236279e-005
1.267412e+000,-3.944457e-005,3.240583e-005
1.268206e+000,-4.045167e-005,3.248133e-005
1.269000e+000,-3.843748e-005,3.256114e-005
1.269794e+000,-4.347295e-005,3.263300e-005
1.270588e+000,-4.313725e-005,3.272322e-005
1.271382e+000,-4.045167e-005,3.281177e-005
1.272176e+000,-4.145876e-005,3.289069e-005
1.272971e+000,-4.196231e-005,3.296732e-005
1.273765e+000,-3.709468e-005,3.304901e-005
1.274559e+000,-2.165255e-005,3.310635e-005
1.275353e+000,-8.224612e-006,3.310119e-005
1.276147e+000,-9.567407e-006,3.306196e-005
1.276941e+000,-1.628138e-005,3.295521e-005
1.277735e+000,-1.661708e-005,3.279019e-005
1.278529e+000,-1.594568e-005,3.264792e-005
1.279324e+000,-1.628138e-005,3.261327e-005
1.280118e+000,-2.198825e-005,3.262075e-005
1.280912e+000,-2.198825e-005,3.251456e-005
1.281706e+000,-2.249180e-005,3.232676e-005
1.282500e+000,-3.306630e-005,3.221378e-005
1.283294e+000,-3.659113e-005,3.219857e-005
1.284088e+000,-1.930266e-005,3.224228e-005
1.284882e+000,2.182040e-006,3.225934e-005
1.285676e+000,1.191730e-005,3.225787e-005
1.286471e+000,2.114900e-005,3.226487e-005
1.287265e+000,2.333104e-005,3.228460e-005
1.288059e+000,2.182040e-005,3.231117e-005
1.288853e+000,1.527428e-005,3.231903e-005
1.289647e+000,5.874723e-006,3.229454e-005
1.290441e+000,-8.392462e-007,3.222074e-005
1.291235e+000,-7.217518e-006,3.215635e-005
1.292029e+000,-1.661708e-005,3.212184e-005
1.292824e+000,-2.198825e-005,3.211508e-005
1.293618e+000,-2.299535e-005,3.212058e-005
1.294412e+000,-2.299535e-005,3.212896e-005
1.295206e+000,-2.198825e-005,3.214410e-005
1.296000e+000,-2.568093e-005,3.215934e-005
1.296794e+000,-3.440909e-005,3.217386e-005
1.297588e+000,-4.112306e-005,3.220551e-005
1.298382e+000,-3.239490e-005,3.227250e-005
1.299176e+000,-1.762417e-005,3.230893e-005
1.299971e+000,-9.567407e-006,3.228913e-005
1.300765e+000,-2.517739e-006,3.223859e-005
1.301559e+000,3.860533e-006,3.219328e-005
1.302353e+000,8.560311e-006,3.216747e-005
1.303147e+000,8.896010e-006,3.214336e-005
1.303941e+000,3.189136e-006,3.210051e-005
1.304735e+000,-2.635233e-005,3.204892e-005
1.305529e+000,-5.421531e-005,3.204803e-005
1.306324e+000,-4.884413e-005,3.215392e-005
1.307118e+000,-4.716563e-005,3.221564e-005
1.307912e+000,-4.078737e-005,3.229935e-005
1.308706e+000,-2.635233e-005,3.237894e-005
1.309500e+000,5.035477e-007,3.241290e-005
1.310294e+000,3.743038e-005,3.240873e-005
1.311088e+000,5.488670e-005,3.246704e-005
1.311882e+000,4.917983e-005,3.260752e-005
1.312676e+000,3.054856e-005,3.272276e-005
1.313471e+000,-9.735256e-006,3.276573e-005
1.314265e+000,-5.119402e-005,3.276179e-005
1.315059e+000,-7.301442e-005,3.288616e-005
1.315853e+000,-5.152972e-005,3.313889e-005
1.316647e+000,5.203327e-006,3.325022e-005
1.317441e+000,6.831464e-005,3.322764e-005
1.318235e+000,1.112840e-004,3.342233e-005
1.319029e+000,1.005417e-004,3.396864e-005
1.319824e+000,6.697185e-005,3.440546e-005
1.320618e+000,2.870222e-005,3.459018e-005
1.321412e+000,-1.661708e-005,3.461324e-005
1.322206e+000,-4.649424e-005,3.461272e-005
1.323000e+000,-5.757229e-005,3.468985e-005
1.323794e+000,-8.023193e-005,3.478856e-005
1.324588e+000,-8.845655e-005,3.502170e-005
1.325382e+000,-8.577096e-005,3.531142e-005
1.326176e+000,-7.435722e-005,3.560978e-005
1.326971e+000,-5.404745e-005,3.585436e-005
1.327765e+000,-3.373770e-005,3.590013e-005
1.328559e+000,-2.165255e-005,3.579651e-005
1.329353e+000,-1.242084e-005,3.575047e-005
1.330147e+000,-6.210422e-006,3.575457e-005
1.330941e+000,-6.210422e-006,3.574805e-005
1.331735e+000,-6.210422e-006,3.572038e-005
1.332529e+000,-8.224612e-006,3.565846e-005
1.333324e+000,-8.224612e-006,3.557700e-005
1.334118e+000,-1.091020e-005,3.554893e-005
1.334912e+000,-1.628138e-005,3.555341e-005
1.335706e+000,-3.743038e-005,3.556173e-005
1.336500e+000,-6.462196e-005,3.560999e-005
1.337294e+000,-6.999313e-005,3.577340e-005
1.338088e+000,-5.790799e-005,3.596237e-005
1.338882e+000,-4.179446e-005,3.610356e-005
1.339676e+000,-2.366674e-005,3.617986e-005
1.340471e+000,-1.359579e-005,3.620242e-005
1.341265e+000,-5.539025e-006,3.620531e-005
1.342059e+000,-8.392462e-007,3.618970e-005
1.342853e+000,1.829557e-005,3.616909e-005
1.343647e+000,5.488670e-005,3.616627e-005
1.344441e+000,8.509956e-005,3.626972e-005
1.345235e+000,9.080644e-005,3.654429e-005
1.346029e+000,7.687495e-005,3.685171e-005
1.346824e+000,5.136187e-005,3.706113e-005
1.347618e+000,1.527428e-005,3.713982e-005
1.348412e+000,-1.695277e-005,3.711196e-005
1.349206e+000,-3.709468e-005,3.708811e-005
1.350000e+000,-4.313725e-005,3.711263e-005
1.350794e+000,-4.448005e-005,3.715372e-005
1.351588e+000,-4.246586e-005,3.719536e-005
1.352382e+000,-4.179446e-005,3.723644e-005
1.353176e+000,-4.112306e-005,3.728578e-005
1.353971e+000,-3.726253e-005,3.735152e-005
1.354765e+000,-3.373770e-005,3.741033e-005
1.355559e+000,-3.306630e-005,3.745862e-005
1.356353e+000,-3.038071e-005,3.750455e-005
1.357147e+000,-2.668803e-005,3.754151e-005
1.357941e+000,-2.366674e-005,3.755928e-005
1.358735e+000,-2.131685e-005,3.753233e-005
1.359529e+000,-1.762417e-005,3.747746e-005
1.360324e+000,-1.091020e-005,3.745100e-005
1.361118e+000,-6.881819e-006,3.744614e-005
1.361912e+000,-6.881819e-006,3.744809e-005
1.362706e+000,-1.091020e-005,3.744967e-005
1.363500e+000,-8.896010e-006,3.744726e-005
1.364294e+000,-6.210422e-006,3.744458e-005
1.365088e+000,-5.539025e-006,3.744565e-005
1.365882e+000,-6.210422e-006,3.742312e-005
1.366676e+000,-7.553216e-006,3.737916e-005
1.367471e+000,-5.539025e-006,3.734729e-005
1.368265e+000,-4.867628e-006,3.733951e-005
1.369059e+000,-1.628138e-005,3.733764e-005
1.369853e+000,-2.198825e-005,3.728479e-005
1.370647e+000,-2.030976e-005,3.712954e-005
1.371441e+000,-2.299535e-005,3.694663e-005
1.372235e+000,-4.783703e-005,3.686509e-005
1.373029e+000,-7.133593e-005,3.695092e-005
1.373824e+000,-5.622950e-005,3.715868e-005
1.374618e+000,-3.172351e-005,3.724333e-005
1.375412e+000,-4.867628e-006,3.722096e-005
1.376206e+000,1.426719e-005,3.715648e-005
1.377000e+000,2.534523e-005,3.705495e-005
1.377794e+000,2.433814e-005,3.695454e-005
1.378588e+000,1.728847e-005,3.688414e-005
1.379382e+000,1.326009e-005,3.682635e-005
1.380176e+000,2.182040e-005,3.678373e-005
1.380971e+000,4.917983e-005,3.677727e-005
1.381765e+000,7.905699e-005,3.687039e-005
1.382559e+000,8.577096e-005,3.713619e-005
1.383353e+000,6.160067e-005,3.744767e-005
1.384147e+000,3.659113e-005,3.759003e-005
1.384941e+000,3.189136e-006,3.760137e-005
1.385735e+000,-3.994812e-005,3.757907e-005
1.386529e+000,-5.723659e-005,3.764220e-005
1.387324e+000,-5.992218e-005,3.777582e-005
1.388118e+000,-5.555810e-005,3.792247e-005
1.388912e+000,-4.481575e-005,3.805185e-005
1.389706e+000,-3.944457e-005,3.812987e-005
1.390500e+000,-3.709468e-005,3.818374e-005
1.391294e+000,-3.642328e-005,3.822764e-005
1.392088e+000,-3.810178e-005,3.827316e-005
1.392882e+000,-3.776608e-005,3.833114e-005
1.393676e+000,-3.256275e-005,3.839025e-005
1.394471e+000,-2.920577e-005,3.843348e-005
1.395265e+000,-3.457694e-005,3.846387e-005
1.396059e+000,-3.608759e-005,3.850411e-005
1.396853e+000,-3.138781e-005,3.853243e-005
1.397647e+000,-3.038071e-005,3.852796e-005
1.398441e+000,-4.246586e-005,3.853441e-005
1.399235e+000,-4.078737e-005,3.857797e-005
1.400029e+000,-2.903792e-005,3.860937e-005
1.400824e+000,-1.560998e-005,3.859290e-005
1.401618e+000,-5.539025e-006,3.854615e-005
1.402412e+000,-8.392462e-007,3.846058e-005
1.403206e+000,1.174945e-006,3.839280e-005
1.404000e+000,4.531929e-006,3.836962e-005
1.404794e+000,6.210422e-006,3.835758e-005
1.405588e+000,6.042573e-006,3.833180e-005
1.406382e+000,1.057450e-005,3.831322e-005
1.407176e+000,6.881819e-006,3.831506e-005
1.407971e+000,-1.174945e-006,3.831618e-005
1.408765e+000,-1.191730e-005,3.831365e-005
1.409559e+000,-1.560998e-005,3.831795e-005
1.410353e+000,-1.225299e-005,3.832183e-005
1.411147e+000,-1.158160e-005,3.832039e-005
1.411941e+000,-1.963836e-005,3.832484e-005
1.412735e+000,-2.920577e-005,3.831625e-005
1.413529e+000,-3.105211e-005,3.819893e-005
1.414324e+000,-2.299535e-005,3.799973e-005
1.415118e+000,-1.292439e-005,3.780816e-005
1.415912e+000,-5.874723e-006,3.772537e-005
1.416706e+000,-1.846342e-006,3.771609e-005
1.417500e+000,-5.539025e-006,3.770410e-005
1.418294e+000,-1.980621e-005,3.764075e-005
1.419088e+000,-2.484169e-005,3.755140e-005
1.419882e+000,-2.182040e-005,3.746191e-005
1.420676e+000,-2.853437e-005,3.738065e-005
1.421471e+000,-3.004501e-005,3.734090e-005
1.422265e+000,-1.376364e-005,3.732989e-005
1.423059e+000,-4.867628e-006,3.730909e-005
1.423853e+000,-1.678492e-007,3.729249e-005
1.424647e+000,8.392462e-006,3.727872e-005
1.425441e+000,9.231709e-006,3.726608e-005
1.426235e+000,1.023880e-005,3.721508e-005
1.427029e+000,1.728847e-005,3.712290e-005
1.427824e+000,1.594568e-005,3.703746e-005
1.428618e+000,1.527428e-005,3.697800e-005
1.429412e+000,1.594568e-005,3.695173e-005
1.430206e+000,8.896010e-006,3.695472e-005
1.431000e+000,-1.510643e-006,3.695797e-005
1.431794e+000,-2.500954e-005,3.695440e-005
1.432588e+000,-4.951553e-005,3.697298e-005
1.433382e+000,-7.083238e-005,3.707087e-005
1.434176e+000,-7.737850e-005,3.728575e-005
1.434971e+000,-5.857939e-005,3.753951e-005
1.435765e+000,-2.249180e-005,3.768464e-005
1.436559e+000,1.930266e-005,3.770575e-005
1.437353e+000,5.320821e-005,3.772148e-005
1.438147e+000,6.697185e-005,3.784066e-005
1.438941e+000,5.522240e-005,3.802859e-005
1.439735e+000,3.054856e-005,3.814590e-005
1.440529e+000,6.210422e-006,3.816404e-005
1.441324e+000,-1.225299e-005,3.814844e-005
1.442118e+000,-3.038071e-005,3.813861e-005
1.442912e+000,-3.189136e-005,3.815992e-005
1.443706e+000,-2.769513e-005,3.818092e-005
1.444500e+000,-2.433814e-005,3.818505e-005
1.445294e+000,-1.980621e-005,3.818770e-005
1.446088e+000,-2.735943e-005,3.817360e-005
1.446882e+000,-3.172351e-005,3.815543e-005
1.447676e+000,-2.970932e-005,3.816060e-005
1.448471e+000,-3.038071e-005,3.818543e-005
1.449265e+000,-2.836652e-005,3.821501e-005
1.450059e+000,-2.870222e-005,3.824387e-005
1.450853e+000,-2.987716e-005,3.827759e-005
1.451647e+000,-3.004501e-005,3.830479e-005
1.452441e+000,-2.584878e-005,3.832940e-005
1.453235e+000,-2.316319e-005,3.834425e-005
1.454029e+000,-2.030976e-005,3.821043e-005
1.454824e+000,-3.239490e-005,3.804032e-005
1.455618e+000,-3.172351e-005,3.798297e-005
1.456412e+000,-1.695277e-005,3.796746e-005
1.457206e+000,-7.553216e-006,3.796496e-005
1.458000e+000,-4.531929e-006,3.794386e-005
1.458794e+000,1.678492e-007,3.772445e-005
1.459588e+000,3.189136e-006,3.733058e-005
1.460382e+000,5.035477e-007,3.699062e-005
1.461176e+000,1.174945e-006,3.682152e-005
1.461971e+000,-1.678492e-006,3.678075e-005
1.462765e+000,-6.881819e-006,3.678087e-005
1.463559e+000,-7.553216e-006,3.677492e-005
1.464353e+000,-8.224612e-006,3.676011e-005
1.465147e+000,-1.493858e-005,3.670764e-005
1.465941e+000,-3.273060e-005,3.659742e-005
1.466735e+000,-3.373770e-005,3.652692e-005
1.467529e+000,-2.500954e-005,3.648091e-005
1.468324e+000,-2.131685e-005,3.642567e-005
1.469118e+000,-2.198825e-005,3.637632e-005
1.469912e+000,-2.030976e-005,3.630819e-005
1.470706e+000,-5.035477e-007,3.621717e-005
1.471500e+000,1.158160e-005,3.607286e-005
1.472294e+000,1.795987e-005,3.586606e-005
1.473088e+000,1.762417e-005,3.563638e-005
1.473882e+000,1.863127e-005,3.549665e-005
1.474676e+000,1.594568e-005,3.546513e-005
1.475471e+000,7.553216e-006,3.547215e-005
1.476265e+000,-5.539025e-006,3.535532e-005
1.477059e+000,-2.030976e-005,3.508483e-005
1.477853e+000,-2.265965e-005,3.486755e-005
1.478647e+000,-2.098116e-005,3.477274e-005
1.479441e+000,-2.098116e-005,3.475862e-005
1.480235e+000,-2.299535e-005,3.477738e-005
1.481029e+000,-2.114900e-005,3.478945e-005
1.481824e+000,-1.393149e-005,3.479104e-005
1.482618e+000,-1.359579e-005,3.475951e-005
1.483412e+000,-1.628138e-005,3.471939e-005
1.484206e+000,-1.594568e-005,3.467932e-005
1.485000e+000,-2.702373e-005,3.466379e-005
1.485794e+000,-4.582284e-005,3.468515e-005
1.486588e+000,-4.313725e-005,3.477210e-005
1.487382e+000,-3.239490e-005,3.484957e-005
1.488176e+000,-2.920577e-005,3.488539e-005
1.488971e+000,-1.829557e-005,3.491458e-005
1.489765e+000,-1.510643e-006,3.492507e-005
1.490559e+000,1.191730e-005,3.492301e-005
1.491353e+000,2.030976e-005,3.492471e-005
1.492147e+000,2.131685e-005,3.492471e-005
1.492941e+000,1.997406e-005,3.491130e-005
1.493735e+000,1.863127e-005,3.489279e-005
1.494529e+000,5.203327e-006,3.487813e-005
1.495324e+000,-4.867628e-006,3.484765e-005
1.496118e+000,-1.846342e-006,3.481699e-005
1.496912e+000,-3.189136e-006,3.477583e-005
1.497706e+000,-1.225299e-005,3.473212e-005
1.498500e+000,-1.728847e-005,3.470210e-005
1.499294e+000,-1.695277e-005,3.465713e-005
1.500088e+000,-1.712062e-005,3.461802e-005
1.500882e+000,-2.635233e-005,3.459915e-005
1.501676e+000,-2.870222e-005,3.460075e-005
1.502471e+000,-2.114900e-005,3.462381e-005
1.503265e+000,-2.098116e-005,3.463729e-005
1.504059e+000,-2.198825e-005,3.462560e-005
1.504853e+000,-2.198825e-005,3.460154e-005
1.505647e+000,-2.030976e-005,3.459183e-005
1.506441e+000,-1.728847e-005,3.460272e-005
1.507235e+000,-1.628138e-005,3.461635e-005
1.508029e+000,-1.896696e-005,3.460763e-005
1.508824e+000,-1.443504e-005,3.451429e-005
1.509618e+000,-6.546120e-006,3.422446e-005
1.510412e+000,-6.881819e-006,3.374649e-005
1.511206e+000,-1.158160e-005,3.330633e-005
1.512000e+000,-2.299535e-005,3.308223e-005
1.512794e+000,-3.239490e-005,3.307677e-005
1.513588e+000,-4.985122e-005,3.311652e-005
1.514382e+000,-8.140688e-005,3.317903e-005
1.515176e+000,-8.039978e-005,3.343127e-005
1.515971e+000,-5.052262e-005,3.369794e-005
1.516765e+000,-7.721065e-006,3.376837e-005
1.517559e+000,2.937362e-005,3.369774e-005
1.518353e+000,5.992218e-005,3.366117e-005
1.519147e+000,8.174258e-005,3.376099e-005
1.519941e+000,7.637141e-005,3.398626e-005
1.520735e+000,4.750134e-005,3.417184e-005
1.521529e+000,1.258869e-005,3.420072e-005
1.522324e+000,1.678492e-007,3.412799e-005
1.523118e+000,7.217518e-006,3.404574e-005
1.523912e+000,1.057450e-005,3.398376e-005
1.524706e+000,2.517739e-006,3.396703e-005
1.525500e+000,-2.853437e-006,3.396415e-005
1.526294e+000,-4.867628e-006,3.396024e-005
1.527088e+000,-6.042573e-006,3.394892e-005
1.527882e+000,-1.728847e-005,3.393768e-005
1.528676e+000,-3.273060e-005,3.393977e-005
1.529471e+000,-4.347295e-005,3.397758e-005
1.530265e+000,-4.750134e-005,3.404343e-005
1.531059e+000,-5.253681e-005,3.412625e-005
1.531853e+000,-6.126497e-005,3.423127e-005
1.532647e+000,-6.529335e-005,3.435479e-005
1.533441e+000,-6.562905e-005,3.449007e-005
1.534235e+000,-6.059357e-005,3.467124e-005
1.535029e+000,-4.582284e-005,3.483925e-005
1.535824e+000,-3.121996e-005,3.492861e-005
1.536618e+000,-2.030976e-005,3.495265e-005
1.537412e+000,-1.460288e-005,3.494664e-005
1.538206e+000,-1.527428e-005,3.493466e-005
1.539000e+000,-5.874723e-006,3.493466e-005
1.539794e+000,-1.846342e-006,3.493466e-005
1.540588e+000,-6.881819e-006,3.493478e-005
1.541382e+000,-1.292439e-005,3.493456e-005
1.542176e+000,-1.426719e-005,3.492959e-005
1.542971e+000,-2.182040e-006,3.491683e-005
1.543765e+000,3.340200e-005,3.489292e-005
1.544559e+000,7.267872e-005,3.491970e-005
1.545353e+000,8.039978e-005,3.513784e-005
1.546147e+000,7.066453e-005,3.539991e-005
1.546941e+000,5.287251e-005,3.557086e-005
1.547735e+000,1.930266e-005,3.562026e-005
1.548529e+000,-1.829557e-005,3.558999e-005
1.549324e+000,-4.213016e-005,3.559107e-005
1.550118e+000,-5.152972e-005,3.566631e-005
1.550912e+000,-4.414435e-005,3.578438e-005
1.551706e+000,-3.944457e-005,3.587033e-005
1.552500e+000,-4.129091e-005,3.593608e-005
1.553294e+000,-4.045167e-005,3.600805e-005
1.554088e+000,-3.373770e-005,3.607989e-005
1.554882e+000,-2.735943e-005,3.609947e-005
1.555676e+000,-2.601663e-005,3.600271e-005
1.556471e+000,-2.769513e-005,3.592705e-005
1.557265e+000,-2.735943e-005,3.586239e-005
1.558059e+000,-2.601663e-005,3.582173e-005
1.558853e+000,-2.534523e-005,3.582095e-005
1.559647e+000,-2.467384e-005,3.584948e-005
1.560441e+000,-2.299535e-005,3.581428e-005
1.561235e+000,-2.064546e-005,3.570368e-005
1.562029e+000,-1.628138e-005,3.561470e-005
1.562824e+000,-8.224612e-006,3.558482e-005
1.563618e+000,-1.829557e-005,3.558361e-005
1.564412e+000,-6.025788e-005,3.548115e-005
1.565206e+000,-5.925078e-005,3.540477e-005
1.566000e+000,-3.709468e-005,3.544322e-005
1.566794e+000,-1.661708e-005,3.550377e-005
1.567588e+000,1.225299e-005,3.530630e-005
1.568382e+000,4.515145e-005,3.475015e-005
1.569176e+000,5.958648e-005,3.437837e-005
1.569971e+000,5.589380e-005,3.433505e-005
1.570765e+000,5.186542e-005,3.444157e-005
1.571559e+000,4.364080e-005,3.455299e-005
1.572353e+000,2.333104e-005,3.454114e-005
1.573147e+000,7.888914e-006,3.441319e-005
1.573941e+000,-4.531929e-006,3.411694e-005
1.574735e+000,-2.165255e-005,3.375073e-005
1.575529e+000,-3.709468e-005,3.342418e-005
1.576324e+000,-5.119402e-005,3.322574e-005
1.577118e+000,-4.649424e-005,3.321134e-005
1.577912e+000,-3.591974e-005,3.326038e-005
1.578706e+000,-3.239490e-005,3.329968e-005
1.579500e+000,-3.273060e-005,3.334246e-005
1.580294e+000,-2.970932e-005,3.339175e-005
1.581088e+000,-2.333104e-005,3.343197e-005
1.581882e+000,-2.030976e-005,3.345605e-005
1.582676e+000,-1.963836e-005,3.347246e-005
1.583471e+000,-1.930266e-005,3.348759e-005
1.584265e+000,-1.896696e-005,3.349964e-005
1.585059e+000,-1.695277e-005,3.350414e-005
1.585853e+000,-1.510643e-005,3.345117e-005
1.586647e+000,-8.896010e-006,3.326271e-005
1.587441e+000,-8.896010e-006,3.303117e-005
1.588235e+000,-1.057450e-005,3.287295e-005
1.589029e+000,-1.174945e-005,3.279365e-005
1.589824e+000,-9.567407e-006,3.277315e-005
1.590618e+000,-8.560311e-006,3.276862e-005
1.591412e+000,-6.881819e-006,3.277069e-005
1.592206e+000,-8.896010e-006,3.277296e-005
1.593000e+000,-1.091020e-005,3.276053e-005
1.593794e+000,-1.023880e-005,3.261958e-005
1.594588e+000,-1.107805e-005,3.226930e-005
1.595382e+000,-1.158160e-005,3.186594e-005
1.596176e+000,-1.393149e-005,3.157601e-005
1.596971e+000,-1.426719e-005,3.145252e-005
1.597765e+000,-1.560998e-005,3.145101e-005
1.598559e+000,-1.762417e-005,3.144880e-005
1.599353e+000,-1.896696e-005,3.139481e-005
1.600147e+000,-1.628138e-005,3.131858e-005
1.600941e+000,-9.063859e-006,3.123134e-005
1.601735e+000,-3.189136e-006,3.114346e-005
1.602529e+000,-1.510643e-006,3.105454e-005
1.603324e+000,-3.524834e-006,3.096783e-005
1.604118e+000,-5.539025e-006,3.089699e-005
1.604912e+000,-4.196231e-006,3.083986e-005
1.605706e+000,-6.210422e-006,3.078426e-005
1.606500e+000,-2.030976e-005,3.073848e-005
1.607294e+000,-2.769513e-005,3.072295e-005
1.608088e+000,-2.098116e-005,3.073367e-005
1.608882e+000,-9.903105e-006,3.073293e-005
1.609676e+000,-4.196231e-006,3.072192e-005
1.610471e+000,-4.867628e-006,3.071666e-005
1.611265e+000,-8.224612e-006,3.071543e-005
1.612059e+000,-1.460288e-005,3.071648e-005
1.612853e+000,-2.114900e-005,3.072137e-005
1.613647e+000,-1.527428e-005,3.074044e-005
1.614441e+000,-1.023880e-005,3.075053e-005
1.615235e+000,-9.567407e-006,3.075437e-005
1.616029e+000,-9.567407e-006,3.075711e-005
1.616824e+000,-1.728847e-005,3.075890e-005
1.617618e+000,-2.903792e-005,3.077278e-005
1.618412e+000,-4.313725e-005,3.081516e-005
1.619206e+000,-5.119402e-005,3.089750e-005
1.620000e+000,-4.213016e-005,3.100746e-005
1.620794e+000,-1.292439e-005,3.107735e-005
1.621588e+000,2.098116e-005,3.105881e-005
1.622382e+000,4.448005e-005,3.096391e-005
1.623176e+000,4.347295e-005,3.080354e-005
1.623971e+000,2.735943e-005,3.073772e-005
1.624765e+000,1.594568e-005,3.072436e-005
1.625559e+000,2.517739e-006,3.073631e-005
1.626353e+000,-8.896010e-006,3.072609e-005
1.627147e+000,-6.042573e-006,3.069689e-005
1.627941e+000,8.224612e-006,3.066804e-005
1.628735e+000,1.863127e-005,3.065603e-005
1.629529e+000,5.203327e-006,3.066493e-005
1.630324e+000,-6.546120e-006,3.064160e-005
1.631118e+000,-2.030976e-005,3.051789e-005
1.631912e+000,-3.440909e-005,3.021176e-005
1.632706e+000,-4.515145e-005,2.988465e-005
1.633500e+000,-6.613260e-005,2.979094e-005
1.634294e+000,-7.972839e-005,2.995270e-005
1.635088e+000,-5.841154e-005,3.028822e-005
1.635882e+000,-2.803082e-005,3.038354e-005
1.636676e+000,-1.091020e-005,3.025275e-005
1.637471e+000,5.203327e-006,3.006946e-005
1.638265e+000,1.560998e-005,2.990700e-005
1.639059e+000,2.064546e-005,2.981289e-005
1.639853e+000,2.803082e-005,2.975249e-005
1.640647e+000,1.997406e-005,2.972088e-005
1.641441e+000,3.189136e-006,2.967114e-005
1.642235e+000,1.678492e-007,2.959367e-005
1.643029e+000,-1.040665e-005,2.951683e-005
1.643824e+000,-2.232395e-005,2.946542e-005
1.644618e+000,-3.071641e-005,2.944625e-005
1.645412e+000,-4.716563e-005,2.943262e-005
1.646206e+000,-6.126497e-005,2.948247e-005
1.647000e+000,-6.999313e-005,2.963161e-005
1.647794e+000,-6.596475e-005,2.984451e-005
1.648588e+000,-6.680400e-005,2.998015e-005
1.649382e+000,-3.575189e-005,3.012846e-005
1.650176e+000,1.124590e-005,3.015144e-005
1.650971e+000,4.414435e-005,3.014525e-005
1.651765e+000,5.757229e-005,3.024639e-005
1.652559e+000,5.186542e-005,3.042035e-005
1.653353e+000,2.735943e-005,3.056077e-005
1.654147e+000,-1.174945e-006,3.059868e-005
1.654941e+000,-1.963836e-005,3.059674e-005
1.655735e+000,-2.836652e-005,3.061491e-005
1.656529e+000,-2.601663e-005,3.065092e-005
1.657324e+000,-2.517739e-005,3.068361e-005
1.658118e+000,-3.373770e-005,3.071642e-005
1.658912e+000,-3.138781e-005,3.076802e-005
1.659706e+000,-2.635233e-005,3.080637e-005
1.660500e+000,-1.930266e-005,3.083449e-005
1.661294e+000,-1.359579e-005,3.084680e-005
1.662088e+000,-1.141375e-005,3.083644e-005
1.662882e+000,-1.158160e-005,3.079909e-005
1.663676e+000,-8.224612e-006,3.075615e-005
1.664471e+000,-8.224612e-006,3.073226e-005
1.665265e+000,-1.107805e-005,3.072711e-005
1.666059e+000,-1.091020e-005,3.073168e-005
1.666853e+000,-1.158160e-005,3.073767e-005
1.667647e+000,-8.224612e-006,3.074303e-005
1.668441e+000,-9.567407e-006,3.072621e-005
1.669235e+000,-1.443504e-005,3.069896e-005
1.670029e+000,-1.594568e-005,3.068507e-005
1.670824e+000,-1.426719e-005,3.065600e-005
1.671618e+000,-1.695277e-005,3.061966e-005
1.672412e+000,-2.500954e-005,3.062476e-005
1.673206e+000,-3.121996e-005,3.065603e-005
1.674000e+000,-3.810178e-005,3.070661e-005
1.674794e+000,-3.004501e-005,3.077816e-005
1.675588e+000,-1.527428e-005,3.082043e-005
1.676382e+000,-1.846342e-006,3.082706e-005
1.677176e+000,6.546120e-006,3.081180e-005
1.677971e+000,1.057450e-005,3.080087e-005
1.678765e+000,1.309224e-005,3.079459e-005
1.679559e+000,1.661708e-005,3.079031e-005
1.680353e+000,1.560998e-005,3.080049e-005
1.681147e+000,1.460288e-005,3.081297e-005
1.681941e+000,9.063859e-006,3.079166e-005
1.682735e+000,-2.182040e-006,3.066887e-005
1.683529e+000,-1.292439e-005,3.040751e-005
1.684324e+000,-1.359579e-005,3.010116e-005
1.685118e+000,-1.225299e-005,2.992892e-005
1.685912e+000,-1.023880e-005,2.990999e-005
1.686706e+000,-1.426719e-005,2.989573e-005
1.687500e+000,-1.963836e-005,2.975545e-005
1.688294e+000,-1.963836e-005,2.953524e-005
1.689088e+000,-1.863127e-005,2.939127e-005
1.689882e+000,-1.829557e-005,2.935950e-005
1.690676e+000,-1.560998e-005,2.937556e-005
1.691471e+000,-2.500954e-005,2.938063e-005
1.692265e+000,-3.776608e-005,2.936450e-005
1.693059e+000,-3.071641e-005,2.938669e-005
1.693853e+000,-2.198825e-005,2.939625e-005
1.694647e+000,-1.493858e-005,2.939035e-005
1.695441e+000,-1.980621e-005,2.938118e-005
1.696235e+000,-2.030976e-005,2.936187e-005
1.697029e+000,-1.124590e-005,2.932964e-005
1.697824e+000,-5.203327e-006,2.928856e-005
1.698618e+000,-1.023880e-005,2.923981e-005
1.699412e+000,-6.881819e-006,2.920168e-005
1.700206e+000,5.203327e-006,2.915930e-005
1.701000e+000,1.292439e-005,2.911200e-005
1.701794e+000,1.326009e-005,2.907173e-005
1.702588e+000,7.217518e-006,2.904475e-005
1.703382e+000,3.524834e-006,2.901818e-005
1.704176e+000,-1.846342e-006,2.899622e-005
1.704971e+000,-8.224612e-006,2.893872e-005
1.705765e+000,-1.560998e-005,2.888702e-005
1.706559e+000,-1.829557e-005,2.888461e-005
1.707353e+000,-2.719158e-005,2.889991e-005
1.708147e+000,-3.071641e-005,2.893949e-005
1.708941e+000,-3.038071e-005,2.899136e-005
1.709735e+000,-3.138781e-005,2.904145e-005
1.710529e+000,-3.038071e-005,2.909541e-005
1.711324e+000,-2.752728e-005,2.914580e-005
1.712118e+000,-2.433814e-005,2.918702e-005
1.712912e+000,-2.635233e-005,2.921674e-005
1.713706e+000,-4.682994e-005,2.925145e-005
1.714500e+000,-8.308538e-005,2.936693e-005
1.715294e+000,-9.248493e-005,2.972693e-005
1.716088e+000,-7.939269e-005,3.012505e-005
1.716882e+000,-5.018692e-005,3.039684e-005
1.717676e+000,-1.359579e-005,3.049585e-005
1.718471e+000,2.937362e-005,3.048178e-005
1.719265e+000,8.711375e-005,3.050159e-005
1.720059e+000,1.324331e-004,3.087396e-005
1.720853e+000,1.401541e-004,3.176563e-005
1.721647e+000,1.257191e-004,3.272898e-005
1.722441e+000,8.442817e-005,3.347379e-005
1.723235e+000,2.870222e-005,3.379654e-005
1.724029e+000,-1.158160e-005,3.381899e-005
1.724824e+000,-3.978027e-005,3.381334e-005
1.725618e+000,-5.035477e-005,3.388510e-005
1.726412e+000,-6.126497e-005,3.400261e-005
1.727206e+000,-6.730755e-005,3.415870e-005
1.728000e+000,-5.723659e-005,3.434544e-005
1.728794e+000,-4.850843e-005,3.447667e-005
1.729588e+000,-4.313725e-005,3.456491e-005
1.730382e+000,-3.944457e-005,3.462622e-005
1.731176e+000,-3.659113e-005,3.467716e-005
1.731971e+000,-3.709468e-005,3.472969e-005
1.732765e+000,-3.239490e-005,3.478426e-005
1.733559e+000,-2.870222e-005,3.482015e-005
1.734353e+000,-2.618448e-005,3.484619e-005
1.735147e+000,-2.635233e-005,3.484415e-005
1.735941e+000,-2.299535e-005,3.477986e-005
1.736735e+000,-2.165255e-005,3.471883e-005
1.737529e+000,-1.829557e-005,3.469219e-005
1.738324e+000,-1.225299e-005,3.466839e-005
1.739118e+000,-1.242084e-005,3.465991e-005
1.739912e+000,-1.023880e-005,3.466689e-005
1.740706e+000,-5.539025e-006,3.466519e-005
1.741500e+000,-2.182040e-006,3.464764e-005
1.742294e+000,-7.049668e-006,3.462697e-005
1.743088e+000,-7.888914e-006,3.461090e-005
1.743882e+000,-4.531929e-006,3.459780e-005
1.744676e+000,-9.903105e-006,3.459749e-005
1.745471e+000,-2.316319e-005,3.460092e-005
1.746265e+000,-2.433814e-005,3.462545e-005
1.747059e+000,-2.165255e-005,3.465221e-005
1.747853e+000,-1.292439e-005,3.466685e-005
1.748647e+000,-2.182040e-006,3.466079e-005
1.749441e+000,3.189136e-006,3.464780e-005
1.750235e+000,5.203327e-006,3.463480e-005
1.751029e+000,6.210422e-006,3.460410e-005
1.751824e+000,1.510643e-006,3.456795e-005
1.752618e+000,-6.210422e-006,3.454744e-005
1.753412e+000,-9.567407e-006,3.452893e-005
1.754206e+000,-9.567407e-006,3.451085e-005
1.755000e+000,-7.217518e-006,3.449276e-005
1.755794e+000,-1.107805e-005,3.447612e-005
1.756588e+000,-1.560998e-005,3.446798e-005
1.757382e+000,-1.661708e-005,3.446699e-005
1.758176e+000,-1.560998e-005,3.446313e-005
1.758971e+000,-1.493858e-005,3.446476e-005
1.759765e+000,-1.560998e-005,3.447309e-005
1.760559e+000,-1.628138e-005,3.448216e-005
1.761353e+000,-1.510643e-005,3.448820e-005
1.762147e+000,-1.493858e-005,3.447432e-005
1.762941e+000,-1.896696e-005,3.443614e-005
1.763735e+000,-4.347295e-005,3.433771e-005
1.764529e+000,-6.395056e-005,3.411733e-005
1.765324e+000,-5.052262e-005,3.400632e-005
1.766118e+000,-3.860533e-005,3.400632e-005
1.766912e+000,-3.105211e-005,3.407325e-005
1.767706e+000,-1.644922e-005,3.407799e-005
1.768500e+000,-1.510643e-006,3.392250e-005
1.769294e+000,7.049668e-006,3.360750e-005
1.770088e+000,1.795987e-005,3.333237e-005
1.770882e+000,3.004501e-005,3.323986e-005
1.771676e+000,5.421531e-005,3.327549e-005
1.772471e+000,8.174258e-005,3.341585e-005
1.773265e+000,8.711375e-005,3.373030e-005
1.774059e+000,7.570001e-005,3.408145e-005
1.774853e+000,5.220111e-005,3.434785e-005
1.775647e+000,1.460288e-005,3.447357e-005
1.776441e+000,-3.944457e-005,3.448233e-005
1.777235e+000,-5.925078e-005,3.455242e-005
1.778029e+000,-6.294347e-005,3.470012e-005
1.778824e+000,-6.025788e-005,3.483251e-005
1.779618e+000,-5.857939e-005,3.491202e-005
1.780412e+000,-5.018692e-005,3.496557e-005
1.781206e+000,-3.541619e-005,3.495458e-005
1.782000e+000,-2.635233e-005,3.484055e-005
1.782794e+000,-2.232395e-005,3.467706e-005
1.783588e+000,-1.695277e-005,3.450171e-005
1.784382e+000,-1.896696e-005,3.434517e-005
1.785176e+000,-2.433814e-005,3.426440e-005
1.785971e+000,-2.383459e-005,3.424663e-005
1.786765e+000,-1.846342e-005,3.425387e-005
1.787559e+000,-2.064546e-005,3.425980e-005
1.788353e+000,-2.198825e-005,3.426876e-005
1.789147e+000,-2.366674e-005,3.428962e-005
1.789941e+000,-2.198825e-005,3.431546e-005
1.790735e+000,-1.628138e-005,3.433570e-005
1.791529e+000,-1.695277e-005,3.434024e-005
1.792324e+000,-1.846342e-005,3.434413e-005
1.793118e+000,-1.829557e-005,3.435971e-005
1.793912e+000,-1.560998e-005,3.432350e-005
1.794706e+000,-9.735256e-006,3.408895e-005
1.795500e+000,-5.539025e-006,3.379011e-005
1.796294e+000,-8.392462e-006,3.355543e-005
1.797088e+000,-1.191730e-005,3.342586e-005
1.797882e+000,-1.225299e-005,3.341488e-005
1.798676e+000,-1.426719e-005,3.340608e-005
1.799471e+000,-1.829557e-005,3.333109e-005
1.800265e+000,-1.896696e-005,3.322004e-005
1.801059e+000,-1.628138e-005,3.314379e-005
1.801853e+000,-1.527428e-005,3.308172e-005
1.802647e+000,-1.258869e-005,3.301080e-005
1.803441e+000,-8.224612e-006,3.293944e-005
1.804235e+000,-1.023880e-005,3.288764e-005
1.805029e+000,-1.997406e-005,3.285646e-005
1.805824e+000,-1.846342e-005,3.284299e-005
1.806618e+000,-1.141375e-005,3.282232e-005
1.807412e+000,-4.867628e-006,3.279231e-005
1.808206e+000,-7.553216e-006,3.276058e-005
1.809000e+000,-1.678492e-007,3.273212e-005
1.809794e+000,5.203327e-006,3.270249e-005
1.810588e+000,-1.628138e-005,3.267805e-005
1.811382e+000,-4.716563e-005,3.267020e-005
1.812176e+000,-4.649424e-005,3.276557e-005
1.812971e+000,-2.500954e-005,3.286718e-005
1.813765e+000,-1.628138e-005,3.288126e-005
1.814559e+000,-9.903105e-006,3.271785e-005
1.815353e+000,-4.196231e-006,3.255134e-005
1.816147e+000,-3.524834e-006,3.248482e-005
1.816941e+000,1.678492e-007,3.247189e-005
1.817735e+000,8.560311e-006,3.246453e-005
1.818529e+000,3.440909e-005,3.236799e-005
1.819324e+000,6.092927e-005,3.225136e-005
1.820118e+000,6.562905e-005,3.228039e-005
1.820912e+000,5.354391e-005,3.236006e-005
1.821706e+000,2.903792e-005,3.240738e-005
1.822500e+000,6.546120e-006,3.242207e-005
1.823294e+000,-8.896010e-006,3.242111e-005
1.824088e+000,-3.508049e-005,3.242399e-005
1.824882e+000,-3.256275e-005,3.246138e-005
1.825676e+000,-2.702373e-005,3.244589e-005
1.826471e+000,-2.030976e-005,3.235298e-005
1.827265e+000,-9.567407e-006,3.226677e-005
1.828059e+000,-1.091020e-005,3.220756e-005
1.828853e+000,-2.366674e-005,3.216153e-005
1.829647e+000,-3.172351e-005,3.213621e-005
1.830441e+000,-3.575189e-005,3.214234e-005
1.831235e+000,-3.524834e-005,3.217868e-005
1.832029e+000,-3.172351e-005,3.221972e-005
1.832824e+000,-3.642328e-005,3.225038e-005
1.833618e+000,-4.448005e-005,3.229746e-005
1.834412e+000,-4.179446e-005,3.237716e-005
1.835206e+000,-3.256275e-005,3.244886e-005
1.836000e+000,-2.870222e-005,3.248967e-005
1.836794e+000,-2.500954e-005,3.252615e-005
1.837588e+000,-2.232395e-005,3.255288e-005
1.838382e+000,-2.098116e-005,3.257178e-005
1.839176e+000,-1.728847e-005,3.258655e-005
1.839971e+000,-1.393149e-005,3.259668e-005
1.840765e+000,-1.158160e-005,3.260258e-005
1.841559e+000,-7.217518e-006,3.260682e-005
1.842353e+000,-1.091020e-005,3.260550e-005
1.843147e+000,-1.493858e-005,3.260550e-005
1.843941e+000,-1.174945e-005,3.261128e-005
1.844735e+000,-9.231709e-006,3.261203e-005
1.845529e+000,-9.231709e-006,3.260964e-005
1.846324e+000,-6.546120e-006,3.260432e-005
1.847118e+000,-5.874723e-006,3.259648e-005
1.847912e+000,-7.553216e-006,3.258626e-005
1.848706e+000,-8.392462e-006,3.257386e-005
1.849500e+000,-1.057450e-005,3.255972e-005
1.850294e+000,-1.560998e-005,3.255222e-005
1.851088e+000,-1.527428e-005,3.256012e-005
1.851882e+000,-1.493858e-005,3.257103e-005
1.852676e+000,-1.158160e-005,3.258183e-005
1.853471e+000,-8.560311e-006,3.258778e-005
1.854265e+000,-8.896010e-006,3.258986e-005
1.855059e+000,-6.210422e-006,3.259286e-005
1.855853e+000,-3.524834e-006,3.259286e-005
1.856647e+000,-2.517739e-006,3.257331e-005
1.857441e+000,-5.539025e-006,3.253611e-005
1.858235e+000,-7.385367e-006,3.251606e-005
1.859029e+000,-1.695277e-005,3.251393e-005
1.859824e+000,-1.829557e-005,3.252714e-005
1.860618e+000,-2.433814e-005,3.254236e-005
1.861412e+000,-2.601663e-005,3.256802e-005
1.862206e+000,-1.930266e-005,3.259068e-005
1.863000e+000,-8.392462e-006,3.258703e-005
1.863794e+000,3.860533e-006,3.257908e-005
1.864588e+000,1.443504e-005,3.257468e-005
1.865382e+000,2.064546e-005,3.258039e-005
1.866176e+000,1.863127e-005,3.259674e-005
1.866971e+000,1.376364e-005,3.259910e-005
1.867765e+000,-6.546120e-006,3.256715e-005
1.868559e+000,-2.467384e-005,3.247814e-005
1.869353e+000,-2.769513e-005,3.237934e-005
1.870147e+000,-2.316319e-005,3.232974e-005
1.870941e+000,-2.299535e-005,3.234793e-005
1.871735e+000,-3.407340e-005,3.235229e-005
1.872529e+000,-3.508049e-005,3.231203e-005
1.873324e+000,-3.709468e-005,3.227953e-005
1.874118e+000,-3.172351e-005,3.231047e-005
1.874912e+000,-2.601663e-005,3.234751e-005
1.875706e+000,-2.232395e-005,3.238050e-005
1.876500e+000,-2.769513e-005,3.240111e-005
1.877294e+000,-2.702373e-005,3.243699e-005
1.878088e+000,-1.628138e-005,3.246950e-005
1.878882e+000,7.217518e-006,3.246548e-005
1.879676e+000,4.548714e-005,3.246671e-005
1.880471e+000,7.368582e-005,3.256593e-005
1.881265e+000,6.932174e-005,3.281033e-005
1.882059e+000,3.642328e-005,3.298563e-005
1.882853e+000,-4.196231e-006,3.295124e-005
1.883647e+000,-4.011597e-005,3.274006e-005
1.884441e+000,-6.613260e-005,3.250835e-005
1.885235e+000,-6.529335e-005,3.255542e-005
1.886029e+000,-4.515145e-005,3.272507e-005
1.886824e+000,-2.635233e-005,3.281834e-005
1.887618e+000,-1.560998e-005,3.285070e-005
1.888412e+000,-6.881819e-006,3.285070e-005
1.889206e+000,-1.678492e-007,3.283234e-005
1.890000e+000,-2.182040e-006,3.279421e-005
1.890794e+000,-6.546120e-006,3.277506e-005
1.891588e+000,-6.881819e-006,3.277665e-005
1.892382e+000,-5.035477e-006,3.277895e-005
1.893176e+000,-7.217518e-006,3.277492e-005
1.893971e+000,-2.030976e-005,3.275323e-005
1.894765e+000,-2.870222e-005,3.272740e-005
1.895559e+000,-2.903792e-005,3.265918e-005
1.896353e+000,-2.769513e-005,3.251697e-005
1.897147e+000,-2.467384e-005,3.231400e-005
1.897941e+000,-1.594568e-005,3.212905e-005
1.898735e+000,-1.225299e-005,3.191979e-005
1.899529e+000,-1.258869e-005,3.186346e-005
1.900324e+000,-1.426719e-005,3.186506e-005
1.901118e+000,-1.829557e-005,3.177773e-005
1.901912e+000,-1.896696e-005,3.162806e-005
1.902706e+000,-1.527428e-005,3.151052e-005
1.903500e+000,-1.258869e-005,3.148447e-005
1.904294e+000,-1.359579e-005,3.149242e-005
1.905088e+000,-1.460288e-005,3.148226e-005
1.905882e+000,-1.762417e-005,3.145233e-005
1.906676e+000,-1.174945e-005,3.143378e-005
1.907471e+000,-1.091020e-005,3.140866e-005
1.908265e+000,-8.896010e-006,3.135694e-005
1.909059e+000,-5.539025e-006,3.131090e-005
1.909853e+000,-8.896010e-006,3.127712e-005
1.910647e+000,-1.426719e-005,3.126218e-005
1.911441e+000,-2.030976e-005,3.126313e-005
1.912235e+000,-2.165255e-005,3.127750e-005
1.913029e+000,-2.836652e-005,3.129454e-005
1.913824e+000,-3.843748e-005,3.133202e-005
1.914618e+000,-4.817273e-005,3.140358e-005
1.915412e+000,-4.179446e-005,3.151483e-005
1.916206e+000,-2.903792e-005,3.159697e-005
1.917000e+000,-6.881819e-006,3.163268e-005
1.917794e+000,1.460288e-005,3.163165e-005
1.918588e+000,3.675899e-005,3.163778e-005
1.919382e+000,4.951553e-005,3.169525e-005
1.920176e+000,5.018692e-005,3.180546e-005
1.920971e+000,4.145876e-005,3.192116e-005
1.921765e+000,1.762417e-005,3.199248e-005
1.922559e+000,1.393149e-005,3.197681e-005
1.923353e+000,8.896010e-006,3.193791e-005
1.924147e+000,-2.182040e-006,3.186940e-005
1.924941e+000,-2.568093e-005,3.182451e-005
1.925735e+000,-3.776608e-005,3.184583e-005
1.926529e+000,-5.186542e-005,3.191689e-005
1.927324e+000,-6.462196e-005,3.204869e-005
1.928118e+000,-6.361486e-005,3.224999e-005
1.928912e+000,-3.927672e-005,3.244078e-005
1.929706e+000,5.035477e-007,3.250289e-005
1.930500e+000,4.011597e-005,3.249096e-005
1.931294e+000,5.085832e-005,3.255930e-005
1.932088e+000,2.064546e-005,3.268156e-005
1.932882e+000,-2.500954e-005,3.270209e-005
1.933676e+000,-6.126497e-005,3.272440e-005
1.934471e+000,-6.327916e-005,3.289759e-005
1.935265e+000,-5.253681e-005,3.308361e-005
1.936059e+000,-3.105211e-005,3.321117e-005
1.936853e+000,-4.867628e-006,3.324762e-005
1.937647e+000,1.393149e-005,3.323028e-005
1.938441e+000,1.997406e-005,3.322110e-005
1.939235e+000,1.628138e-005,3.322358e-005
1.940029e+000,1.057450e-005,3.322024e-005
1.940824e+000,3.860533e-006,3.321392e-005
1.941618e+000,-2.517739e-006,3.318464e-005
1.942412e+000,-8.224612e-006,3.311643e-005
1.943206e+000,-2.836652e-005,3.307429e-005
1.944000e+000,-3.239490e-005,3.308975e-005
1.944794e+000,-2.635233e-005,3.312949e-005
1.945588e+000,-2.568093e-005,3.314401e-005
1.946382e+000,-2.903792e-005,3.315587e-005
1.947176e+000,-2.601663e-005,3.319028e-005
1.947971e+000,-1.460288e-005,3.322144e-005
1.948765e+000,-7.217518e-006,3.322664e-005
1.949559e+000,-1.124590e-005,3.322686e-005
1.950353e+000,-1.158160e-005,3.323162e-005
1.951147e+000,-1.158160e-005,3.323005e-005
1.951941e+000,-1.896696e-005,3.322805e-005
1.952735e+000,-2.433814e-005,3.324279e-005
1.953529e+000,-1.527428e-005,3.327056e-005
1.954324e+000,-7.553216e-006,3.328156e-005
1.955118e+000,-3.860533e-006,3.328105e-005
1.955912e+000,-6.881819e-006,3.327010e-005
1.956706e+000,-1.040665e-005,3.325635e-005
1.957500e+000,-1.628138e-005,3.322612e-005
1.958294e+000,-1.829557e-005,3.319359e-005
1.959088e+000,-1.560998e-005,3.316535e-005
1.959882e+000,-1.309224e-005,3.312973e-005
1.960676e+000,-1.493858e-005,3.309359e-005
1.961471e+000,-1.963836e-005,3.306786e-005
1.962265e+000,-1.829557e-005,3.305790e-005
1.963059e+000,-1.326009e-005,3.304057e-005
1.963853e+000,-1.258869e-005,3.294321e-005
1.964647e+000,-1.661708e-005,3.261557e-005
1.965441e+000,-1.426719e-005,3.220891e-005
1.966235e+000,-1.258869e-005,3.190593e-005
1.967029e+000,-1.225299e-005,3.178792e-005
1.967824e+000,-1.023880e-005,3.178618e-005
1.968618e+000,-1.158160e-005,3.174819e-005
1.969412e+000,-1.158160e-005,3.137206e-005
1.970206e+000,-1.359579e-005,3.047587e-005
1.971000e+000,-1.493858e-005,2.944162e-005
1.971794e+000,-1.359579e-005,2.858644e-005
1.972588e+000,-1.292439e-005,2.819703e-005
1.973382e+000,-9.903105e-006,2.815991e-005
1.974176e+000,-5.874723e-006,2.815787e-005
1.974971e+000,-5.203327e-006,2.807020e-005
1.975765e+000,-7.217518e-006,2.792753e-005
1.976559e+000,-5.706874e-006,2.771569e-005
1.977353e+000,-8.224612e-006,2.745606e-005
1.978147e+000,-9.567407e-006,2.726936e-005
1.978941e+000,-1.124590e-005,2.713698e-005
1.979735e+000,-1.426719e-005,2.703501e-005
1.980529e+000,-1.258869e-005,2.695525e-005
1.981324e+000,-1.376364e-005,2.688542e-005
1.982118e+000,-1.628138e-005,2.681505e-005
1.982912e+000,-1.493858e-005,2.676843e-005
1.983706e+000,-1.292439e-005,2.673268e-005
1.984500e+000,-1.158160e-005,2.670177e-005
1.985294e+000,-9.567407e-006,2.666834e-005
1.986088e+000,-1.191730e-005,2.664222e-005
1.986882e+000,-1.913481e-005,2.662268e-005
1.987676e+000,-2.400244e-005,2.662456e-005
1.988471e+000,-1.644922e-005,2.665002e-005
1.989265e+000,-7.553216e-006,2.665697e-005
1.990059e+000,-3.524834e-006,2.665412e-005
1.990853e+000,-1.091020e-005,2.665302e-005
1.991647e+000,-9.567407e-006,2.665985e-005
1.992441e+000,-1.678492e-007,2.666235e-005
1.993235e+000,1.846342e-006,2.665863e-005
1.994029e+000,-1.359579e-005,2.665761e-005
1.994824e+000,-9.567407e-006,2.666279e-005
1.995618e+000,1.678492e-006,2.663620e-005
1.996412e+000,2.853437e-006,2.660094e-005
1.997206e+000,1.678492e-007,2.657335e-005
1.998000e+000,-1.510643e-006,2.656334e-005
1.998794e+000,2.853437e-006,2.656319e-005
1.999588e+000,3.021286e-006,2.656307e-005
2.000382e+000,-8.392462e-007,2.656199e-005
2.001176e+000,-9.063859e-006,2.655972e-005
2.001971e+000,-1.913481e-005,2.656451e-005
2.002765e+000,-3.541619e-005,2.658414e-005
2.003559e+000,-5.354391e-005,2.665370e-005
2.004353e+000,-6.227207e-005,2.681899e-005
2.005147e+000,-7.066453e-005,2.704519e-005
2.005941e+000,-5.052262e-005,2.733046e-005
2.006735e+000,-2.333104e-005,2.746465e-005
2.007529e+000,-1.678492e-007,2.748020e-005
2.008324e+000,1.695277e-005,2.746608e-005
2.009118e+000,2.131685e-005,2.746980e-005
2.009912e+000,1.980621e-005,2.748201e-005
2.010706e+000,1.057450e-005,2.748938e-005
2.011500e+000,7.888914e-006,2.748264e-005
2.012294e+000,8.224612e-006,2.747332e-005
2.013088e+000,1.460288e-005,2.745638e-005
2.013882e+000,1.930266e-005,2.735897e-005
2.014676e+000,1.376364e-005,2.714176e-005
2.015471e+000,1.191730e-005,2.700277e-005
2.016265e+000,8.896010e-006,2.692314e-005
2.017059e+000,5.035477e-007,2.687074e-005
2.017853e+000,-8.560311e-006,2.685472e-005
2.018647e+000,-1.628138e-005,2.685892e-005
2.019441e+000,-3.172351e-005,2.687169e-005
2.020235e+000,-4.313725e-005,2.691218e-005
2.021029e+000,-4.129091e-005,2.696881e-005
2.021824e+000,-4.313725e-005,2.689583e-005
2.022618e+000,-5.790799e-005,2.660888e-005
2.023412e+000,-6.999313e-005,2.635419e-005
2.024206e+000,-5.925078e-005,2.630391e-005
2.025000e+000,-3.726253e-005,2.635143e-005
2.025794e+000,-1.510643e-005,2.642235e-005
2.026588e+000,5.874723e-006,2.634222e-005
2.027382e+000,1.930266e-005,2.613124e-005
2.028176e+000,2.265965e-005,2.591160e-005
2.028971e+000,1.997406e-005,2.571930e-005
2.029765e+000,9.735256e-006,2.553086e-005
2.030559e+000,4.196231e-006,2.537922e-005
2.031353e+000,-8.224612e-006,2.530151e-005
2.032147e+000,-3.004501e-005,2.526203e-005
2.032941e+000,-6.025788e-005,2.528751e-005
2.033735e+000,-6.596475e-005,2.549719e-005
2.034529e+000,-5.555810e-005,2.574526e-005
2.035324e+000,-4.817273e-005,2.589908e-005
2.036118e+000,-4.145876e-005,2.600661e-005
2.036912e+000,-3.709468e-005,2.609084e-005
2.037706e+000,-3.004501e-005,2.614874e-005
2.038500e+000,-1.460288e-005,2.617426e-005
2.039294e+000,1.527428e-005,2.615315e-005
2.040088e+000,5.891508e-005,2.613791e-005
2.040882e+000,8.375677e-005,2.633250e-005
2.041676e+000,8.610666e-005,2.673624e-005
2.042471e+000,6.831464e-005,2.715425e-005
2.043265e+000,4.481575e-005,2.740712e-005
2.044059e+000,-6.881819e-006,2.750946e-005
2.044853e+000,-4.448005e-005,2.750671e-005
2.045647e+000,-5.085832e-005,2.761924e-005
2.046441e+000,-3.978027e-005,2.776393e-005
2.047235e+000,-2.836652e-005,2.784642e-005
2.048029e+000,-2.870222e-005,2.788382e-005
2.048824e+000,-4.448005e-005,2.791922e-005
2.049618e+000,-8.073549e-005,2.801282e-005
2.050412e+000,-8.744946e-005,2.836073e-005
2.051206e+000,-6.327916e-005,2.877223e-005
2.052000e+000,-3.273060e-005,2.898018e-005
2.052794e+000,-6.546120e-006,2.903029e-005
2.053588e+000,1.091020e-005,2.902893e-005
2.054382e+000,3.205920e-005,2.902971e-005
2.055176e+000,3.659113e-005,2.906418e-005
2.055971e+000,3.877317e-005,2.911881e-005
2.056765e+000,3.810178e-005,2.919380e-005
2.057559e+000,2.534523e-005,2.927159e-005
2.058353e+000,9.903105e-006,2.930341e-005
2.059147e+000,-6.210422e-006,2.930874e-005
2.059941e+000,-8.224612e-006,2.930936e-005
2.060735e+000,-6.546120e-006,2.929863e-005
2.061529e+000,-2.903792e-005,2.917982e-005
2.062324e+000,-3.726253e-005,2.910778e-005
2.063118e+000,-3.121996e-005,2.914949e-005
2.063912e+000,-2.232395e-005,2.918823e-005
2.064706e+000,-1.963836e-005,2.921006e-005
2.065500e+000,-1.829557e-005,2.923011e-005
2.066294e+000,-1.863127e-005,2.924767e-005
2.067088e+000,-2.265965e-005,2.926656e-005
2.067882e+000,-2.400244e-005,2.929050e-005
2.068676e+000,-2.299535e-005,2.925743e-005
2.069471e+000,-2.433814e-005,2.908365e-005
2.070265e+000,-2.366674e-005,2.887954e-005
2.071059e+000,-2.131685e-005,2.875206e-005
2.071853e+000,-2.165255e-005,2.873052e-005
2.072647e+000,-2.064546e-005,2.875412e-005
2.073441e+000,-1.560998e-005,2.877334e-005
2.074235e+000,-1.393149e-005,2.871866e-005
2.075029e+000,-1.460288e-005,2.867059e-005
2.075824e+000,-1.493858e-005,2.864186e-005
2.076618e+000,-1.158160e-005,2.863134e-005
2.077412e+000,-1.023880e-005,2.863371e-005
2.078206e+000,-1.174945e-005,2.863292e-005
2.079000e+000,-8.896010e-006,2.860944e-005
2.079794e+000,-4.196231e-006,2.855778e-005
2.080588e+000,-4.867628e-006,2.848741e-005
2.081382e+000,-1.225299e-005,2.841920e-005
2.082176e+000,-2.887007e-005,2.837119e-005
2.082971e+000,-3.944457e-005,2.834349e-005
2.083765e+000,-4.313725e-005,2.831974e-005
2.084559e+000,-2.836652e-005,2.832615e-005
2.085353e+000,-8.560311e-006,2.831178e-005
2.086147e+000,1.225299e-005,2.826953e-005
2.086941e+000,2.232395e-005,2.824274e-005
2.087735e+000,2.131685e-005,2.824274e-005
2.088529e+000,1.359579e-005,2.824354e-005
2.089324e+000,-6.881819e-006,2.823711e-005
2.090118e+000,-1.930266e-005,2.822884e-005
2.090912e+000,-2.098116e-005,2.824229e-005
2.091706e+000,-1.225299e-005,2.826416e-005
2.092500e+000,2.517739e-006,2.826591e-005
2.093294e+000,1.695277e-005,2.825370e-005
2.094088e+000,1.728847e-005,2.826211e-005
2.094882e+000,4.196231e-006,2.827415e-005
2.095676e+000,-7.553216e-006,2.827034e-005
2.096471e+000,-1.863127e-005,2.827114e-005
2.097265e+000,-1.930266e-005,2.828874e-005
2.098059e+000,-1.493858e-005,2.830650e-005
2.098853e+000,-4.196231e-006,2.831509e-005
2.099647e+000,2.014191e-006,2.830979e-005
2.100441e+000,3.189136e-006,2.829631e-005
2.101235e+000,-3.356985e-007,2.828375e-005
2.102029e+000,-5.874723e-006,2.827119e-005
2.102824e+000,-9.735256e-006,2.826558e-005
2.103618e+000,-1.695277e-005,2.826679e-005
2.104412e+000,-2.114900e-005,2.827852e-005
2.105206e+000,-3.340200e-005,2.830152e-005
2.106000e+000,-5.421531e-005,2.836353e-005
2.106794e+000,-5.455100e-005,2.852771e-005
2.107588e+000,-5.404745e-005,2.869163e-005
2.108382e+000,-4.179446e-005,2.885029e-005
2.109176e+000,-2.030976e-005,2.893072e-005
2.109971e+000,-1.242084e-005,2.893500e-005
2.110765e+000,-2.182040e-006,2.891088e-005
2.111559e+000,7.049668e-006,2.887384e-005
2.112353e+000,5.874723e-006,2.885603e-005
2.113147e+000,2.853437e-006,2.885405e-005
2.113941e+000,1.846342e-006,2.885367e-005
2.114735e+000,1.846342e-006,2.884236e-005
2.115529e+000,3.189136e-006,2.881901e-005
2.116324e+000,1.678492e-006,2.880038e-005
2.117118e+000,-1.527428e-005,2.879006e-005
2.117912e+000,-2.467384e-005,2.880060e-005
2.118706e+000,-2.030976e-005,2.880060e-005
2.119500e+000,-2.030976e-005,2.878099e-005
2.120294e+000,-1.712062e-005,2.877412e-005
2.121088e+000,-1.057450e-005,2.876108e-005
2.121882e+000,-7.888914e-006,2.870293e-005
2.122676e+000,-9.063859e-006,2.863804e-005
2.123471e+000,-5.539025e-006,2.856600e-005
2.124265e+000,-9.567407e-006,2.851156e-005
2.125059e+000,-2.735943e-005,2.847885e-005
2.125853e+000,-2.937362e-005,2.849284e-005
2.126647e+000,-1.628138e-005,2.849819e-005
2.127441e+000,-5.035477e-006,2.847219e-005
2.128235e+000,-2.853437e-006,2.845877e-005
2.129029e+000,-2.517739e-006,2.845632e-005
2.129824e+000,-1.174945e-006,2.834065e-005
2.130618e+000,-3.524834e-006,2.803400e-005
2.131412e+000,-3.524834e-006,2.776042e-005
2.132206e+000,-9.567407e-006,2.768493e-005
2.133000e+000,-1.292439e-005,2.768918e-005
2.133794e+000,-1.158160e-005,2.760612e-005
2.134588e+000,-1.560998e-005,2.736049e-005
2.135382e+000,-1.628138e-005,2.712555e-005
2.136176e+000,-1.829557e-005,2.702123e-005
2.136971e+000,-3.105211e-005,2.700003e-005
2.137765e+000,-3.306630e-005,2.704249e-005
2.138559e+000,-2.534523e-005,2.710401e-005
2.139353e+000,-1.963836e-005,2.714172e-005
2.140147e+000,-1.963836e-005,2.716406e-005
2.140941e+000,-1.191730e-005,2.718415e-005
2.141735e+000,-3.189136e-006,2.718970e-005
2.142529e+000,3.860533e-006,2.718881e-005
2.143324e+000,8.560311e-006,2.718663e-005
2.144118e+000,7.888914e-006,2.716675e-005
2.144912e+000,2.853437e-006,2.712208e-005
2.145706e+000,-8.896010e-006,2.707300e-005
2.146500e+000,-2.467384e-005,2.703251e-005
2.147294e+000,-4.313725e-005,2.703251e-005
2.148088e+000,-5.992218e-005,2.712698e-005
2.148882e+000,-6.160067e-005,2.732820e-005
2.149676e+000,-4.985122e-005,2.753925e-005
2.150471e+000,-1.963836e-005,2.767087e-005
2.151265e+000,2.803082e-005,2.767380e-005
2.152059e+000,5.555810e-005,2.769830e-005
2.152853e+000,5.690089e-005,2.786185e-005
2.153647e+000,4.045167e-005,2.803729e-005
2.154441e+000,1.795987e-005,2.811960e-005
2.155235e+000,-9.063859e-006,2.812579e-005
2.156029e+000,-2.433814e-005,2.811285e-005
2.156824e+000,-3.306630e-005,2.813857e-005
2.157618e+000,-3.407340e-005,2.819366e-005
2.158412e+000,-3.407340e-005,2.825469e-005
2.159206e+000,-2.903792e-005,2.831832e-005
2.160000e+000,-2.165255e-005,2.836125e-005
2.160794e+000,-2.165255e-005,2.837614e-005
2.161588e+000,-2.719158e-005,2.837931e-005
2.162382e+000,-3.038071e-005,2.839448e-005
2.163176e+000,-2.786297e-005,2.840112e-005
2.163971e+000,-2.903792e-005,2.836178e-005
2.164765e+000,-2.366674e-005,2.827871e-005
2.165559e+000,-1.493858e-005,2.821181e-005
2.166353e+000,-7.049668e-006,2.817679e-005
2.167147e+000,-1.023880e-005,2.817692e-005
2.167941e+000,-2.299535e-005,2.817080e-005
2.168735e+000,-1.057450e-005,2.812427e-005
2.169529e+000,6.210422e-006,2.799147e-005
2.170324e+000,1.258869e-005,2.785003e-005
2.171118e+000,1.443504e-005,2.776067e-005
2.171912e+000,1.644922e-005,2.775480e-005
2.172706e+000,4.531929e-006,2.775919e-005
2.173500e+000,-1.829557e-005,2.775583e-005
2.174294e+000,-2.500954e-005,2.777475e-005
2.175088e+000,-1.779202e-005,2.777280e-005
