X [s],R BICEPS BRACHII: EMG 1 [V],X [s].1,R DELTOID ANTERIOR: EMG 2 [V],X [s].5,R DELTOID MEDIUS: EMG 6 [V],X [s].6,R DELTOID POSTERIOR: EMG 7 [V]
0.0,-6.88182e-06,0.0,-1.8967e-05,0.0,6.21042e-06,0.0,-1.2253e-05
0.000794117179931,-7.316255334041806e-06,0.000794117179931,-1.96581473675502e-05,0.000794117179931,5.124339063073179e-06,0.000794117179931,-1.4109223329790968e-05
0.0015882343598621,-6.21042e-06,0.0015882343598621,-2.263985202394753e-05,0.0015882343598621,2.9126816755210483e-06,0.0015882343598621,-1.4385683351042095e-05
0.0023823515397932,-5.460048027932456e-06,0.0023823515397932,-2.1534070967624475e-05,0.0023823515397932,1.056468100638256e-06,0.0023823515397932,-1.3556309013966229e-05
0.0031764687197242,-5.420546648957904e-06,0.0031764687197242,-2.060600480854433e-05,0.0031764687197242,9.972165616855287e-07,0.0031764687197242,-1.2983641675521048e-05
0.0039705858996553,-5.973448949930085e-06,0.0039705858996553,-2.07442269495765e-05,0.0039705858996553,4.571407199813559e-06,0.0039705858996553,-1.260843859990678e-05
0.0047647030795864,-5.637759892763595e-06,0.0047647030795864,-2.217582477688688e-05,0.0047647030795864,4.117242513281573e-06,0.0047647030795864,-1.4188212513281571e-05
0.0055588202595174,-4.86763e-06,0.0055588202595174,-2.4426968333468947e-05,0.0055588202595174,2.5967455628598222e-06,0.0055588202595174,-1.2667706151228538e-05
0.0063529374394485,-6.743586595831614e-06,0.0063529374394485,-2.153406913990932e-05,0.0063529374394485,-5.825274801193136e-07,0.0063529374394485,-1.2509690624145178e-05
0.0071470546193796,-7.424875938919146e-06,0.0071470546193796,-1.8967e-05,0.0071470546193796,-6.022918099165904e-07,0.0071470546193796,-1.448442237556766e-05
0.0079411717993107,-5.53903e-06,0.0079411717993107,-2.0842966829838816e-05,0.0079411717993107,5.232936935577535e-07,0.0079411717993107,-1.2726884224194576e-05
0.0087352889792417,-5.667375746425373e-06,0.0087352889792417,-2.2699104662210197e-05,0.0087352889792417,1.6093617718691326e-06,0.0087352889792417,-1.2766413573343636e-05
0.0095294061591728,-6.170925187909665e-06,0.0095294061591728,-2.3686444172915618e-05,0.0095294061591728,3.97901016134652e-06,0.0095294061591728,-1.32601e-05
0.0103235233391039,-7.395190448073394e-06,0.0103235233391039,-2.5819155419063068e-05,0.0103235233391039,3.435995658061467e-06,0.0103235233391039,-1.2253e-05
0.0111176405190349,-7.632199522932544e-06,0.0111176405190349,-2.5592019333151743e-05,0.0111176405190349,2.576975524468167e-06,0.0111176405190349,-1.388210895874178e-05
0.011911757698966,-6.012924770047463e-06,0.011911757698966,-2.2768215763923475e-05,0.011911757698966,1.4711828449288055e-06,0.011911757698966,-1.401041431014239e-05
0.0127058748788971,-7.434724346773111e-06,0.0127058748788971,-2.4377613016656836e-05,0.0127058748788971,3.959238693546222e-06,0.0127058748788971,-1.3654934774184888e-05
0.0134999920588282,-6.881831453711593e-06,0.0134999920588282,-2.4673807702569567e-05,0.0134999920588282,1.510685814675777e-06,0.0134999920588282,-1.6281371365721017e-05
0.0142941092387592,-5.696927795563807e-06,0.0142941092387592,-2.3044726449801144e-05,0.0142941092387592,-8.39246e-07,0.0142941092387592,-1.4780535219028694e-05
0.0150882264186903,-5.42039914877165e-06,0.0150882264186903,-2.4357837516861223e-05,0.0150882264186903,-1.392016795400382e-06,0.0150882264186903,-1.237162673465652e-05
0.0158823435986214,-7.55322e-06,0.0158823435986214,-2.4970009120480924e-05,0.0158823435986214,-2.735003312198444e-06,0.0158823435986214,-1.09102e-05
0.0166764607785524,-7.276755524468165e-06,0.0166764607785524,-2.425913966348201e-05,0.0166764607785524,-7.404886862426472e-07,0.0166764607785524,-1.0633735524468166e-05
0.0174705779584835,-6.170977779484251e-06,0.0174705779584835,-2.453563529016124e-05,0.0174705779584835,-6.812588198174665e-07,0.0174705779584835,-8.520862485713667e-06
0.0182646951384146,-6.09176992665469e-06,0.0182646951384146,-2.6786808721372964e-05,0.0182646951384146,2.3002728350300973e-06,0.0182646951384146,-8.362688760136096e-06
0.0190588123183456,-9.468655491607406e-06,0.0190588123183456,-2.4732994104247688e-05,0.0190588123183456,5.025604549160741e-06,0.0190588123183456,-1.1482845491607403e-05
0.0198529294982767,-8.501077338959732e-06,0.0198529294982767,-2.2807867141569948e-05,0.0198529294982767,1.1946398488989456e-06,0.0198529294982767,-1.0475730644161073e-05
0.0206470466782078,-9.132906283026298e-06,0.0206470466782078,-2.16526e-05,0.0206470466782078,4.373614358346174e-06,0.0206470466782078,-1.0436410962340062e-05
0.0214411638581389,-9.843899424504597e-06,0.0214411638581389,-2.137622815080001e-05,0.0214411638581389,7.118851982282336e-06,0.0214411638581389,-6.88182e-06
0.0222352810380699,-8.38257139858178e-06,0.0222352810380699,-1.948041466979917e-05,0.0222352810380699,4.51215279716356e-06,0.0222352810380699,-9.448997712524482e-06
0.023029398218001,-6.407907166346958e-06,0.023029398218001,-1.774265077385006e-05,0.023029398218001,4.86763e-06,0.023029398218001,-1.177908716634696e-05
0.0238235153979321,-5.53903e-06,0.0238235153979321,-1.8848513284394138e-05,0.0238235153979321,2.16243134781592e-06,0.0238235153979321,-1.0179581656099222e-05
0.0246176325778631,-6.1314290235264574e-06,0.0246176325778631,-1.840417493133976e-05,0.0246176325778631,5.03548e-07,0.0246176325778631,-9.9031e-06
0.0254117497577942,-6.21042e-06,0.0254117497577942,-1.696267351818591e-05,0.0254117497577942,7.010363265134634e-07,0.0254117497577942,-1.130517900619348e-05
0.0262058669377253,-5.81561107345178e-06,0.0262058669377253,-1.861154061619254e-05,0.0262058669377253,3.268044476512581e-06,0.0262058669377253,-1.0475797033309571e-05
0.0269999841176564,-5.035474273144204e-06,0.0269999841176564,-1.8967e-05,0.0269999841176564,5.036625365017895e-07,0.0269999841176564,-1.1917242731442035e-05
0.0277941012975874,-6.111694125886388e-06,0.0277941012975874,-1.93027e-05,0.0277941012975874,-2.616465874113612e-06,0.0277941012975874,-1.3714251767422509e-05
0.0285882184775185,-6.684307589480072e-06,0.0285882184775185,-1.892753523535064e-05,0.0285882184775185,1.0562950647993008e-06,0.0285882184775185,-1.2786212410519928e-05
0.0293823356574496,-5.479820246382917e-06,0.0293823356574496,-1.957898263923561e-05,0.0293823356574496,3.851289631044582e-07,0.0293823356574496,-1.300334633815611e-05
0.0301764528373806,-5.450168123014054e-06,0.0301764528373806,-2.1534174898832654e-05,0.0301764528373806,1.1551946097059511e-06,0.0301764528373806,-1.4148717497352072e-05
0.0309705700173117,-6.388126152945779e-06,0.0309705700173117,-1.9776585247984937e-05,0.0309705700173117,1.6095011642595665e-06,0.0309705700173117,-1.29244e-05
0.0317646871972428,-7.21752e-06,0.0317646871972428,-2.133648847066019e-05,0.0317646871972428,-6.023738004140445e-07,0.0317646871972428,-1.42672e-05
0.0325588043771738,-6.427661571335795e-06,0.0325588043771738,-2.216593560720029e-05,0.0325588043771738,7.997329194874726e-07,0.0325588043771738,-1.42672e-05
0.0333529215571049,-5.53903e-06,0.0333529215571049,-2.0596052265327544e-05,0.0333529215571049,2.162326853191005e-06,0.0333529215571049,-1.2667631025901983e-05
0.034147038737036,-4.98607241465735e-06,0.034147038737036,-2.200797949194585e-05,0.034147038737036,4.0974148293147e-06,0.034147038737036,-1.05745e-05
0.0349411559169671,-5.558757406587944e-06,0.0349411559169671,-2.1731711474646663e-05,0.0349411559169671,4.413399985638333e-06,0.0349411559169671,-1.1226172005744668e-05
0.0357352730968981,-6.901574295413244e-06,0.0357352730968981,-1.9756886715605867e-05,0.0357352730968981,5.588392713667252e-06,0.0357352730968981,-1.0396772852293376e-05
0.0365293902768292,-7.237289562149573e-06,0.0365293902768292,-2.056632819656759e-05,0.0365293902768292,3.702564781074786e-06,0.0365293902768292,-1.1542060875700852e-05
0.0373235074567603,-6.21042e-06,0.0373235074567603,-2.2244910353858248e-05,0.0373235074567603,2.675802148865063e-06,0.0373235074567603,-1.387228738295502e-05
0.0381176246366913,-5.766122705035557e-06,0.0381176246366913,-2.3656854775445e-05,0.0381176246366913,9.577507040513934e-07,0.0381176246366913,-1.2411007213428152e-05
0.0389117418166224,-5.144062447518119e-06,0.0389117418166224,-2.1109624414733817e-05,0.0389117418166224,-1.3329519109548755e-06,0.0389117418166224,-1.4573357735536012e-05
0.0397058589965535,-5.578311879047574e-06,0.0397058589965535,-2.1415509166380693e-05,0.0397058589965535,-2.85344e-06,0.0397058589965535,-1.6459313800826852e-05
0.0404999761764846,-7.217502819432608e-06,0.0404999761764846,-2.3666653789171103e-05,0.0404999761764846,-2.517757180567392e-06,0.0404999761764846,-1.2588837444539137e-05
0.0412940933564156,-5.430403462811178e-06,0.0412940933564156,-2.3311291951670556e-05,0.0412940933564156,-3.18914e-06,0.0412940933564156,-1.2292505197091772e-05
0.0420882105363467,-5.914142793936414e-06,0.0420882105363467,-2.155396376105933e-05,0.0420882105363467,-2.14301919459546e-06,0.0420882105363467,-1.3664870350158933e-05
0.0428823277162778,-6.9607548844445175e-06,0.0428823277162778,-2.0171542873780977e-05,0.0428823277162778,2.9718411509908096e-06,0.0428823277162778,-1.299353727282419e-05
0.0436764448962088,-7.55322e-06,0.0436764448962088,-2.0842837738437958e-05,0.0436764448962088,2.2018201041998705e-06,0.0436764448962088,-1.2253e-05
0.0444705620761399,-7.03981957268002e-06,0.0444705620761399,-2.210674115417456e-05,0.0444705620761399,-1.372344105902255e-06,0.0444705620761399,-1.140389957268002e-05
0.045264679256071,-7.296472065011904e-06,0.045264679256071,-2.074434979766532e-05,0.045264679256071,-1.5600619024821426e-06,0.045264679256071,-1.1996252065011906e-05
0.046058796436002,-7.55322e-06,0.046058796436002,-1.8335050578901645e-05,0.046058796436002,1.0366046896511288e-06,0.046058796436002,-1.0515390011190835e-05
0.0468529136159331,-8.777533224207867e-06,0.0468529136159331,-1.8354676009907185e-05,0.0468529136159331,3.643306775792134e-06,0.0468529136159331,-1.3082432242078662e-05
0.0476470307958642,-8.659136624396888e-06,0.0476470307958642,-1.96384e-05,0.0476470307958642,-8.863120534601719e-08,0.0476470307958642,-1.4682116560992222e-05
0.0484411479757953,-7.86918832009726e-06,0.0484411479757953,-2.1000655573042763e-05,0.0484411479757953,-5.9377175549037e-08,0.0484411479757953,-1.181868866300233e-05
0.0492352651557263,-8.066628047052914e-06,0.0492352651557263,-2.3488954522981576e-05,0.0492352651557263,1.293428229503724e-06,0.0492352651557263,-9.725391952947086e-06
0.0500293823356574,-8.471439746649704e-06,0.0500293823356574,-2.2758418990446052e-05,0.0500293823356574,1.0860750412730784e-06,0.0500293823356574,-1.2015916453095848e-05
0.0508234995155885,-6.674595884337852e-06,0.0508234995155885,-2.113921159556876e-05,0.0508234995155885,1.0367016814100472e-06,0.0508234995155885,-1.335897243924326e-05
0.0516176166955195,-5.558782588236288e-06,0.0516176166955195,-2.111942119138441e-05,0.0516176166955195,2.3597098791486725e-06,0.0516176166955195,-1.2401052119244229e-05
0.0524117338754506,-5.4600582655802414e-06,0.0524117338754506,-2.0369089568631816e-05,0.0524117338754506,1.0761440263664006e-06,0.0524117338754506,-1.559029024692573e-05
0.0532058510553817,-5.934161131467535e-06,0.0532058510553817,-1.76242e-05,0.0532058510553817,-7.603709235656806e-07,0.0532058510553817,-1.559055940914815e-05
0.0539999682353128,-3.524921629692744e-06,0.0539999682353128,-2.0645315156684444e-05,0.0539999682353128,1.007019824087087e-06,0.0539999682353128,-1.3763611457123482e-05
0.0547940854152438,-4.640530688699189e-06,0.0547940854152438,-2.1257759590135392e-05,0.0547940854152438,1.3724146556504056e-06,0.0547940854152438,-1.588645068869919e-05
0.0555882025951749,-5.8153781554769176e-06,0.0555882025951749,-1.801906633975478e-05,0.0555882025951749,3.2480307664350853e-06,0.0555882025951749,-1.489963864231518e-05
0.056382319775106,-7.55322e-06,0.056382319775106,-1.9756750960932712e-05,0.056382319775106,4.077846029405978e-06,0.056382319775106,-1.0554775019843632e-05
0.057176436955037,-6.72387811510667e-06,0.057176436955037,-2.1079856033642378e-05,0.057176436955037,1.806903525177784e-06,0.057176436955037,-1.0544882472728727e-05
0.0579705541349681,-5.855035889870553e-06,0.0579705541349681,-2.138596316213864e-05,0.0579705541349681,-1.3920172738637695e-06,0.0579705541349681,-1.28057735084709e-05
0.0587646713148992,-4.403553169078055e-06,0.0587646713148992,-1.979647775185861e-05,0.0587646713148992,-8.59157234237992e-07,0.0587646713148992,-1.4859653661843888e-05
0.0595587884948302,-6.111580177632021e-06,0.0595587884948302,-1.920396107032845e-05,0.0595587884948302,2.379363954254054e-06,0.0595587884948302,-1.239137657572134e-05
0.0603529056747613,-7.237263978527559e-06,0.0603529056747613,-1.924364966277553e-05,0.0603529056747613,3.3076189732317037e-06,0.0603529056747613,-1.2095022481464503e-05
0.0611470228546924,-4.8872228828372855e-06,0.0611470228546924,-1.7703196278273785e-05,0.0611470228546924,2.971870960945762e-06,0.0611470228546924,-1.4109583273379668e-05
0.0619411400346235,-7.11867730457689e-06,0.0619411400346235,-1.901633165988025e-05,0.0619411400346235,3.60369616217496e-06,0.0619411400346235,-1.089048345945626e-05
0.0627352572145545,-7.839564466558954e-06,0.0627352572145545,-2.010240348055011e-05,0.0627352572145545,5.381034240283429e-06,0.0627352572145545,-1.1344606360425144e-05
0.0635293743944856,-5.716770937532455e-06,0.0635293743944856,-2.0961593889278706e-05,0.0635293743944856,4.216022464652775e-06,0.0635293743944856,-1.15816e-05
0.0643234915744167,-7.118622889819596e-06,0.0643234915744167,-2.1494556098087e-05,0.0643234915744167,1.8860355941442264e-06,0.0643234915744167,-1.09102e-05
0.0651176087543477,-7.632245337096547e-06,0.0651176087543477,-2.183034482547298e-05,0.0651176087543477,-6.811936779498926e-07,0.0651176087543477,-1.2094946971725458e-05
0.0659117259342788,-4.946613032411967e-06,0.0659117259342788,-2.096143167591952e-05,0.0659117259342788,2.863377606746156e-07,0.0659117259342788,-1.3862365573287688e-05
0.0667058431142099,-6.565517563159568e-06,0.0667058431142099,-1.9520025462735652e-05,0.0667058431142099,-5.625894987606223e-07,0.0667058431142099,-1.3299742641630884e-05
0.067499960294141,-8.22461e-06,0.067499960294141,-1.9973997309269124e-05,0.067499960294141,-3.188996828605076e-06,0.067499960294141,-1.1749471589962324e-05
0.068294077474072,-6.101842218724021e-06,0.068294077474072,-2.0517251627035103e-05,0.068294077474072,-4.156759164043016e-06,0.068294077474072,-1.2253e-05
0.0690881946540031,-5.953537110848587e-06,0.0690881946540031,-1.9618683021284955e-05,0.0690881946540031,-2.04386959108732e-06,0.0690881946540031,-1.1769424148252882e-05
0.0698823118339342,-7.494036017234e-06,0.0698823118339342,-1.8710402179943864e-05,0.0698823118339342,-1.550095988510667e-06,0.0698823118339342,-1.0989111977021332e-05
0.0706764290138652,-6.358566079728388e-06,0.0706764290138652,-1.9085378890338464e-05,0.0706764290138652,-2.6756647043259352e-06,0.0706764290138652,-1.1166978821737557e-05
0.0714705461937963,-9.448749587253525e-06,0.0714705461937963,-2.019131328439413e-05,0.0714705461937963,-9.578998834376406e-07,0.0714705461937963,-8.856654095726497e-06
0.0722646633737274,-9.09376868372068e-06,0.0722646633737274,-1.9934411407552894e-05,0.0722646633737274,-2.467893761480553e-07,0.0722646633737274,-8.165202139551078e-06
0.0730587805536585,-6.289515236406818e-06,0.0730587805536585,-2.321247690071244e-05,0.0730587805536585,7.601511170124685e-07,0.0730587805536585,-9.537749286347442e-06
0.0738528977335895,-4.215994688511175e-06,0.0738528977335895,-2.271900449307708e-05,0.0738528977335895,3.386580611571919e-06,0.0738528977335895,-1.0001827070579368e-05
0.0746470149135206,-5.21311785113494e-06,0.0746470149135206,-2.2718806821832423e-05,0.0746470149135206,5.3021795318200806e-06,0.0746470149135206,-1.17097807237763e-05
0.0754411320934517,-5.61787266759614e-06,0.0754411320934517,-2.235384540078657e-05,0.0754411320934517,2.5768718539082032e-06,0.0754411320934517,-1.2253e-05
0.0762352492733827,-6.111730820142224e-06,0.0762352492733827,-2.0398679315970287e-05,0.0762352492733827,4.294919179857776e-06,0.0762352492733827,-1.276639278657185e-05
0.0770293664533138,-5.094650105119521e-06,0.0770293664533138,-2.1415739528592228e-05,0.0770293664533138,5.519221379060107e-06,0.0770293664533138,-1.4405344126143426e-05
0.0778234836332449,-6.092030890388181e-06,0.0778234836332449,-2.06850161100148e-05,0.0778234836332449,4.88749140880603e-06,0.0778234836332449,-1.5669195436477587e-05
0.078617600813176,-5.53903e-06,0.078617600813176,-2.267931345048064e-05,0.078617600813176,4.788592032151152e-06,0.078617600813176,-1.683424304822673e-05
0.079411717993107,-7.395213691807324e-06,0.079411717993107,-2.493040616553192e-05,0.079411717993107,5.805603297836778e-06,0.079411717993107,-1.51953043126254e-05
0.0802058351730381,-8.461629940732762e-06,0.0802058351730381,-2.347930294418161e-05,0.0802058351730381,5.756682465393192e-06,0.0802058351730381,-1.349711994073276e-05
0.0809999523529692,-7.049790262948177e-06,0.0809999523529692,-1.930297725579637e-05,0.0809999523529692,1.8465461657851363e-06,0.0809999523529692,-1.2924434361134783e-05
0.0817940695329002,-5.934022184568936e-06,0.0817940695329002,-1.914468862352132e-05,0.0817940695329002,4.610840252357476e-06,0.0817940695329002,-1.4168451218463203e-05
0.0825881867128313,-6.289214046170673e-06,0.0825881867128313,-2.1237700362871783e-05,0.0825881867128313,4.551903612800881e-06,0.0825881867128313,-1.3043141271772436e-05
0.0833823038927624,-8.086535259372148e-06,0.0833823038927624,-2.34493098925503e-05,0.0833823038927624,2.4388394766902644e-06,0.0833823038927624,-1.106800104661947e-05
0.0841764210726934,-5.114627345839587e-06,0.0841764210726934,-2.5759808991152536e-05,0.0841764210726934,2.399211682505692e-06,0.0841764210726934,-1.3911615047517076e-05
0.0849705382526245,-4.19623e-06,0.0849705382526245,-2.6569508149857596e-05,0.0849705382526245,1.6489902486722551e-06,0.0849705382526245,-1.3023417246901928e-05
0.0857646554325556,-4.27516488444452e-06,0.0857646554325556,-2.6905305706051915e-05,0.0857646554325556,1.17494e-06,0.0857646554325556,-9.05433560246256e-06
0.0865587726124866,-4.53193e-06,0.0865587726124866,-2.4456693589957116e-05,0.0865587726124866,8.5902518243586e-07,0.0865587726124866,-7.859241285266485e-06
0.0873528897924177,-4.304833021820238e-06,0.0873528897924177,-2.340993979837181e-05,0.0873528897924177,3.14956979160027e-06,0.0873528897924177,-1.1759242305483333e-05
0.0881470069723488,-5.87472e-06,0.0881470069723488,-2.392339345265313e-05,0.0881470069723488,4.097369014468342e-06,0.0881470069723488,-1.35958e-05
0.0889411241522799,-5.065037630248221e-06,0.0889411241522799,-2.287726979786657e-05,0.0889411241522799,2.0736624920111982e-06,0.0889411241522799,-1.3122164392174968e-05
0.0897352413322109,-6.309094352860042e-06,0.0897352413322109,-2.0151891687847323e-05,0.0897352413322109,2.004181214651552e-06,0.0897352413322109,-1.014012800070962e-05
0.090529358512142,-8.046852316422e-06,0.090529358512142,-2.1218050202334683e-05,0.090529358512142,4.630716525367001e-06,0.090529358512142,-1.162091689957424e-05
0.0913234756920731,-6.2400148548109e-06,0.0913234756920731,-2.0764063733654e-05,0.0913234756920731,2.458550290378201e-06,0.0913234756920731,-1.2351941161512805e-05
0.0921175928720041,-7.414883512269219e-06,0.0921175928720041,-2.1731476202788803e-05,0.0921175928720041,1.8858647107802236e-06,0.0921175928720041,-1.12459e-05
0.0929117100519352,-6.230221537974632e-06,0.0929117100519352,-2.2639821406846425e-05,0.0929117100519352,9.89818078097472e-09,0.0929117100519352,-1.3783342451179218e-05
0.0937058272318663,-3.771515831028601e-06,0.0937058272318663,-2.331118928071452e-05,0.0937058272318663,-8.39246e-07,0.0937058272318663,-1.286540267035424e-05
0.0944999444117974,-5.538889692032995e-06,0.0944999444117974,-2.36667e-05,0.0944999444117974,-5.035880877517406e-07,0.0944999444117974,-1.0910320263971715e-05
0.0952940615917284,-8.974885891393276e-06,0.0952940615917284,-2.226495198940821e-05,0.0952940615917284,4.047937857822903e-07,0.0952940615917284,-1.2430627458037032e-05
0.0960881787716595,-1.0298182089597824e-05,0.0960881787716595,-2.167230670964197e-05,0.0960881787716595,5.229412489023497e-07,0.0960881787716595,-1.4188423134396736e-05
0.0968822959515906,-7.622458663002328e-06,0.0968822959515906,-2.258050820961245e-05,0.0968822959515906,4.453040930401863e-06,0.0968822959515906,-1.2272716392431588e-05
0.0976764131315216,-7.158250114397057e-06,0.0976764131315216,-2.141590383376161e-05,0.0976764131315216,5.433859195570368e-07,0.0976764131315216,-1.2282626114996048e-05
0.0984705303114527,-8.382632475183228e-06,0.0984705303114527,-1.92039939693579e-05,0.0984705303114527,-9.579571393886543e-07,0.0984705303114527,-1.2253e-05
0.0992646474913838,-8.738151684822565e-06,0.0992646474913838,-2.056639683486304e-05,0.0992646474913838,2.260969157588718e-06,0.0992646474913838,-1.3793111138065092e-05
0.1000587646713148,-7.592518360898119e-06,0.1000587646713148,-2.192800029666058e-05,0.1000587646713148,2.2016894731132405e-06,0.1000587646713148,-1.301281970236777e-05
0.1008528818512459,-7.809924026457935e-06,0.1008528818512459,-2.1138871435311257e-05,0.1008528818512459,2.399257284867252e-06,0.1008528818512459,-1.15816e-05
0.101646999031177,-8.422426647152239e-06,0.101646999031177,-2.3193246914631343e-05,0.101646999031177,4.645646180422698e-07,0.101646999031177,-1.2943890159781486e-05
0.1024411162111081,-6.862243845012928e-06,0.1024411162111081,-2.3271306830238546e-05,0.1024411162111081,-8.954502151047123e-08,0.1024411162111081,-1.3220947690025856e-05
0.1032352333910391,-7.829240567650967e-06,0.1032352333910391,-2.2876586895459937e-05,0.1032352333910391,1.5598784636433012e-06,0.1032352333910391,-1.25887e-05
0.1040293505709702,-6.921151444852241e-06,0.1040293505709702,-2.43381e-05,0.1040293505709702,4.916407174033909e-08,0.1040293505709702,-1.4346185033924482e-05
0.1048234677509013,-6.4480545405800185e-06,0.1048234677509013,-2.152637018384736e-05,0.1048234677509013,-1.391823791526526e-06,0.1048234677509013,-1.213418272970999e-05
0.1056175849308323,-8.146042831637749e-06,0.1056175849308323,-1.990500383451492e-05,0.1056175849308323,-3.946240198907858e-07,0.1056175849308323,-1.2174431661421208e-05
0.1064117021107634,-5.479535354525845e-06,0.1064117021107634,-2.091260651280747e-05,0.1064117021107634,-5.630377657209843e-07,0.1064117021107634,-1.266731420268842e-05
0.1072058192906945,-6.842444102491319e-06,0.1072058192906945,-2.003495565449532e-05,0.1072058192906945,8.492570990262688e-07,0.1072058192906945,-1.09102e-05
0.1079999364706256,-8.224518469985668e-06,0.1079999364706256,-1.913477946005968e-05,0.1079999364706256,-5.032505246586759e-07,0.1079999364706256,-1.1245854234311188e-05
0.1087940536505566,-7.040449200165904e-06,0.1087940536505566,-2.080328957516017e-05,0.1087940536505566,1.0808405085071968e-07,0.1087940536505566,-9.291472771116168e-06
0.1095881708304877,-5.677038894809533e-06,0.1095881708304877,-2.0903139516032864e-05,0.1095881708304877,2.338713924860473e-06,0.1095881708304877,-1.1264565030050942e-05
0.1103822880104188,-5.894316220535051e-06,0.1103822880104188,-1.924346672409404e-05,0.1103822880104188,5.460645117859799e-06,0.1103822880104188,-1.22138075589299e-05
0.1111764051903498,-5.075878810408388e-06,0.1111764051903498,-1.9894816452305943e-05,0.1111764051903498,2.381839726282837e-06,0.1111764051903498,-1.2745899500432115e-05
0.1119705223702809,-3.3277613006733077e-06,0.1119705223702809,-1.756651719147108e-05,0.1119705223702809,8.197615724728209e-07,0.1119705223702809,-1.4109091329835438e-05
0.112764639550212,-4.413407430574538e-06,0.112764639550212,-1.634067436802732e-05,0.112764639550212,5.627610134655187e-07,0.112764639550212,-1.2865185869032438e-05
0.1135587567301431,-6.368436058396812e-06,0.1135587567301431,-1.6380330318636463e-05,0.1135587567301431,2.162372116793624e-06,0.1135587567301431,-1.0317471532825504e-05
0.1143528739100741,-4.986118448146457e-06,0.1143528739100741,-1.6912044649123642e-05,0.1143528739100741,1.6093631037070869e-06,0.1143528739100741,-1.1344623103707086e-05
0.1151469910900052,-4.70951648037018e-06,0.1151469910900052,-1.973734629430495e-05,0.1151469910900052,4.55140296074036e-06,0.1151469910900052,-1.2016218026173092e-05
0.1159411082699363,-5.519459578026627e-06,0.1159411082699363,-2.03098e-05,0.1159411082699363,4.512359578026627e-06,0.1159411082699363,-1.0949340843946744e-05
0.1167352254498673,-5.459949921717764e-06,0.1167352254498673,-2.05861383112148e-05,0.1167352254498673,2.9131380357341414e-06,0.1167352254498673,-1.235145976515329e-05
0.1175293426297984,-7.513860965379938e-06,0.1175293426297984,-2.097113292080248e-05,0.1175293426297984,9.2809240819273e-07,0.1175293426297984,-1.3279777163848335e-05
0.1183234598097295,-7.591897197354311e-06,0.1183234598097295,-2.0053557853360784e-05,0.1183234598097295,2.1433528026456896e-06,0.1183234598097295,-1.1492504475968218e-05
0.1191175769896605,-7.099650293090716e-06,0.1191175769896605,-2.03098e-05,0.1191175769896605,3.228428731915775e-06,0.1191175769896605,-1.1670831899267002e-05
0.1199116941695916,-8.89601e-06,0.1199116941695916,-2.2206291188775675e-05,0.1199116941695916,3.712847478752744e-06,0.1199116941695916,-1.25887e-05
0.1207058113495227,-5.242723096549806e-06,0.1207058113495227,-2.337159098239092e-05,0.1207058113495227,3.662995006546097e-06,0.1207058113495227,-1.2253e-05
0.1214999285294538,-7.049283853534338e-06,0.1214999285294538,-2.165273867213878e-05,0.1214999285294538,3.860427028733872e-06,0.1214999285294538,-1.3595594054400338e-05
0.1222940457093848,-7.711877865063618e-06,0.1222940457093848,-2.2639489423350664e-05,0.1222940457093848,3.3477978650636187e-06,0.1222940457093848,-1.2885316486190309e-05
0.1230881628893159,-4.660619090505289e-06,0.1230881628893159,-2.113924791362772e-05,0.1230881628893159,2.5737723652551737e-07,0.1230881628893159,-1.5233250910975316e-05
0.123882280069247,-6.327980124169178e-06,0.123882280069247,-2.137612300287561e-05,0.123882280069247,-1.3734874556532796e-06,0.123882280069247,-1.7408667269123256e-05
0.124676397249178,-7.493714112766269e-06,0.124676397249178,-2.4536283236048835e-05,0.124676397249178,6.309764582366724e-07,0.124676397249178,-1.5087355855128232e-05
0.1254705144291091,-6.487711635263207e-06,0.1254705144291091,-2.6450635429101897e-05,0.1254705144291091,9.973575648811914e-07,0.1254705144291091,-1.3240628781751332e-05
0.1262646316090402,-5.479747516578812e-06,0.1262646316090402,-2.73594e-05,0.1262646316090402,-2.4682587022145004e-07,0.1262646316090402,-1.1048468999342146e-05
0.1270587487889713,-6.062243616220075e-06,0.1270587487889713,-2.8306458218905144e-05,0.1270587487889713,-1.6096328120677766e-06,0.1270587487889713,-9.932613354567855e-06
0.1278528659689023,-6.21042e-06,0.1278528659689023,-2.83665e-05,0.1278528659689023,-2.0741285124405925e-07,0.1278528659689023,-1.1561817456519505e-05
0.1286469831488334,-6.092034746100256e-06,0.1286469831488334,-2.83665e-05,0.1286469831488334,2.2014957616992344e-06,0.1286469831488334,-1.1453454497847286e-05
0.1294411003287645,-6.88182e-06,0.1294411003287645,-2.846533803916587e-05,0.1294411003287645,3.130445933120976e-06,0.1294411003287645,-1.166963818630469e-05
0.1302352175086955,-5.855370840125878e-06,0.1302352175086955,-2.87022e-05,0.1302352175086955,-1.2747710724643885e-07,0.1302352175086955,-1.399038792428607e-05
0.1310293346886266,-5.262639536658855e-06,0.1310293346886266,-2.8909320608546527e-05,0.1310293346886266,-2.695434302635268e-06,0.1310293346886266,-1.49386e-05
0.1318234518685577,-7.3957098118149875e-06,0.1318234518685577,-2.83665e-05,0.1318234518685577,-6.016582867208545e-07,0.1318234518685577,-1.3733910249905614e-05
0.1326175690484888,-8.22461e-06,0.1326175690484888,-2.795207728567812e-05,0.1326175690484888,-8.925808053380559e-08,0.1326175690484888,-1.4485013094049565e-05
0.1334116862284198,-6.684236200256883e-06,0.1334116862284198,-2.704330757826484e-05,0.1334116862284198,-1.7082237997431158e-06,0.1334116862284198,-1.4405316200256884e-05
0.1342058034083509,-9.369883530393947e-06,0.1342058034083509,-2.4912720174790284e-05,0.1342058034083509,8.591889958132765e-07,0.1342058034083509,-1.2253e-05
0.134999920588282,-6.54652044807302e-06,0.134999920588282,-2.2491979770380514e-05,0.134999920588282,3.692479776815547e-06,0.134999920588282,-1.4938142343111846e-05
0.135794037768213,-5.065385790154269e-06,0.135794037768213,-2.370690060723802e-05,0.135794037768213,1.372695790154269e-06,0.135794037768213,-1.62814e-05
0.1365881549481441,-4.19623e-06,0.1365881549481441,-2.4340211697428817e-05,0.1365881549481441,3.069742049071969e-06,0.1365881549481441,-1.5453390760103395e-05
0.1373822721280752,-4.19623e-06,0.1373822721280752,-2.0072949080618874e-05,0.1373822721280752,2.8841565873506014e-06,0.1373822721280752,-1.1522834373148668e-05
0.1381763893080062,-4.74860678411033e-06,0.1381763893080062,-1.9757294561717548e-05,0.1381763893080062,1.0177797601775272e-06,0.1381763893080062,-1.314947180422189e-05
0.1389705064879373,-5.716604598574442e-06,0.1389705064879373,-2.06455e-05,0.1389705064879373,-7.005839043848e-07,0.1389705064879373,-1.1997581004280848e-05
0.1397646236678684,-4.038287230457371e-06,0.1397646236678684,-2.0378802745570625e-05,0.1397646236678684,-2.8644960001571337e-07,0.1397646236678684,-8.639281384771315e-06
0.1405587408477994,-4.156871301532433e-06,0.1405587408477994,-1.866128114382198e-05,0.1405587408477994,3.2487441654325182e-06,0.1405587408477994,-1.0160083189283191e-05
0.1413528580277305,-6.28932395906552e-06,0.1413528580277305,-1.8117540616220244e-05,0.1413528580277305,2.3005399141738734e-06,0.1413528580277305,-1.09102e-05
0.1421469752076616,-6.408305442804327e-06,0.1421469752076616,-1.940161547521396e-05,0.1421469752076616,4.215668562658169e-06,0.1421469752076616,-1.0791820479113945e-05
0.1429410923875927,-5.30112419709774e-06,0.1429410923875927,-2.14157329125286e-05,0.1429410923875927,5.262006285205847e-06,0.1429410923875927,-1.0277917911891892e-05
0.1437352095675237,-7.395036960591126e-06,0.1437352095675237,-2.2205173762386724e-05,0.1437352095675237,5.953811519704437e-06,0.1437352095675237,-1.09102e-05
0.1445293267474548,-6.842419906614512e-06,0.1445293267474548,-2.173103754734452e-05,0.1445293267474548,2.102838681965961e-06,0.1445293267474548,-9.251410046692744e-06
0.1453234439273859,-9.172318526988309e-06,0.1453234439273859,-1.975761753986468e-05,0.1453234439273859,-7.204635847315116e-07,0.1453234439273859,-9.074182649852088e-06
0.146117561107317,-8.89601e-06,0.146117561107317,-2.0961095763193577e-05,0.146117561107317,-1.67849e-07,0.146117561107317,-1.108869452667799e-05
0.146911678287248,-9.56741e-06,0.146911678287248,-2.2600767697993823e-05,0.146911678287248,3.0597052182606085e-07,0.146911678287248,-1.1443478066729396e-05
0.1477057954671791,-1.0712684996421364e-05,0.1477057954671791,-2.09812e-05,0.1477057954671791,1.0564758090566548e-06,0.1477057954671791,-1.09102e-05
0.1484999126471102,-7.553723418827773e-06,0.1484999126471102,-2.114897175758207e-05,0.1484999126471102,1.17494e-06,0.1484999126471102,-1.09102e-05
0.1492940298270412,-5.164277938677454e-06,0.1492940298270412,-1.9420324923528425e-05,0.1492940298270412,1.84634e-06,0.1492940298270412,-1.1670105657748443e-05
0.1500881470069723,-4.591638386061866e-06,0.1500881470069723,-1.827610028855373e-05,0.1500881470069723,1.648635806969067e-06,0.1500881470069723,-1.4621479034845336e-05
0.1508822641869034,-4.383667621014487e-06,0.1508822641869034,-1.79599e-05,0.1508822641869034,1.2867399136537777e-07,0.1508822641869034,-1.4625198063768204e-05
0.1516763813668344,-5.498561122636255e-06,0.1516763813668344,-1.96384e-05,0.1516763813668344,-1.67849e-07,0.1516763813668344,-1.2253e-05
0.1524704985467655,-6.88182e-06,0.1524704985467655,-1.844482675000401e-05,0.1524704985467655,-6.020581936195415e-07,0.1524704985467655,-1.3773374167702146e-05
0.1532646157266966,-5.53903e-06,0.1532646157266966,-1.904611270937257e-05,0.1532646157266966,6.614774463053305e-07,0.1532646157266966,-1.4523934335939807e-05
0.1540587329066277,-5.223015082247492e-06,0.1540587329066277,-2.09812e-05,0.1540587329066277,1.17494e-06,0.1540587329066277,-1.3319155246742476e-05
0.1548528500865587,-6.624995294167856e-06,0.1548528500865587,-2.11388303431899e-05,0.1548528500865587,2.083351294375124e-06,0.1548528500865587,-1.2687388705624876e-05
0.1556469672664898,-6.19100216256079e-06,0.1556469672664898,-2.24228235787192e-05,0.1556469672664898,1.4311128236549752e-06,0.1556469672664898,-1.4503947575744656e-05
0.1564410844464209,-6.999138755132333e-06,0.1564410844464209,-2.2797644428217324e-05,0.1564410844464209,4.551483222932258e-06,0.1564410844464209,-1.4879940331203226e-05
0.157235201626352,-9.409215519168929e-06,0.157235201626352,-2.315286870500789e-05,0.157235201626352,5.509129255149436e-06,0.157235201626352,-1.3418294480831072e-05
0.158029318806283,-7.859196298728268e-06,0.158029318806283,-2.2283888809759756e-05,0.158029318806283,4.235652976229904e-06,0.158029318806283,-1.3862332148146974e-05
0.1588234359862141,-7.395675487889246e-06,0.1588234359862141,-2.0389288613184303e-05,0.1588234359862141,3.584215752300609e-06,0.1588234359862141,-1.1186514247699392e-05
0.1596175531661451,-8.22461e-06,0.1596175531661451,-2.2066950748185345e-05,0.1596175531661451,3.86053e-06,0.1596175531661451,-1.105844059482962e-05
0.1604116703460762,-9.291154667431396e-06,0.1604116703460762,-2.2343517851295187e-05,0.1604116703460762,5.065202333715699e-06,0.1604116703460762,-1.1769573741086011e-05
0.1612057875260073,-8.40225409778911e-06,0.1612057875260073,-2.200857328283483e-05,0.1612057875260073,2.399128203128797e-06,0.1612057875260073,-1.2154248231224376e-05
0.1619999047059384,-6.546257297066454e-06,0.1619999047059384,-2.232377674199699e-05,0.1619999047059384,-1.1745967597877893e-06,0.1619999047059384,-1.19173e-05
0.1627940218858694,-3.09155726251824e-06,0.1627940218858694,-2.2777303596833653e-05,0.1627940218858694,7.793857959242794e-07,0.1627940218858694,-8.028147901413688e-06
0.1635881390658005,-3.681376333214678e-06,0.1635881390658005,-2.2440867449586623e-05,0.1635881390658005,1.4509201479107407e-06,0.1635881390658005,-9.190536407170049e-06
0.1643822562457316,-6.823065736477097e-06,0.1643822562457316,-2.5522776551353776e-05,0.1643822562457316,1.7680009819694632e-06,0.1643822562457316,-1.2706208527045805e-05
0.1651763734256627,-5.687835850315104e-06,0.1651763734256627,-2.5995708594317992e-05,0.1651763734256627,8.987679855055509e-07,0.1651763734256627,-1.3181493439562805e-05
0.1659704906055937,-5.222766893982044e-06,0.1659704906055937,-2.1595046201691733e-05,0.1659704906055937,-3.648536962240785e-07,0.1659704906055937,-1.3792805340973064e-05
0.1667646077855248,-6.11159983004732e-06,0.1667646077855248,-2.0576433373437008e-05,0.1667646077855248,-1.530502108282295e-06,0.1667646077855248,-1.3724131788817456e-05
0.1675587249654559,-8.145847325515086e-06,0.1675587249654559,-2.31224851994639e-05,0.1675587249654559,1.3924958123046645e-06,0.1675587249654559,-1.4543827554216404e-05
0.1683528421453869,-5.5786947509313e-06,0.1683528421453869,-2.325218996492023e-05,0.1683528421453869,5.727214664578696e-07,0.1683528421453869,-1.528418472168415e-05
0.169146959325318,-4.65029805485864e-06,0.169146959325318,-2.402234620816388e-05,0.169146959325318,2.6361080548586397e-06,0.169146959325318,-1.450393610971728e-05
0.1699410765052491,-5.5976718874652125e-06,0.1699410765052491,-2.441656404447541e-05,0.1699410765052491,9.386838435141208e-07,0.1699410765052491,-1.59066050201629e-05
0.1707351936851801,-6.802717038873355e-06,0.1707351936851801,-2.1890111250305567e-05,0.1707351936851801,6.0193829479941e-07,0.1707351936851801,-1.5530897038873356e-05
0.1715293108651112,-5.736459100547449e-06,0.1715293108651112,-2.141546143576937e-05,0.1715293108651112,1.6489056056942925e-06,0.1715293108651112,-1.645911146476857e-05
0.1723234280450423,-6.724260094768455e-06,0.1723234280450423,-1.890954603260598e-05,0.1723234280450423,2.28021987364206e-06,0.1723234280450423,-1.3417659905231544e-05
0.1731175452249733,-6.960445668715838e-06,0.1731175452249733,-2.08623019809138e-05,0.1731175452249733,5.821727318594942e-07,0.1731175452249733,-1.229231283435792e-05
0.1739116624049044,-5.104546699649001e-06,0.1739116624049044,-2.1020445975620717e-05,0.1739116624049044,2.9530335211049807e-06,0.1739116624049044,-1.2885020474987954e-05
0.1747057795848355,-6.259793017880951e-06,0.1747057795848355,-2.0131781708341582e-05,0.1747057795848355,4.600945601758394e-06,0.1747057795848355,-1.284534961807749e-05
0.1754998967647666,-5.539215920895429e-06,0.1754998967647666,-2.299476582231355e-05,0.1754998967647666,-8.385394952805334e-07,0.1754998967647666,-1.0910497476977244e-05
0.1762940139446976,-6.535687170586091e-06,0.1762940139446976,-2.4386929896675723e-05,0.1762940139446976,2.068638960198899e-07,0.1762940139446976,-1.0436590188236518e-05
0.1770881311246287,-7.21752e-06,0.1770881311246287,-2.2245948051947963e-05,0.1770881311246287,1.31292434094165e-06,0.1770881311246287,-1.11861686818833e-05
0.1778822483045598,-7.038473937376034e-06,0.1778822483045598,-2.157352286613137e-05,0.1778822483045598,1.62813132800468e-06,0.1778822483045598,-1.187813622399844e-05
0.1786763654844909,-8.362695614960936e-06,0.1786763654844909,-2.2777417126893172e-05,0.1786763654844909,1.9653975401562537e-06,0.1786763654844909,-1.2133942459843746e-05
0.1794704826644219,-7.869489836767687e-06,0.1794704826644219,-2.071500566301947e-05,0.1794704826644219,1.668777273720062e-06,0.1794704826644219,-1.1305519630937969e-05
0.180264599844353,-7.010192888680998e-06,0.180264599844353,-2.256089474180588e-05,0.180264599844353,2.666862728571881e-07,0.180264599844353,-1.09102e-05
0.181058717024284,-5.617815606368974e-06,0.181058717024284,-2.3193211903645523e-05,0.181058717024284,4.44458589867538e-07,0.181058717024284,-1.122620345172509e-05
0.1818528342042151,-5.519172190802246e-06,0.1818528342042151,-2.3252195101435398e-05,0.1818528342042151,1.17494e-06,0.1818528342042151,-1.3121731547140033e-05
0.1826469513841462,-7.21752e-06,0.1826469513841462,-2.3765569246577444e-05,0.1826469513841462,2.6156915661558336e-06,0.1826469513841462,-1.3042762321844931e-05
0.1834410685640773,-6.88182e-06,0.1834410685640773,-2.50095e-05,0.1834410685640773,3.7041965268809294e-06,0.1834410685640773,-1.3162391215475797e-05
0.1842351857440083,-6.112046045513232e-06,0.1842351857440083,-2.50095e-05,0.1842351857440083,6.617634784522087e-07,0.1842351857440083,-1.0555234727350976e-05
0.1850293029239394,-5.3613128145203365e-06,0.1850293029239394,-2.364670756319957e-05,0.1850293029239394,3.643349366530352e-06,0.1850293029239394,-1.1542131258081344e-05
0.1858234201038705,-6.240107155439199e-06,0.1858234201038705,-2.29953e-05,0.1858234201038705,2.63535804049347e-06,0.1858234201038705,-1.3655174310878398e-05
0.1866175372838016,-6.230079283685814e-06,0.1866175372838016,-2.4219181434853157e-05,0.1866175372838016,8.39246e-07,0.1866175372838016,-1.3635118567371628e-05
0.1874116544637326,-6.21042e-06,0.1874116544637326,-2.437735624865106e-05,0.1874116544637326,1.17494e-06,0.1874116544637326,-1.2726839132311718e-05
0.1882057716436637,-7.474258875163566e-06,0.1882057716436637,-2.3262361657516277e-05,0.1882057716436637,-1.4316860516938344e-06,0.1882057716436637,-1.1384119394503586e-05
0.1889998888235948,-9.567249820089173e-06,0.1889998888235948,-2.165288762342823e-05,0.1889998888235948,-2.350010134933122e-06,0.1889998888235948,-1.158143982008917e-05
0.1897940060035258,-7.71202118955239e-06,0.1897940060035258,-2.044756118275358e-05,0.1897940060035258,-3.02129e-06,0.1897940060035258,-1.2746061835575366e-05
0.1905881231834569,-6.21042e-06,0.1905881231834569,-1.987439795869345e-05,0.1905881231834569,1.2119325580858296e-06,0.1905881231834569,-1.4248706960360292e-05
0.191382240363388,-5.695661005492059e-06,0.191382240363388,-2.09812e-05,0.191382240363388,4.285763914024256e-06,0.191382240363388,-1.1542441957012127e-05
0.192176357543319,-7.710308301075535e-06,0.192176357543319,-1.835402290183561e-05,0.192176357543319,3.2784399627405945e-06,0.192176357543319,-1.1107858378178242e-05
0.1929704747232501,-6.349148983293498e-06,0.1929704747232501,-1.725783182455047e-05,0.1929704747232501,2.0738474860779152e-06,0.1929704747232501,-1.27856710167065e-05
0.1937645919031812,-7.039717003853797e-06,0.1937645919031812,-2.025055645106372e-05,0.1937645919031812,9.181930908723514e-07,0.1937645919031812,-1.2766502996146202e-05
0.1945587090831123,-7.869208305612822e-06,0.1945587090831123,-1.9263883235380014e-05,0.1945587090831123,2.75492859355692e-06,0.1945587090831123,-1.2884995437422768e-05
0.1953528262630433,-8.54044146131394e-06,0.1953528262630433,-1.82956e-05,0.1953528262630433,3.7420071537713128e-06,0.1953528262630433,-1.35958e-05
0.1961469434429744,-8.422587170340578e-06,0.1961469434429744,-1.82956e-05,0.1961469434429744,3.841163759171794e-06,0.1961469434429744,-1.3359086822337568e-05
0.1969410606229055,-5.79657648638435e-06,0.1969410606229055,-1.916462481195915e-05,0.1969410606229055,1.8658760238911328e-06,0.1969410606229055,-1.3537191928326602e-05
0.1977351778028366,-4.788515597451168e-06,0.1977351778028366,-2.0743629968495112e-05,0.1977351778028366,8.99118127384554e-07,0.1977351778028366,-1.0792600817841826e-05
0.1985292949827676,-5.627886158996306e-06,0.1985292949827676,-2.206684027152751e-05,0.1985292949827676,-3.1693894817175283e-06,0.1985292949827676,-9.211964187618446e-06
0.1993234121626987,-4.808261409832703e-06,0.1993234121626987,-1.86136774920314e-05,0.1993234121626987,-1.4307619910305345e-06,0.1993234121626987,-1.2431105770501891e-05
0.2001175293426297,-4.828305699614664e-06,0.2001175293426297,-1.7327793404524773e-05,0.2001175293426297,2.874546534046899e-06,0.2001175293426297,-1.2074597201541344e-05
0.2009116465225608,-6.823132490513276e-06,0.2009116465225608,-1.983666717411509e-05,0.2009116465225608,4.57129729798814e-06,0.2009116465225608,-1.2440872395718272e-05
0.2017057637024919,-6.960815522747871e-06,0.2017057637024919,-1.9679114258754963e-05,0.2017057637024919,2.0734373773496263e-06,0.2017057637024919,-1.1384130860530992e-05
0.202499880882423,-4.196573242666155e-06,0.202499880882423,-1.829575409545513e-05,0.202499880882423,1.8461254758898244e-06,0.202499880882423,-1.2252656757333844e-05
0.203293998062354,-5.36069998576836e-06,0.203293998062354,-1.894695106153271e-05,0.203293998062354,4.334116879708647e-06,0.203293998062354,-1.35958e-05
0.2040881152422851,-6.486365749828506e-06,0.2040881152422851,-1.6913841669228795e-05,0.2040881152422851,2.9131942501714933e-06,0.2040881152422851,-1.318188137525724e-05
0.2048822324222162,-7.514067690025857e-06,0.2048822324222162,-1.7071122729387115e-05,0.2048822324222162,2.142887690025857e-06,0.2048822324222162,-1.0753591926392078e-05
0.2056763496021472,-6.941360211500335e-06,0.2056763496021472,-1.7901441211703688e-05,0.2056763496021472,1.84634e-06,0.2056763496021472,-9.56741e-06
0.2064704667820783,-6.191017430284521e-06,0.2064704667820783,-2.149294363107462e-05,0.2064704667820783,2.784066927286609e-06,0.2064704667820783,-1.1442853854573218e-05
0.2072645839620094,-5.20333e-06,0.2072645839620094,-2.181058476273663e-05,0.2072645839620094,2.833508773276012e-06,0.2072645839620094,-1.343791443756841e-05
0.2080587011419405,-5.519321985697695e-06,0.2080587011419405,-2.145466758980548e-05,0.2080587011419405,3.228555441532395e-06,0.2080587011419405,-1.1660432057209222e-05
0.2088528183218715,-3.8704728688636135e-06,0.2088528183218715,-2.315288925106852e-05,0.2088528183218715,1.303417917317245e-06,0.2088528183218715,-1.2015942841515184e-05
0.2096469355018026,-4.778307995361299e-06,0.2096469355018026,-2.315320771500909e-05,0.2096469355018026,9.575947405207168e-07,0.2096469355018026,-1.1463249144182483e-05
0.2104410526817337,-5.894250290877444e-06,0.2104410526817337,-2.370662531977876e-05,0.2104410526817337,1.214000581754886e-06,0.2104410526817337,-1.1601130290877442e-05
0.2112351698616647,-6.21042e-06,0.2112351698616647,-2.5562104711217213e-05,0.2112351698616647,1.718050061629978e-06,0.2112351698616647,-1.268703963022013e-05
0.2120292870415958,-5.124344313450936e-06,0.2120292870415958,-2.4357471358577245e-05,0.2120292870415958,1.17494e-06,0.2120292870415958,-1.5688942357883156e-05
0.2128234042215269,-6.151057130543807e-06,0.2128234042215269,-2.434694074743533e-05,0.2128234042215269,2.6609758317378734e-07,0.2128234042215269,-1.7484997044350453e-05
0.2136175214014579,-5.133803911914848e-06,0.2136175214014579,-2.49308697429512e-05,0.2136175214014579,-2.3210905359544352e-06,0.2136175214014579,-1.3792450166995224e-05
0.214411638581389,-5.657821721942866e-06,0.214411638581389,-2.2441730384135135e-05,0.214411638581389,-1.056147101116999e-06,0.214411638581389,-1.3457649401660884e-05
0.2152057557613201,-6.822604653116899e-06,0.2152057557613201,-2.161181822875632e-05,0.2152057557613201,-1.1551903140970484e-06,0.2152057557613201,-1.1561898142954574e-05
0.2159998729412512,-6.210328468622378e-06,0.2159998729412512,-2.500884252605823e-05,0.2159998729412512,-8.394290611192958e-07,0.2159998729412512,-9.56750152865104e-06
0.2167939901211822,-8.22461e-06,0.2167939901211822,-2.465376133456304e-05,0.2167939901211822,-2.3094253340724214e-06,0.2167939901211822,-1.1857350827362483e-05
0.2175881073011133,-5.994255542232334e-06,0.2175881073011133,-2.386380814279492e-05,0.2175881073011133,-1.4232240074146596e-06,0.2175881073011133,-1.30439314323979e-05
0.2183822244810444,-5.3207685647634925e-06,0.2183822244810444,-2.384456554047694e-05,0.2183822244810444,1.3706728848022734e-06,0.2183822244810444,-1.2292146576960454e-05
0.2191763416609755,-5.796188898317153e-06,0.2191763416609755,-2.1761004757113158e-05,0.2191763416609755,2.577285932211435e-06,0.2191763416609755,-1.25887e-05
0.2199704588409065,-5.380875564146626e-06,0.2199704588409065,-2.153388175894476e-05,0.2199704588409065,2.969188011767612e-07,0.2199704588409065,-1.3003453662008329e-05
0.2207645760208376,-6.21042e-06,0.2207645760208376,-2.208698454108156e-05,0.2207645760208376,5.625321862484506e-07,0.2207645760208376,-1.3012839710869076e-05
0.2215586932007686,-6.842392505367932e-06,0.2215586932007686,-1.908737065387619e-05,0.2215586932007686,1.84634e-06,0.2215586932007686,-1.651853126341983e-05
0.2223528103806997,-8.086176281935138e-06,0.2223528103806997,-1.6695889489019087e-05,0.2223528103806997,1.4120086245122084e-06,0.2223528103806997,-1.334963087025518e-05
0.2231469275606308,-8.67865512280382e-06,0.2231469275606308,-1.8108096287261957e-05,0.2231469275606308,8.585805481523485e-07,0.2231469275606308,-8.333287438598092e-06
0.2239410447405619,-8.166036908016177e-06,0.2239410447405619,-2.017170430541012e-05,0.2239410447405619,3.2672376498475385e-06,0.2239410447405619,-9.260996836795574e-06
0.2247351619204929,-7.47409415602896e-06,0.2247351619204929,-2.036920278090657e-05,0.2247351619204929,4.018781687942081e-06,0.2247351619204929,-1.063326190314169e-05
0.225529279100424,-8.54054130477405e-06,0.225529279100424,-1.942124873605464e-05,0.225529279100424,4.512161304774049e-06,0.225529279100424,-1.17494e-05
0.2263233962803551,-8.56031e-06,0.2263233962803551,-1.96384e-05,0.2263233962803551,2.4379413733127924e-06,0.2263233962803551,-1.2074928553764732e-05
0.2271175134602862,-8.85667423358725e-06,0.2271175134602862,-2.058600989833556e-05,0.2271175134602862,1.6889978717518307e-06,0.2271175134602862,-1.0653171532825502e-05
0.2279116306402172,-1.0100643668647157e-05,0.2279116306402172,-2.161331293225791e-05,0.2279116306402172,2.59650899405853e-06,0.2279116306402172,-1.1443443668647155e-05
0.2287057478201483,-9.80437983710625e-06,0.2287057478201483,-2.1060007098691503e-05,0.2287057478201483,2.6262910258685536e-06,0.2287057478201483,-1.1028723744079772e-05
0.2294998650000794,-8.224999008354907e-06,0.2294998650000794,-2.131685632661528e-05,0.2294998650000794,3.860481373955637e-06,0.2294998650000794,-1.1581405495822546e-05
0.2302939821800104,-5.835781131899496e-06,0.2302939821800104,-2.23239e-05,0.2302939821800104,3.86053e-06,0.2302939821800104,-1.3397963947653812e-05
0.2310880993599415,-5.53903e-06,0.2310880993599415,-2.0844917753513307e-05,0.2310880993599415,3.52483e-06,0.2310880993599415,-1.276803154667903e-05
0.2318822165398726,-5.617310521946398e-06,0.2318822165398726,-1.8137719572417936e-05,0.2318822165398726,3.7431086341068553e-06,0.2318822165398726,-1.1382887124078142e-05
0.2326763337198036,-7.315013388309829e-06,0.2326763337198036,-1.8967e-05,0.2326763337198036,9.204081512941896e-07,0.2326763337198036,-1.2282766956688715e-05
0.2334704508997347,-7.020600469693405e-06,0.2334704508997347,-1.8967e-05,0.2334704508997347,1.983563850249507e-06,0.2334704508997347,-1.2380502852230307e-05
0.2342645680796658,-6.723957320412786e-06,0.2342645680796658,-2.157346375073268e-05,0.2342645680796658,2.3598773204127858e-06,0.2342645680796658,-1.4188268660206394e-05
0.2350586852595969,-5.262487853575395e-06,0.2350586852595969,-2.5284994166512877e-05,0.2350586852595969,1.2143789606594449e-06,0.2350586852595969,-1.2983558440989166e-05
0.2358528024395279,-3.3275966499489176e-06,0.2358528024395279,-2.38653938849764e-05,0.2358528024395279,-6.021669687994747e-07,0.2358528024395279,-1.3378640045269812e-05
0.236646919619459,-3.3267940340072826e-06,0.236646919619459,-2.258063586946511e-05,0.236646919619459,1.6482975591603892e-06,0.236646919619459,-1.2016321220419806e-05
0.2374410367993901,-6.327532367663611e-06,0.2374410367993901,-2.2688834045636128e-05,0.2374410367993901,1.1554215240119016e-06,0.2374410367993901,-1.1226381175149974e-05
0.2382351539793211,-7.968041564682145e-06,0.2382351539793211,-1.9905726780033582e-05,0.2382351539793211,1.608946720280014e-06,0.2382351539793211,-1.1166768435317855e-05
0.2390292711592522,-6.565900136648159e-06,0.2390292711592522,-2.2285144282571897e-05,0.2390292711592522,2.6954800683240794e-06,0.2390292711592522,-1.2687436575537702e-05
0.2398233883391833,-6.269771428033986e-06,0.2398233883391833,-2.4377875066415685e-05,0.2398233883391833,1.5699914280339855e-06,0.2398233883391833,-1.1324681697899578e-05
0.2406175055191144,-7.138837001147117e-06,0.2406175055191144,-2.281792989943601e-05,0.2406175055191144,3.476302925078892e-06,0.2406175055191144,-1.268835100344135e-05
0.2414116226990454,-7.750752051274337e-06,0.2414116226990454,-2.1691891487727904e-05,0.2414116226990454,3.465460013092206e-06,0.2414116226990454,-1.52743e-05
0.2422057398789765,-6.684385258613244e-06,0.2422057398789765,-2.1967865088163663e-05,0.2422057398789765,3.228680828562424e-06,0.2422057398789765,-1.4069765258613245e-05
0.2429998570589076,-6.546017027200169e-06,0.2429998570589076,-2.2995115085453868e-05,0.2429998570589076,1.5109489183994917e-06,0.2429998570589076,-1.35958e-05
0.2437939742388386,-8.026765428416971e-06,0.2437939742388386,-2.058544564187124e-05,0.2437939742388386,7.01393160941142e-07,0.2437939742388386,-1.35958e-05
0.2445880914187697,-8.06828005425411e-06,0.2445880914187697,-2.0961736244159915e-05,0.2445880914187697,-9.77199210177402e-07,0.2445880914187697,-1.235184270952782e-05
0.2453822085987008,-4.828494889066965e-06,0.2453822085987008,-1.97571018688684e-05,0.2453822085987008,-9.957857442663525e-07,0.2453822085987008,-1.2994368051548992e-05
0.2461763257786318,-4.808072626366354e-06,0.2461763257786318,-1.979676202989787e-05,0.2461763257786318,-3.97695884550622e-06,0.2461763257786318,-1.2253e-05
0.2469704429585629,-5.618108227113286e-06,0.2469704429585629,-2.271690725476074e-05,0.2469704429585629,-1.888297510380864e-06,0.2469704429585629,-1.2499906496260253e-05
0.247764560138494,-5.282255619082499e-06,0.247764560138494,-2.4476510615764712e-05,0.247764560138494,2.6955887618350032e-06,0.247764560138494,-1.059449987474594e-05
0.2485586773184251,-6.170970160897688e-06,0.2485586773184251,-2.0567989510054134e-05,0.2485586773184251,9.181465008229936e-07,0.2485586773184251,-9.56741e-06
0.2493527944983561,-1.03961457484659e-05,0.2493527944983561,-2.38824545119212e-05,0.2493527944983561,2.4878339977241557e-06,0.2493527944983561,-1.2055261654229708e-05
0.2501469116782872,-1.0457433785606634e-05,0.2501469116782872,-2.465397706820024e-05,0.2501469116782872,3.8013631716118056e-06,0.2501469116782872,-1.2834985423629004e-05
0.2509410288582183,-7.631271786079347e-06,0.2509410288582183,-2.225437546858428e-05,0.2509410288582183,3.072061448982328e-06,0.2509410288582183,-1.561e-05
0.2517351460381494,-8.382884570786465e-06,0.2517351460381494,-1.978692378571299e-05,0.2517351460381494,-1.390671860829983e-06,0.2517351460381494,-1.458374914157293e-05
0.2525292632180804,-6.921403156140691e-06,0.2525292632180804,-2.1139533930337967e-05,0.2525292632180804,-2.0636689451758632e-06,0.2525292632180804,-1.218389220964912e-05
0.2533233803980115,-4.808284292677122e-06,0.2533233803980115,-2.325143961389405e-05,0.2533233803980115,-5.03548e-07,0.2533233803980115,-1.1838427400082816e-05
0.2541174975779426,-4.53193e-06,0.2541174975779426,-2.226444821594001e-05,0.2541174975779426,-1.0962464727957783e-06,0.2541174975779426,-1.1215809453065037e-05
0.2549116147578736,-5.262694405239513e-06,0.2549116147578736,-2.360773857929588e-05,0.2549116147578736,-1.51064e-06,0.2549116147578736,-1.1700328810479026e-05
0.2557057319378047,-5.00590672464066e-06,0.2557057319378047,-2.0213343775246132e-05,0.2557057319378047,1.194527111380264e-06,0.2557057319378047,-1.138417672464066e-05
0.2564998491177358,-5.706489575949616e-06,0.2564998491177358,-2.030940962484712e-05,0.2564998491177358,3.860203922705074e-06,0.2564998491177358,-1.158138261297817e-05
0.2572939662976669,-6.408278984401021e-06,0.2572939662976669,-2.2679607846345944e-05,0.2572939662976669,4.257247115455881e-07,0.2572939662976669,-1.535212304679694e-05
0.2580880834775979,-7.019769942859419e-06,0.2580880834775979,-2.1869043650096677e-05,0.2580880834775979,1.262269398269128e-06,0.2580880834775979,-1.4308650399984064e-05
0.258882200657529,-6.171290622080651e-06,0.258882200657529,-2.2955744607190027e-05,0.258882200657529,3.86053e-06,0.258882200657529,-1.1285029377919347e-05
0.2596763178374601,-6.150856905655253e-06,0.2596763178374601,-2.307447076167445e-05,0.2596763178374601,2.2037167917731477e-06,0.2596763178374601,-1.323842143393152e-05
0.2604704350173911,-6.349234793960025e-06,0.2604704350173911,-2.3232767301201516e-05,0.2604704350173911,2.023868402013325e-06,0.2604704350173911,-1.42284863919467e-05
0.2612645521973222,-6.1315001016286364e-06,0.2612645521973222,-2.3232171465441743e-05,0.2612645521973222,1.925259898371364e-06,0.2612645521973222,-1.2095160203257271e-05
0.2620586693772533,-4.92682225131603e-06,0.2620586693772533,-2.3864673423292557e-05,0.2620586693772533,1.708086419535679e-06,0.2620586693772533,-1.0317723785428476e-05
0.2628527865571843,-7.059056483863171e-06,0.2628527865571843,-2.16526e-05,0.2628527865571843,-3.849968418499594e-07,0.2628527865571843,-1.2213090932216622e-05
0.2636469037371154,-7.98795767728623e-06,0.2636469037371154,-2.113914880713044e-05,0.2636469037371154,1.667539351451692e-06,0.2636469037371154,-1.29244e-05
0.2644410209170465,-7.730823098316324e-06,0.2644410209170465,-2.035917867284693e-05,0.2644410209170465,3.405748397056576e-06,0.2644410209170465,-1.2539928697468474e-05
0.2652351380969776,-8.658580981686958e-06,0.2652351380969776,-2.0892063864427584e-05,0.2652351380969776,4.709343987791305e-06,0.2652351380969776,-1.2134273703085644e-05
0.2660292552769086,-9.56741e-06,0.2660292552769086,-2.200816467022536e-05,0.2660292552769086,3.544637724541454e-06,0.2660292552769086,-1.3556193961014812e-05
0.2668233724568397,-6.683461888143078e-06,0.2668233724568397,-2.325142936061963e-05,0.2668233724568397,2.2608800200822983e-06,0.2668233724568397,-1.3851820093717392e-05
0.2676174896367708,-3.3071977240957453e-06,0.2676174896367708,-2.4130986257968988e-05,0.2676174896367708,1.84634e-06,0.2676174896367708,-9.84287958591124e-06
0.2684116068167018,-4.19623e-06,0.2684116068167018,-2.3676532399760625e-05,0.2684116068167018,3.86053e-06,0.2684116068167018,-1.1700305878424206e-05
0.2692057239966329,-4.294935904665981e-06,0.2692057239966329,-2.3310591505470837e-05,0.2692057239966329,3.52483e-06,0.2692057239966329,-1.012055570297315e-05
0.269999841176564,-5.706469553631094e-06,0.269999841176564,-2.299550546060682e-05,0.269999841176564,3.860415585777962e-06,0.269999841176564,-8.22461e-06
0.270793958356495,-6.88182e-06,0.270793958356495,-2.181045121334222e-05,0.270793958356495,1.432855583005922e-06,0.270793958356495,-1.0514462046275324e-05
0.2715880755364261,-6.605931580308538e-06,0.2715880755364261,-2.29953e-05,0.2715880755364261,-6.622390644705402e-07,0.2715880755364261,-1.2253e-05
0.2723821927163572,-6.249543644905621e-06,0.2723821927163572,-2.3784919999083745e-05,0.2723821927163572,1.2336254673584314e-06,0.2723821927163572,-1.4048870934716864e-05
0.2731763098962882,-6.822251184944162e-06,0.2731763098962882,-2.342923026516498e-05,0.2731763098962882,2.368817962360405e-06,0.2731763098962882,-1.6319255924720812e-05
0.2739704270762193,-6.171734562925879e-06,0.2739704270762193,-2.16526e-05,0.2739704270762193,3.3473126068324817e-06,0.2739704270762193,-1.82956e-05
0.2747645442561504,-4.768672532980932e-06,0.2747645442561504,-2.159338727015472e-05,0.2747645442561504,2.438825822339689e-06,0.2747645442561504,-1.5807914934038135e-05
0.2755586614360815,-6.8028738704427145e-06,0.2755586614360815,-2.0725094339801564e-05,0.2755586614360815,2.498003320629152e-06,0.2755586614360815,-1.300334671748339e-05
0.2763527786160125,-6.901791732932874e-06,0.2763527786160125,-2.08818068288752e-05,0.2763527786160125,-4.436318644867111e-07,0.2763527786160125,-1.2262953524679767e-05
0.2771468957959436,-5.065741237003952e-06,0.2771468957959436,-2.1909320459919627e-05,0.2771468957959436,-1.7087533517884157e-06,0.2771468957959436,-1.2943666572247036e-05
0.2779410129758747,-3.247644296502493e-06,0.2779410129758747,-2.078363670768792e-05,0.2779410129758747,1.5691448774267058e-06,0.2779410129758747,-1.282689187095549e-05
0.2787351301558057,-5.350703087052359e-06,0.2787351301558057,-2.03098e-05,0.2787351301558057,3.5439374504600937e-06,0.2787351301558057,-1.1502451273184529e-05
0.2795292473357368,-7.197705539085238e-06,0.2795292473357368,-2.1909505642198044e-05,0.2795292473357368,4.2160444609147616e-06,0.2795292473357368,-1.260851446091476e-05
0.2803233645156679,-7.315882936397291e-06,0.2803233645156679,-2.181174993233208e-05,0.2803233645156679,3.563860437975491e-06,0.2803233645156679,-9.053707202297968e-06
0.2811174816955989,-5.914078698467568e-06,0.2811174816955989,-1.924316880621418e-05,0.2811174816955989,1.0766059959264878e-07,0.2811174816955989,-1.0891672886228553e-05
0.2819115988755301,-7.276861473184726e-06,0.2819115988755301,-2.121857960034142e-05,0.2819115988755301,1.483529758843869e-07,0.2819115988755301,-1.3990841473184726e-05
0.2827057160554611,-6.88182e-06,0.2827057160554611,-2.082355938377976e-05,0.2827057160554611,3.86053e-06,0.2827057160554611,-1.3437999141738736e-05
0.2834998332353922,-6.546240134933122e-06,0.2834998332353922,-2.299454496440196e-05,0.2834998332353922,1.1759010758863385e-06,0.2834998332353922,-1.0910680539732488e-05
0.2842939504153233,-6.88182e-06,0.2842939504153233,-2.3271038099144236e-05,0.2842939504153233,2.8322462397076857e-06,0.2842939504153233,-1.02388e-05
0.2850880675952543,-6.743881523167997e-06,0.2850880675952543,-2.2362796692589176e-05,0.2850880675952543,2.775324569503992e-06,0.2850880675952543,-1.1383838476832002e-05
0.2858821847751854,-7.631454658519802e-06,0.2858821847751854,-2.220575934943852e-05,0.2858821847751854,2.400386264324322e-06,0.2858821847751854,-1.071461160580452e-05
0.2866763019551165,-7.396241832664609e-06,0.2866763019551165,-2.1247943713325545e-05,0.2866763019551165,4.061455458951465e-07,0.2866763019551165,-8.403333607300765e-06
0.2874704191350475,-6.349269118226592e-06,0.2874704191350475,-2.220519144840455e-05,0.2874704191350475,7.504880485008592e-07,0.2874704191350475,-9.270372554400273e-06
0.2882645363149786,-6.012478391130421e-06,0.2882645363149786,-2.392340257146768e-05,0.2882645363149786,-1.3621857057066408e-06,0.2882645363149786,-1.1068016913898372e-05
0.2890586534949096,-7.237262412384575e-06,0.2890586534949096,-2.3391287859683315e-05,0.2890586534949096,-2.201782412384576e-06,0.2890586534949096,-1.2213515175230848e-05
0.2898527706748408,-6.21042e-06,0.2898527706748408,-2.090243619355676e-05,0.2898527706748408,7.006919756962599e-07,0.2898527706748408,-1.3792948090701471e-05
0.2906468878547718,-4.630997084529433e-06,0.2906468878547718,-2.141564597021331e-05,0.2906468878547718,3.028428374086282e-08,0.2906468878547718,-1.4465334169058864e-05
0.2914410050347029,-6.050182454403127e-06,0.2914410050347029,-2.142529392192493e-05,0.2914410050347029,-1.84634e-06,0.2914410050347029,-1.2253e-05
0.292235122214634,-9.40910110494689e-06,0.292235122214634,-1.9234419234246435e-05,0.292235122214634,-1.788030794517404e-07,0.292235122214634,-1.2253e-05
0.293029239394565,-7.908740607045009e-06,0.293029239394565,-1.8967e-05,0.293029239394565,2.1622140976630286e-06,0.293029239394565,-1.0683233854381024e-05
0.2938233565744961,-7.98729758655012e-06,0.2938233565744961,-1.8967e-05,0.2938233565744961,1.3326557782780138e-06,0.2938233565744961,-9.80472241344988e-06
0.2946174737544272,-5.1038154162801e-06,0.2946174737544272,-1.9618097998944067e-05,0.2946174737544272,-6.81788977639438e-07,0.2946174737544272,-1.2984548979631214e-05
0.2954115909343582,-5.262660007157269e-06,0.2954115909343582,-2.2205890560483632e-05,0.2954115909343582,2.4193566147474647e-06,0.2954115909343582,-1.420786999284273e-05
0.2962057081142893,-5.87472e-06,0.2962057081142893,-2.1149e-05,0.2962057081142893,3.663144062682398e-06,0.2962057081142893,-1.345748887727705e-05
0.2969998252942204,-5.203581707539362e-06,0.2969998252942204,-2.2491347986665124e-05,0.2969998252942204,3.18914e-06,0.2969998252942204,-1.560937072177897e-05
0.2977939424741515,-4.828770073724847e-06,0.2977939424741515,-2.159262189366382e-05,0.2977939424741515,1.097225789470755e-06,0.2977939424741515,-1.533438676496646e-05
0.2985880596540825,-5.695222354099879e-06,0.2985880596540825,-2.0270913580441204e-05,0.2985880596540825,8.575090211625819e-07,0.2985880596540825,-1.2915247596405488e-05
0.2993821768340136,-8.216456360141106e-06,0.2993821768340136,-1.96384e-05,0.2993821768340136,1.0967165743180757e-06,0.2993821768340136,-1.3674024357756489e-05
0.3001762940139447,-5.777349251105587e-06,0.3001762940139447,-2.0013670000925437e-05,0.3001762940139447,9.177292603216284e-07,0.3001762940139447,-1.5095559230565885e-05
0.3009704111938757,-6.565442479760024e-06,0.3009704111938757,-2.03098e-05,0.3009704111938757,1.491317520239976e-06,0.3009704111938757,-1.4228555040479952e-05
0.3017645283738068,-6.960722736238072e-06,0.3017645283738068,-2.04282049136298e-05,0.3017645283738068,1.477593595185721e-07,0.3017645283738068,-1.1788863120090477e-05
0.3025586455537379,-6.901568145398262e-06,0.3025586455537379,-2.216461903344945e-05,0.3025586455537379,3.0706511276104265e-06,0.3025586455537379,-1.2233251854601737e-05
0.3033527627336689,-6.526113868984996e-06,0.3033527627336689,-2.2058639045909395e-05,0.3033527627336689,2.9920113093691168e-06,0.3033527627336689,-1.138447484135334e-05
0.3041468799136,-7.099209275278445e-06,0.3041468799136,-1.961865925244301e-05,0.3041468799136,1.5298721741646651e-06,0.3041468799136,-1.071204289888622e-05
0.3049409970935311,-7.334460378106253e-06,0.3049409970935311,-2.03098e-05,0.3049409970935311,4.809159520655545e-06,0.3049409970935311,-1.3299080319562973e-05
0.3057351142734621,-9.488249831762352e-06,0.3057351142734621,-2.0447892052190653e-05,0.3057351142734621,2.689906959763555e-07,0.3057351142734621,-1.3674960168237648e-05
0.3065292314533932,-8.73807867187961e-06,0.3065292314533932,-2.1455236363142733e-05,0.3065292314533932,-3.2486467358152835e-06,0.3065292314533932,-1.260853734375922e-05
0.3073233486333243,-7.0786391713100354e-06,0.3073233486333243,-2.2619799300398023e-05,0.3073233486333243,-1.67849e-07,0.3073233486333243,-1.2885314122392512e-05
0.3081174658132554,-3.6823106579799353e-06,0.3081174658132554,-2.36166541504526e-05,0.3081174658132554,-4.641779527828373e-07,0.3081174658132554,-1.4859859671010032e-05
0.3089115829931864,-5.756415834036848e-06,0.3089115829931864,-2.529601704794232e-05,0.3089115829931864,1.6292795521564863e-06,0.3089115829931864,-1.514586551167879e-05
0.3097057001731175,-6.3091087056248765e-06,0.3097057001731175,-2.3549948284050508e-05,0.3097057001731175,2.715117411249752e-06,0.3097057001731175,-1.2529645177500497e-05
0.3104998173530486,-8.559520545787482e-06,0.3104998173530486,-2.3666345580453275e-05,0.3104998173530486,3.18914e-06,0.3104998173530486,-1.258830527093401e-05
0.3112939345329796,-7.593905385759941e-06,0.3112939345329796,-2.380459986866315e-05,0.3112939345329796,3.544254311261436e-06,0.3112939345329796,-1.2450904848510688e-05
0.3120880517129107,-5.086202560018171e-06,0.3120880517129107,-2.228502964378229e-05,0.3120880517129107,4.136384021609252e-06,0.3120880517129107,-1.2972508043218504e-05
0.3128821688928418,-5.063161064400151e-06,0.3128821688928418,-2.2047320381049555e-05,0.3128821688928418,5.499923554135485e-06,0.3128821688928418,-1.2611548433083874e-05
0.3136762860727728,-6.54612e-06,0.3136762860727728,-2.1198205377135423e-05,0.3136762860727728,3.822759885945813e-06,0.3136762860727728,-1.02388e-05
0.314470403252704,-6.54612e-06,0.314470403252704,-1.944201678664564e-05,0.314470403252704,2.51774e-06,0.314470403252704,-1.3121216557506784e-05
0.315264520432635,-5.835271492236506e-06,0.315264520432635,-1.8512905359400437e-05,0.315264520432635,2.202151937892047e-06,0.315264520432635,-1.3516902984473013e-05
0.3160586376125661,-6.18078918238207e-06,0.3160586376125661,-1.914336390902345e-05,0.3160586376125661,1.17494e-06,0.3160586376125661,-1.1996315513647811e-05
0.3168527547924971,-5.341924241253253e-06,0.3168527547924971,-2.17313535334129e-05,0.3168527547924971,-1.2534709621791835e-06,0.3168527547924971,-1.1344451113295872e-05
0.3176468719724282,-5.775636459287295e-06,0.3176468719724282,-2.0191364647381297e-05,0.3176468719724282,-2.6759825124382e-06,0.3176468719724282,-1.1344990016584266e-05
0.3184409891523593,-5.655935980194887e-06,0.3184409891523593,-1.853253373375574e-05,0.3184409891523593,-1.4716714947115388e-06,0.3184409891523593,-9.9031e-06
0.3192351063322903,-9.348943493825018e-06,0.3192351063322903,-1.857186126348721e-05,0.3192351063322903,1.86885859144838e-07,0.3192351063322903,-1.0801007597513232e-05
0.3200292235122214,-9.113476667320577e-06,0.3200292235122214,-2.121822556089688e-05,0.3200292235122214,2.339965607409328e-06,0.3200292235122214,-1.3418025607409328e-05
0.3208233406921525,-7.592978096218181e-06,0.3208233406921525,-2.180050301565999e-05,0.3208233406921525,7.004067037962584e-07,0.3208233406921525,-1.2015731584930486e-05
0.3216174578720835,-8.856634102491287e-06,0.3216174578720835,-2.271916201287689e-05,0.3216174578720835,-2.3996123074738634e-06,0.3216174578720835,-1.1502848204982575e-05
0.3224115750520147,-7.967805270680678e-06,0.3224115750520147,-2.23239e-05,0.3224115750520147,7.407740637418294e-07,0.3224115750520147,-1.3319407075102516e-05
0.3232056922319457,-8.421975945222296e-06,0.3232056922319457,-2.0864473966626457e-05,0.3232056922319457,4.841650709577492e-07,0.3232056922319457,-1.320106810955541e-05
0.3239998094118768,-6.8826437783088496e-06,0.3239998094118768,-1.8967369829092297e-05,0.3239998094118768,-2.8527535146677302e-06,0.3239998094118768,-1.1917437297066454e-05
0.3247939265918079,-6.447161842730979e-06,0.3247939265918079,-2.1021112962388515e-05,0.3247939265918079,4.822387947473144e-07,0.3247939265918079,-1.0793723415421188e-05
0.3255880437717389,-8.77629511116359e-06,0.3255880437717389,-2.577806468374527e-05,0.3255880437717389,9.589585864577992e-07,0.3255880437717389,-9.052133558277174e-06
0.32638216095167,-9.727147956923106e-06,0.32638216095167,-2.637247773144877e-05,0.32638216095167,1.2874852009954261e-07,0.32638216095167,-1.304170213855236e-05
0.3271762781316011,-7.1499808654037184e-06,0.3271762781316011,-2.3410119495301903e-05,0.3271762781316011,-7.200631367437243e-07,0.3271762781316011,-1.4345621328886582e-05
0.3279703953115321,-8.085714107920438e-06,0.3279703953115321,-2.42193406668234e-05,0.3279703953115321,-1.67849e-07,0.3279703953115321,-1.3754000201542177e-05
0.3287645124914632,-6.408474581158095e-06,0.3287645124914632,-2.290652054055543e-05,0.3287645124914632,2.1619051792635795e-06,0.3287645124914632,-1.2194243525920526e-05
0.3295586296713942,-4.86763e-06,0.3295586296713942,-2.332017154023293e-05,0.3295586296713942,4.136951754332173e-06,0.3295586296713942,-9.014567079944872e-06
0.3303527468513254,-4.551970529097255e-06,0.3303527468513254,-2.3380765675669636e-05,0.3303527468513254,5.213350264548627e-06,0.3303527468513254,-7.118980352731503e-06
0.3311468640312564,-3.3266335108188914e-06,0.3311468640312564,-2.325199991385894e-05,0.3311468640312564,5.756424265263524e-06,0.3311468640312564,-8.263012028207168e-06
0.3319409812111875,-7.314912888529239e-06,0.3319409812111875,-2.130692130164371e-05,0.3319409812111875,3.388479723962624e-06,0.3319409812111875,-1.2272478693754068e-05
0.3327350983911186,-7.869904080235763e-06,0.3327350983911186,-2.144453759068277e-05,0.3327350983911186,6.618893325967944e-07,0.3327350983911186,-1.335828517102046e-05
0.3335292155710496,-3.2487153840075808e-06,0.3335292155710496,-2.141558471213346e-05,0.3335292155710496,1.1352237834353723e-06,0.3335292155710496,-1.1562244257445693e-05
0.3343233327509807,-3.0515406807091225e-06,0.3343233327509807,-2.0389421905752997e-05,0.3343233327509807,4.413307233887477e-06,0.3343233327509807,-1.067359238976702e-05
0.3351174499309118,-5.8353395425973695e-06,0.3351174499309118,-2.050743614295358e-05,0.3351174499309118,2.08262861001461e-06,0.3351174499309118,-1.339889184738802e-05
0.3359115671108428,-4.788723413612588e-06,0.3359115671108428,-1.9361753877977225e-05,0.3359115671108428,2.2413356090750585e-06,0.3359115671108428,-1.4662195609075058e-05
0.3367056842907739,-6.21042e-06,0.3367056842907739,-1.995364014031911e-05,0.3367056842907739,2.4190627604025806e-06,0.3367056842907739,-1.4188321598242018e-05
0.337499801470705,-5.539316031294791e-06,0.337499801470705,-2.232312956097675e-05,0.337499801470705,5.042630854794613e-07,0.337499801470705,-1.2924686035555075e-05
0.338293918650636,-6.683892219434558e-06,0.338293918650636,-2.5611961141542043e-05,0.338293918650636,-2.507066384010476e-06,0.338293918650636,-1.368407553436316e-05
0.3390880358305671,-8.69822554477717e-06,0.3390880358305671,-2.558376099883068e-05,0.3390880358305671,-2.875862858697837e-07,0.3390880358305671,-1.2966091186559818e-05
0.3398821530104982,-6.725441245232475e-06,0.3398821530104982,-2.3410262048414724e-05,0.3398821530104982,2.770558796186132e-07,0.3398821530104982,-1.2151869879022591e-05
0.3406762701904293,-5.53903e-06,0.3406762701904293,-2.2482118484054696e-05,0.3406762701904293,1.4887574411815574e-06,0.3406762701904293,-1.4483705162777324e-05
0.3414703873703603,-4.670847766759895e-06,0.3414703873703603,-2.410057106061642e-05,0.3414703873703603,2.261142961126649e-06,0.3414703873703603,-1.4039508757953625e-05
0.3422645045502914,-4.018301148209622e-06,0.3422645045502914,-2.311367409453888e-05,0.3422645045502914,1.0759013123846009e-06,0.3422645045502914,-1.5965857703580757e-05
0.3430586217302225,-6.111593866583145e-06,0.3430586217302225,-2.36667e-05,0.3430586217302225,3.11007862224252e-06,0.3430586217302225,-1.2095188099954327e-05
0.3438527389101535,-5.4605560144008445e-06,0.3438527389101535,-2.2738343260382556e-05,0.3438527389101535,2.51774e-06,0.3438527389101535,-1.278575636248208e-05
0.3446468560900846,-4.6694041027218e-06,0.3446468560900846,-2.2481910445312508e-05,0.3446468560900846,2.843849711479325e-06,0.3446468560900846,-1.424801942295865e-05
0.3454409732700157,-7.670057184371954e-06,0.3454409732700157,-2.1573706659882067e-05,0.3454409732700157,3.267031262891196e-06,0.3454409732700157,-1.089072703925962e-05
0.3462350904499467,-9.05436466074194e-06,0.3462350904499467,-2.4376554952284503e-05,0.3462350904499467,3.5058469629098475e-06,0.3462350904499467,-1.1857113348145143e-05
0.3470292076298778,-9.6657044578833e-06,0.3470292076298778,-2.271871524077662e-05,0.3470292076298778,9.971573435712637e-07,0.3470292076298778,-1.2944271668025803e-05
0.3478233248098089,-1.2193694337654822e-05,0.3478233248098089,-2.0389432159027464e-05,0.3478233248098089,2.794134337654822e-06,0.3478233248098089,-1.0277973454900932e-05
0.34861744198974,-8.954182462070348e-06,0.34861744198974,-2.1100365117875016e-05,0.34861744198974,1.332489454144356e-06,0.34861744198974,-8.89601e-06
0.349411559169671,-4.847807749666697e-06,0.349411559169671,-1.9677779525015123e-05,0.349411559169671,3.060565167754888e-07,0.349411559169671,-1.0357372403102307e-05
0.3502056763496021,-6.98049150658373e-06,0.3502056763496021,-1.837438399125865e-05,0.3502056763496021,-1.67849e-07,0.3502056763496021,-1.272705698683254e-05
0.3509997935295332,-5.5397736880124126e-06,0.3509997935295332,-1.896679965601721e-05,0.3509997935295332,8.387997867494829e-07,0.3509997935295332,-1.0910794953954486e-05
0.3517939107094642,-4.906421130110652e-06,0.3517939107094642,-1.7426446097299758e-05,0.3517939107094642,3.0901703767035504e-06,0.3517939107094642,-1.0040863701563886e-05
0.3525880278893953,-4.582735847064338e-06,0.3525880278893953,-1.8373290654874983e-05,0.3525880278893953,2.1221596235269607e-06,0.3525880278893953,-1.197718037647304e-05
0.3533821450693264,-4.805553563353747e-06,0.3533821450693264,-1.9243651638640168e-05,0.3533821450693264,2.4395615063531884e-06,0.3533821450693264,-1.1777046234117028e-05
0.3541762622492574,-7.986199218198368e-06,0.3541762622492574,-1.76242e-05,0.3541762622492574,1.84634e-06,0.3541762622492574,-1.4088390582032616e-05
0.3549703794291886,-9.092775071106909e-06,0.3549703794291886,-1.7841130393793067e-05,0.3549703794291886,1.6495749288930907e-06,0.3549703794291886,-1.42672e-05
0.3557644966091196,-1.0673560439818938e-05,0.3557644966091196,-1.902618191075425e-05,0.3557644966091196,9.768252405920089e-07,0.3557644966091196,-1.4109440293212623e-05
0.3565586137890507,-6.743829596629438e-06,0.3565586137890507,-2.001273220567877e-05,0.3565586137890507,4.097375201685281e-06,0.3565586137890507,-1.2648013232359297e-05
0.3573527309689818,-4.946071788034358e-06,0.3573527309689818,-2.19883e-05,0.3573527309689818,1.767898211965642e-06,0.3573527309689818,-1.1818783284786256e-05
0.3581468481489128,-7.099232207333238e-06,0.3581468481489128,-2.1731610359171407e-05,0.3581468481489128,3.0398943502617855e-08,0.3581468481489128,-1.1482475585333525e-05
0.3589409653288439,-5.855253352172895e-06,0.3589409653288439,-2.3133498227335016e-05,0.3589409653288439,-1.7490043832763344e-06,0.3589409653288439,-1.29244e-05
0.3597350825087749,-5.6672808332034e-06,0.3597350825087749,-2.293584585394171e-05,0.3597350825087749,1.3712442881263231e-06,0.3597350825087749,-1.241136610216419e-05
0.360529199688706,-5.894607813303952e-06,0.360529199688706,-2.3646907887291185e-05,0.360529199688706,2.0440146641719554e-06,0.360529199688706,-1.3871850671656088e-05
0.3613233168686371,-5.144030058365914e-06,0.3613233168686371,-2.181187296246339e-05,0.3613233168686371,-9.578448233943282e-07,0.3613233168686371,-1.4879300058365911e-05
0.3621174340485681,-4.86763e-06,0.3621174340485681,-2.23929473540551e-05,0.3621174340485681,-1.2143330965498175e-06,0.3621174340485681,-1.4899206903450184e-05
0.3629115512284993,-6.21042e-06,0.3629115512284993,-2.391377588780544e-05,0.3629115512284993,-1.9747195077651685e-06,0.3629115512284993,-1.3734013661489889e-05
0.3637056684084303,-6.4474542264299695e-06,0.3637056684084303,-2.370766081148316e-05,0.3637056684084303,-4.445846691832124e-07,0.3637056684084303,-1.4128831547140062e-05
0.3644997855883614,-5.8748744591997465e-06,0.3644997855883614,-1.997534813187393e-05,0.3644997855883614,1.174631085281395e-06,0.3644997855883614,-1.577725941580643e-05
0.3652939027682925,-6.733356965534793e-06,0.3652939027682925,-2.086316415525815e-05,0.3652939027682925,2.902927678155069e-06,0.3652939027682925,-1.639972706348275e-05
0.3660880199482235,-6.6060118425004486e-06,0.3660880199482235,-2.287880062096908e-05,0.3660880199482235,1.5795920393748878e-06,0.3660880199482235,-1.403316329125202e-05
0.3668821371281546,-5.164246486190318e-06,0.3668821371281546,-2.1178569044164748e-05,0.3668821371281546,2.5568235138096816e-06,0.3668821371281546,-1.09102e-05
0.3676762543080857,-4.315447720067076e-06,0.3676762543080857,-2.3222510661771423e-05,0.3676762543080857,1.4729843001676909e-06,0.3676762543080857,-1.09102e-05
0.3684703714880167,-5.08363789468076e-06,0.3684703714880167,-2.193136256056061e-05,0.3684703714880167,8.585090430955826e-07,0.3684703714880167,-1.1936565272649024e-05
0.3692644886679478,-5.381281734634855e-06,0.3692644886679478,-2.042815354847817e-05,0.3692644886679478,7.016984932636876e-07,0.3692644886679478,-1.1266103469269707e-05
0.3700586058478789,-4.86763e-06,0.3700586058478789,-2.2401163150409498e-05,0.3700586058478789,-1.4710867325393617e-06,0.3700586058478789,-1.087064637906643e-05
0.3708527230278099,-7.316025249186286e-06,0.3708527230278099,-2.2087724491320517e-05,0.3708527230278099,1.477572869146739e-07,0.3708527230278099,-1.0811694750813717e-05
0.371646840207741,-8.22461e-06,0.371646840207741,-2.054684648705979e-05,0.371646840207741,6.218293549639673e-07,0.371646840207741,-1.1146764119306066e-05
0.3724409573876721,-8.205148505287078e-06,0.3724409573876721,-1.9361858788812605e-05,0.3724409573876721,1.649297757930616e-06,0.3724409573876721,-9.747409201754151e-06
0.3732350745676032,-7.375895184671437e-06,0.3732350745676032,-1.953864208443421e-05,0.3732350745676032,1.687962456413704e-06,0.3732350745676032,-5.67846027184403e-06
0.3740291917475342,-6.388217275435088e-06,0.3740291917475342,-2.2422650828285683e-05,0.3740291917475342,4.176335449129824e-06,0.3740291917475342,-8.63863511371307e-06
0.3748233089274653,-8.402492662768888e-06,0.3748233089274653,-2.0804805331153143e-05,0.3748233089274653,1.5795174188754657e-06,0.3748233089274653,-1.0001624882594145e-05
0.3756174261073964,-1.1305809366687557e-05,0.3756174261073964,-1.989565465749729e-05,0.3756174261073964,-2.569008103258278e-07,0.3756174261073964,-8.30340765912701e-06
0.3764115432873274,-1.49386e-05,0.3764115432873274,-1.9144652951941656e-05,0.3764115432873274,-9.18202889631871e-07,0.3764115432873274,-8.955271210992801e-06
0.3772056604672585,-1.34183045527268e-05,0.3772056604672585,-2.000164910741056e-05,0.3772056604672585,2.2409801622252558e-06,0.3772056604672585,-9.685287385515733e-06
0.3779997776471896,-1.0239921259375807e-05,0.3779997776471896,-2.299443710829403e-05,0.3779997776471896,2.1825205397324886e-06,0.3779997776471896,-1.3930378740624192e-05
0.3787938948271206,-8.422572178647732e-06,0.3787938948271206,-2.228412218810224e-05,0.3787938948271206,1.7279805446619331e-06,0.3787938948271206,-1.35570432679716e-05
0.3795880120070517,-5.461029070576908e-06,0.3795880120070517,-2.1336312390688364e-05,0.3795880120070517,1.786436691472127e-06,0.3795880120070517,-1.2253e-05
0.3803821291869828,-5.304563315224039e-06,0.3803821291869828,-2.204726902354832e-05,0.3803821291869828,1.690029808070856e-06,0.3803821291869828,-1.2096688876816026e-05
0.3811762463669139,-1.8683257086389365e-06,0.3811762463669139,-2.384463247403237e-05,0.3811762463669139,-3.2470496809762813e-07,0.3811762463669139,-1.1186285419255338e-05
0.3819703635468449,-1.0958331710353131e-06,0.3819703635468449,-2.441814726870365e-05,0.3819703635468449,7.38784065168198e-07,0.3819703635468449,-1.4660661493680458e-05
0.382764480726776,-6.815098808685686e-07,0.382764480726776,-2.380500536796589e-05,0.382764480726776,1.215395993348638e-06,0.382764480726776,-1.5965926352114046e-05
0.3835585979067071,-1.67849e-07,0.3835585979067071,-2.4731737418581592e-05,0.3835585979067071,-1.4710752666144469e-06,0.3835585979067071,-1.36749301739219e-05
0.3843527150866381,-3.721821099326548e-06,0.3843527150866381,-2.686624429832589e-05,0.3843527150866381,-4.05054156938504e-07,0.3843527150866381,-1.4345584457897072e-05
0.3851468322665692,-3.3282900533975e-06,0.3851468322665692,-2.583894126440343e-05,0.3851468322665692,1.648045306557378e-06,0.3851468322665692,-1.715109469344262e-05
0.3859409494465003,-1.943618228938383e-06,0.3859409494465003,-2.5641421899173957e-05,0.3859409494465003,1.8074284766014512e-06,0.3859409494465003,-1.35958e-05
0.3867350666264313,-4.037841014991475e-06,0.3867350666264313,-2.63523e-05,0.3867350666264313,-1.005341531884308e-06,0.3867350666264313,-1.3852305507495738e-05
0.3875291838063624,-4.176324007707576e-06,0.3875291838063624,-2.475276451063721e-05,0.3875291838063624,-1.9060607989863656e-06,0.3875291838063624,-1.5254394007707576e-05
0.3883233009862935,-5.598316734096293e-06,0.3883233009862935,-2.3074962918850988e-05,0.3883233009862935,2.51774e-06,0.3883233009862935,-1.5491422999576245e-05
0.3891174181662246,-6.171015437422766e-06,0.3891174181662246,-2.36667e-05,0.3891174181662246,1.925149125154469e-06,0.3891174181662246,-1.4346009125154469e-05
0.3899115353461556,-5.87472e-06,0.3899115353461556,-2.4298689655893808e-05,0.3899115353461556,1.6587279463105655e-06,0.3899115353461556,-1.4128974872482696e-05
0.3907056525260867,-5.499289983863875e-06,0.3907056525260867,-2.388580237950558e-05,0.3907056525260867,1.0762874557157758e-06,0.3907056525260867,-1.3872582769829498e-05
0.3914997697060178,-6.881488198756093e-06,0.3914997697060178,-2.2324197917879888e-05,0.3914997697060178,-8.384165008437769e-07,0.3914997697060178,-1.1582263602487816e-05
0.3922938868859488,-7.35524635532489e-06,0.3922938868859488,-2.1296994883957505e-05,0.3922938868859488,2.397247780234857e-06,0.3922938868859488,-1.252845271064978e-05
0.3930880040658799,-7.948828882169569e-06,0.3930880040658799,-2.1691408727216192e-05,0.3930880040658799,4.25614477455525e-06,0.3930880040658799,-1.4641859457155165e-05
0.393882121245811,-7.81076706833323e-06,0.393882121245811,-2.311333508453761e-05,0.393882121245811,2.43959590443547e-06,0.393882121245811,-1.4228127952217737e-05
0.394676238425742,-6.389280904367358e-06,0.394676238425742,-2.3903570602148567e-05,0.394676238425742,-8.620802100883467e-08,0.394676238425742,-1.3655420301455786e-05
0.3954703556056732,-5.025858805097675e-06,0.3954703556056732,-2.3054710200014405e-05,0.3954703556056732,-2.23229081784186e-06,0.3954703556056732,-1.3437571194902326e-05
0.3962644727856042,-6.525870765041582e-06,0.3962644727856042,-2.488089156663771e-05,0.3962644727856042,2.6349645634025453e-06,0.3962644727856042,-1.2845537308739603e-05
0.3970585899655353,-8.185034036474699e-06,0.3970585899655353,-2.573043373997428e-05,0.3970585899655353,5.8351440364747e-06,0.3970585899655353,-1.416825861752898e-05
0.3978527071454664,-9.76436816744257e-06,0.3978527071454664,-2.4416822714321905e-05,0.3978527071454664,4.749021158565726e-06,0.3978527071454664,-1.5343617682868546e-05
0.3986468243253974,-9.075212890828053e-06,0.3986468243253974,-2.403215265149606e-05,0.3986468243253974,5.20333e-06,0.3986468243253974,-1.2806129406374358e-05
0.3994409415053285,-6.010869621411611e-06,0.3994409415053285,-2.283735187972428e-05,0.3994409415053285,5.20333e-06,0.3994409415053285,-1.4286650028685545e-05
0.4002350586852595,-1.0020100866747975e-05,0.4002350586852595,-2.0547678222415154e-05,0.4002350586852595,5.075080106607693e-06,0.4002350586852595,-1.46029e-05
0.4010291758651906,-1.0614334867429185e-05,0.4010291758651906,-2.0586241372320788e-05,0.4010291758651906,4.078178287631226e-06,0.4010291758651906,-1.624156513257082e-05
0.4018232930451217,-7.197525088940603e-06,0.4018232930451217,-2.0329712359670338e-05,0.4018232930451217,2.3598883385022858e-06,0.4018232930451217,-1.6439251661497715e-05
0.4026174102250527,-5.53903e-06,0.4026174102250527,-2.13169e-05,0.4026174102250527,4.966869400428118e-06,0.4026174102250527,-1.4424841182363691e-05
0.4034115274049838,-6.67447370920351e-06,0.4034115274049838,-2.1632889691431752e-05,0.4034115274049838,3.070659324433756e-06,0.4034115274049838,-1.3200861721061985e-05
0.4042056445849149,-6.88182e-06,0.4042056445849149,-2.1632088775167422e-05,0.4042056445849149,1.7970157127355517e-06,0.4042056445849149,-1.1957054276413307e-05
0.404999761764846,-5.707470674665771e-06,0.404999761764846,-2.09816622863654e-05,0.404999761764846,1.1751974319996165e-06,0.404999761764846,-1.1916956757333845e-05
0.4057938789447771,-5.53903e-06,0.4057938789447771,-1.801893292782867e-05,0.4057938789447771,-5.616340906873851e-07,0.4057938789447771,-1.1306170221404971e-05
0.4065879961247081,-6.072533120291354e-06,0.4065879961247081,-1.9018387294051677e-05,0.4065879961247081,-9.590961778646011e-07,0.4065879961247081,-9.015862481165411e-06
0.4073821133046392,-6.507053685231463e-06,0.4073821133046392,-1.7021952577035736e-05,0.4073821133046392,1.17494e-06,0.4073821133046392,-7.14733462319436e-06
0.4081762304845703,-6.762567955666325e-06,0.4081762304845703,-1.75846710121726e-05,0.4081762304845703,7.065313488050352e-08,0.4081762304845703,-1.0373567576668326e-05
0.4089703476645013,-7.908145661951872e-06,0.4089703476645013,-1.7722319695464733e-05,0.4089703476645013,1.213405667620428e-06,0.4089703476645013,-1.1543138103235115e-05
0.4097644648444324,-1.0791926289331076e-05,0.4097644648444324,-1.9815884094080675e-05,0.4097644648444324,-9.801251918379693e-08,0.4097644648444324,-7.434934544176093e-06
0.4105585820243635,-8.353273420336837e-06,0.4105585820243635,-2.08821568953439e-05,0.4105585820243635,-1.668592995246054e-06,0.4105585820243635,-8.155331556356262e-06
0.4113526992042945,-8.22461e-06,0.4113526992042945,-2.209589979793001e-05,0.4113526992042945,-2.0041181383280177e-06,0.4113526992042945,-1.00407379483345e-05
0.4121468163842256,-6.54612e-06,0.4121468163842256,-2.1968700078805884e-05,0.4121468163842256,-1.3332462320151028e-06,0.4121468163842256,-1.272605944244771e-05
0.4129409335641567,-6.013404135708647e-06,0.4129409335641567,-2.015184810108253e-05,0.4129409335641567,9.267449829934988e-07,0.4129409335641567,-1.3843997773394474e-05
0.4137350507440878,-4.513053735705881e-06,0.4137350507440878,-1.8414549384237888e-05,0.4137350507440878,3.504105656756976e-06,0.4137350507440878,-1.1394900141444956e-05
0.4145291679240188,-4.827772249726397e-06,0.4145291679240188,-2.1119407299369e-05,0.4145291679240188,5.676981984120462e-06,0.4145291679240188,-1.1383856687294798e-05
0.4153232851039499,-7.731049410594151e-06,0.4153232851039499,-2.169244171270004e-05,0.4153232851039499,5.914036471826573e-06,0.4153232851039499,-1.35958e-05
0.416117402283881,-6.486331026087846e-06,0.416117402283881,-1.888860088613379e-05,0.416117402283881,2.1616670546924568e-06,0.416117402283881,-1.2706948085813834e-05
0.416911519463812,-3.978987743682108e-06,0.416911519463812,-1.9243553664749785e-05,0.416911519463812,1.9647936258211145e-06,0.416911519463812,-1.1463146374178884e-05
0.4177056366437431,-6.37827e-06,0.4177056366437431,-1.813801074893148e-05,0.4177056366437431,2.083397158484832e-06,0.4177056366437431,-1.0288136112869814e-05
0.4184997538236742,-6.210508671022061e-06,0.4184997538236742,-1.9637603840148743e-05,0.4184997538236742,1.1752946840882428e-06,0.4184997538236742,-1.1916501987215222e-05
0.4192938710036052,-6.0533640092774005e-06,0.4192938710036052,-2.193914651663936e-05,0.4192938710036052,2.892145134905085e-06,0.4192938710036052,-1.2450996576729944e-05
0.4200879881835363,-6.11151057334746e-06,0.4200879881835363,-2.4357496981142865e-05,0.4200879881835363,1.432699024278904e-06,0.4200879881835363,-1.0634437706610162e-05
0.4208821053634674,-6.999000581708461e-06,0.4208821053634674,-2.585789098862444e-05,0.4208821053634674,-2.655005707428408e-07,0.4208821053634674,-9.813385817734591e-06
0.4216762225433985,-7.060713452293591e-06,0.4216762225433985,-2.7517248511427448e-05,0.4216762225433985,-1.0071e-06,0.4216762225433985,-1.1372897781628511e-05
0.4224703397233295,-3.48639627233977e-06,0.4224703397233295,-2.564220591562524e-05,0.4224703397233295,1.3716220886841962e-06,0.4224703397233295,-1.15816e-05
0.4232644569032606,-3.32654515016854e-06,0.4232644569032606,-2.345009332771737e-05,0.4232644569032606,2.8331426504921646e-06,0.4232644569032606,-1.2825253749514565e-05
0.4240585740831917,-7.078922392153318e-06,0.4240585740831917,-2.141594823129335e-05,0.4240585740831917,3.5446297425216207e-06,0.4240585740831917,-1.296399948504324e-05
0.4248526912631227,-6.467821537308454e-06,0.4248526912631227,-2.276728182089189e-05,0.4248526912631227,2.6363603074616905e-06,0.4248526912631227,-1.291428720641358e-05
0.4256468084430538,-5.79462211522898e-06,0.4256468084430538,-2.3153372083494505e-05,0.4256468084430538,1.17494e-06,0.4256468084430538,-1.370448805001196e-05
0.4264409256229849,-7.21752e-06,0.4264409256229849,-2.1751325253146216e-05,0.4264409256229849,3.544268562658129e-06,0.4264409256229849,-1.212665223795044e-05
0.4272350428029159,-7.21752e-06,0.4272350428029159,-2.171207982863413e-05,0.4272350428029159,4.373506690724873e-06,0.4272350428029159,-8.916771884255053e-06
0.428029159982847,-7.947914901297265e-06,0.428029159982847,-2.18895080857133e-05,0.428029159982847,3.900415336122023e-06,0.428029159982847,-1.0336864189039404e-05
0.4288232771627781,-6.644736413290003e-06,0.4288232771627781,-2.202813496956089e-05,0.4288232771627781,1.9056113380785871e-06,0.4288232771627781,-1.2253e-05
0.4296173943427092,-6.131577651078532e-06,0.4296173943427092,-2.111922790144021e-05,0.4296173943427092,2.33017911919083e-06,0.4296173943427092,-1.254927823838166e-05
0.4304115115226402,-5.025679841318928e-06,0.4304115115226402,-2.305473973844061e-05,0.4304115115226402,-1.3525897468778949e-06,0.4304115115226402,-1.098922697967535e-05
0.4312056287025713,-3.050711278751372e-06,0.4312056287025713,-2.229651084092976e-05,0.4312056287025713,-8.201843540416942e-07,0.4312056287025713,-9.61672855425076e-06
0.4319997458825024,-4.866897748979018e-06,0.4319997458825024,-2.165243563151456e-05,0.4319997458825024,8.39246e-07,0.4319997458825024,-1.2922660909278334e-05
0.4327938630624334,-4.394238042757401e-06,0.4327938630624334,-2.147481285152425e-05,0.4327938630624334,2.560391262258308e-07,0.4327938630624334,-1.51752959786213e-05
0.4335879802423645,-4.86763e-06,0.4335879802423645,-2.0271016310744577e-05,0.4335879802423645,1.3727645863187466e-06,0.4335879802423645,-1.452497375895624e-05
0.4343820974222956,-5.398603080320373e-06,0.4343820974222956,-2.0822460169533424e-05,0.4343820974222956,5.816567667739788e-07,0.4343820974222956,-1.365437645618461e-05
0.4351762146022266,-7.433945072821844e-06,0.4351762146022266,-2.220535556838025e-05,0.4351762146022266,6.228215059696101e-07,0.4351762146022266,-1.3685247312830209e-05
0.4359703317821577,-6.694761934461974e-06,0.4359703317821577,-2.1100000425297944e-05,0.4359703317821577,-1.213359902204255e-06,0.4359703317821577,-1.2607908065538026e-05
0.4367644489620888,-6.2892655291270734e-06,0.4367644489620888,-2.2235182172617093e-05,0.4367644489620888,-2.9818672354364634e-06,0.4367644489620888,-1.5096291058254146e-05
0.4375585661420199,-6.23022547553531e-06,0.4375585661420199,-2.0992171999501628e-05,0.4375585661420199,-9.5807849922659e-07,0.4375585661420199,-1.561e-05
0.438352683321951,-5.99334604047538e-06,0.438352683321951,-2.196740577337884e-05,0.438352683321951,1.476712920506631e-07,0.438352683321951,-1.5235147432728444e-05
0.439146800501882,-5.302523210830979e-06,0.439146800501882,-2.29953e-05,0.439146800501882,1.3923866054154894e-06,0.439146800501882,-1.29244e-05
0.4399409176818131,-5.222762829644401e-06,0.4399409176818131,-2.1198374766877727e-05,0.4399409176818131,-9.973833536278486e-07,0.4399409176818131,-1.35569343407112e-05
0.4407350348617442,-4.769582126045943e-06,0.4407350348617442,-2.242167785908269e-05,0.4407350348617442,1.8667991446555848e-07,0.4407350348617442,-1.2667917375348648e-05
0.4415291520416752,-6.288487683417688e-06,0.4415291520416752,-2.163290034456429e-05,0.4415291520416752,2.024165878990588e-06,0.4415291520416752,-1.3842560574672269e-05
0.4423232692216063,-8.086186826494235e-06,0.4423232692216063,-2.0389503931949057e-05,0.4423232692216063,8.985105581070992e-07,0.4423232692216063,-1.2253e-05
0.4431173864015373,-5.87472e-06,0.4431173864015373,-1.895762253023065e-05,0.4431173864015373,1.7674850107358635e-06,0.4431173864015373,-1.2253e-05
0.4439115035814684,-8.619513880855757e-06,0.4439115035814684,-2.0833254176148948e-05,0.4439115035814684,7.998828869820478e-07,0.4439115035814684,-1.29244e-05
0.4447056207613995,-7.098985687743896e-06,0.4447056207613995,-2.26596e-05,0.4447056207613995,-2.0765504876898106e-07,0.4447056207613995,-1.1187074498048833e-05
0.4454997379413306,-8.224043655224468e-06,0.4454997379413306,-2.1653108464508897e-05,0.4454997379413306,1.1745624375661229e-06,0.4454997379413306,-1.2251867299201783e-05
0.4462938551212617,-1.0761700115172588e-05,0.4462938551212617,-1.9865318490799736e-05,0.4462938551212617,6.412273760209159e-07,0.4462938551212617,-1.3793819508784751e-05
0.4470879723011927,-6.648091087854546e-06,0.4470879723011927,-1.928331329188748e-05,0.4470879723011927,4.154223657741581e-06,0.4470879723011927,-1.3664714305677727e-05
0.4478820894811238,-5.812371483662723e-06,0.4478820894811238,-1.9953691125368568e-05,0.4478820894811238,5.296856611291268e-06,0.4478820894811238,-1.29164847952998e-05
0.4486762066610549,-8.855108854949434e-06,0.4486762066610549,-2.180064908129805e-05,0.4486762066610549,-3.024598286520752e-07,0.4486762066610549,-9.925267329119876e-06
0.4494703238409859,-5.975387101513964e-06,0.4494703238409859,-2.121881112362627e-05,0.4494703238409859,1.54903607668004e-06,0.4494703238409859,-1.0118946274370216e-05
0.450264441020917,-4.926126693559983e-06,0.450264441020917,-2.0132362134555825e-05,0.450264441020917,2.51774e-06,0.450264441020917,-1.2095320383168102e-05
0.4510585582008481,-6.368364395725501e-06,0.4510585582008481,-2.0012624546296425e-05,0.4510585582008481,2.51774e-06,0.4510585582008481,-1.1265711208548998e-05
0.4518526753807791,-6.308856453021785e-06,0.4518526753807791,-2.1752193495216365e-05,0.4518526753807791,3.5046382133954563e-06,0.4518526753807791,-1.113739821743066e-05
0.4526467925607102,-6.862777015287653e-06,0.4526467925607102,-1.9697931573887978e-05,0.4526467925607102,2.380449353716871e-06,0.4526467925607102,-1.09102e-05
0.4534409097406413,-4.9259107111881575e-06,0.4534409097406413,-1.8868285000128287e-05,0.4534409097406413,4.4526694158938324e-07,0.4534409097406413,-1.083249219218109e-05
0.4542350269205724,-6.900627615760951e-06,0.4542350269205724,-1.945992969500668e-05,0.4542350269205724,-7.600233759277032e-07,0.4542350269205724,-9.054456192119525e-06
0.4550291441005034,-6.723951599701711e-06,0.4550291441005034,-2.236333320389979e-05,0.4550291441005034,7.793562288603203e-07,0.4550291441005034,-1.201527880208802e-05
0.4558232612804345,-6.921222281981797e-06,0.4558232612804345,-2.36667e-05,0.4558232612804345,3.821129483281732e-06,0.4558232612804345,-1.4059781535385143e-05
0.4566173784603656,-2.576371101800752e-06,0.4566173784603656,-2.447611762840989e-05,0.4566173784603656,5.20333e-06,0.4566173784603656,-1.1759043651122053e-05
0.4574114956402966,-2.023919715509036e-06,0.4574114956402966,-2.435783085462894e-05,0.4574114956402966,-9.729010207697856e-09,0.4574114956402966,-1.2647892414828346e-05
0.4582056128202277,-4.82780692742219e-06,0.4582056128202277,-2.16526e-05,0.4582056128202277,-4.144133999761693e-07,0.4582056128202277,-1.3793051284948124e-05
0.4589997300001588,-4.868019008354907e-06,0.4589997300001588,-2.232355076899152e-05,0.4589997300001588,-8.393432544063219e-07,0.4589997300001588,-1.42672e-05
0.4597938471800898,-3.486183512695222e-06,0.4597938471800898,-2.2817523124554595e-05,0.4597938471800898,1.4502804099940991e-06,0.4597938471800898,-1.3171923970900148e-05
0.4605879643600209,-5.023409579162447e-06,0.4605879643600209,-2.157507371361068e-05,0.4605879643600209,1.5885318429614383e-06,0.4605879643600209,-1.1977272104692374e-05
0.461382081539952,-6.959906765427486e-06,0.461382081539952,-2.050713308855856e-05,0.461382081539952,3.072009851858772e-06,0.461382081539952,-1.2253e-05
0.4621761987198831,-8.381365061817747e-06,0.4621761987198831,-2.06455e-05,0.4621761987198831,1.353886715033758e-06,0.4621761987198831,-1.3357204379954988e-05
0.4629703158998141,-1.0524175498458367e-05,0.4629703158998141,-2.086238930167168e-05,0.4629703158998141,1.17494e-06,0.4629703158998141,-1.3684494866928778e-05
0.4637644330797452,-1.008113417293956e-05,0.4637644330797452,-2.16725567619996e-05,0.4637644330797452,2.89154444099471e-06,0.4637644330797452,-1.2223726522484514e-05
0.4645585502596763,-7.98799470781363e-06,0.4645585502596763,-2.0034654444820546e-05,0.4645585502596763,5.835086707191545e-06,0.4645585502596763,-1.1739494480803618e-05
0.4653526674396073,-4.2366550390170166e-06,0.4653526674396073,-1.9559702968253978e-05,0.4653526674396073,5.20333e-06,0.4653526674396073,-1.1147475013005672e-05
0.4661467846195384,-3.130019035721433e-06,0.4661467846195384,-2.007264564612175e-05,0.4661467846195384,3.387565808021347e-06,0.4661467846195384,-1.3534635428457073e-05
0.4669409017994695,-1.8269186363829765e-06,0.4669409017994695,-2.212650965772329e-05,0.4669409017994695,2.51774e-06,0.4669409017994695,-1.5700114545531906e-05
0.4677350189794005,-1.638875591614557e-06,0.4677350189794005,-1.9995371429077796e-05,0.4677350189794005,1.748326450312658e-06,0.4677350189794005,-1.481974497430498e-05
0.4685291361593316,-2.813486015856129e-06,0.4685291361593316,-2.048746677499712e-05,0.4685291361593316,-1.2789989685320477e-07,0.4685291361593316,-1.4800711961238388e-05
0.4693232533392627,-5.835299114633195e-06,0.4693232533392627,-2.0961262953196565e-05,0.4693232533392627,-1.7969983518905249e-06,0.4693232533392627,-1.2717001558725996e-05
0.4701173705191938,-8.402555332189764e-06,0.4701173705191938,-2.0705175016210572e-05,0.4701173705191938,-2.4980205196702776e-06,0.4701173705191938,-1.100879152751089e-05
0.4709114876991248,-9.271249288399332e-06,0.4709114876991248,-1.9677871982288257e-05,0.4709114876991248,-2.18204e-06,0.4709114876991248,-1.0614068695678808e-05
0.4717056048790559,-7.395813390437461e-06,0.4717056048790559,-2.0090543525039337e-05,0.4717056048790559,-2.475306560728196e-07,0.4717056048790559,-1.2074699547301874e-05
0.472499722058987,-4.700681006034017e-06,0.472499722058987,-2.031015955606188e-05,0.472499722058987,3.187938650668777e-06,0.472499722058987,-1.1750301041820411e-05
0.473293839238918,-5.3409875591603896e-06,0.473293839238918,-1.8967e-05,0.473293839238918,3.86053e-06,0.473293839238918,-1.09102e-05
0.4740879564188491,-5.53903e-06,0.4740879564188491,-1.756607069475337e-05,0.4740879564188491,4.2230683966216286e-06,0.4740879564188491,-1.0100941785359876e-05
0.4748820735987802,-5.952795299400099e-06,0.4748820735987802,-1.7406411808173474e-05,0.4748820735987802,7.350213490722619e-06,0.4748820735987802,-1.1558201197600398e-05
0.4756761907787112,-6.960188061416435e-06,0.4756761907787112,-2.0467813418564373e-05,0.4756761907787112,2.875665977312344e-06,0.4756761907787112,-1.475963612283287e-05
0.4764703079586423,-7.711478414942791e-06,0.4764703079586423,-2.186948416515653e-05,0.4764703079586423,2.2012137412714423e-06,0.4764703079586423,-1.6142310611907166e-05
0.4772644251385734,-6.802991633006228e-06,0.4772644251385734,-2.311357136423543e-05,0.4772644251385734,3.346794385808604e-06,0.4772644251385734,-1.588725816503114e-05
0.4780585423185045,-6.861997325423545e-06,0.4780585423185045,-2.5559750097260703e-05,0.4780585423185045,6.071661868452594e-06,0.4780585423185045,-1.2707636047458726e-05
0.4788526594984356,-6.88182e-06,0.4788526594984356,-2.4537348628614796e-05,0.4788526594984356,4.138278847723413e-06,0.4788526594984356,-1.3121227041933958e-05
0.4796467766783666,-6.88182e-06,0.4796467766783666,-2.29953e-05,0.4796467766783666,-8.39246e-07,0.4796467766783666,-1.2214982826739567e-05
0.4804408938582977,-6.88182e-06,0.4804408938582977,-2.337058576020845e-05,0.4804408938582977,1.7270290765082384e-06,0.4804408938582977,-1.2369493783619771e-05
0.4812350110382288,-6.497121806222955e-06,0.4812350110382288,-2.1831083399814268e-05,0.4812350110382288,4.660247035497949e-07,0.4812350110382288,-1.42672e-05
0.4820291282181598,-6.21042e-06,0.4820291282181598,-1.962854092901062e-05,0.4820291282181598,-5.635038895301368e-07,0.4820291282181598,-1.42672e-05
0.4828232453980909,-5.53903e-06,0.4828232453980909,-1.9894365308227363e-05,0.4828232453980909,1.5303699208681952e-06,0.4828232453980909,-1.1917198720045778e-05
0.483617362578022,-5.0946470405097e-06,0.483617362578022,-2.119752942151824e-05,0.483617362578022,-4.951550647976098e-08,0.483617362578022,-8.974899387346266e-06
0.484411479757953,-3.988832112080135e-06,0.484411479757953,-2.293608249760839e-05,0.484411479757953,-4.9510563224044564e-08,0.484411479757953,-1.1305069482773513e-05
0.4852055969378841,-6.920645032888154e-06,0.4852055969378841,-2.346799070547803e-05,0.4852055969378841,1.59980749645187e-06,0.4852055969378841,-1.1344514176446676e-05
0.4859997141178152,-8.56010405440034e-06,0.4859997141178152,-2.500894525636161e-05,0.4859997141178152,-1.844589468537692e-06,0.4859997141178152,-1.091061189119932e-05
0.4867938312977463,-5.935134863869411e-06,0.4867938312977463,-2.6885599807245238e-05,0.4867938312977463,-2.2424478137339757e-06,0.4867938312977463,-9.56741e-06
0.4875879484776773,-5.125472555120812e-06,0.4875879484776773,-2.758856074309117e-05,0.4875879484776773,1.8820654247099852e-06,0.4875879484776773,-1.2666557444879187e-05
0.4883820656576084,-5.043272462386153e-06,0.4883820656576084,-2.4960817940367965e-05,0.4883820656576084,5.0472023332546965e-06,0.4883820656576084,-1.2393540416568373e-05
0.4891761828375395,-7.620440218241787e-06,0.4891761828375395,-2.3331e-05,0.4891761828375395,1.100148265388345e-06,0.4891761828375395,-1.1462279307133093e-05
0.4899703000174705,-7.040088850075403e-06,0.4899703000174705,-2.354787902864137e-05,0.4899703000174705,-1.1941051286043344e-06,0.4899703000174705,-1.3773231149924597e-05
0.4907644171974016,-7.375162944556786e-06,0.4907644171974016,-2.3983316726384856e-05,0.4907644171974016,-1.3529961162398023e-06,0.4907644171974016,-1.080220899796806e-05
0.4915585343773327,-6.941304632111869e-06,0.4915585343773327,-2.090421367425802e-05,0.4915585343773327,-1.1551119468049908e-06,0.4915585343773327,-1.1640346711546988e-05
0.4923526515572637,-5.33209889695042e-06,0.4923526515572637,-2.093927063011923e-05,0.4923526515572637,-1.391991027469787e-06,0.4923526515572637,-1.4819951027469786e-05
0.4931467687371948,-5.439787403151028e-06,0.4931467687371948,-2.504840620541496e-05,0.4931467687371948,-1.1637692963918686e-08,0.4931467687371948,-1.574722185011871e-05
0.4939408859171259,-6.9303447439740165e-06,0.4939408859171259,-2.5819200760080114e-05,0.4939408859171259,4.493110204820786e-06,0.4939408859171259,-1.650064061446236e-05
0.494735003097057,-7.592840129096531e-06,0.494735003097057,-2.4792811022419957e-05,0.494735003097057,1.8088597050959451e-06,0.494735003097057,-1.2807681807351443e-05
0.495529120276988,-7.395368761835002e-06,0.495529120276988,-2.43381e-05,0.495529120276988,-1.278541313688671e-07,0.495529120276988,-1.2253e-05
0.4963232374569191,-8.501067265476913e-06,0.4963232374569191,-2.404227247252356e-05,0.4963232374569191,2.4684820043408845e-07,0.4963232374569191,-1.0732471796430736e-05
0.4971173546368502,-7.632119678204623e-06,0.4971173546368502,-2.2236308350642585e-05,0.4971173546368502,2.478289573313138e-06,0.4971173546368502,-1.0791848719939416e-05
0.4979114718167812,-7.948072135631716e-06,0.4979114718167812,-2.099107019102911e-05,0.4979114718167812,3.4457211440047446e-06,0.4979114718167812,-1.2035616033492112e-05
0.4987055889967123,-8.22461e-06,0.4987055889967123,-2.0666083136045027e-05,0.4987055889967123,5.20333e-06,0.4987055889967123,-1.3497191556567042e-05
0.4994997061766434,-8.392354166844629e-06,0.4994997061766434,-1.997429005106129e-05,0.4994997061766434,3.86137666524298e-06,0.4994997061766434,-1.2253634998932232e-05
0.5002938233565745,-9.56741e-06,0.5002938233565745,-1.8967e-05,0.5002938233565745,3.02129e-06,0.5002938233565745,-1.068443233883566e-05
0.5010879405365055,-7.811073860410045e-06,0.5010879405365055,-2.094246767589634e-05,0.5010879405365055,1.6306554692981222e-06,0.5010879405365055,-9.489563860410046e-06
0.5018820577164366,-5.913746183672562e-06,0.5018820577164366,-1.8928576246908933e-05,0.5018820577164366,-6.206256209924571e-07,0.5018820577164366,-7.947449275508844e-06
0.5026761748963677,-6.21042e-06,0.5026761748963677,-1.808820414245116e-05,0.5026761748963677,-1.2346060671445046e-06,0.5026761748963677,-9.496595731421982e-06
0.5034702920762988,-5.85557442681062e-06,0.5034702920762988,-2.117729556850476e-05,0.5034702920762988,1.5680963470910557e-06,0.5034702920762988,-9.656122714606768e-06
0.5042644092562298,-5.381396148856853e-06,0.5042644092562298,-2.08629491818252e-05,0.5042644092562298,5.104078428876604e-06,0.5042644092562298,-1.1739233851143144e-05
0.5050585264361609,-4.235898281207738e-06,0.5050585264361609,-2.1256284035532383e-05,0.5050585264361609,3.821601323095819e-06,0.5050585264361609,-1.1937134140603869e-05
0.505852643616092,-6.38694059573812e-06,0.505852643616092,-2.043042864459653e-05,0.505852643616092,-4.832836506410435e-07,0.505852643616092,-1.29041358833681e-05
0.506646760796023,-8.39246e-06,0.506646760796023,-1.888793313916169e-05,0.506646760796023,1.0946688301897738e-06,0.506646760796023,-1.35958e-05
0.507440877975954,-8.89601e-06,0.507440877975954,-2.0546805506677347e-05,0.507440877975954,1.9947858354241597e-06,0.507440877975954,-1.42672e-05
0.5082349951558852,-7.8702015549977e-06,0.5082349951558852,-2.08621787045498e-05,0.5082349951558852,7.809070376694112e-07,0.5082349951558852,-1.4780108042191664e-05
0.5090291123358163,-5.696870815472477e-06,0.5090291123358163,-2.16526e-05,0.5090291123358163,-1.648476552361795e-06,0.5090291123358163,-1.3951508965092136e-05
0.5098232295157473,-5.302081944752118e-06,0.5098232295157473,-2.2539979081456787e-05,0.5098232295157473,-2.9126770138119705e-06,0.5098232295157473,-1.1956814930940148e-05
0.5106173466956784,-3.0112634634624643e-06,0.5106173466956784,-2.08246175059048e-05,0.5106173466956784,-3.4853750156392924e-06,0.5106173466956784,-1.0278256159700584e-05
0.5114114638756094,-3.6431272204937024e-06,0.5114114638756094,-1.8690554202068784e-05,0.5114114638756094,-1.2740590899746772e-06,0.5114114638756094,-1.1265452059039798e-05
0.5122055810555405,-5.1833840656288266e-06,0.5122055810555405,-1.843255988638694e-05,0.5122055810555405,2.043545420838435e-06,0.5122055810555405,-1.2727194579161564e-05
0.5129996982354716,-5.53903e-06,0.5129996982354716,-1.997351443727068e-05,0.5129996982354716,2.51774e-06,0.5129996982354716,-1.0575586935109143e-05
0.5137938154154027,-6.111381580539102e-06,0.5137938154154027,-1.809803101184569e-05,0.5137938154154027,2.281078419460899e-06,0.5137938154154027,-9.56741e-06
0.5145879325953338,-6.606137968801994e-06,0.5145879325953338,-1.897667762908865e-05,0.5145879325953338,7.014058056164611e-07,0.5145879325953338,-8.740368012483302e-06
0.5153820497752648,-5.578049288298156e-06,0.5153820497752648,-1.903617311697605e-05,0.5153820497752648,1.17494e-06,0.5153820497752648,-7.670280189615983e-06
0.5161761669551959,-6.702804636432918e-06,0.5161761669551959,-2.0201079747293352e-05,0.5161761669551959,1.17494e-06,0.5161761669551959,-9.112366424288612e-06
0.5169702841351269,-5.57988659680662e-06,0.5169702841351269,-2.392220834366209e-05,0.5169702841351269,8.39246e-07,0.5169702841351269,-8.89601e-06
0.5177644013150581,-4.650146807290766e-06,0.5177644013150581,-2.4851160817716667e-05,0.5177644013150581,2.2608512048605104e-06,0.5177644013150581,-1.0139533614581532e-05
0.5185585184949891,-6.772701286103736e-06,0.5185585184949891,-2.4734436471016435e-05,0.5185585184949891,1.886019747235044e-06,0.5185585184949891,-1.1541920252764955e-05
0.5193526356749202,-8.22461e-06,0.5193526356749202,-2.390272945705608e-05,0.5193526356749202,2.4771773686543065e-06,0.5193526356749202,-1.4226637368654304e-05
0.5201467528548512,-5.184373010493142e-06,0.5201467528548512,-2.4930428002646552e-05,0.5201467528548512,5.520066532059913e-06,0.5201467528548512,-1.4919643010493142e-05
0.5209408700347823,-6.181322352656719e-06,0.5209408700347823,-2.70237e-05,0.5209408700347823,2.3013939210945305e-06,0.5209408700347823,-1.3557003136875624e-05
0.5217349872147133,-6.091542450577033e-06,0.5217349872147133,-2.619514735272105e-05,0.5217349872147133,1.1259751886335829e-06,0.5217349872147133,-1.3437296600769377e-05
0.5225291043946444,-6.526099593485456e-06,0.5225291043946444,-2.5996992801837424e-05,0.5225291043946444,-7.214461882785093e-07,0.5225291043946444,-1.4740719390228183e-05
0.5233232215745756,-7.3952121148912655e-06,0.5233232215745756,-2.623265182260587e-05,0.5233232215745756,2.211655646550456e-06,0.5233232215745756,-1.6557868706899087e-05
0.5241173387545066,-8.965205268214393e-06,0.5241173387545066,-2.5524348324995764e-05,0.5241173387545066,2.201770946357121e-06,0.5241173387545066,-1.6429474931196158e-05
0.5249114559344377,-9.29084508469127e-06,0.5249114559344377,-2.402215653720478e-05,0.5249114559344377,1.3923733590811314e-06,0.5249114559344377,-1.622226491530873e-05
0.5257055731143687,-1.0811603022594433e-05,0.5257055731143687,-2.3241950613855624e-05,0.5257055731143687,1.332229124794113e-06,0.5257055731143687,-1.339860604518886e-05
0.5264996902942998,-9.568079316552814e-06,0.5264996902942998,-2.3834299484025784e-05,0.5264996902942998,2.182263107732953e-06,0.5264996902942998,-1.3595353784534094e-05
0.5272938074742308,-7.277993659521706e-06,0.5272938074742308,-2.0744041649913183e-05,0.5272938074742308,4.264126694333181e-07,0.5272938074742308,-1.335914415247465e-05
0.528087924654162,-5.87472e-06,0.528087924654162,-1.8908932332935423e-05,0.528087924654162,-5.635766666012535e-07,0.528087924654162,-1.2726535282585356e-05
0.528882041834093,-5.281358273100532e-06,0.528882041834093,-1.776259259401727e-05,0.528882041834093,-5.080542815922207e-08,0.528882041834093,-1.3892485282354743e-05
0.5296761590140241,-6.150742491433248e-06,0.5296761590140241,-1.8483147304720487e-05,0.5296761590140241,2.2193535237883754e-06,0.5296761590140241,-1.35958e-05
0.5304702761939551,-4.157974048834854e-06,0.5304702761939551,-1.798070914271243e-05,0.5304702761939551,3.7813869938956434e-06,0.5304702761939551,-1.35958e-05
0.5312643933738862,-4.639899194522639e-06,0.5312643933738862,-1.822590930749995e-05,0.5312643933738862,3.031529031701349e-06,0.5312643933738862,-1.35958e-05
0.5320585105538173,-6.802438164645883e-06,0.5320585105538173,-1.982545137481222e-05,0.5320585105538173,2.51774e-06,0.5320585105538173,-1.2332382426525e-05
0.5328526277337483,-7.1191523431427445e-06,0.5328526277337483,-1.82956e-05,0.5328526277337483,1.0765762222102771e-06,0.5328526277337483,-1.0476132343142744e-05
0.5336467449136795,-6.683273053954343e-06,0.5336467449136795,-1.778235426773724e-05,0.5336467449136795,6.808685995120773e-07,0.5336467449136795,-1.278494207871867e-05
0.5344408620936105,-9.586802120869106e-06,0.5344408620936105,-1.62814e-05,0.5344408620936105,1.7075790478228092e-06,0.5344408620936105,-1.464168539709708e-05
0.5352349792735416,-8.877337320345626e-06,0.5352349792735416,-1.7386116316978123e-05,0.5352349792735416,2.438482579673645e-06,0.5352349792735416,-1.5017857420326354e-05
0.5360290964534726,-7.957816412406894e-06,0.5360290964534726,-1.8078330596205693e-05,0.5360290964534726,3.3469693743910518e-06,0.5360290964534726,-1.3201191301717629e-05
0.5368232136334037,-7.316317710441108e-06,0.5368232136334037,-1.97746607378234e-05,0.5368232136334037,2.51774e-06,0.5368232136334037,-1.2707151144779446e-05
0.5376173308133347,-5.025499327230737e-06,0.5376173308133347,-2.2245680676246492e-05,0.5376173308133347,1.3328105029121702e-06,0.5376173308133347,-1.2371402877184127e-05
0.5384114479932659,-4.452765427995818e-06,0.5384114479932659,-2.102072334743981e-05,0.5384114479932659,1.7080518093319393e-06,0.5384114479932659,-1.061411168901212e-05
0.539205565173197,-5.953348110979661e-06,0.539205565173197,-2.0467343022432005e-05,0.539205565173197,1.5693049775674576e-06,0.539205565173197,-9.981735174094216e-06
0.539999682353128,-6.881591171555923e-06,0.539999682353128,-2.131648907878636e-05,0.539999682353128,5.201499379263844e-06,0.539999682353128,-1.158091351466777e-05
0.5407937995330591,-5.756394942744178e-06,0.5407937995330591,-1.9174216272461795e-05,0.5407937995330591,4.45482636238246e-06,0.5407937995330591,-1.2253e-05
0.5415879167129901,-7.927810218621604e-06,0.5415879167129901,-1.900570150501266e-05,0.5415879167129901,1.5706809008568429e-06,0.5415879167129901,-1.1365981801713683e-05
0.5423820338929212,-6.54612e-06,0.5423820338929212,-2.0427609077870045e-05,0.5423820338929212,-2.848749080770879e-07,0.5423820338929212,-8.521301015368544e-06
0.5431761510728523,-6.54612e-06,0.5431761510728523,-2.090224455709029e-05,0.5431761510728523,-1.0369398367649578e-06,0.5431761510728523,-9.604685631484664e-06
0.5439702682527834,-5.006805198759272e-06,0.5439702682527834,-2.0743516965161384e-05,0.5439702682527834,-1.1940593633246129e-06,0.5439702682527834,-1.313043306832097e-05
0.5447643854327144,-6.8030202365617184e-06,0.5447643854327144,-2.27778199990838e-05,0.5447643854327144,-1.452343295402786e-06,0.5447643854327144,-1.3181300236561718e-05
0.5455585026126455,-4.966886106883208e-06,0.5455585026126455,-2.5460450660742048e-05,0.5455585026126455,1.0955352918959332e-06,0.5455585026126455,-1.4187794641420102e-05
0.5463526197925765,-6.4071359167179336e-06,0.5463526197925765,-2.655170272407002e-05,0.5463526197925765,-7.104198850314962e-07,0.5463526197925765,-1.782091238165971e-05
0.5471467369725076,-6.990566234762585e-06,0.5471467369725076,-2.50095e-05,0.5471467369725076,-1.037813047203377e-06,0.5471467369725076,-1.5453947286676197e-05
0.5479408541524387,-5.894106965534736e-06,0.5479408541524387,-2.654965822682169e-05,0.5479408541524387,5.42321469062547e-07,0.5479408541524387,-1.2511152137861058e-05
0.5487349713323698,-5.697553920944714e-06,0.5487349713323698,-2.5366656343623603e-05,0.5487349713323698,2.0724690063688897e-06,0.5487349713323698,-1.1630517094094843e-05
0.5495290885123009,-4.038401644679398e-06,0.5495290885123009,-2.36667e-05,0.5495290885123009,-2.655459051859069e-07,0.5495290885123009,-1.185840560434739e-05
0.5503232056922319,-4.19623e-06,0.5503232056922319,-2.33708929790726e-05,0.5503232056922319,-2.498121948370316e-06,0.5503232056922319,-1.1206299258393396e-05
0.551117322872163,-4.492456641258309e-06,0.551117322872163,-2.420939306054198e-05,0.551117322872163,3.456552705445632e-07,0.551117322872163,-1.4810355688698376e-05
0.551911440052094,-6.8026382289546325e-06,0.551911440052094,-2.466391953900072e-05,0.551911440052094,1.17494e-06,0.551911440052094,-1.278662502545728e-05
0.5527055572320251,-7.405341732932831e-06,0.5527055572320251,-2.2248905954924403e-05,0.5527055572320251,1.7171603125796182e-06,0.5527055572320251,-1.2450171022756223e-05
0.5534996744119562,-6.211006372887802e-06,0.5534996744119562,-1.9303542388487755e-05,0.5534996744119562,2.518091823732681e-06,0.5534996744119562,-1.29244e-05
0.5542937915918873,-5.786666095536557e-06,0.5542937915918873,-1.977657724048229e-05,0.5542937915918873,1.2739956185020042e-06,0.5542937915918873,-1.1108311237004008e-05
0.5550879087718184,-4.9454014496736925e-06,0.5550879087718184,-1.900569123198229e-05,0.5550879087718184,9.770673532189063e-07,0.5550879087718184,-1.137488480298808e-05
0.5558820259517494,-5.835717910230626e-06,0.5558820259517494,-2.04275885318094e-05,0.5558820259517494,1.924346503235598e-06,0.5558820259517494,-1.0121791406995029e-05
0.5566761431316805,-4.987007899978e-06,0.5566761431316805,-2.2126448202714212e-05,0.5566761431316805,2.241728949989e-06,0.5566761431316805,-8.955698949989e-06
0.5574702603116115,-6.644373819553558e-06,0.5574702603116115,-2.413900775861337e-05,0.5574702603116115,2.8343349072619223e-06,0.5574702603116115,-1.0771007639107116e-05
0.5582643774915427,-6.88182e-06,0.5582643774915427,-2.6381861234739907e-05,0.5582643774915427,-3.837067172184144e-07,0.5582643774915427,-1.2253e-05
0.5590584946714737,-7.1976629273413725e-06,0.5590584946714737,-2.5218861997290283e-05,0.5590584946714737,-2.18204e-06,0.5590584946714737,-1.0989628290634508e-05
0.5598526118514048,-7.55322e-06,0.5598526118514048,-2.29953e-05,0.5598526118514048,-1.0765991540600973e-06,0.5598526118514048,-1.26870447248025e-05
0.5606467290313358,-9.01421179746118e-06,0.5606467290313358,-2.415009488947799e-05,0.5606467290313358,4.726255148264345e-08,0.5606467290313358,-1.2125313111619237e-05
0.5614408462112669,-6.823676302436752e-06,0.5614408462112669,-2.414075202645272e-05,0.5614408462112669,3.5054493448167945e-06,0.5614408462112669,-1.0929581232521082e-05
0.5622349633911979,-7.156875691256986e-06,0.5622349633911979,-2.3942868806214148e-05,0.5622349633911979,3.060924430874301e-06,0.5622349633911979,-1.2528055691256985e-05
0.563029080571129,-9.211655269218872e-06,0.563029080571129,-2.3410298384123204e-05,0.563029080571129,1.886449461562256e-06,0.563029080571129,-1.4493880093022638e-05
0.5638231977510602,-8.77758173806489e-06,0.5638231977510602,-2.1140780537791333e-05,0.5638231977510602,1.1353155964976325e-06,0.5638231977510602,-1.403034347612978e-05
0.5646173149309912,-7.632177007487707e-06,0.5646173149309912,-2.1997520790149964e-05,0.5646173149309912,3.7026148090015943e-06,0.5646173149309912,-1.2628179091755349e-05
0.5654114321109223,-6.427918626781883e-06,0.5654114321109223,-2.233378891825848e-05,0.5654114321109223,3.070934507042332e-06,0.5654114321109223,-1.171989965669547e-05
0.5662055492908533,-6.466195733642556e-06,0.5662055492908533,-2.133753450119668e-05,0.5662055492908533,-5.621654705681293e-07,0.5662055492908533,-1.09102e-05
0.5669996664707844,-1.0237118118093569e-05,0.5669996664707844,-2.2323037129715304e-05,0.5669996664707844,-6.719976696555159e-07,0.5669996664707844,-1.2252038920535022e-05
0.5677937836507154,-8.818975158205305e-06,0.5677937836507154,-2.3311228433351984e-05,0.5677937836507154,3.4147568690683285e-06,0.5677937836507154,-1.288588405454727e-05
0.5685879008306466,-6.705124791139496e-06,0.5685879008306466,-2.1733370722977426e-05,0.5685879008306466,2.991258083544202e-06,0.5685879008306466,-9.390714791139496e-06
0.5693820180105776,-5.9527150372083015e-06,0.5693820180105776,-2.03098e-05,0.5693820180105776,4.53193e-06,0.5693820180105776,-1.2506478062538746e-05
0.5701761351905087,-6.270114670700044e-06,0.5701761351905087,-2.19488325318197e-05,0.5701761351905087,2.875906245985468e-06,0.5701761351905087,-1.4849049102875952e-05
0.5709702523704397,-5.0259331743420055e-06,0.5709702523704397,-2.078520716179876e-05,0.5709702523704397,3.543928366930358e-06,0.5709702523704397,-1.4168931183441169e-05
0.5717643695503708,-7.039396644032067e-06,0.5717643695503708,-2.1099399453023043e-05,0.5717643695503708,3.6036183220160338e-06,0.5717643695503708,-1.262808242607772e-05
0.5725584867303019,-7.711138597163783e-06,0.5725584867303019,-2.16526e-05,0.5725584867303019,5.755543757648633e-06,0.5725584867303019,-1.2914465638747689e-05
0.573352603910233,-8.777326629387551e-06,0.573352603910233,-2.0073832181125936e-05,0.573352603910233,5.244026688274916e-06,0.573352603910233,-1.448421662938755e-05
0.5741467210901641,-8.659617871105038e-06,0.5741467210901641,-1.904609254341412e-05,0.5741467210901641,4.333314257789922e-06,0.5741467210901641,-1.4584011806657558e-05
0.5749408382700951,-8.302111998029435e-06,0.5749408382700951,-2.2145914908707065e-05,0.5749408382700951,4.8482545004926415e-06,0.5749408382700951,-1.1168398001970564e-05
0.5757349554500262,-1.0080253196551612e-05,0.5757349554500262,-2.22264275862232e-05,0.5757349554500262,5.044780835080585e-06,0.5757349554500262,-9.646682220988678e-06
0.5765290726299572,-7.712387846891458e-06,0.5765290726299572,-2.1691655845851348e-05,0.5765290726299572,4.572062344406431e-06,0.5765290726299572,-9.409593086101609e-06
0.5773231898098883,-5.025704769230707e-06,0.5773231898098883,-2.196005536992748e-05,0.5773231898098883,2.3401147692307067e-06,0.5773231898098883,-1.0929750461538586e-05
