X [s],R BICEPS BRACHII: EMG 1 [V],X [s].1,R DELTOID ANTERIOR: EMG 2 [V],X [s].5,R DELTOID MEDIUS: EMG 6 [V],X [s].6,R DELTOID POSTERIOR: EMG 7 [V]
0.0,-9.23171e-06,0.0,-2.43381e-05,0.0,2.51774e-06,0.0,-2.50095e-05
0.000794117179931,-9.330445334041806e-06,0.000794117179931,-2.5147728948674705e-05,0.000794117179931,1.5698813361672255e-06,0.000794117179931,-1.678514478885082e-07
0.0015882343598621,-8.757780837760525e-06,0.0015882343598621,-2.3972780977234387e-05,0.0015882343598621,-2.201785811197379e-06,0.0015882343598621,4.063921495792289e-05
0.0023823515397932,-7.711201739225329e-06,0.0023823515397932,-2.211659625144913e-05,0.0023823515397932,-1.2736954954501307e-06,0.0023823515397932,7.571971887430395e-05
0.0031764687197242,-6.792957486718427e-06,0.0031764687197242,-1.9914866340189684e-05,0.0031764687197242,5.03548e-07,0.0031764687197242,7.340935015937887e-05
0.0039705858996553,-5.232969144248014e-06,0.0039705858996553,-2.3508729618878243e-05,0.0039705858996553,-2.695422761573888e-06,0.0039705858996553,6.1669866480904e-05
0.0047647030795864,-4.6701525673916885e-06,0.0047647030795864,-2.185001794343674e-05,0.0047647030795864,-6.111682460155283e-06,0.0047647030795864,5.275402513281573e-05
0.0055588202595174,-8.10610136152591e-06,0.0055588202595174,-1.9164477098318576e-05,0.0055588202595174,-5.776000382324971e-06,0.0055588202595174,4.923905461342141e-05
0.0063529374394485,-9.330443297915806e-06,0.0063529374394485,-1.9658158244532225e-05,0.0063529374394485,-4.4233216755210485e-06,0.0063529374394485,3.995801518372164e-05
0.0071470546193796,-1.1621065746594048e-05,0.0071470546193796,-1.8117881146213648e-05,0.0071470546193796,-5.302074751135318e-06,0.0071470546193796,2.0171685564280127e-05
0.0079411717993107,-1.1522362566407862e-05,0.0079411717993107,-1.813758165782039e-05,0.0079411717993107,-2.8929425801359117e-06,0.0079411717993107,-2.2313568149211854e-06
0.0087352889792417,-9.804387286895082e-06,0.0087352889792417,-1.7861170388217442e-05,0.0087352889792417,2.7546306608201664e-06,0.0087352889792417,-2.0309584825578683e-05
0.0095294061591728,-3.011439366102056e-06,0.0095294061591728,-1.9203962781943744e-05,0.0095294061591728,9.034234920310566e-06,0.0095294061591728,-2.927484973436855e-05
0.0103235233391039,2.280843716973702e-06,0.0103235233391039,-2.082324433525045e-05,0.0103235233391039,7.4151209623400625e-06,0.0103235233391039,-3.500134070756574e-05
0.0111176405190349,-3.060976634027896e-07,0.0111176405190349,-1.9954317039860916e-05,0.0111176405190349,4.01849139858178e-06,0.0111176405190349,-3.954335790212733e-05
0.011911757698966,-2.695605496628241e-06,0.011911757698966,-1.738723892967155e-05,0.011911757698966,3.870341925118658e-06,0.011911757698966,-4.297947137971522e-05
0.0127058748788971,-5.479666180573919e-06,0.0127058748788971,-2.220545824121183e-05,0.0127058748788971,2.0241982964993376e-06,0.0127058748788971,-4.6889034774184886e-05
0.0134999920588282,-6.2104257268557966e-06,0.0134999920588282,-2.534518459639037e-05,0.0134999920588282,-1.6783181951790786e-07,0.0134999920588282,-4.7837e-05
0.0142941092387592,-5.53903e-06,0.0142941092387592,-2.384441429126033e-05,0.0142941092387592,-3.652884122980494e-07,0.0142941092387592,-4.260387280161454e-05
0.0150882264186903,-5.12445005099239e-06,0.0150882264186903,-2.3291524966277552e-05,0.0150882264186903,-1.1156301627286422e-06,0.0150882264186903,-3.30271668366413e-05
0.0158823435986214,-4.946587791867704e-06,0.0158823435986214,-2.305450628175316e-05,0.0158823435986214,-1.43168291374259e-06,0.0158823435986214,-2.9472426624396887e-05
0.0166764607785524,-4.7096365734044965e-06,0.0166764607785524,-2.2205471255773596e-05,0.0166764607785524,-1.945098960849849e-06,0.0166764607785524,-2.714217104893633e-05
0.0174705779584835,-6.605295977658916e-06,0.0174705779584835,-2.2837472047081384e-05,0.0174705779584835,-1.4711956619760168e-06,0.0174705779584835,-3.065703066428742e-05
0.0182646951384146,-7.908758277310906e-06,0.0182646951384146,-2.473302281965676e-05,0.0182646951384146,-1.1352542680240778e-06,0.0182646951384146,-3.7370862224682e-05
0.0190588123183456,-6.565870901678519e-06,0.0190588123183456,-2.4535547052123844e-05,0.0190588123183456,-2.3992672541962974e-06,0.0190588123183456,-4.487489325999841e-05
0.0198529294982767,-9.093548711677851e-06,0.0198529294982767,-2.3824630942109056e-05,0.0198529294982767,1.372481534801406e-06,0.0198529294982767,-5.280359647363216e-05
0.0206470466782078,-9.212065575460554e-06,0.0206470466782078,-2.3824661749328312e-05,0.0206470466782078,1.4118362830262978e-06,0.0206470466782078,-5.178682230184221e-05
0.0214411638581389,-7.51375255777774e-06,0.0214411638581389,-2.2955724367356885e-05,0.0214411638581389,3.919731163333388e-06,0.0214411638581389,-4.4875133782824025e-05
0.0222352810380699,-7.39525860141822e-06,0.0222352810380699,-2.3390238223266388e-05,0.0222352810380699,4.995989650354555e-06,0.0222352810380699,-3.5574033286526905e-05
0.023029398218001,-8.540551889102028e-06,0.023029398218001,-2.19883e-05,0.023029398218001,3.02129e-06,0.023029398218001,-2.6964519609938848e-05
0.0238235153979321,-7.928520044521844e-06,0.0238235153979321,-2.1099686715605864e-05,0.0238235153979321,3.4063950762241783e-06,0.0238235153979321,-2.2067434201249564e-05
0.0246176325778631,-5.657517052974785e-06,0.0246176325778631,-2.1672316115319805e-05,0.0246176325778631,3.7420429470252153e-06,0.0246176325778631,-1.441529114491518e-05
0.0254117497577942,-5.025488864335942e-06,0.0254117497577942,-2.076401163872609e-05,0.0254117497577942,6.842354254645111e-06,0.0254117497577942,-6.9211267348653664e-06
0.0262058669377253,1.1363038720570938e-05,0.0262058669377253,-1.8927481232385084e-05,0.0262058669377253,4.413709206690074e-06,0.0262058669377253,9.374003439153112e-07
0.0269999841176564,2.6016439651449588e-05,0.0269999841176564,-2.232381785047431e-05,0.0269999841176564,8.393032683532514e-07,0.0269999841176564,1.0910005287926485e-05
0.0277941012975874,2.0961329332177494e-05,0.0277941012975874,-2.29953e-05,0.0277941012975874,9.774906044894656e-07,0.0277941012975874,2.6313127311436645e-05
0.0285882184775185,1.781192285481357e-05,0.0285882184775185,-1.9934635235350635e-05,0.0285882184775185,6.221941701210699e-07,0.0285882184775185,4.757879964675032e-05
0.0293823356574496,1.0120919384661668e-05,0.0293823356574496,-1.959884260259172e-05,0.0293823356574496,-7.603000145978577e-07,0.0293823356574496,5.872782542036684e-05
0.0301764528373806,-6.477001909483626e-06,0.0301764528373806,-2.009252510116734e-05,0.0301764528373806,1.352665058897122e-06,0.0301764528373806,4.248563240587743e-05
0.0309705700173117,-2.208651319353576e-05,0.0309705700173117,-2.250173610685508e-05,0.0309705700173117,4.571354611783118e-06,0.0309705700173117,1.5195999805877572e-05
0.0317646871972428,-3.6758482461750966e-05,0.0317646871972428,-2.4436929259519137e-05,0.0317646871972428,6.704035583735407e-06,0.0317646871972428,-3.840146573118845e-06
0.0325588043771738,-4.207093011439704e-05,0.0325588043771738,-2.1672271214400583e-05,0.0325588043771738,6.585633257068635e-06,0.0325588043771738,-1.254905893151183e-05
0.0333529215571049,-3.9029855244681656e-05,0.0333529215571049,-2.104027816148879e-05,0.0333529215571049,6.54612e-06,0.0333529215571049,-1.0515174862415616e-05
0.034147038737036,-3.590042987255079e-05,0.034147038737036,-2.28373279815986e-05,0.034147038737036,6.072353869592664e-06,0.034147038737036,-1.0988715447666137e-05
0.0349411559169671,-2.623426200880123e-05,0.0349411559169671,-2.2699220438393915e-05,0.0349411559169671,4.887357994255333e-06,0.0349411559169671,-2.000336495538672e-05
0.0357352730968981,-8.6984799872057e-06,0.0357352730968981,-2.2402943787149903e-05,0.0357352730968981,5.973463074447218e-06,0.0357352730968981,-2.9827822159162745e-05
0.0365293902768292,1.4869124909522256e-05,0.0365293902768292,-2.3548254360686484e-05,0.0365293902768292,7.711180513378032e-06,0.0365293902768292,-3.3826540918273305e-05
0.0373235074567603,2.3647141936281524e-05,0.0373235074567603,-2.3034800706405165e-05,0.0373235074567603,5.519446061585266e-06,0.0373235074567603,-3.1684147021066874e-05
0.0381176246366913,1.7841525246998528e-05,0.0381176246366913,-2.281761677404222e-05,0.0381176246366913,3.86053e-06,0.0381176246366913,-2.9827805410071116e-05
0.0389117418166224,4.116832938534391e-06,0.0389117418166224,-2.36864580550074e-05,0.0389117418166224,2.9916562237590595e-06,0.0389117418166224,-2.560172713262684e-05
0.0397058589965535,-1.6773562953121663e-05,0.0397058589965535,-2.3706239301806116e-05,0.0397058589965535,1.599599840456316e-06,0.0397058589965535,-1.1977691625089774e-05
0.0404999761764846,-3.742981586070867e-05,0.0404999761764846,-2.131697701345965e-05,0.0404999761764846,5.035737709534445e-07,0.0404999761764846,3.860083307294942e-06
0.0412940933564156,-4.4183834607756346e-05,0.0412940933564156,-2.267930804832945e-05,0.0412940933564156,-6.615396907137151e-07,0.0412940933564156,1.6735611688367633e-05
0.0420882105363467,-4.005747206063586e-05,0.0420882105363467,-2.060604550442373e-05,0.0420882105363467,-2.5965855878728274e-06,0.0420882105363467,2.3863468639682e-05
0.0428823277162778,-2.726142337453642e-05,0.0428823277162778,-2.0368985747561955e-05,0.0428823277162778,-3.603764884444518e-06,0.0428823277162778,3.355986976888904e-05
0.0436764448962088,-1.5649563738157154e-05,0.0436764448962088,-1.9677869899185903e-05,0.0436764448962088,-5.302042087280949e-06,0.0436764448962088,2.963046027193208e-05
0.0444705620761399,-1.3674776253487362e-05,0.0444705620761399,-2.084299421386889e-05,0.0444705620761399,-4.245678504380074e-06,0.0444705620761399,7.6135061790624e-06
0.045264679256071,-1.1621385831768478e-05,0.045264679256071,-2.301487530350202e-05,0.045264679256071,-3.110187934988095e-06,0.045264679256071,-1.0120072103219616e-05
0.046058796436002,-7.039918254429938e-06,0.046058796436002,-2.419986759027002e-05,0.046058796436002,-1.5896894215604477e-06,0.046058796436002,-1.0495627655800725e-05
0.0468529136159331,-2.3597042286757075e-06,0.0468529136159331,-1.9322579192074254e-05,0.0468529136159331,9.865104914511664e-09,0.0468529136159331,2.320434372464137e-06
0.0476470307958642,2.537350063404668e-06,0.0476470307958642,-1.932243542505104e-05,0.0476470307958642,-3.445619910956311e-06,0.0476470307958642,1.468134025361867e-05
0.0484411479757953,3.86053e-06,0.0484411479757953,-1.9263093560137616e-05,0.0484411479757953,-5.53903e-06,0.0484411479757953,2.0033003137610668e-05
0.0492352651557263,5.400769435042982e-06,0.0492352651557263,-1.99741e-05,0.0492352651557263,-5.53903e-06,0.0492352651557263,2.5977070622977656e-05
0.0500293823356574,5.242886732178998e-06,0.0500293823356574,-1.9203881009553944e-05,0.0500293823356574,-3.445999265681965e-06,0.0500293823356574,1.954001921458049e-05
0.0508234995155885,2.28091243924326e-06,0.0508234995155885,-2.200786504066441e-05,0.0508234995155885,1.895483022545157e-06,0.0508234995155885,2.005585645107428e-06
0.0516176166955195,1.7673249395743363e-06,0.0516176166955195,-2.1909277599868616e-05,0.0516176166955195,4.433161174467921e-06,0.0516176166955195,-1.770276021005951e-05
0.0524117338754506,2.448629024692573e-06,0.0524117338754506,-1.9421279137263636e-05,0.0524117338754506,5.993236314965387e-06,0.0524117338754506,-3.124970488893264e-05
0.0532058510553817,3.623521512978836e-06,0.0532058510553817,-1.9756800205003342e-05,0.0532058510553817,6.348736974042328e-06,0.0532058510553817,-4.029319815574603e-05
0.0539999682353128,6.210259648720077e-06,0.0539999682353128,-2.4337874086510102e-05,0.0539999682353128,5.0355372678755865e-06,0.0539999682353128,-4.548693965486148e-05
0.0547940854152438,1.017955362993624e-05,0.0547940854152438,-2.5838901109383077e-05,0.0547940854152438,3.534717706151158e-06,0.0547940854152438,-4.718537930207693e-05
0.0555882025951749,8.126305029912192e-06,0.0555882025951749,-2.2945997654332032e-05,0.0555882025951749,4.640432271536963e-06,0.0555882025951749,-4.675107159269456e-05
0.056382319775106,3.841075737207188e-06,0.056382319775106,-2.2254789463244347e-05,0.056382319775106,4.828168284633535e-06,0.056382319775106,-4.454925158911071e-05
0.057176436955037,-2.14241106967192e-06,0.057176436955037,-2.161313523535064e-05,0.057176436955037,4.53193e-06,0.057176436955037,-4.38087e-05
0.0579705541349681,-4.86763e-06,0.0579705541349681,-2.2185708969610445e-05,0.0579705541349681,4.19623e-06,0.0579705541349681,-4.38087e-05
0.0587646713148992,-3.18914e-06,0.0587646713148992,-2.147497775185861e-05,0.0587646713148992,5.598059339087431e-06,0.0587646713148992,-4.305835366184389e-05
0.0595587884948302,-4.294892301000879e-06,0.0595587884948302,-1.9934616789014657e-05,0.0595587884948302,7.197751917754094e-06,0.0595587884948302,-4.469709739514007e-05
0.0603529056747613,-4.926871251323964e-06,0.0603529056747613,-2.062560026977958e-05,0.0603529056747613,5.341556481175487e-06,0.0603529056747613,-4.6276982502647926e-05
0.0611470228546924,-5.213126441418642e-06,0.0611470228546924,-2.1909303721726212e-05,0.0611470228546924,3.3868096840978267e-06,0.0611470228546924,-4.4796142395971455e-05
0.0619411400346235,-6.61512789190309e-06,0.0619411400346235,-2.22447269139738e-05,0.0619411400346235,1.88577308108748e-06,0.0619411400346235,-4.2387033837825045e-05
0.0627352572145545,-8.747870833795331e-06,0.0627352572145545,-2.2560914507504094e-05,0.0627352572145545,2.774442120141714e-06,0.0627352572145545,-3.9326185159008e-05
0.0635293743944856,-8.826929348489581e-06,0.0635293743944856,-2.2363176941320383e-05,0.0635293743944856,2.6954862323263875e-06,0.0635293743944856,-3.5554530751764795e-05
0.0643234915744167,-8.106209436847176e-06,0.0643234915744167,-2.42590780490435e-05,0.0643234915744167,1.6983388551804838e-06,0.0643234915744167,-3.198049185666629e-05
0.0651176087543477,-7.257033257068635e-06,0.0651176087543477,-2.179081605783661e-05,0.0651176087543477,1.0071e-06,0.0651176087543477,-2.737931931361772e-05
0.0659117259342788,-8.362837677470656e-06,0.0659117259342788,-2.056656040270595e-05,0.0659117259342788,1.4513953549413112e-06,0.0659117259342788,-2.1830263276223243e-05
0.0667058431142099,-6.88182e-06,0.0667058431142099,-1.905584607247366e-05,0.0667058431142099,-1.67849e-07,0.0667058431142099,-1.3122616147856126e-05
0.067499960294141,-8.895838195179062e-06,0.067499960294141,-1.930267432731728e-05,0.067499960294141,1.1748254638223298e-06,0.067499960294141,-5.035866561060351e-06
0.068294077474072,-1.2055513890637989e-05,0.068294077474072,-2.1336587514138238e-05,0.068294077474072,1.84634e-06,0.068294077474072,3.860404247378968e-06
0.0690881946540031,-9.390333733739423e-06,0.0690881946540031,-1.888813208513981e-05,0.0690881946540031,2.2720841694147575e-07,0.0690881946540031,1.46807081782536e-05
0.0698823118339342,-4.077863209802778e-06,0.0698823118339342,-1.920366085348303e-05,0.0698823118339342,-1.6684639540426666e-06,0.0698823118339342,2.0211484126382663e-05
0.0706764290138652,-2.912698431891355e-06,0.0706764290138652,-2.2284452124319742e-05,0.0706764290138652,-3.959198037654476e-06,0.0706764290138652,9.488885895846687e-06
0.0714705461937963,-1.51064e-06,0.0714705461937963,-2.014195473035849e-05,0.0714705461937963,-9.185455670906436e-07,0.0714705461937963,7.802119659869357e-07
0.0722646633737274,-1.7474618339009245e-06,0.0722646633737274,-1.967740974265435e-05,0.0722646633737274,1.017060658617407e-06,0.0722646633737274,-1.0884776532549405e-07
0.0730587805536585,-2.8336661908982954e-06,0.0730587805536585,-2.2165989517539734e-05,0.0730587805536585,-9.181179768487584e-07,0.0730587805536585,3.386413925320213e-06
0.0738528977335895,-1.0762203412553588e-06,0.0738528977335895,-1.8344994358893787e-05,0.0738528977335895,1.885773710963208e-06,0.0738528977335895,5.647629414834956e-06
0.0746470149135206,-2.3200409363598387e-06,0.0746470149135206,-1.783151247307374e-05,0.0746470149135206,8.12576046817992e-06,0.0746470149135206,-4.830026941285967e-07
0.0754411320934517,-4.255362441063809e-06,0.0754411320934517,-1.8255962752918356e-05,0.0754411320934517,7.168242965780159e-06,0.0754411320934517,-5.7857132547517455e-06
0.0762352492733827,-5.973411533256845e-06,0.0762352492733827,-1.951988247717488e-05,0.0762352492733827,7.276707376500738e-06,0.0762352492733827,-7.56306278657185e-06
0.0770293664533138,-5.578632536844276e-06,0.0770293664533138,-2.212628566422284e-05,0.0770293664533138,5.193664389676947e-06,0.0770293664533138,-1.0870332295384549e-05
0.0778234836332449,-4.739112264328201e-06,0.0778234836332449,-2.2402932220029594e-05,0.0778234836332449,2.754519982566995e-06,0.0778234836332449,-2.228348196907337e-05
0.078617600813176,-4.966426282599743e-06,0.078617600813176,-2.3548143697155268e-05,0.078617600813176,5.045254064302303e-06,0.078617600813176,-2.9551224064302304e-05
0.079411717993107,-2.794206808652889e-06,0.079411717993107,-2.43381e-05,0.079411717993107,3.0805530103558985e-06,0.079411717993107,-2.90379e-05
0.0802058351730381,-2.6260973271714703e-06,0.0802058351730381,-2.505880068323222e-05,0.0802058351730381,2.122550266702577e-06,0.0802058351730381,-3.089346071120687e-05
0.0809999523529692,-4.1961784582978246e-06,0.0809999523529692,-2.5009561614438525e-05,0.0809999523529692,5.203123834214864e-06,0.0809999523529692,-3.57516938331913e-05
0.0817940695329002,-4.670132436926412e-06,0.0817940695329002,-2.3350677247042645e-05,0.0817940695329002,5.53903e-06,0.0817940695329002,-3.162498050458871e-05
0.0825881867128313,-4.314971271772436e-06,0.0825881867128313,-2.3528722962613453e-05,0.0825881867128313,5.677190566338033e-06,0.0825881867128313,-1.3539163302446778e-05
0.0833823038927624,-5.716181051184912e-06,0.0833823038927624,-2.0724617580587276e-05,0.0833823038927624,4.35440499771728e-06,0.0833823038927624,7.729625499317662e-06
0.0841764210726934,-1.1502452654160414e-05,0.0841764210726934,-2.1889315220554547e-05,0.0841764210726934,2.0537645556150387e-06,0.0841764210726934,2.3804349526478898e-05
0.0849705382526245,-1.25887e-05,0.0849705382526245,-2.496994889914557e-05,0.0849705382526245,-1.312951643099961e-06,0.0849705382526245,3.628426500885164e-05
0.0857646554325556,-1.35958e-05,0.0857646554325556,-2.382480855907787e-05,0.0857646554325556,-3.6826997688890393e-06,0.0857646554325556,4.066945115555481e-05
0.0865587726124866,-1.264803860787251e-05,0.0865587726124866,-2.252139839748928e-05,0.0865587726124866,-4.512150464042497e-06,0.0865587726124866,3.367891350340505e-05
0.0873528897924177,-1.0791706043640476e-05,0.0873528897924177,-2.0704898948207103e-05,0.0873528897924177,-2.10310978179762e-06,0.0873528897924177,2.4812273083550004e-05
0.0881470069723488,-1.136431950723417e-05,0.0881470069723488,-2.0191278411546367e-05,0.0881470069723488,-5.0545008056532775e-06,0.0881470069723488,3.941970383105454e-06
0.0889411241522799,-1.198626486898746e-05,0.0889411241522799,-2.2086953053746407e-05,0.0889411241522799,-1.0989020347328588e-05,0.0889411241522799,-8.304145045152106e-06
0.0897352413322109,-1.3605581332860252e-05,0.0897352413322109,-2.066536572186803e-05,0.0897352413322109,-1.148292800070962e-05,0.0897352413322109,1.4509417221717684e-06
0.090529358512142,-1.2134688417890004e-05,0.090529358512142,-2.145486512760616e-05,0.090529358512142,-7.316596245509909e-06,0.090529358512142,7.533399927979047e-06
0.0913234756920731,-9.942853215063768e-06,0.0913234756920731,-2.1731630716316084e-05,0.0913234756920731,-6.978400653124271e-08,0.0913234756920731,3.4665205163259053e-06
0.0921175928720041,-7.671792954958758e-06,0.0921175928720041,-1.944090579074101e-05,0.0921175928720041,6.782749358799456e-06,0.0921175928720041,-3.880033491140127e-06
0.0929117100519352,-5.40086936593024e-06,0.0929117100519352,-2.0902085627385703e-05,0.0929117100519352,5.835299800339119e-06,0.0929117100519352,-4.038199330843124e-06
0.0937058272318663,-1.688670689431208e-06,0.0937058272318663,-2.0862876798213716e-05,0.0937058272318663,2.7150886648228807e-06,0.0937058272318663,-1.619994390285249e-05
0.0944999444117974,-8.392059122482594e-07,0.0944999444117974,-1.93027718835116e-05,0.0944999444117974,4.53176964923187e-06,0.0944999444117974,-3.977861630439594e-05
0.0952940615917284,1.2825102811422297e-07,0.0952940615917284,-2.280751622020321e-05,0.0952940615917284,3.6235845083925935e-06,0.0952940615917284,-5.245760040768148e-05
0.0960881787716595,5.518429231316528e-06,0.0960881787716595,-2.2215516032135957e-05,0.0960881787716595,2.51774e-06,0.0960881787716595,-5.25271231897386e-05
0.0968822959515906,9.626990606393698e-06,0.0968822959515906,-1.9984073555604004e-05,0.0968822959515906,3.2483056272050134e-06,0.0968822959515906,-5.2517499186808384e-05
0.0976764131315216,3.268569695723445e-06,0.0976764131315216,-2.03098e-05,0.0976764131315216,4.798400457588228e-06,0.0976764131315216,-4.2664099370065673e-05
0.0984705303114527,-2.892744806519849e-06,0.0984705303114527,-2.07442060306421e-05,0.0984705303114527,3.821225193480151e-06,0.0984705303114527,-3.057881465256519e-05
0.0992646474913838,2.852423618472598e-07,0.0992646474913838,-2.17709663924614e-05,0.0992646474913838,3.7616174727661536e-06,0.0992646474913838,-2.907686241829846e-05
0.1000587646713148,8.986092756741219e-06,0.1000587646713148,-2.23239e-05,0.1000587646713148,5.796122692875401e-06,0.1000587646713148,-3.644460843018816e-05
0.1008528818512459,9.488420046241187e-06,0.1008528818512459,-2.3310642870622508e-05,0.1008528818512459,6.121559502964619e-06,0.1008528818512459,-4.187348642433626e-05
0.101646999031177,6.842843207297916e-06,0.101646999031177,-2.382452553076636e-05,0.101646999031177,3.870275079890742e-06,0.101646999031177,-3.8755165601456766e-05
0.1024411162111081,9.400273064437912e-07,0.1024411162111081,-2.262044487732109e-05,0.1024411162111081,5.20333e-06,0.1024411162111081,-2.3100497103706444e-05
0.1032352333910391,-5.163055492873066e-06,0.1032352333910391,-2.2501969656810097e-05,0.1032352333910391,6.229824925222099e-06,0.1032352333910391,-1.2375458122343905e-06
0.1040293505709702,-9.48874240320172e-06,0.1040293505709702,-2.1208315146177083e-05,0.1040293505709702,4.432914735585219e-06,0.1040293505709702,1.6242759914525736e-05
0.1048234677509013,-1.5571343175725024e-05,0.1048234677509013,-2.1908852399913733e-05,0.1048234677509013,4.827966667018877e-07,0.1048234677509013,2.0485179107969932e-05
0.1056175849308323,-1.7693795427859214e-05,0.1056175849308323,-2.32716023556086e-05,0.1056175849308323,-1.767771661421208e-06,0.1056175849308323,9.503128892728964e-06
0.1064117021107634,-1.6507660202826066e-05,0.1064117021107634,-2.1770177993663384e-05,0.1064117021107634,-1.0559636457714112e-06,0.1064117021107634,9.511071657072195e-06
0.1072058192906945,-1.5234924102491318e-05,0.1072058192906945,-2.078292217275234e-05,0.1072058192906945,4.33471261304752e-06,0.1072058192906945,3.2386213663576725e-05
0.1079999364706256,-1.5610045765688813e-05,0.1079999364706256,-2.165255890787864e-05,0.1079999364706256,3.525150358458388e-06,0.1079999364706256,3.709504323584963e-05
0.1087940536505566,-1.4228099287149211e-05,0.1087940536505566,-2.09812e-05,0.1087940536505566,1.17494e-06,0.1087940536505566,2.291939841731613e-05
0.1095881708304877,-1.1838960981969436e-05,0.1095881708304877,-2.0903139516032864e-05,0.1095881708304877,2.379726993989812e-06,0.1095881708304877,1.144727000301727e-05
0.1103822880104188,-1.3948531969630907e-05,0.1103822880104188,-1.96384e-05,0.1103822880104188,-3.638101546148196e-07,0.1103822880104188,9.057260842539557e-07
0.1111764051903498,-1.7998099167386863e-05,0.1111764051903498,-2.1672414982578288e-05,0.1111764051903498,-1.017745436115397e-06,0.1111764051903498,-1.2286799881343814e-05
0.1119705223702809,-1.272957869347087e-05,0.1119705223702809,-2.0518262893603312e-05,0.1119705223702809,2.5567053193417498e-06,0.1119705223702809,-2.526282167392518e-05
0.112764639550212,1.885740870602332e-06,0.112764639550212,-2.072470291924515e-05,0.112764639550212,2.122827280700467e-06,0.112764639550212,-4.355177538897245e-05
0.1135587567301431,4.482086713361484e-06,0.1135587567301431,-2.147582212332273e-05,0.1135587567301431,1.4713045851133108e-06,0.1135587567301431,-5.474902481755537e-05
0.1143528739100741,-2.7743753284698504e-06,0.1143528739100741,-1.948073883771909e-05,0.1143528739100741,4.294953103707087e-06,0.1143528739100741,-3.25334293521218e-05
0.1151469910900052,-1.2152528751355611e-05,0.1151469910900052,-2.1021256784813195e-05,0.1151469910900052,6.429642235053233e-07,0.1151469910900052,5.236078344764784e-06
0.1159411082699363,-1.924398873407988e-05,0.1159411082699363,-2.3192986331606228e-05,0.1159411082699363,-4.4732187340798805e-06,0.1159411082699363,4.315386176578525e-05
0.1167352254498673,-1.2649961722209204e-05,0.1167352254498673,-2.256134675514082e-05,0.1167352254498673,-1.985118114016377e-06,0.1167352254498673,4.307018998296512e-05
0.1175293426297984,3.60472910089339e-06,0.1175293426297984,-2.141542034364803e-05,0.1175293426297984,-2.656074254227493e-06,0.1175293426297984,2.6075084453489744e-05
0.1183234598097295,1.3497711657735605e-05,0.1183234598097295,-2.1869113219958823e-05,0.1183234598097295,-1.8850268434495475e-06,0.1183234598097295,1.207063109482434e-05
0.1191175769896605,1.252802931612166e-05,0.1191175769896605,-2.394299208257827e-05,0.1191175769896605,9.784918929493107e-07,0.1191175769896605,-5.58525907593448e-06
0.1199116941695916,1.0635395237992497e-06,0.1199116941695916,-2.370590488349934e-05,0.1199116941695916,2.814124299135228e-06,0.1199116941695916,-1.982835599203417e-05
0.1207058113495227,-1.2263549129345192e-05,0.1207058113495227,-2.382440225440227e-05,0.1207058113495227,2.51774e-06,0.1207058113495227,-2.8445858645984043e-05
0.1214999285294538,-2.4504867299201866e-05,0.1214999285294538,-2.4338053771363467e-05,0.1214999285294538,3.189037027200169e-06,0.1214999285294538,-3.5079882163201016e-05
0.1222940457093848,-3.124871622031986e-05,0.1222940457093848,-2.3982289423350664e-05,0.1222940457093848,6.051762134936382e-06,0.1222940457093848,-5.0261641621269575e-05
0.1230881628893159,-3.1842870908014106e-05,0.1230881628893159,-2.301480998447661e-05,0.1230881628893159,9.034017272996474e-06,0.1230881628893159,-6.528958253064128e-05
0.123882280069247,-2.6989750928118104e-05,0.123882280069247,-2.2738615495686588e-05,0.123882280069247,8.974383416112786e-06,0.123882280069247,-7.198509366445114e-05
0.124676397249178,-1.72334941957397e-05,0.124676397249178,-2.1060473294419537e-05,0.124676397249178,8.738827661701194e-06,0.124676397249178,-7.51857823382988e-05
0.1254705144291091,-1.0280092371392871e-05,0.1254705144291091,-2.295464164098024e-05,0.1254705144291091,5.8357828535118735e-06,0.1254705144291091,-7.0883372690508e-05
0.1262646316090402,-3.959301036162395e-06,0.1262646316090402,-2.20275714978553e-05,0.1262646316090402,3.781552894517586e-06,0.1262646316090402,-6.215381178552717e-05
0.1270587487889713,-3.18914e-06,0.1270587487889713,-2.0882264554726288e-05,0.1270587487889713,4.472909151339775e-06,0.1270587487889713,-5.187398535361357e-05
0.1278528659689023,-1.550208969102525e-06,0.1278528659689023,-2.275884714704304e-05,0.1278528659689023,5.440314832556221e-06,0.1278528659689023,-4.104433668788253e-05
0.1286469831488334,1.0662891004305427e-06,0.1286469831488334,-2.01908612688946e-05,0.1286469831488334,1.708501100312619e-06,0.1286469831488334,-2.7776224414205616e-05
0.1294411003287645,1.8854693779193492e-06,0.1294411003287645,-2.209735645506095e-05,0.1294411003287645,2.5959981730359297e-06,0.1294411003287645,-1.5023061079618068e-05
0.1302352175086955,1.4912831959733312e-06,0.1302352175086955,-2.31632e-05,0.1302352175086955,4.886986804026669e-06,0.1302352175086955,3.699043015477284e-06
0.1310293346886266,1.806962789458928e-06,0.1310293346886266,-2.195818654982769e-05,0.1310293346886266,2.596489127835119e-06,0.1310293346886266,1.833547406574152e-05
0.1318234518685577,8.185593147579828e-07,0.1318234518685577,-2.0389268106635303e-05,0.1318234518685577,-3.059995800739419e-07,0.1318234518685577,2.309606351839636e-05
0.1326175690484888,-1.1356450670180463e-06,0.1326175690484888,-2.356716814296564e-05,0.1326175690484888,1.0177587463466598e-06,0.1326175690484888,2.994844801151507e-05
0.1334116862284198,-4.440801662313711e-07,0.1334116862284198,-2.4713015156529683e-05,0.1334116862284198,1.9652751989724638e-06,0.1334116862284198,3.13878e-05
0.1342058034083509,-3.65374587003417e-07,0.1342058034083509,-2.23239e-05,0.1342058034083509,1.9645741229824284e-06,0.1342058034083509,3.257248382598487e-05
0.134999920588282,-1.51052558680043e-06,0.134999920588282,-2.3330845904544885e-05,0.134999920588282,-4.195543517905587e-06,0.134999920588282,2.1318616196289436e-05
0.135794037768213,-4.116885262307163e-06,0.135794037768213,-2.058519908914297e-05,0.135794037768213,-3.920341580308538e-06,0.135794037768213,-2.453077659614928e-06
0.1365881549481441,5.593707671642082e-07,0.1365881549481441,-2.0426823277566627e-05,0.1365881549481441,-4.19623e-06,0.1365881549481441,-1.2290215399827672e-05
0.1373822721280752,7.670761757985516e-06,0.1373822721280752,-2.222520122718493e-05,0.1373822721280752,-1.8770572876361249e-06,0.1373822721280752,-2.363912437606713e-05
0.1381763893080062,6.90318787490738e-06,0.1381763893080062,-2.1356531520572517e-05,0.1381763893080062,2.655026318776378e-07,0.1381763893080062,-3.2294988900440084e-05
0.1389705064879373,8.501971847072633e-07,0.1389705064879373,-2.0784549687856898e-05,0.1389705064879373,9.572233775752992e-07,0.1389705064879373,-2.2406675799643756e-05
0.1397646236678684,-9.97187358079094e-07,0.1397646236678684,-1.8503015505546488e-05,0.1397646236678684,4.354172769542629e-06,0.1397646236678684,-1.2766457230457371e-05
0.1405587408477994,-2.142681301532433e-06,0.1405587408477994,-2.0062433833765585e-05,0.1405587408477994,2.9715155091843738e-06,0.1405587408477994,-1.130493804770135e-05
0.1413528580277305,-5.065030343304506e-06,0.1413528580277305,-2.0467440616220243e-05,0.1413528580277305,1.411939828347747e-06,0.1413528580277305,-2.537837046666297e-06
0.1421469752076616,-7.236955036309617e-06,0.1421469752076616,-2.09812e-05,0.1421469752076616,3.9382871979355725e-06,0.1421469752076616,4.729811916455775e-06
0.1429410923875927,-6.803584758848206e-06,0.1429410923875927,-2.0803964562642988e-05,0.1429410923875927,1.0652735823783785e-05,0.1429410923875927,-3.599875744336906e-06
0.1437352095675237,-6.565456277200117e-06,0.1437352095675237,-2.1297438747547777e-05,0.1437352095675237,1.19173e-05,0.1437352095675237,-1.4344535684729014e-05
0.1445293267474548,-1.0515405153339204e-05,0.1445293267474548,-1.9716902224271796e-05,0.1445293267474548,7.967714893353539e-06,0.1445293267474548,-2.117895260732516e-05
0.1453234439273859,-1.4070931784093543e-05,0.1453234439273859,-1.833533917995489e-05,0.1453234439273859,4.650712946023386e-06,0.1453234439273859,-3.204110620312862e-05
0.146117561107317,-1.746699452667799e-05,0.146117561107317,-2.060535037781157e-05,0.146117561107317,5.055130684165251e-06,0.146117561107317,-3.300570957831352e-05
0.146911678287248,-1.7821778066729397e-05,0.146911678287248,-2.2462383848996912e-05,0.146911678287248,2.260705799811813e-06,0.146911678287248,-2.433633172114592e-05
0.1477057954671791,-1.7387257501789316e-05,0.1477057954671791,-1.953144811176842e-05,0.1477057954671791,-1.1554184284009656e-06,0.1477057954671791,-1.6093444013075564e-05
0.1484999126471102,-1.76242e-05,0.1484999126471102,-1.9302558737417352e-05,0.1484999126471102,-5.538652433067382e-06,0.1484999126471102,-8.225396586529135e-06
0.1492940298270412,-1.3379769024726856e-05,0.1492940298270412,-2.303548006117726e-05,0.1492940298270412,-2.301706079131739e-06,0.1492940298270412,-4.641203380813739e-06
0.1500881470069723,-1.35958e-05,0.1500881470069723,-2.1574601154214892e-05,0.1500881470069723,-9.175321323565434e-07,0.1500881470069723,-2.089775725931753e-07
0.1508822641869034,-9.175658746682016e-06,0.1508822641869034,-2.109960491362983e-05,0.1508822641869034,-1.588990484057949e-06,0.1508822641869034,1.253290484057949e-06
0.1516763813668344,-5.105697541691715e-06,0.1516763813668344,-2.279717983443271e-05,0.1516763813668344,-3.286762458308286e-06,0.1516763813668344,2.9510706853762434e-06
0.1524704985467655,-3.4859386188598025e-06,0.1524704985467655,-2.153390744152061e-05,0.1524704985467655,-1.876787367306584e-06,0.1524704985467655,5.045204167702146e-06
0.1532646157266966,-8.789193920561022e-07,0.1532646157266966,-2.3311163901465043e-05,0.1532646157266966,-1.3527100832409068e-06,0.1532646157266966,1.7477307294840025e-06
0.1540587329066277,6.863189692323356e-06,0.1540587329066277,-1.940339887342871e-05,0.1540587329066277,4.2480802284349524e-07,0.1540587329066277,-1.383215525454937e-07
0.1548528500865587,1.6893349175311944e-05,0.1548528500865587,-2.0190106201164648e-05,0.1548528500865587,2.51774e-06,0.1548528500865587,-1.5302617645529416e-06
0.1556469672664898,1.737770937333572e-05,0.1556469672664898,-2.3143711855028024e-05,0.1556469672664898,4.841263994719033e-07,0.1556469672664898,-8.933010068707994e-06
0.1564410844464209,1.5592047294449616e-05,0.1564410844464209,-2.462440082671264e-05,0.1564410844464209,9.370117651845612e-07,0.1564410844464209,-2.4924696687967733e-05
0.157235201626352,8.22646837468756e-06,0.157235201626352,-2.174277098330705e-05,0.157235201626352,4.05734891369506e-06,0.157235201626352,-3.902794967252036e-05
0.158029318806283,-2.1132026130023903e-06,0.158029318806283,-1.931267928871704e-05,0.158029318806283,4.452932872028738e-06,0.158029318806283,-4.783730235102291e-05
0.1588234359862141,-9.686179735588636e-06,0.1588234359862141,-2.1414134160447094e-05,0.1588234359862141,3.662987123849696e-06,0.1588234359862141,-5.466977150460122e-05
0.1596175531661451,-6.978495772987208e-06,0.1596175531661451,-2.4495483790461693e-05,0.1596175531661451,3.228445930444576e-06,0.1596175531661451,-5.166568521613074e-05
0.1604116703460762,-3.1296912179523887e-06,0.1604116703460762,-2.5996982148704816e-05,0.1604116703460762,1.451195332568602e-06,0.1604116703460762,-3.952155332568602e-05
0.1612057875260073,-3.445947670986512e-06,0.1612057875260073,-2.4851813155143236e-05,0.1612057875260073,1.569947075102492e-06,0.1612057875260073,-2.887956108693629e-05
0.1619999047059384,-8.559554870224377e-06,0.1619999047059384,-2.53450767236359e-05,0.1619999047059384,4.531518110845576e-06,0.1619999047059384,-1.6282910247281627e-05
0.1627940218858694,-1.549028511116359e-05,0.1627940218858694,-2.394216072732504e-05,0.1627940218858694,4.058308722209103e-06,0.1627940218858694,-4.831218384793341e-06
0.1635881390658005,-1.715050992604463e-05,0.1635881390658005,-2.1810655616105333e-05,0.1635881390658005,1.027678029570239e-06,0.1635881390658005,9.34301988710848e-06
0.1643822562457316,-1.7663369509015267e-05,0.1643822562457316,-2.125770781621541e-05,0.1643822562457316,-5.511293661431896e-07,0.1643822562457316,2.4903298707351174e-05
0.1651763734256627,-1.906460780253191e-05,0.1651763734256627,-2.2027909464716144e-05,0.1651763734256627,-2.18204e-06,0.1651763734256627,3.641850816076061e-05
0.1659704906055937,-1.995466310601796e-05,0.1659704906055937,-2.2106962336729752e-05,0.1659704906055937,-1.3136378327257192e-06,0.1659704906055937,4.6985442256876606e-05
0.1667646077855248,-1.292488331516359e-05,0.1667646077855248,-2.0260341331803987e-05,0.1667646077855248,1.0267150986020983e-06,0.1667646077855248,4.49746053338126e-05
0.1675587249654559,-6.980273489746113e-06,0.1675587249654559,-1.8345060674608656e-05,0.1675587249654559,1.8660308152611992e-06,0.1675587249654559,2.095863489746113e-05
0.1683528421453869,-1.0692768178766764e-05,0.1683528421453869,-1.9124620070159547e-05,0.1683528421453869,3.949536901006452e-07,0.1683528421453869,-1.43081409526835e-06
0.169146959325318,-1.5767176384010476e-05,0.169146959325318,-2.066544620816388e-05,0.169146959325318,2.6681294808481986e-07,0.169146959325318,-8.65927389028272e-06
0.1699410765052491,-1.75557808738329e-05,0.1699410765052491,-2.1415722659254097e-05,0.1699410765052491,-1.84634e-06,0.1699410765052491,-7.157180612261586e-06
0.1707351936851801,-1.6320939698769887e-05,0.1707351936851801,-2.1099964469691783e-05,0.1707351936851801,7.196151014509287e-07,0.1707351936851801,-1.1975166822838953e-05
0.1715293108651112,-1.604439366594415e-05,0.1715293108651112,-1.940126143576937e-05,0.1715293108651112,5.183607070462861e-06,0.1715293108651112,-2.5128300712674072e-05
0.1723234280450423,-1.4049038638879187e-05,0.1723234280450423,-1.9854851700311724e-05,0.1723234280450423,4.294411642484228e-06,0.1723234280450423,-3.575426053702125e-05
0.1731175452249733,-9.881911503792925e-06,0.1731175452249733,-2.2066935340169946e-05,0.1731175452249733,3.18914e-06,0.1731175452249733,-4.430464486405135e-05
0.1739116624049044,-5.77512647889502e-06,0.1739116624049044,-2.1711463118037025e-05,0.1739116624049044,6.586290319700983e-06,0.1739116624049044,-4.8350999604212e-05
0.1747057795848355,-2.18204e-06,0.1747057795848355,-2.1019344202028e-05,0.1747057795848355,5.657408619639344e-06,0.1747057795848355,-4.98512e-05
0.1754998967647666,-2.18204e-06,0.1754998967647666,-2.265943307320258e-05,0.1754998967647666,1.5110862132505169e-06,0.1754998967647666,-4.599155523523283e-05
0.1762940139446976,3.837851389272681e-07,0.1762940139446976,-2.3706838969055957e-05,0.1762940139446976,1.5301473588226105e-06,0.1762940139446976,-3.551781169412868e-05
0.1770881311246287,5.656405423890659e-06,0.1770881311246287,-2.260113749036389e-05,0.1770881311246287,1.5291652385001908e-06,0.1770881311246287,-2.433302590337165e-05
0.1778822483045598,6.171256223998441e-06,0.1778822483045598,-2.283718691756052e-05,0.1778822483045598,3.7430398386255257e-06,0.1778822483045598,-1.5836551497153367e-05
0.1786763654844909,5.184300151922453e-06,0.1786763654844909,-2.406079881642939e-05,0.1786763654844909,2.0249263102343806e-06,0.1786763654844909,-1.8490769839374984e-05
0.1794704826644219,3.86053e-06,0.1794704826644219,-2.1337308494529204e-05,0.1794704826644219,1.67849e-07,0.1794704826644219,-1.719137273720062e-05
0.180264599844353,4.21611546137598e-06,0.180264599844353,-2.082324605635441e-05,0.180264599844353,1.1155843680762152e-06,0.180264599844353,-1.396099731623496e-05
0.181058717024284,1.2931192896494525e-06,0.181058717024284,-2.16526e-05,0.181058717024284,3.7521995712186633e-06,0.181058717024284,-1.4286896548274907e-05
0.1818528342042151,5.03548e-07,0.1818528342042151,-2.121761469569381e-05,0.1818528342042151,6.54612e-06,0.1818528342042151,-1.2272851339644975e-05
0.1826469513841462,2.438148083388437e-06,0.1826469513841462,-2.27584927626884e-05,0.1826469513841462,6.111444643689863e-06,0.1826469513841462,-1.1504055663697046e-05
0.1834410685640773,5.20333e-06,0.1834410685640773,-2.16526e-05,0.1834410685640773,7.139352972380636e-06,0.1834410685640773,2.7878321355714385e-06
0.1842351857440083,4.690147363675488e-06,0.1842351857440083,-2.082366211408315e-05,0.1842351857440083,4.720066711740748e-06,0.1842351857440083,1.9901514350269795e-05
0.1850293029239394,1.5698468777350451e-06,0.1850293029239394,-2.190968540951826e-05,0.1850293029239394,4.354212814520336e-06,0.1850293029239394,3.2276493774244034e-05
0.1858234201038705,-3.8422538823188594e-06,0.1858234201038705,-2.2551425918656143e-05,0.1858234201038705,2.773520885054271e-06,0.1858234201038705,2.6920988360365643e-05
0.1866175372838016,-8.956481199639814e-06,0.1866175372838016,-2.3488322152279733e-05,0.1866175372838016,2.4648578337089305e-07,0.1866175372838016,1.37409622178379e-05
0.1874116544637326,-1.0495782603064846e-05,0.1874116544637326,-2.340951249730212e-05,0.1874116544637326,-1.67849e-07,0.1874116544637326,8.796463960889923e-06
0.1882057716436637,-1.308240151374103e-05,0.1882057716436637,-2.153556411035607e-05,0.1882057716436637,-1.0959874634287004e-06,0.1882057716436637,1.0061193719134866e-05
0.1889998888235948,-1.5274059730133755e-05,0.1889998888235948,-2.0309871911212377e-05,0.1889998888235948,-4.195829552608686e-06,0.1889998888235948,2.3329077864927644e-05
0.1897940060035258,-1.561e-05,0.1897940060035258,-2.29666113377838e-05,0.1897940060035258,-6.012621291843515e-06,0.1897940060035258,2.8228601654263938e-05
0.1905881231834569,-1.5136321392072058e-05,0.1905881231834569,-2.354979999267704e-05,0.1905881231834569,-5.125094176216175e-06,0.1905881231834569,2.0017452127996848e-05
0.191382240363388,-1.4860283914024255e-05,0.191382240363388,-2.0467985086828185e-05,0.191382240363388,-3.52483e-06,0.191382240363388,1.66171e-05
0.192176357543319,-1.2748248566557242e-05,0.192176357543319,-1.9421533042070453e-05,0.192176357543319,-2.420176189713713e-06,0.192176357543319,1.3441155511292726e-05
0.1929704747232501,-1.0199977266881816e-05,0.1929704747232501,-2.1177768127900415e-05,0.1929704747232501,5.423732042024695e-07,0.1929704747232501,-1.979410726848097e-06
0.1937645919031812,-7.750921340196187e-06,0.1937645919031812,-2.184018230377653e-05,0.1937645919031812,1.3726515753719442e-06,0.1937645919031812,-1.699123753252358e-05
0.1945587090831123,-5.578433975675794e-06,0.1945587090831123,-2.2451028807981204e-05,0.1945587090831123,-1.1158336843454465e-06,0.1945587090831123,-3.0302652092939063e-05
0.1953528262630433,-7.572737876360219e-06,0.1953528262630433,-2.3351500951802217e-05,0.1953528262630433,1.569561113850301e-06,0.1953528262630433,-4.045101161411232e-05
0.1961469434429744,-7.987900348003009e-06,0.1961469434429744,-2.0783468808295208e-05,0.1961469434429744,1.935641939090745e-06,0.1961469434429744,-5.131021859896188e-05
0.1969410606229055,-7.750373453887818e-06,0.1969410606229055,-1.97568085143778e-05,0.1969410606229055,1.885412047782265e-06,0.1969410606229055,-5.72366e-05
0.1977351778028366,-7.711446448398154e-06,0.1977351778028366,-1.853317003150489e-05,0.1977351778028366,3.030911194902335e-06,0.1977351778028366,-5.518391522039066e-05
0.1985292949827676,-7.513723669335974e-06,0.1985292949827676,-2.003403108176473e-05,0.1985292949827676,4.176484187618446e-06,0.1985292949827676,-5.38796e-05
0.1993234121626987,-7.572648524581756e-06,0.1993234121626987,-2.2284152157310943e-05,0.1993234121626987,5.20333e-06,0.1993234121626987,-5.28131314098327e-05
0.2001175293426297,-5.696326030129359e-06,0.2001175293426297,-2.218582592025712e-05,0.2001175293426297,5.796072570641315e-06,0.2001175293426297,-5.57969326957613e-05
0.2009116465225608,-3.751377509486724e-06,0.2009116465225608,-2.0407966304203503e-05,0.2009116465225608,6.54612e-06,0.2009116465225608,-6.626254056712235e-05
0.2017057637024919,3.6531816696370064e-06,0.2017057637024919,-2.062514287062252e-05,0.2017057637024919,7.958026331853884e-06,0.2017057637024919,-7.169138343962378e-05
0.202499880882423,5.2036303347767146e-06,0.202499880882423,-2.1316822952272436e-05,0.202499880882423,1.0909899665223284e-05,0.202499880882423,-6.999344324266615e-05
0.203293998062354,-4.82599971536721e-07,0.203293998062354,-2.495191916157008e-05,0.203293998062354,1.19173e-05,0.203293998062354,-6.556159758999278e-05
0.2040881152422851,-3.4053273896518024e-06,0.2040881152422851,-2.6887345842300773e-05,0.2040881152422851,9.194779470867888e-06,0.2040881152422851,-6.09314511132549e-05
0.2048822324222162,-5.024238073607923e-06,0.2048822324222162,-2.3686646588266107e-05,0.2048822324222162,5.125025380051714e-06,0.2048822324222162,-5.140139467363635e-05
0.2056763496021472,-6.76273957699933e-06,0.2056763496021472,-2.157338822522752e-05,0.2056763496021472,3.979610423000669e-06,0.2056763496021472,-3.437876758269177e-05
0.2064704667820783,-5.697174004129001e-06,0.2064704667820783,-2.16321606863798e-05,0.2064704667820783,4.570735139430958e-06,0.2064704667820783,-2.7872651284857737e-05
0.2072645839620094,-4.70974443756841e-06,0.2072645839620094,-2.3538343266591666e-05,0.2072645839620094,4.996008609392102e-06,0.2072645839620094,-2.532644196179625e-05
0.2080587011419405,-4.512221985697695e-06,0.2080587011419405,-2.3914130253017965e-05,0.2080587011419405,5.183621985697695e-06,0.2080587011419405,-4.796655982781784e-06
0.2088528183218715,-4.729605075802063e-06,0.2088528183218715,-2.102058557689797e-05,0.2088528183218715,2.3009579720141053e-06,0.2088528183218715,2.8107234870312883e-05
0.2096469355018026,1.0372045470076213e-05,0.2096469355018026,-2.307455782830149e-05,0.2096469355018026,-1.194296452155745e-06,0.2096469355018026,6.611287893136694e-05
0.2104410526817337,2.5048560581754883e-05,0.2104410526817337,-2.3469085441315357e-05,0.2104410526817337,-3.4235023269731118e-06,0.2104410526817337,9.996796308994924e-05
0.2112351698616647,2.2858597787160308e-05,0.2112351698616647,-2.0784963461462883e-05,0.2112351698616647,-1.0168211511900738e-05,0.2112351698616647,9.66738294793376e-05
0.2120292870415958,1.247033449757168e-05,0.2120292870415958,-1.85127461274302e-05,0.2120292870415958,-1.0475805094043608e-05,0.2120292870415958,8.632394313450937e-05
0.2128234042215269,-4.467494559085035e-06,0.2128234042215269,-1.82956e-05,0.2128234042215269,-5.399820581012322e-06,0.2128234042215269,8.598590548033233e-05
0.2136175214014579,-2.473837977244487e-05,0.2136175214014579,-1.9341985698986968e-05,0.2136175214014579,-1.1145555308436538e-06,0.2136175214014579,6.710256982052842e-05
0.214411638581389,-3.664154222159151e-05,0.214411638581389,-1.8374153589423427e-05,0.214411638581389,3.937566291887464e-08,0.214411638581389,3.841408637060603e-05
0.2152057557613201,-3.790434232655845e-05,0.2152057557613201,-2.1118498896388235e-05,0.2152057557613201,-1.609368836720775e-06,0.2152057557613201,1.547198016591931e-05
0.2159998729412512,-3.675918306275525e-05,0.2159998729412512,-1.9638893105456327e-05,0.2159998729412512,-2.517556937244754e-06,0.2159998729412512,1.176770619372706e-06
0.2167939901211822,-2.8418979862534168e-05,0.2167939901211822,-1.967847733087392e-05,0.2167939901211822,-8.992222321746727e-08,0.2167939901211822,-4.450997721695836e-06
0.2175881073011133,-2.05281684106198e-05,0.2175881073011133,-1.967734805774083e-05,0.2175881073011133,5.03548e-07,0.2175881073011133,-1.2248541412308922e-05
0.2183822244810444,-1.7311027384316363e-05,0.2183822244810444,-2.070465109166323e-05,0.2183822244810444,6.209867979870665e-07,0.2183822244810444,-2.4544543885774096e-05
0.2191763416609755,-1.328167559326861e-05,0.2191763416609755,-2.293680532524289e-05,0.2191763416609755,2.3391022033656944e-06,0.2191763416609755,-4.229847610144551e-05
0.2199704588409065,-9.806149647350066e-06,0.2199704588409065,-2.631139055366856e-05,0.2199704588409065,5.419652531916803e-06,0.2199704588409065,-5.537752902634602e-05
0.2207645760208376,-3.8214988068744e-06,0.2207645760208376,-2.572043362047024e-05,0.2207645760208376,6.487137048893225e-06,0.2207645760208376,-5.995165440834554e-05
0.2215586932007686,3.852662207953885e-07,0.2215586932007686,-2.268106984006489e-05,0.2215586932007686,5.045336873658017e-06,0.2215586932007686,-6.233147732597678e-05
0.2223528103806997,5.538581876782669e-06,0.2223528103806997,-2.16526e-05,0.2223528103806997,6.071986281935138e-06,0.2223528103806997,-6.28249656877439e-05
0.2231469275606308,9.23171e-06,0.2231469275606308,-2.0625635976078807e-05,0.2231469275606308,7.198184631588544e-06,0.2231469275606308,-6.442398049121527e-05
0.2239410447405619,5.60137735312263e-06,0.2239410447405619,-1.7426595694589883e-05,0.2239410447405619,5.20333e-06,0.2239410447405619,-6.385297721068142e-05
0.2247351619204929,-8.776379623123438e-07,0.2247351619204929,-1.584761112362627e-05,0.2247351619204929,6.742767293214091e-06,0.2247351619204929,-6.021950675176832e-05
0.225529279100424,-1.3724458661749834e-06,0.225529279100424,-1.792113609660101e-05,0.225529279100424,5.7365277483990215e-06,0.225529279100424,-5.972469695716107e-05
0.2263233962803551,-3.1808865461102058e-06,0.2263233962803551,-2.1197590180664668e-05,0.2263233962803551,4.650644297490179e-06,0.2263233962803551,-5.889465710752946e-05
0.2271175134602862,-9.568748328998705e-06,0.2271175134602862,-2.1928768758940516e-05,0.2271175134602862,3.721508832063754e-06,0.2271175134602862,-5.456932189771476e-05
0.2279116306402172,-1.4879804423557032e-05,0.2279116306402172,-2.137582475009873e-05,0.2279116306402172,2.9128273372943133e-06,0.2279116306402172,-4.410311079776721e-05
0.2287057478201483,-1.6083953792585827e-05,0.2287057478201483,-2.1474561162280917e-05,0.2287057478201483,3.663086733399163e-06,0.2287057478201483,-3.031189866324306e-05
0.2294998650000794,-1.5945602747911272e-05,0.2294998650000794,-2.16526e-05,0.2294998650000794,5.043260143922175e-07,0.2294998650000794,-1.427016617422119e-05
0.2302939821800104,-1.3380044209384748e-05,0.2302939821800104,-2.1494764196203294e-05,0.2302939821800104,2.6345730683577705e-06,0.2302939821800104,2.636604210898575e-07
0.2310880993599415,-7.654361429682202e-06,0.2310880993599415,-2.092279332293428e-05,0.2310880993599415,3.7041656563426858e-06,0.2310880993599415,4.412375635547313e-06
0.2318822165398726,-4.117948312106508e-06,0.2318822165398726,-2.056636122794936e-05,0.2318822165398726,-1.183232631813264e-06,0.2318822165398726,7.2958005219463986e-06
0.2326763337198036,-4.077126694154915e-06,0.2326763337198036,-2.194870436588828e-05,0.2326763337198036,-2.51774e-06,0.2326763337198036,8.441206694154916e-06
0.2334704508997347,-3.663615758339322e-06,0.2334704508997347,-2.1218646755140823e-05,0.2334704508997347,-2.537119686871063e-06,0.2334704508997347,1.8625001790348904e-05
0.2342645680796658,-2.85344e-06,0.2342645680796658,-2.256081255756318e-05,0.2342645680796658,-2.8239616505159824e-06,0.2342645680796658,4.6649237496597726e-05
0.2350586852595969,-1.9054984409891677e-06,0.2350586852595969,-2.2483152808254987e-05,0.2350586852595969,-2.814001039340555e-06,0.2350586852595969,7.416094873962993e-05
0.2358528024395279,6.278179529550401e-06,0.2358528024395279,-1.93027e-05,0.2358528024395279,-4.413389954730188e-06,0.2358528024395279,8.387534004526982e-05
0.236646919619459,1.789951511832078e-05,0.236646919619459,-2.1613246347417327e-05,0.236646919619459,-2.380082440839611e-06,0.236646919619459,6.311013247433513e-05
0.2374410367993901,1.699571762724961e-05,0.2374410367993901,-2.0714013537278983e-05,0.2374410367993901,5.425851845508152e-07,0.2374410367993901,2.940476457186416e-05
0.2382351539793211,8.661057191128529e-06,0.2382351539793211,-1.6667542614877053e-05,0.2382351539793211,1.6880768706357115e-06,0.2382351539793211,2.691682005774182e-06
0.2390292711592522,-2.5643946187332325e-07,0.2390292711592522,-1.9599579594933987e-05,0.2390292711592522,4.28510003416204e-06,0.2390292711592522,-1.5905858565194333e-05
0.2398233883391833,-6.467297142050978e-06,0.2398233883391833,-2.3171911582733573e-05,0.2398233883391833,5.424902742221619e-07,0.2398233883391833,-2.3054651428033986e-05
0.2406175055191144,-7.178178500573558e-06,0.2406175055191144,-2.1533558112745478e-05,0.2406175055191144,6.425394404072486e-07,0.2406175055191144,-2.1849295777889005e-05
0.2414116226990454,-9.74553172944162e-06,0.2414116226990454,-2.3746178056739847e-05,0.2414116226990454,4.650681742533827e-06,0.2414116226990454,-1.432543096549815e-05
0.2422057398789765,-1.3042856017866105e-05,0.2422057398789765,-2.319373192270277e-05,0.2422057398789765,3.110344215529445e-06,0.2422057398789765,-1.4326064784560943e-05
0.2429998570589076,-1.0239623782398644e-05,0.2429998570589076,-2.299520754272693e-05,0.2429998570589076,-2.852410275682581e-06,0.2429998570589076,-2.8363719765078636e-05
0.2437939742388386,-9.369562481626409e-06,0.2437939742388386,-2.60166e-05,0.2437939742388386,-1.0776238364685203e-06,0.2437939742388386,-3.762504361219806e-05
0.2445880914187697,-9.171921351746256e-06,0.2445880914187697,-2.29953e-05,0.2445880914187697,3.7409585939996343e-06,0.2445880914187697,-4.385692270349251e-05
0.2453822085987008,-1.0535364889066965e-05,0.2453822085987008,-2.309403703992652e-05,0.2453822085987008,3.3600334223113044e-06,0.2453822085987008,-4.327732444533482e-05
0.2461763257786318,-9.134237720409664e-06,0.2461763257786318,-2.4604970371976684e-05,0.2461763257786318,-2.653195699403672e-07,0.2461763257786318,-3.9861501615435526e-05
0.2469704429585629,-6.349217631826685e-06,0.2469704429585629,-2.5996114457743264e-05,0.2469704429585629,3.85892475468222e-06,0.2469704429585629,-3.8811936490897753e-05
0.247764560138494,-3.88052987474594e-06,0.247764560138494,-2.7379038017253645e-05,0.247764560138494,5.302253142752505e-06,0.247764560138494,-4.319620458465316e-05
0.2485586773184251,-2.85344e-06,0.2485586773184251,-2.8091026340036088e-05,0.2485586773184251,5.163879573313138e-06,0.2485586773184251,-4.3216194977528224e-05
0.2493527944983561,-2.300585778283521e-06,0.2493527944983561,-2.295771052324936e-05,0.2493527944983561,5.440418025265932e-06,0.2493527944983561,-3.92279672371879e-05
0.2501469116782872,-2.083007313552778e-06,0.2501469116782872,-2.0902230732949945e-05,0.2501469116782872,5.094646828388195e-06,0.2501469116782872,-3.43511970890125e-05
0.2509410288582183,-2.299117969751904e-06,0.2509410288582183,-2.358805139658321e-05,0.2509410288582183,5.894233091836279e-06,0.2509410288582183,-2.7304843975932108e-05
0.2517351460381494,-6.248724074235293e-06,0.2517351460381494,-2.445692610787381e-05,0.2517351460381494,6.723545429213534e-06,0.2517351460381494,-1.738932199550526e-05
0.2525292632180804,-8.066655789035174e-06,0.2525292632180804,-2.3943148423903855e-05,0.2525292632180804,4.749258945175864e-06,0.2525292632180804,-1.6597308421929655e-05
0.2533233803980115,-7.55322e-06,0.2533233803980115,-2.2207085136829643e-05,0.2533233803980115,1.8166671463385607e-06,0.2533233803980115,-1.7071491414645758e-05
0.2541174975779426,-7.55322e-06,0.2541174975779426,-1.936221064772513e-05,0.2541174975779426,1.67849e-06,0.2541174975779426,-1.76242e-05
0.2549116147578736,-6.4473538986901215e-06,0.2549116147578736,-1.801886142070412e-05,0.2549116147578736,3.999225635459831e-06,0.2549116147578736,-1.014921497500285e-05
0.2557057319378047,-8.61945655071868e-06,0.2557057319378047,-1.9933303557002208e-05,0.2557057319378047,7.375375247926568e-06,0.2557057319378047,-1.4819502579671415e-05
0.2564998491177358,-8.225044774043658e-06,0.2564998491177358,-2.098110240621178e-05,0.2564998491177358,7.88912738702183e-06,0.2564998491177358,-3.004206530758348e-05
0.2572939662976669,-4.118406953203063e-06,0.2572939662976669,-2.052653775890401e-05,0.2572939662976669,4.729788984401021e-06,0.2572939662976669,-3.956133457019541e-05
0.2580880834775979,-4.541104857148549e-06,0.2580880834775979,-1.8373434477299592e-05,0.2580880834775979,3.308734337884421e-06,0.2580880834775979,-3.9821750399984064e-05
0.258882200657529,-5.578158212313811e-06,0.258882200657529,-2.023063040885838e-05,0.258882200657529,2.8143106220806503e-06,0.258882200657529,-3.386128870912911e-05
0.2596763178374601,-6.150856905655253e-06,0.2596763178374601,-2.175155755614715e-05,0.2596763178374601,1.965466188689494e-06,0.2596763178374601,-2.5843383320826452e-05
0.2604704350173911,-8.707149324781518e-06,0.2604704350173911,-2.2817217208586592e-05,0.2604704350173911,1.8850536080533e-06,0.2604704350173911,-1.5910303557720178e-05
0.2612645521973222,-1.1146959695114091e-05,0.2612645521973222,-2.1376117866360437e-05,0.2612645521973222,6.427156937694026e-06,0.2612645521973222,-1.7096817410807185e-06
0.2620586693772533,-1.160133094635712e-05,0.2620586693772533,-2.259938264007312e-05,0.2620586693772533,7.75066583178035e-06,0.2620586693772533,1.256933462357896e-05
0.2628527865571843,-1.5155142985316878e-05,0.2628527865571843,-2.4319328375177827e-05,0.2628527865571843,2.7354728032573324e-06,0.2628527865571843,4.564972704312139e-05
0.2636469037371154,-1.7801674261586236e-05,0.2636469037371154,-2.2007973053397736e-05,0.2636469037371154,-1.8244332355352984e-06,0.2636469037371154,8.720493301625485e-05
0.2644410209170465,-1.76242e-05,0.2644410209170465,-2.329166031837988e-05,0.2644410209170465,-8.89601e-06,0.2644410209170465,0.0001013149000722
0.2652351380969776,-1.6341415030521735e-05,0.2652351380969776,-2.1515946014279957e-05,0.2652351380969776,-8.382896012208694e-06,0.2652351380969776,9.187614613429564e-05
0.2660292552769086,-1.379335452923889e-05,0.2660292552769086,-1.9658299979527272e-05,0.2660292552769086,-7.908717724541454e-06,0.2660292552769086,6.886913159628122e-05
0.2668233724568397,-1.1896960080329192e-05,0.2668233724568397,-2.03098e-05,0.2668233724568397,-5.182990080329193e-06,0.2668233724568397,3.375133850656121e-05
0.2676174896367708,-9.646114758641872e-06,0.2676174896367708,-1.869082092075547e-05,0.2676174896367708,-2.932144758641872e-06,0.2676174896367708,1.7997932941377205e-06
0.2684116068167018,-6.446883541580664e-06,0.2684116068167018,-1.82956e-05,0.2684116068167018,-6.329129994406642e-06,0.2684116068167018,-1.347804410487867e-05
0.2692057239966329,-2.9819504646381054e-06,0.2692057239966329,-2.0159520872934023e-05,0.2692057239966329,-4.670218190668037e-06,0.2692057239966329,-1.3635382286002056e-05
0.269999841176564,5.028043116466245e-07,0.269999841176564,-2.0813454110756023e-05,0.269999841176564,-4.19623e-06,0.269999841176564,-1.8629354958225347e-05
0.270793958356495,5.03548e-07,0.270793958356495,-1.999409757331557e-05,0.270793958356495,-2.85344e-06,0.270793958356495,-4.099615001232483e-05
0.2715880755364261,3.0005406253087378e-06,0.2715880755364261,-2.0942293034380517e-05,0.2715880755364261,-2.85344e-06,0.2715880755364261,-6.039099577722316e-05
0.2723821927163572,1.947299179457559e-06,0.2723821927163572,-1.991499000045813e-05,0.2723821927163572,-1.275899529087987e-06,0.2723821927163572,-6.310629261622693e-05
0.2731763098962882,-6.60540442065359e-07,0.2731763098962882,-2.0468121016799796e-05,0.2731763098962882,1.3319349744050822e-06,0.2731763098962882,-5.621335696561422e-05
0.2739704270762193,-5.342715985995136e-07,0.2739704270762193,-2.17610482916948e-05,0.2739704270762193,2.2611286593488998e-06,0.2739704270762193,-5.396838778132452e-05
0.2747645442561504,8.341098095358165e-06,0.2747645442561504,-2.0823138189535844e-05,0.2747645442561504,2.0041683553206213e-06,0.2747645442561504,-5.332720075637782e-05
0.2755586614360815,2.048764773001154e-05,0.2755586614360815,-2.1297502501518013e-05,0.2755586614360815,3.4656205498135627e-06,0.2755586614360815,-4.6474286869933565e-05
0.2763527786160125,1.9796900710176702e-05,0.2763527786160125,-1.93814689429584e-05,0.2763527786160125,2.754854488621916e-06,0.2763527786160125,-2.9296878293270888e-05
0.2771468957959436,1.5315555901760867e-05,0.2771468957959436,-2.1692087206178607e-05,0.2771468957959436,2.754384381498024e-06,0.2771468957959436,-1.4368978375768771e-05
0.2779410129758747,5.32867738197181e-06,0.2779410129758747,-2.222514777941624e-05,0.2779410129758747,3.49557814221086e-06,0.2779410129758747,-3.253895742996557e-06
0.2787351301558057,-9.4254863564101e-06,0.2787351301558057,-2.19883e-05,0.2787351301558057,2.6364630902232065e-06,0.2787351301558057,1.0530840175963684e-05
0.2795292473357368,-2.1138522802982654e-05,0.2795292473357368,-2.270934377106888e-05,0.2795292473357368,4.413329693399168e-06,0.2795292473357368,1.924325661725572e-05
0.2803233645156679,-3.121137972260948e-05,0.2803233645156679,-2.4929919107345084e-05,0.2803233645156679,5.657696764322478e-06,0.2803233645156679,1.5667751745589166e-05
0.2811174816955989,-3.50805e-05,0.2811174816955989,-2.185021559689291e-05,0.2811174816955989,4.728722319901181e-06,0.2811174816955989,5.319100452041376e-06
0.2819115988755301,-2.8543671897484008e-05,0.2819115988755301,-2.1336564079931717e-05,0.2819115988755301,5.045648535707393e-06,0.2819115988755301,-1.1287006868477516e-05
0.2827057160554611,-2.293622871469324e-05,0.2827057160554611,-2.0467440616220243e-05,0.2827057160554611,5.914322425173466e-06,0.2827057160554611,-2.9886004977915336e-05
0.2834998332353922,-2.1652720134933123e-05,0.2834998332353922,-2.098109213318144e-05,0.2834998332353922,6.545639463846151e-06,0.2834998332353922,-4.2463857706136925e-05
0.2842939504153233,-1.8701942450194677e-05,0.2842939504153233,-2.22060652737545e-05,0.2842939504153233,6.54612e-06,0.2842939504153233,-4.476624425740054e-05
0.2850880675952543,-1.5058246092671993e-05,0.2850880675952543,-2.291751240819261e-05,0.2850880675952543,8.164786953664006e-06,0.2850880675952543,-4.497443326301728e-05
0.2858821847751854,-1.328285670486486e-05,0.2858821847751854,-2.244214065056148e-05,0.2858821847751854,7.810675341480199e-06,0.2858821847751854,-4.1325085057297294e-05
0.2866763019551165,-8.701204511499217e-06,0.2866763019551165,-2.3883674617311864e-05,0.2866763019551165,7.631708196349617e-06,0.2866763019551165,-3.610934721460153e-05
0.2874704191350475,-4.612777930608319e-06,0.2874704191350475,-2.310381035216664e-05,0.2874704191350475,8.243943921182273e-06,0.2874704191350475,-3.205131531420557e-05
0.2882645363149786,-1.3842779785291308e-07,0.2882645363149786,-2.3785115186660184e-05,0.2882645363149786,8.343653151920393e-06,0.2882645363149786,-2.556321543050813e-05
0.2890586534949096,9.774862638037589e-07,0.2890586534949096,-2.492989284284167e-05,0.2890586534949096,3.3865629476519954e-06,0.2890586534949096,-1.920390306764608e-05
0.2898527706748408,1.17494e-06,0.2898527706748408,-2.3964949204568576e-05,0.2898527706748408,1.737771488662316e-06,0.2898527706748408,-1.211581870522022e-05
0.2906468878547718,4.84298389029147e-07,0.2906468878547718,-2.088245402978669e-05,0.2906468878547718,1.7280235422647165e-06,0.2906468878547718,-1.120016196762608e-06
0.2914410050347029,1.775968883222433e-07,0.2914410050347029,-2.09418295585563e-05,0.2914410050347029,9.388644332922366e-07,0.2914410050347029,1.3966221963108294e-05
0.292235122214634,9.770557674975242e-07,0.292235122214634,-1.944242770785928e-05,0.292235122214634,3.4523981231460666e-07,0.292235122214634,2.2539479103658343e-05
0.293029239394565,1.17494e-06,0.293029239394565,-1.809829221391513e-05,0.293029239394565,2.8336140976630287e-06,0.293029239394565,1.4070956190931092e-05
0.2938233565744961,1.886139908163552e-06,0.2938233565744961,-2.044652213517633e-05,0.2938233565744961,3.307795323070707e-06,0.2938233565744961,-3.3295465605057934e-06
0.2946174737544272,3.7424378781636657e-06,0.2946174737544272,-2.1119279266591937e-05,0.2946174737544272,3.86053e-06,0.2946174737544272,-1.4387497959262428e-05
0.2954115909343582,4.581497516103856e-06,0.2954115909343582,-2.0684838432893744e-05,0.2954115909343582,3.327320880097373e-06,0.2954115909343582,-2.131724811203836e-05
0.2962057081142893,8.678462569148748e-06,0.2962057081142893,-2.0566658781523747e-05,0.2962057081142893,2.991751122722951e-06,0.2962057081142893,-2.4061477754554097e-05
0.2969998252942204,1.1916796577423177e-05,0.2969998252942204,-2.13166174748347e-05,0.2969998252942204,2.182165855644206e-06,0.2969998252942204,-2.702294486613476e-05
0.2977939424741515,7.931367782435272e-06,0.2977939424741515,-2.2008224051826364e-05,0.2977939424741515,1.2350309964822584e-06,0.2977939424741515,-2.5179161612922105e-05
0.2985880596540825,1.1384183141509302e-06,0.2985880596540825,-1.99157703706618e-05,0.2985880596540825,5.03548e-07,0.2985880596540825,-1.9817903537090355e-05
0.2993821768340136,-4.805714087054504e-06,0.2993821768340136,-1.936178945348125e-05,0.2993821768340136,-1.6279765366347323e-06,0.2993821768340136,-1.6718126926730538e-05
0.3001762940139447,-7.986290748894413e-06,0.3001762940139447,-2.1099910002776308e-05,0.3001762940139447,-5.849091980203595e-07,0.3001762940139447,-1.2729642051824307e-05
0.3009704111938757,-1.1265222479760024e-05,0.3009704111938757,-2.2205186313419477e-05,0.3009704111938757,1.31380945303628e-06,0.3009704111938757,-1.146205619940006e-05
0.3017645283738068,-1.146325764761433e-05,0.3017645283738068,-2.1099604913629803e-05,0.3017645283738068,1.8657023130713248e-06,0.3017645283738068,-1.4780794527523855e-05
0.3025586455537379,-9.656279007362827e-06,0.3025586455537379,-2.3546112758775317e-05,0.3025586455537379,5.074967643178957e-06,0.3025586455537379,-1.17395851631861e-05
0.3033527627336689,-8.580316131015004e-06,0.3033527627336689,-2.5365865320287675e-05,0.3033527627336689,7.434651289661665e-06,0.3033527627336689,-1.09102e-05
0.3041468799136,-4.029842364165999e-06,0.3041468799136,-2.382467962622151e-05,0.3041468799136,3.623912074856107e-06,0.3041468799136,-1.0555267825835336e-05
0.3049409970935311,-3.2454256763217644e-06,0.3049409970935311,-2.3390385571526104e-05,0.3049409970935311,5.123185138434026e-06,0.3049409970935311,-9.48944936087406e-06
0.3057351142734621,-8.16451151687456e-06,0.3057351142734621,-2.35093007999928e-05,0.3057351142734621,6.417850084118824e-06,0.3057351142734621,-5.787496882132057e-06
0.3065292314533932,-1.055466265624078e-05,0.3065292314533932,-2.1889600529215548e-05,0.3065292314533932,2.0836235258798423e-06,0.3065292314533932,-4.561302304662147e-06
0.3073233486333243,-8.85553964053408e-06,0.3073233486333243,-2.3655490923775088e-05,0.3073233486333243,1.9649856489570048e-06,0.3073233486333243,-9.726527775560978e-06
0.3081174658132554,-1.0940983564239787e-06,0.3081174658132554,-2.394284826015349e-05,0.3081174658132554,3.4067206792932586e-06,0.3081174658132554,-2.011505638111036e-05
0.3089115829931864,-2.864855521564865e-07,0.3089115829931864,-2.4022074352962065e-05,0.3089115829931864,3.9394021883052815e-06,0.3089115829931864,-3.21980483290385e-05
0.3097057001731175,-4.037698587921174e-06,0.3097057001731175,-2.338939933583343e-05,0.3097057001731175,1.451587529331431e-06,0.3097057001731175,-3.168465812125173e-05
0.3104998173530486,-8.895220545787483e-06,0.3104998173530486,-2.433792280782268e-05,0.3104998173530486,-1.5098505465713742e-06,0.3104998173530486,-2.433967891626396e-05
0.3112939345329796,2.9061620105619342e-06,0.3112939345329796,-2.43381e-05,0.3112939345329796,-2.3799448485106884e-06,0.3112939345329796,-2.690348060595725e-05
0.3120880517129107,1.686957815126476e-05,0.3120880517129107,-2.3194939277461065e-05,0.3120880517129107,-8.39246e-07,0.3120880517129107,-2.9538900135034256e-05
0.3128821688928418,1.7849171082709687e-05,0.3128821688928418,-2.0586420819549128e-05,0.3128821688928418,-3.088077510264667e-06,0.3128821688928418,-3.1886516203761295e-05
0.3136762860727728,4.738368307010311e-06,0.3136762860727728,-2.1998436041405245e-05,0.3136762860727728,-4.86763e-06,0.3136762860727728,-2.3336861612215763e-05
0.314470403252704,-1.2720180518989876e-05,0.314470403252704,-2.3547945803338592e-05,0.314470403252704,-3.3473297684545205e-06,0.314470403252704,-1.119168363436155e-05
0.315264520432635,-3.097010151239061e-05,0.315264520432635,-2.0171921437601744e-05,0.315264520432635,-4.038435968946023e-06,0.315264520432635,1.6467750714267125e-06
0.3160586376125661,-4.702721280249752e-05,0.3160586376125661,-1.772320721819531e-05,0.3160586376125661,-2.8929471683854668e-06,0.3160586376125661,1.481996197340196e-05
0.3168527547924971,-4.98512e-05,0.3168527547924971,-1.8196160600238694e-05,0.3168527547924971,-3.959081113295874e-06,0.3168527547924971,2.5679369784564923e-05
0.3176468719724282,-4.641737534079e-05,0.3176468719724282,-2.0507230302244603e-05,0.3176468719724282,-3.751832495853933e-06,0.3176468719724282,3.3734684859033734e-05
0.3184409891523593,-3.664655818434074e-05,0.3184409891523593,-2.028983613629018e-05,0.3184409891523593,-5.064706640151691e-06,0.3184409891523593,4.114258442676779e-05
0.3192351063322903,-2.5525588334231583e-05,0.3192351063322903,-1.6421209892102272e-05,0.3192351063322903,-4.5128935557950895e-06,0.3192351063322903,4.530673524810054e-05
0.3200292235122214,-1.82369183184974e-05,0.3200292235122214,-1.65581022435875e-05,0.3200292235122214,-3.3272121178607683e-06,0.3200292235122214,5.630803046668395e-05
0.3208233406921525,-1.323989737739573e-05,0.3208233406921525,-1.9183282521282345e-05,0.3208233406921525,-4.018280455665508e-06,0.3208233406921525,4.9512936141585565e-05
0.3216174578720835,-8.618367802138134e-06,0.3216174578720835,-2.013111396136933e-05,0.3216174578720835,-2.3001676925261363e-06,0.3216174578720835,2.678141538789205e-05
0.3224115750520147,-3.2876075829243898e-06,0.3224115750520147,-2.22648673937934e-05,0.3224115750520147,-1.2812347380942808e-07,0.3224115750520147,-2.321915694221728e-06
0.3232056922319457,-8.590749531597003e-07,0.3232056922319457,-2.3803875620024125e-05,0.3232056922319457,4.808150437132273e-06,0.3232056922319457,-2.7653669986612465e-05
0.3239998094118768,1.1742535195755786e-06,0.3239998094118768,-2.36669465527282e-05,0.3239998094118768,6.545845405867092e-06,0.3239998094118768,-4.212786594987028e-05
0.3247939265918079,4.334013685461958e-06,0.3247939265918079,-2.0941287037611485e-05,0.3247939265918079,5.500201523991832e-06,0.3247939265918079,-3.699953051630434e-05
0.3255880437717389,5.814868447113586e-06,0.3255880437717389,-1.9341565873498108e-05,0.3255880437717389,3.584691552886415e-06,0.3255880437717389,-2.4918509139909663e-05
0.32638216095167,5.87472e-06,0.32638216095167,-2.0171484453710245e-05,0.32638216095167,4.6883316866515e-06,0.32638216095167,-1.3126592610542204e-05
0.3271762781316011,7.531361587745912e-06,0.3271762781316011,-1.9934540252349048e-05,0.3271762781316011,6.426936604199507e-06,0.3271762781316011,-8.048822563303964e-06
0.3279703953115321,1.3514798186120428e-05,0.3279703953115321,-2.02892220004702e-05,0.3279703953115321,7.75001410792044e-06,0.3279703953115321,-1.2615721244999809e-05
0.3287645124914632,1.59457e-05,0.3287645124914632,-2.188935110267373e-05,0.3287645124914632,8.56031e-06,0.3287645124914632,-1.967702165334305e-05
0.3295586296713942,1.405005766855409e-05,0.3295586296713942,-2.3942050620669656e-05,0.3295586296713942,7.13858766280635e-06,0.3295586296713942,-2.167235961142568e-05
0.3303527468513254,7.850494875371711e-06,0.3303527468513254,-2.425935160310225e-05,0.3303527468513254,5.38119673222285e-06,0.3303527468513254,-2.250097408869752e-05
0.3311468640312564,4.848432223917585e-06,0.3311468640312564,-2.4259099913858938e-05,0.3311468640312564,2.488943335876378e-06,0.3311468640312564,-2.7733495552164828e-05
0.3319409812111875,3.685222684599148e-06,0.3319409812111875,-2.3864222279213967e-05,0.3319409812111875,1.8852973875081365e-06,0.3319409812111875,-2.815223436870525e-05
0.3327350983911186,6.966464977772853e-08,0.3327350983911186,-2.323307549211164e-05,0.3327350983911186,3.030796780680306e-06,0.3327350983911186,-2.2108592512562227e-05
0.3335292155710496,4.096929458588431e-06,0.3335292155710496,-2.416055350753289e-05,0.3335292155710496,3.18914e-06,0.3335292155710496,-2.03098e-05
0.3343233327509807,9.429810680709122e-06,0.3343233327509807,-2.5089121905752992e-05,0.3343233327509807,3.821386915281308e-06,0.3343233327509807,-1.943080132531693e-05
0.3351174499309118,1.19173e-05,0.3351174499309118,-2.4890355428185687e-05,0.3351174499309118,6.388594651030181e-06,0.3351174499309118,-1.8315284949662373e-05
0.3359115671108428,3.646514383215544e-07,0.3359115671108428,-2.3152777007939257e-05,0.3359115671108428,6.348622195462471e-06,0.3359115671108428,-1.8967e-05
0.3367056842907739,-1.2094326875169029e-05,0.3367056842907739,-1.995364014031911e-05,0.3367056842907739,4.17689226226518e-06,0.3367056842907739,-1.6025036562415486e-05
0.337499801470705,-1.795861284000216e-05,0.337499801470705,-2.1652086348482986e-05,0.337499801470705,2.51774e-06,0.337499801470705,-1.644841342352497e-05
0.338293918650636,-2.230258224788103e-05,0.338293918650636,-2.09812e-05,0.338293918650636,4.689106384010476e-06,0.338293918650636,-2.466994334505382e-05
0.3390880358305671,-2.279751554477717e-05,0.3390880358305671,-2.102005560046773e-05,0.3390880358305671,5.500000791131679e-06,0.3390880358305671,-3.1405977723885843e-05
0.3398821530104982,-2.327576184743772e-05,0.3398821530104982,-2.184997931719509e-05,0.3398821530104982,4.297361285558278e-06,0.3398821530104982,-3.12705150604887e-05
0.3406762701904293,-1.58921586977814e-05,0.3406762701904293,-2.392329075797265e-05,0.3406762701904293,3.069945162777325e-06,0.3406762701904293,-3.093290516277733e-05
0.3414703873703603,-1.2569411844506596e-05,0.3414703873703603,-2.1812515909686537e-05,0.3414703873703603,2.3402459222532984e-06,0.3414703873703603,-3.31048763109868e-05
0.3422645045502914,-9.251867703580755e-06,0.3422645045502914,-2.133630465268208e-05,0.3422645045502914,3.5046799465361905e-06,0.3422645045502914,-3.37377e-05
0.3430586217302225,-7.908675344439371e-06,0.3430586217302225,-2.311367651635453e-05,0.3430586217302225,4.53193e-06,0.3430586217302225,-3.2789896033318114e-05
0.3438527389101535,-6.43756295468974e-06,0.3438527389101535,-2.268035041490719e-05,0.3438527389101535,-5.619597899572707e-07,0.3438527389101535,-2.842667318441532e-05
0.3446468560900846,-6.4470070513609e-06,0.3446468560900846,-2.088251566796876e-05,0.3446468560900846,-1.0374690686863962e-06,0.3446468560900846,-2.589830647431955e-05
0.3454409732700157,-7.061736894147285e-06,0.3454409732700157,-2.023093607781861e-05,0.3454409732700157,1.2333588822211392e-06,0.3454409732700157,-2.3471976193299437e-05
0.3462350904499467,-1.453671719018385e-06,0.3462350904499467,-2.16526e-05,0.3462350904499467,2.823346674072573e-06,0.3462350904499467,-1.7488050634080678e-05
0.3470292076298778,2.655782497961296e-06,0.3470292076298778,-2.111951002967237e-05,0.3470292076298778,1.491301684304972e-06,0.3470292076298778,-1.4622771668025802e-05
0.3478233248098089,3.0705286753096448e-06,0.3478233248098089,-2.346763146304484e-05,0.3478233248098089,-1.332724426265923e-06,0.3478233248098089,-1.3358577350619288e-05
0.34861744198974,1.4724861766911424e-07,0.34861744198974,-2.2719182558937508e-05,0.34861744198974,8.907462491498489e-08,0.34861744198974,-9.88250773499817e-06
0.349411559169671,-4.23587861767371e-06,0.349411559169671,-2.0743942947252582e-05,0.349411559169671,-5.628313781497328e-07,0.349411559169671,-9.3600981072857e-06
0.3502056763496021,-7.651888567307395e-06,0.3502056763496021,-2.09402597345776e-05,0.3502056763496021,-7.405750812715364e-07,0.3502056763496021,-8.87671239319022e-06
0.3509997935295332,-7.553368734057925e-06,0.3509997935295332,-2.299476584220473e-05,0.3509997935295332,-1.6799773804555218e-07,0.3509997935295332,-2.519822329979313e-06
0.3517939107094642,-8.263404078267437e-06,0.3517939107094642,-2.058569219459951e-05,0.3517939107094642,3.0299848316745384e-06,0.3517939107094642,-6.887996633490767e-08
0.3525880278893953,-1.065252943529044e-05,0.3525880278893953,-1.8670145327437488e-05,0.3525880278893953,3.79157509411826e-06,0.3525880278893953,-2.712809480099449e-06
0.3533821450693264,-1.233117849364681e-05,0.3533821450693264,-1.9598731873614356e-05,0.3533821450693264,3.1109615063531885e-06,0.3533821450693264,-7.350888633060681e-06
0.3541762622492574,-1.29244e-05,0.3541762622492574,-1.9342249494376404e-05,0.3541762622492574,2.931885291016308e-06,0.3541762622492574,-1.3947265467452923e-05
0.3549703794291886,-1.0694158214821818e-05,0.3549703794291886,-2.0506121575172272e-05,0.3549703794291886,3.18914e-06,0.3549703794291886,-2.4037002626626225e-05
0.3557644966091196,-8.145730146606313e-06,0.3557644966091196,-2.323202764301699e-05,0.3557644966091196,3.0607299266968435e-06,0.3557644966091196,-3.44091e-05
0.3565586137890507,-8.520767845093804e-06,0.3565586137890507,-2.315471299053539e-05,0.3565586137890507,3.18914e-06,0.3565586137890507,-2.998609508434338e-05
0.3573527309689818,-7.958249752118923e-06,0.3573527309689818,-1.9916109380662995e-05,0.3573527309689818,1.6493065695725138e-06,0.3573527309689818,-2.242433930922359e-05
0.3581468481489128,-6.21042e-06,0.3581468481489128,-1.86313e-05,0.3581468481489128,-1.13496336749724e-06,0.3581468481489128,-1.28094232556144e-05
0.3589409653288439,-6.8623527722733485e-06,0.3589409653288439,-2.1820567825621485e-05,0.3589409653288439,-1.9047416831799537e-06,0.3589409653288439,6.09991684947965e-08
0.3597350825087749,-6.033086102164189e-06,0.3597350825087749,-2.2039043094129248e-05,0.3597350825087749,-1.8273722043283788e-06,0.3597350825087749,1.795327862195323e-05
0.360529199688706,-7.602344854610071e-06,0.360529199688706,-1.9519902629097063e-05,0.360529199688706,1.877325206047647e-07,0.360529199688706,3.099245067165609e-05
0.3613233168686371,-8.89601e-06,0.3613233168686371,-1.974647412184381e-05,0.3613233168686371,-7.799464116571951e-07,0.3613233168686371,2.4040618948614177e-05
0.3621174340485681,-8.303396193099634e-06,0.3621174340485681,-2.16526e-05,0.3621174340485681,2.3721572800998466e-07,0.3621174340485681,1.558944477239854e-05
0.3629115512284993,-7.948186794198106e-06,0.3629115512284993,-2.0388579596090864e-05,0.3629115512284993,3.900138486748669e-06,0.3629115512284993,2.177135428049118e-05
0.3637056684084303,-6.6844884528599385e-06,0.3637056684084303,-2.161159223891984e-05,0.3637056684084303,1.432422368940779e-06,0.3637056684084303,3.9599835778175615e-05
0.3644997855883614,-6.21042e-06,0.3644997855883614,-2.165287733050674e-05,0.3644997855883614,-1.5104855408002543e-06,0.3644997855883614,6.092373946880915e-05
0.3652939027682925,-6.408370712620276e-06,0.3652939027682925,-2.066542566210326e-05,0.3652939027682925,2.259589631135711e-06,0.3652939027682925,6.377608205182468e-05
0.3660880199482235,-4.3849657243757854e-06,0.3660880199482235,-2.0429059074086315e-05,0.3660880199482235,2.4397277637506733e-06,0.3660880199482235,4.2896145299569526e-05
0.3668821371281546,1.4495725552272203e-06,0.3668821371281546,-2.003313808832949e-05,0.3668821371281546,1.214023513809682e-06,0.3668821371281546,1.334316434871366e-05
0.3676762543080857,1.5424922799329236e-05,0.3676762543080857,-2.181076569128201e-05,0.3676762543080857,1.2345488600335385e-06,0.3676762543080857,-1.7388971185332503e-05
0.3684703714880167,1.5127736429181656e-05,0.3684703714880167,-2.266994442347506e-05,0.3684703714880167,1.17494e-06,0.3684703714880167,-3.509567009016574e-05
0.3692644886679478,9.90504679302296e-06,0.3692644886679478,-2.101077957318236e-05,0.3692644886679478,3.919200663412863e-06,0.3692644886679478,-4.293912130067313e-05
0.3700586058478789,-4.634880150228175e-07,0.3700586058478789,-1.972896634846591e-05,0.3700586058478789,5.20333e-06,0.3700586058478789,-4.5427769568599646e-05
0.3708527230278099,-1.2240969752001816e-05,0.3708527230278099,-1.793913194940895e-05,0.3708527230278099,5.637528782024398e-06,0.3708527230278099,-4.296034629946688e-05
0.371646840207741,-1.69528e-05,0.371646840207741,-2.1533768580666252e-05,0.371646840207741,7.21752e-06,0.371646840207741,-3.881489734381664e-05
0.3724409573876721,-1.6368973827564317e-05,0.3724409573876721,-2.471326272091432e-05,0.3724409573876721,6.268804484138768e-06,0.3724409573876721,-3.2000815515861233e-05
0.3732350745676032,-1.7920293819529133e-05,0.3732350745676032,-2.20687972659847e-05,0.3732350745676032,9.269594543484532e-06,0.3732350745676032,-3.3104189825654815e-05
0.3740291917475342,-1.3675378203480703e-05,0.3740291917475342,-2.0823220703051036e-05,0.3740291917475342,6.349681263462371e-06,0.3740291917475342,-4.36494965561829e-05
0.3748233089274653,-1.055443644074822e-05,0.3748233089274653,-2.277626110149833e-05,0.3748233089274653,2.636328441845925e-06,0.3748233089274653,-4.7510890616353694e-05
0.3756174261073964,-7.118211803748936e-06,0.3756174261073964,-2.224549578006134e-05,0.3756174261073964,8.187376976023681e-07,0.3756174261073964,-4.406478652400229e-05
0.3764115432873274,-7.395297750327062e-06,0.3764115432873274,-2.2916505726193784e-05,0.3764115432873274,-4.709713632978403e-06,0.3764115432873274,-4.3324911532494106e-05
0.3772056604672585,-6.72422273615321e-06,0.3772056604672585,-2.536569067877196e-05,0.3772056604672585,-7.325787243568632e-06,0.3772056604672585,-4.693818487717731e-05
0.3779997776471896,-4.86795035982166e-06,0.3779997776471896,-2.182176629161388e-05,0.3779997776471896,-1.0908998655440296e-05,0.3779997776471896,-4.615938101336716e-05
0.3787938948271206,-5.657382403836409e-06,0.3787938948271206,-2.185027011736132e-05,0.3787938948271206,-9.963331408797124e-06,0.3787938948271206,-3.557958396512506e-05
0.3795880120070517,-5.281320929423093e-06,0.3795880120070517,-2.1594362827934903e-05,0.3795880120070517,-3.2727605537082866e-06,0.3795880120070517,-2.256918243444939e-05
0.3803821291869828,-5.6793322600885705e-06,0.3803821291869828,-2.143495563059837e-05,0.3803821291869828,4.766395520707424e-06,0.3803821291869828,-9.769868958585152e-06
0.3811762463669139,-3.36798196640495e-06,0.3811762463669139,-2.404193924110192e-05,0.3811762463669139,4.889615708638937e-06,0.3811762463669139,-6.486505419255337e-06
0.3819703635468449,-1.1171832644137942e-06,0.3819703635468449,-2.347041951694916e-05,0.3819703635468449,-2.8880632131672536e-08,0.3819703635468449,-3.3708030957910634e-06
0.382764480726776,4.965703916471369e-06,0.382764480726776,-2.1770925649103604e-05,0.382764480726776,1.3326768239429773e-06,0.382764480726776,1.1005228421744327e-05
0.3835585979067071,4.32481594333076e-06,0.3835585979067071,-2.2797234297236837e-05,0.3835585979067071,-4.9154387338710396e-08,0.3835585979067071,2.8128512131989505e-05
0.3843527150866381,-1.667413155404813e-06,0.3843527150866381,-2.133768859665177e-05,0.3843527150866381,-2.3790275663176584e-06,0.3843527150866381,3.5594086997586434e-05
0.3851468322665692,-6.2486844365615175e-06,0.3851468322665692,-2.1978177660220006e-05,0.3851468322665692,-2.8343110200819664e-06,0.3851468322665692,1.820690227396672e-05
0.3859409494465003,-7.562947880849637e-06,0.3859409494465003,-2.234370375709057e-05,0.3859409494465003,-1.452273178548568e-06,0.3859409494465003,-3.519886210213697e-06
0.3867350666264313,-8.618831635320351e-06,0.3867350666264313,-2.0745198742678417e-05,0.3867350666264313,7.78970368381011e-07,0.3867350666264313,-8.89601e-06
0.3875291838063624,-9.923010695807582e-06,0.3875291838063624,-1.827583870638233e-05,0.3875291838063624,-1.280371933060578e-07,0.3875291838063624,-7.908820695807582e-06
0.3883233009862935,-8.56031e-06,0.3883233009862935,-1.8215937081149013e-05,0.3883233009862935,-1.668475559033715e-06,0.3883233009862935,-8.738175500635637e-06
0.3891174181662246,-9.152900874845532e-06,0.3891174181662246,-2.0388229932957133e-05,0.3891174181662246,3.459304539727884e-07,0.3891174181662246,-1.3419241860298827e-05
0.3899115353461556,-9.56741e-06,0.3899115353461556,-2.1613189655893808e-05,0.3899115353461556,8.293804752222888e-07,0.3899115353461556,-2.477268085604436e-05
0.3907056525260867,-1.05155857085935e-05,0.3907056525260867,-2.398189904819777e-05,0.3907056525260867,3.18914e-06,0.3907056525260867,-2.6827115076982424e-05
0.3914997697060178,-8.560807701865861e-06,0.3914997697060178,-2.43381e-05,0.3914997697060178,3.860198203698024e-06,0.3914997697060178,-1.9976256658666088e-05
0.3922938868859488,-9.70512930399401e-06,0.3922938868859488,-2.2284142732632912e-05,0.3922938868859488,5.005356355324891e-06,0.3922938868859488,-1.633087866782318e-05
0.3930880040658799,-9.360571080916438e-06,0.3930880040658799,-1.9696621762519636e-05,0.3930880040658799,6.21042e-06,0.3930880040658799,-1.9141018739946127e-05
0.393882121245811,-1.0316944095564529e-05,0.393882121245811,-2.2125661388397634e-05,0.393882121245811,6.6633361433467945e-06,0.393882121245811,-2.739129686008077e-05
0.394676238425742,-9.253730032735268e-06,0.394676238425742,-2.4525761168922156e-05,0.394676238425742,7.55322e-06,0.394676238425742,-3.6319636081074784e-05
0.3954703556056732,2.580797531251898e-06,0.3954703556056732,-2.4456885015752443e-05,0.3954703556056732,7.800179689149817e-06,0.3954703556056732,-3.755014402548837e-05
0.3962644727856042,1.1955664221343558e-05,0.3962644727856042,-2.471307394182353e-05,0.3962644727856042,7.88891e-06,0.3962644727856042,-3.525847461747921e-05
0.3970585899655353,1.584675861752898e-05,0.3970585899655353,-2.473425191207544e-05,0.3970585899655353,7.88891e-06,0.3970585899655353,-3.5060711723505794e-05
0.3978527071454664,1.377478841434274e-05,0.3978527071454664,-2.35879772856781e-05,0.3978527071454664,8.106001158565726e-06,0.3978527071454664,-3.72916646342629e-05
0.3986468243253974,4.653797548197272e-06,0.3986468243253974,-2.461437115641547e-05,0.3986468243253974,7.375814109561537e-06,0.3986468243253974,-3.415526460157269e-05
0.3994409415053285,-3.716804371908177e-06,0.3994409415053285,-2.1909238841199876e-05,0.3994409415053285,6.351620871918963e-06,0.3994409415053285,-2.7116277538366732e-05
0.4002350586852595,-1.2132400227101816e-05,0.4002350586852595,-1.957893044439621e-05,0.4002350586852595,1.1371478183185463e-06,0.4002350586852595,-1.8417992148206243e-05
0.4010291758651906,-5.758115880894747e-06,0.4010291758651906,-1.995435411592772e-05,0.4010291758651906,-1.2801431056396897e-07,0.4010291758651906,-6.567489730322859e-06
0.4018232930451217,3.841247042618033e-06,0.4018232930451217,-1.959856341393723e-05,0.4018232930451217,-2.3795313897503806e-06,0.4018232930451217,2.301309278624129e-06
0.4026174102250527,8.215114843814502e-06,0.4026174102250527,-2.248078792731948e-05,0.4026174102250527,-2.814029704409077e-06,0.4026174102250527,1.4367865549356089e-05
0.4034115274049838,2.527640015514693e-06,0.4034115274049838,-2.3034720617136496e-05,0.4034115274049838,-4.966364569734504e-06,0.4034115274049838,2.9807997626194187e-05
0.4042056445849149,-1.1658167148215891e-05,0.4042056445849149,-2.078580739578623e-05,0.4042056445849149,-3.32753578953543e-06,0.4042056445849149,4.169434780653012e-05
0.404999761764846,-2.7858108817569003e-05,0.404999761764846,-1.7625201597507003e-05,0.404999761764846,-3.1889683786669226e-06,0.404999761764846,4.884238378666922e-05
0.4057938789447771,-3.7546567001838814e-05,0.4057938789447771,-1.705227421506095e-05,0.4057938789447771,1.00490622835433e-06,0.4057938789447771,3.834722483819205e-05
0.4065879961247081,-3.114170672903195e-05,0.4065879961247081,-2.0942395764683893e-05,0.4065879961247081,3.4649096519737512e-06,0.4065879961247081,1.58374936087406e-05
0.4073821133046392,-1.2697277087777624e-05,0.4073821133046392,-1.9816386519106622e-05,0.4073821133046392,3.5443631573842683e-06,0.4073821133046392,8.872839354421312e-06
0.4081762304845703,-3.6661446249949774e-06,0.4081762304845703,-1.69528e-05,0.4081762304845703,3.830716988916582e-06,0.4081762304845703,9.589464356831164e-06
0.4089703476645013,-8.536691540007173e-06,0.4089703476645013,-1.847116893412656e-05,0.4089703476645013,4.807743685478052e-06,0.4089703476645013,1.946884852519796e-06
0.4097644648444324,-1.6013266906471602e-05,0.4097644648444324,-2.0802978694172523e-05,0.4097644648444324,6.121426970549271e-06,0.4097644648444324,4.806808948529264e-06
0.4105585820243635,-2.181015391442897e-05,0.4105585820243635,-2.114068601982365e-05,0.4105585820243635,5.904411014261838e-06,0.4105585820243635,6.625295448397684e-06
0.4113526992042945,-2.421948542555201e-05,0.4113526992042945,-1.93027e-05,0.4113526992042945,7.533069810006481e-06,0.4113526992042945,-2.2581199621955967e-06
0.4121468163842256,-2.36667e-05,0.4121468163842256,-1.9559369094767902e-05,0.4121468163842256,8.125439721223855e-06,0.4121468163842256,-1.971104572841596e-05
0.4129409335641567,-2.2839751426789477e-05,0.4129409335641567,-1.99741e-05,0.4129409335641567,7.13974281731257e-06,0.4129409335641567,-3.2628231548062286e-05
0.4137350507440878,-1.8257847471411764e-05,0.4137350507440878,-1.914542407635683e-05,0.4137350507440878,5.618233574500378e-06,0.4137350507440878,-3.693628813214706e-05
0.4145291679240188,-1.5422967360066283e-05,0.4145291679240188,-2.1692025656582587e-05,0.4145291679240188,4.729673312705203e-06,0.4145291679240188,-3.4133186625410404e-05
0.4153232851039499,-1.0258155884863509e-05,0.4153232851039499,-2.4326706358725187e-05,0.4153232851039499,2.280631764841448e-06,0.4153232851039499,-3.4784724705475654e-05
0.416117402283881,-5.736108968878623e-06,0.416117402283881,-2.54832330379554e-05,0.416117402283881,1.17494e-06,0.416117402283881,-4.165720765674466e-05
0.416911519463812,-3.8013031870894426e-06,0.416911519463812,-2.2837039005750644e-05,0.416911519463812,1.0367058771718746e-06,0.416911519463812,-4.375934408164628e-05
0.4177056366437431,-2.9719685792424155e-06,0.4177056366437431,-2.2440499311865964e-05,0.4177056366437431,1.8861114754544944e-06,0.4177056366437431,-3.7372279173172624e-05
0.4184997538236742,-2.182394684088243e-06,0.4184997538236742,-2.450544266438771e-05,0.4184997538236742,-1.1736986162566577e-06,0.4184997538236742,-3.2395964052264726e-05
0.4192938710036052,1.824754635554806e-06,0.4192938710036052,-2.3567885091684754e-05,0.4192938710036052,-7.618360760802225e-07,0.4192938710036052,-3.339122073577598e-05
0.4200879881835363,2.51774e-06,0.4200879881835363,-2.090361207542854e-05,0.4200879881835363,2.1430682799576225e-06,0.4200879881835363,-3.393551885330508e-05
0.4208821053634674,2.221100581754888e-06,0.4208821053634674,-2.082249098862444e-05,0.4208821053634674,-1.7450023269731254e-06,0.4208821053634674,-3.0290424473560698e-05
0.4216762225433985,4.72627783331664e-06,0.4216762225433985,-2.2185572372617576e-05,0.4216762225433985,-3.52483e-06,0.4216762225433985,-1.9398778361540795e-05
0.4224703397233295,7.433413481140326e-06,0.4224703397233295,-2.255884831658015e-05,0.4224703397233295,-4.0745303771934667e-07,0.4224703397233295,-1.075644923057861e-05
0.4232644569032606,1.0317651249838187e-05,0.4232644569032606,-2.5740056228178405e-05,0.4232644569032606,2.360037500323625e-06,0.4232644569032606,-5.083886400006728e-06
0.4240585740831917,1.025859974252162e-05,0.4240585740831917,-2.4478398750914796e-05,0.4240585740831917,8.986448736820645e-07,0.4240585740831917,-1.1304404784306636e-05
0.4248526912631227,1.029812782133696e-05,0.4248526912631227,-2.183087511741696e-05,0.4248526912631227,-1.9447993850766186e-06,0.4248526912631227,-1.4701359385076618e-05
0.4256468084430538,7.663831374378064e-06,0.4256468084430538,-2.0803572083494503e-05,0.4256468084430538,-6.027288016321865e-07,0.4256468084430538,-1.3557645234410564e-05
0.4264409256229849,2.3622321356851885e-06,0.4264409256229849,-2.167224736324987e-05,0.4264409256229849,-8.975613405469939e-07,0.4264409256229849,-1.087132287468374e-05
0.4272350428029159,-1.1937955050865988e-06,0.4272350428029159,-2.305477982863413e-05,0.4272350428029159,-1.5898516546375638e-06,0.4272350428029159,-1.0110594029336262e-05
0.428029159982847,-3.2654589010035984e-07,0.428029159982847,-2.186982831167294e-05,0.428029159982847,-3.011319841720475e-06,0.428029159982847,-9.429465177842498e-06
0.4288232771627781,4.946827600945758e-06,0.4288232771627781,-2.283592451242725e-05,0.4288232771627781,-3.86053e-06,0.4288232771627781,-1.1029040221803407e-05
0.4296173943427092,6.585541761618339e-06,0.4296173943427092,-2.4614155802880426e-05,0.4296173943427092,-3.2679823489214687e-06,0.4296173943427092,-1.6598004145434944e-05
0.4304115115226402,-5.033286845698954e-07,0.4304115115226402,-2.2797644071190165e-05,0.4304115115226402,-1.1153968328119267e-10,0.4304115115226402,-1.1660852413137226e-05
0.4312056287025713,-6.783182891498479e-06,0.4312056287025713,-2.2837715885446634e-05,0.4312056287025713,4.21612433724772e-06,0.4312056287025713,-3.4659845042455875e-06
0.4319997458825024,-3.5264775593440432e-06,0.4319997458825024,-2.114973963370304e-05,0.4319997458825024,2.518472245567816e-06,0.4319997458825024,-2.3499815313776225e-06
0.4327938630624334,-2.18204e-06,0.4327938630624334,-2.1514561445427253e-05,0.4327938630624334,3.6625249064240527e-06,0.4327938630624334,-2.6167440213787e-06
0.4335879802423645,-4.3520824820875205e-06,0.4335879802423645,-2.23239e-05,0.4335879802423645,5.616952133941774e-06,0.4335879802423645,-4.430010508927308e-06
0.4343820974222956,-7.334683382838053e-06,0.4343820974222956,-2.23239e-05,0.4343820974222956,5.20333e-06,0.4343820974222956,-1.005931939496464e-05
0.4351762146022266,-8.500672536410922e-06,0.4351762146022266,-2.291626253089424e-05,0.4351762146022266,5.755446849332527e-06,0.4351762146022266,-1.1521962536410922e-05
0.4359703317821577,-8.22461e-06,0.4359703317821577,-2.210706503643131e-05,0.4359703317821577,4.848421934461975e-06,0.4359703317821577,-1.3634216131076053e-05
0.4367644489620888,-9.468244238691046e-06,0.4367644489620888,-2.183003565476582e-05,0.4367644489620888,4.374238941745854e-06,0.4367644489620888,-1.35958e-05
0.4375585661420199,-1.087058904892938e-05,0.4375585661420199,-2.242295335793063e-05,0.4375585661420199,1.965172263236414e-06,0.4375585661420199,-1.5175272622323457e-05
0.438352683321951,-1.3555443757147723e-05,0.438352683321951,-2.331012921910561e-05,0.438352683321951,1.3718386650520844e-06,0.438352683321951,-2.1334570770264703e-05
0.439146800501882,-1.270891715357336e-05,0.439146800501882,-2.562139410868784e-05,0.439146800501882,3.366516569285328e-06,0.439146800501882,-2.958715431335217e-05
0.4399409176818131,-9.9419656592888e-06,0.4399409176818131,-2.445671886141944e-05,0.4399409176818131,3.821664919586077e-06,0.4399409176818131,-3.67951476056406e-05
0.4407350348617442,-1.1856913123256762e-05,0.4407350348617442,-1.9561831931812994e-05,0.4407350348617442,3.18914e-06,0.4407350348617442,-3.985951737534865e-05
0.4415291520416752,-1.04964376137488e-05,0.4415291520416752,-1.9895032759059525e-05,0.4415291520416752,1.807311158291156e-06,0.4415291520416752,-3.520021054788705e-05
0.4423232692216063,-7.671749469300987e-06,0.4423232692216063,-2.068535196597453e-05,0.4423232692216063,-1.9056056173674632e-06,0.4423232692216063,-2.3488089811743264e-05
0.4431173864015373,-8.372746252683966e-06,0.4431173864015373,-2.007118211940018e-05,0.4431173864015373,-4.0441291075501947e-07,0.4431173864015373,-2.001787158485844e-06
0.4439115035814684,-8.757761940427879e-06,0.4439115035814684,-2.16526e-05,0.4439115035814684,1.5698438808557569e-06,0.4439115035814684,4.84028478460363e-07
0.4447056207613995,-7.454588624512208e-06,0.4447056207613995,-1.9501363065885477e-05,0.4447056207613995,2.715002750975583e-06,0.4447056207613995,-4.393492750975584e-06
0.4454997379413306,-9.062821696558543e-06,0.4454997379413306,-2.030912197999747e-05,0.4454997379413306,3.5246412221572075e-06,0.4454997379413306,-6.8806873048253605e-06
0.4462938551212617,-9.094029508784754e-06,0.4462938551212617,-2.14946820119606e-05,0.4462938551212617,4.432920245607623e-06,0.4462938551212617,-2.4406139317827243e-05
0.4470879723011927,-9.705275573736334e-06,0.4470879723011927,-2.0232253167549914e-05,0.4470879723011927,3.86053e-06,0.4470879723011927,-3.831757872267017e-05
0.4478820894811238,-1.02388e-05,0.4478820894811238,-1.975635290029485e-05,0.4478820894811238,4.53193e-06,0.4478820894811238,-3.6189005305635416e-05
0.4486762066610549,-9.134580960519554e-06,0.4486762066610549,-1.978644908129805e-05,0.4486762066610549,3.703759552900485e-06,0.4486762066610549,-2.9992190948802587e-05
0.4494703238409859,-8.93440324823164e-06,0.4494703238409859,-2.02890833145606e-05,0.4494703238409859,2.34029168794209e-06,0.4494703238409859,-1.67608337588418e-05
0.450264441020917,-1.0989039808415949e-05,0.450264441020917,-2.13169e-05,0.450264441020917,1.7878428367360644e-06,0.450264441020917,-5.079948160664517e-06
0.4510585582008481,-1.0614122417097994e-05,0.4510585582008481,-2.179018303086428e-05,0.4510585582008481,-4.441146104114951e-07,0.4510585582008481,1.1422021556713717e-05
0.4518526753807791,-9.784471760373672e-06,0.4518526753807791,-2.335994369855469e-05,0.4518526753807791,-1.3819126865948985e-06,0.4518526753807791,1.930015985068517e-05
0.4526467925607102,-1.09102e-05,0.4526467925607102,-2.4259053685222405e-05,0.4526467925607102,-2.2010829847123468e-06,0.4526467925607102,3.66918790505179e-05
0.4534409097406413,-9.744972969611275e-06,0.4534409097406413,-2.0211222204078427e-05,0.4534409097406413,-3.760674838207633e-06,0.4534409097406413,5.5469512898922566e-05
0.4542350269205724,-1.1313684771357942e-05,0.4542350269205724,-1.6855060406657768e-05,0.4542350269205724,-5.508814619787921e-06,0.4542350269205724,7.239545381364018e-05
0.4550291441005034,-1.276653159970171e-05,0.4550291441005034,-1.9549432597478895e-05,0.4550291441005034,-6.5860463988068456e-06,0.4550291441005034,8.52066153176407e-05
0.4558232612804345,-1.0436122592012755e-05,0.4558232612804345,-1.971811418522361e-05,0.4558232612804345,-2.102922312142752e-06,0.4558232612804345,7.980656454712076e-05
0.4566173784603656,-6.150751418863497e-06,0.4566173784603656,-1.991443525681978e-05,0.4566173784603656,8.690838207055452e-07,0.4566173784603656,4.927474836746895e-05
0.4574114956402966,-2.675858637141633e-06,0.4574114956402966,-2.157367658148424e-05,0.4574114956402966,3.5641575702725406e-06,0.4574114956402966,1.681574844555806e-05
0.4582056128202277,-2.7149912849481263e-06,0.4582056128202277,-2.3625595366092017e-05,0.4582056128202277,5.9932571787629685e-06,0.4582056128202277,-1.4931121371225062e-05
0.4589997300001588,-6.728557772751073e-07,0.4589997300001588,-2.2995998566063143e-05,0.4589997300001588,6.042472747911273e-06,0.4589997300001588,-5.185334079893778e-05
0.4597938471800898,1.17494e-06,0.4597938471800898,-2.3350853750890813e-05,0.4597938471800898,8.362279025187847e-06,0.4597938471800898,-6.217308451259392e-05
0.4605879643600209,2.13998352681626e-06,0.4605879643600209,-2.297591842840267e-05,0.4605879643600209,6.114612525529927e-06,0.4605879643600209,-5.917290815703856e-05
0.461382081539952,4.672414249475156e-06,0.461382081539952,-2.246226691144144e-05,0.461382081539952,2.51774e-06,0.461382081539952,-6.240490896212621e-05
0.4621761987198831,1.5328334300675165e-06,0.4621761987198831,-2.1721634681296384e-05,0.4621761987198831,2.51774e-06,0.4621761987198831,-6.541268004150746e-05
0.4629703158998141,-1.647327552383078e-06,0.4629703158998141,-2.163186790501503e-05,0.4629703158998141,2.7839038870201792e-06,0.4629703158998141,-5.619590558171749e-05
0.4637644330797452,-4.590398090175128e-06,0.4637644330797452,-2.2580502419367493e-05,0.4637644330797452,2.51774e-06,0.4637644330797452,-4.7185963649180414e-05
0.4645585502596763,-6.822369175311822e-06,0.4645585502596763,-2.2522027222410272e-05,0.4645585502596763,2.201856941562726e-06,0.4645585502596763,-4.552673388312545e-05
0.4653526674396073,-5.382601530994804e-06,0.4653526674396073,-2.133781187301591e-05,0.4653526674396073,2.4773149609829835e-06,0.4653526674396073,-3.712762405997876e-05
0.4661467846195384,2.8493496276215817e-06,0.4661467846195384,-2.03098e-05,0.4661467846195384,3.505807736578481e-06,0.4661467846195384,-2.2133677365784807e-05
0.4669409017994695,1.5507356363404286e-05,0.4669409017994695,-2.2570689385182253e-05,0.4669409017994695,1.6493579545744645e-06,0.4669409017994695,-6.493394405406158e-06
0.4677350189794005,1.7763872900625316e-05,0.4677350189794005,-2.0815500663156878e-05,0.4677350189794005,2.713767099374684e-06,0.4677350189794005,2.3968544284096515e-06
0.4685291361593316,8.91792319532118e-06,0.4685291361593316,-1.752541255756319e-05,0.4685291361593316,4.236179281651182e-06,0.4685291361593316,-4.80027500610764e-08
0.4693232533392627,-4.453295690149615e-06,0.4693232533392627,-1.9439088903754795e-05,0.4693232533392627,1.0268059722113378e-06,0.4693232533392627,-9.883725161374228e-06
0.4701173705191938,-1.78425207868111e-05,0.4701173705191938,-2.0112112491894712e-05,0.4701173705191938,4.838285196702775e-07,0.4701173705191938,-2.6511942928492093e-05
0.4709114876991248,-1.2569832123842994e-05,0.4709114876991248,-2.03098e-05,0.4709114876991248,2.46927517526613e-07,0.4709114876991248,-3.5890159525599555e-05
0.4717056048790559,5.358766257170908e-06,0.4717056048790559,-2.27966061150236e-05,0.4717056048790559,-3.4451565190229144e-06,0.4717056048790559,-2.7875361991871757e-05
0.472499722058987,1.1916499100445852e-05,0.472499722058987,-2.3331e-05,0.472499722058987,-5.035379887555731e-06,0.472499722058987,-1.494320511279236e-05
0.473293839238918,5.6429031184751375e-06,0.473293839238918,-2.1435094260886288e-05,0.473293839238918,-3.051479491145824e-06,0.473293839238918,1.313755084825256e-06
0.4740879564188491,-9.261189475514404e-06,0.4740879564188491,-2.076175283854358e-05,0.4740879564188491,-2.6976848187489057e-06,0.4740879564188491,1.2726558214640124e-05
0.4748820735987802,-2.3635541242501243e-05,0.4748820735987802,-2.26596e-05,0.4748820735987802,1.4091658982002985e-06,0.4748820735987802,2.513736899713744e-06
0.4756761907787112,-3.740114360838533e-05,0.4756761907787112,-2.1573593290717812e-05,0.4756761907787112,2.637049251444753e-06,0.4756761907787112,-1.3656029101012732e-05
0.4764703079586423,-4.433137374127144e-05,0.4764703079586423,-2.0113663339373863e-05,0.4764703079586423,2.695176870635721e-06,0.4764703079586423,-2.3681047686293583e-05
0.4772644251385734,-3.808550185052861e-05,0.4772644251385734,-1.9262678410588573e-05,0.4772644251385734,2.596568366993772e-06,0.4772644251385734,-3.1881156733987546e-05
0.4780585423185045,-2.6087267781256183e-05,0.4780585423185045,-1.993560621352724e-05,0.4780585423185045,3.1693173254235456e-06,0.4780585423185045,-2.6393230816952638e-05
0.4788526594984356,-1.8691989155648592e-05,0.4788526594984356,-1.908251895230868e-05,0.4788526594984356,9.578871189939096e-07,0.4788526594984356,-1.0834757735158891e-05
0.4796467766783666,-1.4626093262392324e-05,0.4796467766783666,-2.4218957671693555e-05,0.4796467766783666,1.1939524733827536e-06,0.4796467766783666,1.3270146047253118e-06
0.4804408938582977,-4.5958122704427e-06,0.4804408938582977,-2.2580977190096043e-05,0.4804408938582977,2.5759863134473416e-06,0.4804408938582977,1.2505403197842838e-05
0.4812350110382288,2.3967972214862647e-06,0.4812350110382288,-1.693590412164265e-05,0.4812350110382288,4.29422638755409e-06,0.4812350110382288,1.815589277510818e-05
0.4820291282181598,6.683990876628299e-06,0.4820291282181598,-1.868040120940827e-05,0.4820291282181598,5.045473041123901e-06,0.4820291282181598,2.05855417532566e-05
0.4828232453980909,8.244398966482323e-06,0.4828232453980909,-2.238054045468076e-05,0.4828232453980909,5.53903e-06,0.4828232453980909,1.9164288619145715e-05
0.483617362578022,8.125576987040478e-06,0.483617362578022,-2.401173894361056e-05,0.483617362578022,3.4652516807136114e-06,0.483617362578022,2.1803601798942525e-06
0.484411479757953,-3.7609050095284432e-06,0.484411479757953,-2.371605575944119e-05,0.484411479757953,1.036677212615686e-06,0.484411479757953,-6.8027242241602695e-06
0.4852055969378841,-1.655628429380677e-05,0.4852055969378841,-2.4464854273970707e-05,0.4852055969378841,2.616354176446674e-06,0.4852055969378841,-5.06485835289335e-06
0.4859997141178152,-2.030938810880068e-05,0.4859997141178152,-2.4338562313906965e-05,0.4859997141178152,2.517945945599661e-06,0.4859997141178152,-1.0235916780009177e-05
0.4867938312977463,-1.6126923441201925e-05,0.4867938312977463,-2.145500019275477e-05,0.4867938312977463,2.083013046566506e-06,0.4867938312977463,-1.3496773046566506e-05
0.4875879484776773,-6.930356866641995e-06,0.4875879484776773,-2.1039313895701068e-05,0.4875879484776773,3.938387444879188e-06,0.4875879484776773,-1.5250029779516751e-05
0.4883820656576084,8.037187925008216e-06,0.4883820656576084,-2.317217811365915e-05,0.4883820656576084,4.957416166627348e-06,0.4883820656576084,-2.068453191668633e-05
0.4891761828375395,1.7303636189232012e-05,0.4891761828375395,-2.36667e-05,0.4891761828375395,3.950020519650181e-06,0.4891761828375395,-1.711664485006835e-05
0.4899703000174705,2.1216065195391174e-05,0.4899703000174705,-2.3775171816827183e-05,0.4899703000174705,3.5439970144410944e-06,0.4899703000174705,-7.596510907204536e-06
0.4907644171974016,2.072713765947749e-05,0.4907644171974016,-2.222572135184041e-05,0.4907644171974016,3.545241762877899e-06,0.4907644171974016,-5.0836861759700734e-06
0.4915585343773327,8.404448006685099e-06,0.4915585343773327,-2.1454452271040743e-05,0.4915585343773327,9.383876835555708e-07,0.4915585343773327,-8.77704014511771e-06
0.4923526515572637,-6.957143207460655e-06,0.4923526515572637,-2.3331e-05,0.4923526515572637,1.6090420549395743e-06,0.4923526515572637,-8.916256917590639e-06
0.4931467687371948,-1.4740121850118707e-05,0.4931467687371948,-2.2047885070312607e-05,0.4931467687371948,7.020220239804516e-07,0.4931467687371948,-8.007140462529677e-06
0.4939408859171259,-1.5332529692768822e-05,0.4939408859171259,-2.175129961995994e-05,0.4939408859171259,1.2525795903584274e-06,0.4939408859171259,-1.122075836143371e-05
0.494735003097057,-1.474264154915838e-05,0.494735003097057,-2.088352204483991e-05,0.494735003097057,5.082322138966489e-06,0.494735003097057,-2.102586702567113e-05
0.495529120276988,-4.238357164560294e-06,0.495529120276988,-2.224479474546572e-05,0.495529120276988,6.703971238164997e-06,0.495529120276988,-3.0616412381649966e-05
0.4963232374569191,-1.1749703691108332e-06,0.4963232374569191,-2.21477780126821e-05,0.4963232374569191,5.460022623090682e-06,0.4963232374569191,-3.42116418761847e-05
0.4971173546368502,-1.0910945096661547e-05,0.4971173546368502,-2.0664111094321843e-05,0.4971173546368502,1.1548475332243349e-06,0.4971173546368502,-4.116329317301021e-05
0.4979114718167812,-1.746597405023817e-05,0.4979114718167812,-2.196855373582556e-05,0.4979114718167812,-8.39246e-07,0.4979114718167812,-4.51514e-05
0.4987055889967123,-1.9441183113134084e-05,0.4987055889967123,-2.2837741568022512e-05,0.4987055889967123,8.979794238136087e-07,0.4987055889967123,-4.254564933940225e-05
0.4994997061766434,-1.7960534998932235e-05,0.4994997061766434,-2.064664024975435e-05,0.4994997061766434,2.51731666737851e-06,0.4994997061766434,-3.911016999786447e-05
0.5002938233565745,-1.6518067313552807e-05,0.5002938233565745,-1.9282877068200225e-05,0.5002938233565745,3.3460685474701634e-06,0.5002938233565745,-3.228999383041321e-05
0.5010879405365055,-1.572107560277707e-05,0.5010879405365055,-1.774039697231098e-05,0.5010879405365055,5.083312888202639e-06,0.5010879405365055,-2.9193580491676103e-05
0.5018820577164366,-1.0519940488337452e-05,0.5018820577164366,-2.003303535802602e-05,0.5018820577164366,7.88891e-06,0.5018820577164366,-3.4190478551017684e-05
0.5026761748963677,-6.449084268578019e-06,0.5026761748963677,-2.003331924926297e-05,0.5026761748963677,5.680654982430558e-06,0.5026761748963677,-3.232016067144504e-05
0.5034702920762988,-3.942206422315879e-06,0.5034702920762988,-2.5380912813388093e-05,0.5034702920762988,2.795982709956482e-06,0.5034702920762988,-2.6807972853932327e-05
0.5042644092562298,1.6478415534294402e-06,0.5042644092562298,-2.490176823813123e-05,0.5042644092562298,2.497305354448177e-06,0.5042644092562298,-2.386519844657056e-05
0.5050585264361609,2.557408281207737e-06,0.5050585264361609,-2.152611969406953e-05,0.5050585264361609,2.577241830982277e-06,0.5050585264361609,-2.0744664794726047e-05
0.505852643616092,-1.253069653371465e-06,0.505852643616092,-2.088154486660149e-05,0.505852643616092,-3.443641302840101e-07,0.505852643616092,-1.4131211172071577e-05
0.506646760796023,-4.806324314390152e-06,0.506646760796023,-2.16526e-05,0.506646760796023,-5.241274855358226e-06,0.506646760796023,-1.1818049459031925e-05
0.507440877975954,-7.614347094832876e-06,0.507440877975954,-1.9934483479967967e-05,0.507440877975954,-6.171612248869307e-06,0.507440877975954,-1.3357120822879204e-05
0.5082349951558852,-4.079549491710206e-06,0.5082349951558852,-2.1474068056824697e-05,0.5082349951558852,-5.282575978904169e-06,0.5082349951558852,-1.622087010547916e-05
0.5090291123358163,-2.932362758726966e-06,0.5090291123358163,-2.200788732594795e-05,0.5090291123358163,-6.07258814961966e-06,0.5090291123358163,-1.4427271720737091e-05
0.5098232295157473,-4.49241330447797e-06,0.5098232295157473,-2.177222091854321e-05,0.5098232295157473,-4.749155972376059e-06,0.5098232295157473,2.458360985801992e-06
0.5106173466956784,-5.726598079850293e-06,0.5106173466956784,-2.220454722213366e-05,0.5106173466956784,-5.084961520898244e-06,0.5106173466956784,1.8691452167185948e-05
0.5114114638756094,-5.262476550718632e-06,0.5114114638756094,-2.1415651119801655e-05,0.5114114638756094,-5.618156054865613e-06,0.5114114638756094,4.0992363916132726e-05
0.5122055810555405,-6.219829486467262e-06,0.5122055810555405,-2.192647284000788e-05,0.5122055810555405,-9.190272621570952e-07,0.5122055810555405,5.919208915832313e-05
0.5129996982354716,-7.888366538921061e-06,0.5129996982354716,-2.232429037515288e-05,0.5129996982354716,1.6806638637426557e-07,0.5129996982354716,4.885018683661121e-05
0.5137938154154027,-7.751293888715676e-06,0.5137938154154027,-2.111933101184569e-05,0.5137938154154027,5.421322167203636e-07,0.5137938154154027,2.6384475197896857e-05
0.5145879325953338,-5.401188984400997e-06,0.5145879325953338,-1.906380512768356e-05,0.5145879325953338,3.8183230031157005e-06,0.5145879325953338,3.520235028102807e-06
0.5153820497752648,-5.359410640274896e-06,0.5153820497752648,-2.202662902103499e-05,0.5153820497752648,6.760731316263266e-06,0.5153820497752648,-1.567998856251936e-05
0.5161761669551959,-8.202281050398986e-06,0.5161761669551959,-2.36667e-05,0.5161761669551959,9.082530530360764e-06,0.5161761669551959,-2.407709989677456e-05
0.5169702841351269,-9.40912970850237e-06,0.5169702841351269,-2.4967912533666e-05,0.5169702841351269,8.975150145748815e-06,0.5169702841351269,-2.7733378834009474e-05
0.5177644013150581,-8.166256323365153e-06,0.5177644013150581,-2.544441890971111e-05,0.5177644013150581,6.3301439136441306e-06,0.5177644013150581,-3.079371818451338e-05
0.5185585184949891,-6.88182e-06,0.5185585184949891,-2.315502058877054e-05,0.5185585184949891,3.1105688402787407e-06,0.5185585184949891,-3.812998491392895e-05
0.5193526356749202,-8.777349561442384e-06,0.5193526356749202,-2.157392351431464e-05,0.5193526356749202,3.2875126576014374e-06,0.5193526356749202,-4.257438745430454e-05
0.5201467528548512,-5.836809542553055e-06,0.5201467528548512,-2.1060271997353448e-05,0.5201467528548512,4.215186989506859e-06,0.5201467528548512,-3.930742401399086e-05
0.5209408700347823,-3.486033714725835e-06,0.5209408700347823,-2.147461743534339e-05,0.5209408700347823,5.855322146288023e-06,0.5209408700347823,-3.989669058937313e-05
0.5217349872147133,-3.3663289615587616e-06,0.5217349872147133,-2.2107313839620335e-05,0.5217349872147133,6.693039712520483e-06,0.5217349872147133,-3.974291359692249e-05
0.5225291043946444,-2.6567158197260413e-06,0.5225291043946444,-2.0527064267279143e-05,0.5225291043946444,7.771115718097406e-06,0.5225291043946444,-2.9672767879086573e-05
0.5233232215745756,-2.024033879302738e-06,0.5233232215745756,-2.1493069096807827e-05,0.5233232215745756,2.379591243163024e-06,0.5233232215745756,-1.9006711551779924e-05
0.5241173387545066,-1.9647256781427303e-06,0.5241173387545066,-2.380469194583404e-05,0.5241173387545066,4.640862248368222e-07,0.5241173387545066,-3.444815864813164e-06
0.5249114559344377,-1.6093487711728174e-06,0.5249114559344377,-2.210683333805228e-05,0.5249114559344377,1.17494e-06,0.5249114559344377,2.1018460428443183e-05
0.5257055731143687,-1.9848460451888613e-06,0.5257055731143687,-2.1768893863499896e-05,0.5257055731143687,-3.650420736942718e-07,0.5257055731143687,3.47448e-05
0.5264996902942998,5.534344757546126e-06,0.5264996902942998,-2.433709837954185e-05,0.5264996902942998,-5.037711064037437e-07,0.5264996902942998,3.47448e-05
0.5272938074742308,2.182345814932666e-05,0.5272938074742308,-2.3093894599330182e-05,0.5272938074742308,1.400643674165589e-06,0.5272938074742308,4.007477191327391e-05
0.528087924654162,2.4518188304487872e-05,0.528087924654162,-2.02323764439139e-05,0.528087924654162,3.386998823321187e-06,0.528087924654162,3.2108153217951494e-05
0.528882041834093,1.596967396479481e-05,0.528882041834093,-1.8967e-05,0.528882041834093,2.283652623880448e-06,0.528882041834093,2.475958985374426e-05
0.5296761590140241,-2.7192485801147245e-06,0.5296761590140241,-2.0586168175296005e-05,0.5296761590140241,-3.2451618538116777e-07,0.5296761590140241,2.7240044982866492e-05
0.5304702761939551,-1.979833026419348e-05,0.5304702761939551,-2.287646361909585e-05,0.5304702761939551,4.148410061043567e-07,0.5304702761939551,1.4119443687784407e-05
0.5312643933738862,-3.3063193230538536e-05,0.5312643933738862,-2.3349990816342112e-05,0.5312643933738862,-2.671324865509409e-07,0.5312643933738862,-2.0008456258447627e-06
0.5320585105538173,-3.900967196684375e-05,0.5320585105538173,-2.4063056977565827e-05,0.5320585105538173,1.1352492596742075e-06,0.5320585105538173,-1.1935471476241762e-05
0.5328526277337483,-3.502272937257098e-05,0.5328526277337483,-2.123822865082983e-05,0.5328526277337483,-1.2530123235418396e-06,0.5328526277337483,-2.1571341290017996e-05
0.5336467449136795,-2.734503473022829e-05,0.5336467449136795,-2.200761502041884e-05,0.5336467449136795,-1.3734897631624513e-06,0.5336467449136795,-2.3865246946045656e-05
0.5344408620936105,-9.424310704717371e-06,0.5344408620936105,-2.352836848009639e-05,0.5344408620936105,8.87727399763689e-07,0.5344408620936105,-2.1061735744928737e-05
0.5352349792735416,1.1938410147398178e-05,0.5352349792735416,-2.096451239791971e-05,0.5352349792735416,2.0631538695104672e-06,0.5352349792735416,-1.822792761659393e-05
0.5360290964534726,1.2789023181006957e-05,0.5360290964534726,-1.9954050639781267e-05,0.5360290964534726,1.5707393051224028e-06,0.5360290964534726,-2.0485198200100617e-05
0.5368232136334037,-1.8261581463721037e-06,0.5368232136334037,-2.218429845747317e-05,0.5368232136334037,-2.85344e-06,0.5368232136334037,-3.442848816496362e-05
0.5376173308133347,-1.44551912295759e-05,0.5376173308133347,-1.9826825615282656e-05,0.5376173308133347,-1.964742877184128e-06,0.5376173308133347,-4.256479424563175e-05
0.5384114479932659,-2.0546294474655512e-05,0.5384114479932659,-1.739718626210622e-05,0.5384114479932659,-6.418353667884619e-07,0.5384114479932659,-4.0610029144008366e-05
0.539205565173197,-2.106105253364881e-05,0.539205565173197,-1.7425429067296012e-05,0.539205565173197,1.5693049775674576e-06,0.539205565173197,-3.667095253364881e-05
0.539999682353128,-1.5277274769772998e-05,0.539999682353128,-1.930187815757272e-05,0.539999682353128,2.51774e-06,0.539999682353128,-3.541608555169568e-05
0.5407937995330591,-8.543712953788206e-06,0.5407937995330591,-2.0171638169063167e-05,0.5407937995330591,1.945389885488356e-06,0.5407937995330591,-3.4133899541953424e-05
0.5415879167129901,-6.606160900856843e-06,0.5415879167129901,-2.06455e-05,0.5415879167129901,1.924128648714736e-06,0.5415879167129901,-3.0048428299962768e-05
0.5423820338929212,-3.4550627780599297e-06,0.5423820338929212,-1.985629092212996e-05,0.5423820338929212,3.821521015368544e-06,0.5423820338929212,-2.7558574363885916e-05
0.5431761510728523,1.5154795335436378e-05,0.5431761510728523,-1.931245562645769e-05,0.5431761510728523,2.6967879099596128e-06,0.5431761510728523,-2.376003229277862e-05
0.5439702682527834,3.3795049602481455e-05,0.5439702682527834,-2.2597161744333588e-05,0.5439702682527834,9.826181520242769e-08,0.5439702682527834,-2.03098e-05
0.5447643854327144,2.185753293573756e-05,0.5447643854327144,-2.4713950002290496e-05,0.5447643854327144,2.675339526876563e-06,0.5447643854327144,-2.212537510736087e-05
0.5455585026126455,-1.3681386226060387e-06,0.5455585026126455,-2.2148042336414968e-05,0.5455585026126455,3.18914e-06,0.5455585026126455,-2.587764062248518e-05
0.5463526197925765,-1.923846583137036e-05,0.5463526197925765,-2.0724166212655e-05,0.5463526197925765,5.578043773595543e-06,0.5463526197925765,-3.242211886797771e-05
0.5471467369725076,-2.832398283522312e-05,0.5471467369725076,-2.1494435459232375e-05,0.5471467369725076,5.085122469525171e-06,0.5471467369725076,-3.764789246952517e-05
0.5479408541524387,-3.2433673931069465e-05,0.5479408541524387,-2.271861645364339e-05,0.5479408541524387,3.782982715369713e-06,0.5479408541524387,-3.531926517232632e-05
0.5487349713323698,-3.05019314103746e-05,0.5487349713323698,-2.2562004229082405e-05,0.5487349713323698,1.4919925641498403e-06,0.5487349713323698,-3.11733314103746e-05
0.5495290885123009,-2.3746873157435186e-05,0.5495290885123009,-2.133647637907165e-05,0.5495290885123009,1.727339243622108e-06,0.5495290885123009,-2.4122706750854984e-05
0.5503232056922319,-1.9105421334891893e-05,0.5503232056922319,-2.287563294630293e-05,0.5503232056922319,3.307577939286709e-06,0.5503232056922319,-1.9342300741606608e-05
0.551117322872163,-1.3654833587416907e-05,0.551117322872163,-2.287582669121481e-05,0.551117322872163,2.3794056178562427e-06,0.551117322872163,-1.8552353282516615e-05
0.551911440052094,-1.0061469422521964e-05,0.551911440052094,-2.2718900430705483e-05,0.551911440052094,3.622988806432669e-06,0.551911440052094,-1.6321539236817892e-05
0.5527055572320251,-6.231667822933543e-06,0.5527055572320251,-2.008377874929583e-05,0.5527055572320251,4.6118198684459935e-06,0.5527055572320251,-7.712989736891986e-06
0.5534996744119562,5.004988763545412e-07,0.5534996744119562,-1.96384e-05,0.5534996744119562,1.0086245625214165e-06,0.5534996744119562,-4.196699098310241e-06
0.5542937915918873,5.913256095212442e-06,0.5542937915918873,-2.011227724048229e-05,0.5542937915918873,5.833346856802472e-07,0.5542937915918873,-7.3936348582084335e-06
0.5550879087718184,2.2844230409958967e-06,0.5550879087718184,-1.8492421305371285e-05,0.5550879087718184,-5.458790318856972e-07,0.5550879087718184,-9.9031e-06
0.5558820259517494,-1.6666530064711964e-06,0.5558820259517494,-1.93615942659047e-05,0.5558820259517494,3.6808430064711967e-06,0.5558820259517494,-6.725808155377228e-06
0.5566761431316805,-3.957475978088384e-06,0.5566761431316805,-1.9519982215547293e-05,0.5566761431316805,3.4875829719006163e-06,0.5566761431316805,-4.434985799956001e-06
0.5574702603116115,-4.3545274536309616e-06,0.5574702603116115,-1.9715566730327377e-05,0.5574702603116115,1.7071476391071165e-06,0.5574702603116115,4.475984460719582e-06
0.5582643774915427,-2.065502389315576e-06,0.5582643774915427,-2.1534390273946557e-05,0.5582643774915427,3.0110257382979667e-06,0.5582643774915427,1.7836733553888544e-05
0.5590584946714737,5.241174974842986e-06,0.5590584946714737,-2.0507998995331837e-05,0.5590584946714737,3.840672927341373e-06,0.5590584946714737,3.0319258546827457e-05
0.5598526118514048,9.665748260031504e-06,0.5598526118514048,-1.9795722152279723e-05,0.5598526118514048,4.620108268404378e-06,0.5598526118514048,3.0323021100789997e-05
0.5606467290313358,5.087509966227658e-06,0.5606467290313358,-2.107963777930316e-05,0.5606467290313358,4.413728202538819e-06,0.5606467290313358,2.33358046537043e-05
0.5614408462112669,8.326694846481351e-07,0.5614408462112669,-2.297501047423426e-05,0.5614408462112669,5.2420918877042885e-06,0.5614408462112669,1.0722609031282285e-05
0.5622349633911979,-3.168122483431905e-06,0.5622349633911979,-2.617370641864245e-05,0.5622349633911979,6.131151138251397e-06,0.5622349633911979,-4.741570177990194e-06
0.563029080571129,-3.91938658652359e-06,0.563029080571129,-2.453581870729856e-05,0.563029080571129,2.8647696725101677e-06,0.563029080571129,-1.4749361169898127e-05
0.5638231977510602,-4.255444130967555e-06,0.5638231977510602,-2.30750962114196e-05,0.5638231977510602,-4.2451884367128497e-07,0.5638231977510602,-2.145489540873807e-05
0.5646173149309912,-4.828150908244652e-06,0.5646173149309912,-2.313327653628854e-05,0.5646173149309912,7.899654657547781e-07,0.5646173149309912,-2.1593241882057547e-05
0.5654114321109223,-3.091032790519685e-06,0.5654114321109223,-2.206738189723444e-05,0.5654114321109223,2.833335836262197e-06,0.5654114321109223,-1.7495928886345454e-05
0.5662055492908533,1.84634e-06,0.5662055492908533,-2.263896549880333e-05,0.5662055492908533,5.953319445911018e-06,0.5662055492908533,-1.722988088654237e-05
0.5669996664707844,-1.5082373156521128e-06,0.5669996664707844,-2.3666268532725743e-05,0.5669996664707844,5.204291072307699e-06,0.5669996664707844,-1.4268641619197467e-05
0.5677937836507154,-6.188393490278937e-06,0.5677937836507154,-2.2442374028206684e-05,0.5677937836507154,5.439968648484244e-06,0.5677937836507154,-1.1741206757578782e-05
0.5685879008306466,-1.1853769350243082e-05,0.5685879008306466,-2.196895952052398e-05,0.5685879008306466,8.639312082579921e-07,0.5685879008306466,-6.837592166485891e-06
0.5693820180105776,-1.3283819851166792e-05,0.5693820180105776,-2.12580160071256e-05,0.5693820180105776,-2.9314338755306545e-06,0.5693820180105776,1.7793992150090434e-06
0.5701761351905087,-1.09102e-05,0.5701761351905087,-2.17315231795932e-05,0.5701761351905087,-3.52483e-06,0.5701761351905087,9.82832017267904e-06
0.5709702523704397,-6.906468183901341e-06,0.5709702523704397,-2.1890268176731837e-05,0.5709702523704397,-3.7404188439043424e-06,0.5709702523704397,1.5261949770506805e-05
0.5717643695503708,3.6207718142523537e-06,0.5717643695503708,-2.0734140787305782e-05,0.5717643695503708,-5.066300067903797e-06,0.5717643695503708,1.3441624228681416e-05
0.5725584867303019,1.0375873126642128e-05,0.5725584867303019,-2.103073755126029e-05,0.5725584867303019,-9.981474986862982e-07,0.5725584867303019,3.2745268086119546e-08
0.573352603910233,1.7325782923263056e-05,0.573352603910233,-2.113851187924938e-05,0.573352603910233,-6.951668060496474e-08,0.573352603910233,-1.1934236346825487e-05
