X [s].2,L DELTOID ANTERIOR: EMG 3 [V],X [s].3,L BICEPS BRACHII: EMG 4 [V],X [s].4,L DELTOID POSTERIOR: EMG 5 [V],X [s].7,L DELTOID MEDIUS: EMG 8 [V]
0.0,-5.32082e-05,0.0,9.23171e-06,0.0,-1.93027e-05,0.0,-1.8967e-05
0.000794117179931,-9.617755562640584e-05,0.000794117179931,1.661709237326333e-05,0.000794117179931,-1.8295601040010957e-05,0.000794117179931,-1.6281402773362543e-05
0.0015882343598621,-0.0001582815589123,0.0015882343598621,-1.5945468727373034e-05,0.0015882343598621,-1.5610019074089667e-05,0.0015882343598621,-1.6617097615738792e-05
0.0023823515397932,-0.0001777519791713,0.0023823515397932,-4.716563482412243e-05,0.0023823515397932,-1.5610001301839978e-05,0.0023823515397932,-1.393149153805954e-05
0.0031764687197242,-0.0001670100173181,0.0031764687197242,-6.512547104515205e-05,0.0031764687197242,-1.6281398917572764e-05,0.0031764687197242,-9.567417035760914e-06
0.0039705858996553,-0.0001173272565322,0.0039705858996553,-5.119407193365165e-05,0.0039705858996553,-1.3595813866777795e-05,0.0039705858996553,-1.0910193066662737e-05
0.0047647030795864,-1.0239733227513666e-05,0.0047647030795864,-2.3503156553694265e-06,0.0047647030795864,-1.2588708776442494e-05,0.0047647030795864,-1.2924382447115012e-05
0.0055588202595174,1.191727915588767e-05,0.0055588202595174,2.316319742191664e-05,0.0055588202595174,-1.393149956117452e-05,0.0055588202595174,-8.39245917720549e-06
0.0063529374394485,-5.186519433979247e-05,0.0063529374394485,1.527432543687883e-05,0.0063529374394485,-1.2588704329708945e-05,0.0063529374394485,-5.874728118172027e-06
0.0071470546193796,-6.378261925342886e-05,0.0071470546193796,-2.517619448681863e-06,0.0071470546193796,-1.1245909098243372e-05,0.0071470546193796,-9.903072705405396e-06
0.0079411717993107,-4.179472706693742e-05,0.0079411717993107,-2.467357119961209e-05,0.0079411717993107,-1.3092180933696868e-05,0.0079411717993107,-8.89602039998008e-06
0.0087352889792417,-4.112310086302536e-05,0.0087352889792417,-4.6494171951804255e-05,0.0087352889792417,-1.0910202804768158e-05,0.0087352889792417,-6.210423452088597e-06
0.0095294061591728,-5.253674479669461e-05,0.0095294061591728,-5.891503992528839e-05,0.0095294061591728,-9.567416494515053e-06,0.0095294061591728,-7.721062693616155e-06
0.0103235233391039,-8.073585518877316e-05,0.0103235233391039,-6.63002520063923e-05,0.0103235233391039,-1.2252886536274724e-05,0.0103235233391039,-9.231670534254198e-06
0.0111176405190349,-9.281910996376207e-05,0.0111176405190349,-6.126436630208803e-05,0.0111176405190349,-8.392382929142516e-06,0.0111176405190349,-7.888961380911782e-06
0.011911757698966,-6.361645556699443e-05,0.011911757698966,-4.884476156750502e-05,0.011911757698966,-6.881900460380147e-06,0.011911757698966,-8.895956359391486e-06
0.0127058748788971,1.627887250576601e-05,0.0127058748788971,-4.0116276110688777e-05,0.0127058748788971,-9.903004422760762e-06,0.0127058748788971,-1.0238757521262156e-05
0.0134999920588282,5.606120218939373e-05,0.0134999920588282,-1.3596065207737523e-05,0.0134999920588282,-1.225297650049161e-05,0.0134999920588282,-9.903103357072627e-06
0.0142941092387592,6.126458210000603e-05,0.0142941092387592,-7.553235622356831e-06,0.0142941092387592,-1.3595796094381703e-05,0.0142941092387592,-1.3931519528091469e-05
0.0150882264186903,2.5344641658510044e-05,0.0150882264186903,-8.895228319785133e-06,0.0150882264186903,-1.3260211669029813e-05,0.0150882264186903,-1.5609994414885284e-05
0.0158823435986214,8.561502005710721e-06,0.0158823435986214,1.460123118745993e-05,0.0158823435986214,-1.661686159729549e-05,0.0158823435986214,-1.5442111923686054e-05
0.0166764607785524,3.407213988122349e-05,0.0166764607785524,3.5750855428291734e-05,0.0166764607785524,-1.5610049741745114e-05,0.0166764607785524,-1.52743082878213e-05
0.0174705779584835,1.0407356907136704e-05,0.0174705779584835,4.179433227796591e-05,0.0174705779584835,-1.561e-05,0.0174705779584835,-1.6952753410546088e-05
0.0182646951384146,-3.1051846183735425e-05,0.0182646951384146,4.649417122781415e-05,0.0182646951384146,-1.2588718496798752e-05,0.0182646951384146,-1.6281404110399724e-05
0.0190588123183456,-4.515151456480329e-05,0.0190588123183456,3.944357933640624e-05,0.0190588123183456,-1.527434947038944e-05,0.0190588123183456,-2.0309883318305705e-05
0.0198529294982767,-5.253470528324202e-05,0.0198529294982767,-2.6354020661003214e-05,0.0198529294982767,-1.8463468579222132e-05,0.0198529294982767,-2.5680850125552705e-05
0.0206470466782078,3.856743539777191e-06,0.0206470466782078,-7.267558969192573e-05,0.0206470466782078,-2.03096760345542e-05,0.0206470466782078,-2.433819015424644e-05
0.0214411638581389,7.636809981388823e-05,0.0214411638581389,-5.8076464621563246e-05,0.0214411638581389,-1.963843055741788e-05,0.0214411638581389,-2.0309983339955983e-05
0.0222352810380699,0.00011262613427,0.0222352810380699,-3.1052745285868725e-05,0.0222352810380699,-1.762424809610811e-05,0.0222352810380699,-1.4938728256288297e-05
0.023029398218001,0.0001065840135607,0.023029398218001,-3.1723498493345805e-05,0.023029398218001,-1.76242e-05,0.023029398218001,-1.6952795480037418e-05
0.0238235153979321,0.0001109484296141,0.0238235153979321,-4.75013227837429e-05,0.0238235153979321,-1.628137396254471e-05,0.0238235153979321,-1.661702839699795e-05
0.0246176325778631,0.0001331019757915,0.0246176325778631,-4.867614163926136e-05,0.0246176325778631,-1.49386e-05,0.0246176325778631,-1.2924482621923993e-05
0.0254117497577942,8.375992177307362e-05,0.0254117497577942,-4.481594422696988e-05,0.0254117497577942,-1.49386e-05,0.0254117497577942,-1.4938472578883403e-05
0.0262058669377253,3.407546856342704e-05,0.0262058669377253,-6.8649307648795e-05,0.0262058669377253,-1.3931541930508528e-05,0.0262058669377253,-1.560997204632765e-05
0.0269999841176564,-1.0909300308536e-05,0.0269999841176564,-7.737832543222338e-05,0.0269999841176564,-1.2924420142435762e-05,0.0269999841176564,-1.3931533570726272e-05
0.0277941012975874,-5.069052824985674e-05,0.0277941012975874,-5.992214843687071e-05,0.0277941012975874,-1.4938598080008465e-05,0.0277941012975874,-1.3595796982917127e-05
0.0285882184775185,-6.797900934354273e-05,0.0285882184775185,-2.836585175244001e-05,0.0285882184775185,-1.3763549234518444e-05,0.0285882184775185,-1.17494e-05
0.0293823356574496,-7.267831924311469e-05,0.0293823356574496,-5.058053324011952e-07,0.0293823356574496,-1.1581776775931688e-05,0.0293823356574496,-1.17494e-05
0.0301764528373806,-7.335006012469134e-05,0.0301764528373806,3.339998630593999e-05,0.0301764528373806,-1.15816e-05,0.0301764528373806,-7.889139279461335e-06
0.0309705700173117,-6.999322674963412e-05,0.0309705700173117,4.548664370509287e-05,0.0309705700173117,-7.553372098805802e-06,0.0309705700173117,-8.895971975109765e-06
0.0317646871972428,-6.260791906838251e-05,0.0317646871972428,2.6016913910192112e-05,0.0317646871972428,-6.881830824544977e-06,0.0317646871972428,-8.89601e-06
0.0325588043771738,-6.462204440949115e-05,0.0325588043771738,2.131690370083686e-05,0.0325588043771738,-7.553231102455466e-06,0.0325588043771738,-7.553208897544533e-06
0.0333529215571049,-7.267885034601414e-05,0.0333529215571049,2.1988081312914488e-05,0.0333529215571049,-9.567492007385635e-06,0.0333529215571049,-5.539011776076208e-06
0.034147038737036,-7.821727273286652e-05,0.034147038737036,1.3932121485076906e-05,0.034147038737036,-1.258846694386754e-05,0.034147038737036,-4.867681790423075e-06
0.0349411559169671,-7.939263477198885e-05,0.0349411559169671,-1.8454641215972e-06,0.0349411559169671,-1.3595744092655302e-05,0.0349411559169671,-4.196267271563132e-06
0.0357352730968981,-5.7237350620594754e-05,0.0357352730968981,-1.9302108600641564e-05,0.0357352730968981,-1.35958e-05,0.0357352730968981,-5.5389845076374165e-06
0.0365293902768292,1.8456165728322668e-06,0.0365293902768292,1.006851321428971e-06,0.0365293902768292,-1.6281367116802218e-05,0.0365293902768292,-9.567360675448207e-06
0.0373235074567603,4.951581995614767e-05,0.0373235074567603,3.273076707049427e-05,0.0373235074567603,-1.5777804728906303e-05,0.0373235074567603,-1.2252981086252836e-05
0.0381176246366913,8.358945713603752e-05,0.0381176246366913,5.052251669063411e-05,0.0381176246366913,-1.62814e-05,0.0381176246366913,-1.023889372303663e-05
0.0389117418166224,0.0001015476842366,0.0389117418166224,4.783719674802159e-05,0.0389117418166224,-1.62814e-05,0.0389117418166224,-1.3259878658475724e-05
0.0397058589965535,8.241498803796529e-05,0.0397058589965535,2.8703188027638265e-05,0.0397058589965535,-1.8295495996547182e-05,0.0397058589965535,-1.8295339991367955e-05
0.0404999761764846,3.2060710676682326e-05,0.0404999761764846,1.326056327302256e-05,0.0404999761764846,-1.82956e-05,0.0404999761764846,-1.2588871210704013e-05
0.0412940933564156,-7.552888595324619e-06,0.0412940933564156,8.224652127820741e-06,0.0412940933564156,-1.82956e-05,0.0412940933564156,-1.493858034031128e-05
0.0420882105363467,-2.836677166846385e-05,0.0420882105363467,-1.4938760328385774e-05,0.0420882105363467,-1.896704008242811e-05,0.0420882105363467,-1.963842672161874e-05
0.0428823277162778,-4.884223624131266e-05,0.0428823277162778,-2.702260008057036e-05,0.0428823277162778,-2.1988025017867227e-05,0.0428823277162778,-2.1652416678578152e-05
0.0436764448962088,-7.267704608132498e-05,0.0436764448962088,-1.8296205655961816e-05,0.0436764448962088,-2.098126988418088e-05,0.0436764448962088,-2.064556988418088e-05
0.0444705620761399,-5.6901653500918055e-05,0.0444705620761399,-2.854177471747432e-06,0.0444705620761399,-2.09812e-05,0.0444705620761399,-1.6281608416468484e-05
0.045264679256071,-1.913578654740732e-05,0.045264679256071,3.524663383226448e-06,0.045264679256071,-1.8967052616070704e-05,0.045264679256071,-1.5274326308035354e-05
0.046058796436002,-5.7572127488767946e-05,0.046058796436002,-1.1581532200875415e-05,0.046058796436002,-1.3931522599812918e-05,0.046058796436002,-1.896698342680386e-05
0.0468529136159331,-8.812063813416287e-05,0.0468529136159331,-1.124584820236377e-05,0.0468529136159331,-8.22462726593589e-06,0.0468529136159331,-2.165256546812822e-05
0.0476470307958642,-7.284793095533981e-05,0.0476470307958642,-8.224873265881815e-06,0.0476470307958642,-9.231622244415606e-06,0.0476470307958642,-1.9638575511168792e-05
0.0484411479757953,-4.783863846436182e-05,0.0484411479757953,-1.0238668043529968e-05,0.0484411479757953,-1.023873402209255e-05,0.0484411479757953,-1.5610263914250335e-05
0.0492352651557263,-1.6954155166245474e-05,0.0492352651557263,-2.316263289090788e-05,0.0492352651557263,-8.896068920214309e-06,0.0492352651557263,-1.1749569399071605e-05
0.0500293823356574,1.0909580202019018e-05,0.0500293823356574,-3.3737464775733056e-05,0.0500293823356574,-7.888932402417065e-06,0.0500293823356574,-1.326006639526218e-05
0.0508234995155885,2.1316893651775617e-05,0.0508234995155885,-3.843749713305996e-05,0.0508234995155885,-1.3260096723503196e-05,0.0508234995155885,-1.560999856652998e-05
0.0516176166955195,2.1819412021291018e-06,0.0516176166955195,-4.263358356020773e-05,0.0516176166955195,-1.29244e-05,0.0516176166955195,-1.2924442342124857e-05
0.0524117338754506,-2.517348699528442e-06,0.0524117338754506,-3.709516117335534e-05,0.0524117338754506,-1.29244e-05,0.0524117338754506,-1.4938432299084252e-05
0.0532058510553817,1.3259127527570968e-05,0.0532058510553817,-3.0381113819628574e-05,0.0532058510553817,-9.567616909197934e-06,0.0532058510553817,-1.6281317236074285e-05
0.0539999682353128,2.500903001383228e-05,0.0539999682353128,-3.508031200393287e-05,0.0539999682353128,-6.881927425924061e-06,0.0539999682353128,-1.4938653713162034e-05
0.0547940854152438,5.8746580359996575e-05,0.0547940854152438,-4.582260270264989e-05,0.0547940854152438,-9.903044509971057e-06,0.0547940854152438,-1.3595824662398344e-05
0.0555882025951749,6.630036380087129e-05,0.0555882025951749,-4.599067806093608e-05,0.0555882025951749,-1.091020548476598e-05,0.0555882025951749,-1.3595803290859589e-05
0.056382319775106,5.5223519027166416e-05,0.056382319775106,-3.927737820440471e-05,0.056382319775106,-1.2588530448898824e-05,0.056382319775106,-1.4602798269339296e-05
0.057176436955037,6.227154031220868e-05,0.057176436955037,-1.6618898984563294e-05,0.057176436955037,-1.4938413437402896e-05,0.057176436955037,-1.4938573348200414e-05
0.0579705541349681,5.404797503027438e-05,0.0579705541349681,1.8629264149366105e-05,0.0579705541349681,-1.7624044887130694e-05,0.0579705541349681,-1.963812855247872e-05
0.0587646713148992,4.24663183596061e-05,0.0587646713148992,3.273009069406695e-05,0.0587646713148992,-1.76242e-05,0.0587646713148992,-1.9302712126417743e-05
0.0595587884948302,4.951539786318554e-05,0.0595587884948302,2.4841814296855925e-05,0.0595587884948302,-1.829559027254636e-05,0.0595587884948302,-1.7624224318634115e-05
0.0603529056747613,1.0238166756080498e-05,0.0603529056747613,9.06374606405344e-06,0.0603529056747613,-1.9974095202675925e-05,0.0603529056747613,-1.6449217990322538e-05
0.0611470228546924,-7.837699139184611e-05,0.0611470228546924,-6.880271102508256e-06,0.0611470228546924,-1.930276521702279e-05,0.0611470228546924,-1.8966755431307747e-05
0.0619411400346235,-0.0001183309833511,0.0619411400346235,-1.8294738103998285e-05,0.0619411400346235,-1.628162814934141e-05,0.0619411400346235,-1.829565069985365e-05
0.0627352572145545,-9.752152141940164e-05,0.0627352572145545,-2.735891165001861e-05,0.0627352572145545,-1.62814e-05,0.0627352572145545,-1.5610144697887205e-05
0.0635293743944856,-5.388100718439812e-05,0.0635293743944856,-4.347248042184109e-05,0.0635293743944856,-1.2588819069994751e-05,0.0635293743944856,-1.3595864947269864e-05
0.0643234915744167,2.181959680562297e-05,0.0643234915744167,-4.515138219179072e-05,0.0643234915744167,-9.56744205658044e-06,0.0643234915744167,-1.2588710685562182e-05
0.0651176087543477,2.9709011372504365e-05,0.0651176087543477,-2.903762617398788e-05,0.0651176087543477,-1.242081295184922e-05,0.0651176087543477,-1.4267216651117816e-05
0.0659117259342788,3.527271918475914e-06,0.0659117259342788,-4.198546691265682e-06,0.0659117259342788,-1.3595690421528134e-05,0.0659117259342788,-1.5777659124051405e-05
0.0667058431142099,5.689707637588151e-05,0.0667058431142099,1.7119072957163805e-05,0.0667058431142099,-1.1246068336378382e-05,0.0667058431142099,-1.5610012020445252e-05
0.067499960294141,0.0001441786358005,0.067499960294141,2.5344788761103185e-05,0.067499960294141,-9.90316714145255e-06,0.067499960294141,-1.4938633570726277e-05
0.068294077474072,0.0001502248286089,0.068294077474072,2.8702104773277857e-05,0.068294077474072,-8.896038567732977e-06,0.068294077474072,-1.2253076181377715e-05
0.0690881946540031,0.0001379720824889,0.0690881946540031,1.997415875884052e-05,0.0690881946540031,-1.0574488700160831e-05,0.0690881946540031,-9.231730339764357e-06
0.0698823118339342,0.0001166573664518,0.0698823118339342,3.1910033390676127e-06,0.0698823118339342,-7.553555399611211e-06,0.0698823118339342,-1.2252664599278663e-05
0.0706764290138652,3.1227637199873857e-05,0.0706764290138652,-1.09089396327305e-05,0.0706764290138652,-6.881880017744428e-06,0.0706764290138652,-1.1581660017744427e-05
0.0714705461937963,-2.9873060208556392e-05,0.0714705461937963,-2.181966075249589e-05,0.0714705461937963,-5.539120984047592e-06,0.0714705461937963,-9.567546476410176e-06
0.0722646633737274,-4.313668840443635e-05,0.0722646633737274,-3.239441227235935e-05,0.0722646633737274,-5.53903e-06,0.0722646633737274,-7.217628383971392e-06
0.0730587805536585,-4.9851035586459934e-05,0.0730587805536585,-3.843735202560997e-05,0.0730587805536585,-7.88885245489365e-06,0.0730587805536585,-4.867687545351237e-06
0.0738528977335895,-6.21041650291814e-05,0.0738528977335895,-4.5487079880006296e-05,0.0738528977335895,-9.063856646620149e-06,0.0738528977335895,-6.881814251377367e-06
0.0746470149135206,-8.576846446148355e-05,0.0746470149135206,-5.0522060522580174e-05,0.0746470149135206,-1.023867412300672e-05,0.0746470149135206,-9.9027763156908e-06
0.0754411320934517,-0.00011262470344,0.0754411320934517,-5.253662775800329e-05,0.0754411320934517,-1.258849905100384e-05,0.0754411320934517,-9.063931766643493e-06
0.0762352492733827,-0.0001381383702453,0.0762352492733827,-5.052272866585118e-05,0.0762352492733827,-1.5274128445531768e-05,0.0762352492733827,-1.0910082056941885e-05
0.0770293664533138,-0.0001666727945836,0.0770293664533138,-3.9780753807538906e-05,0.0770293664533138,-1.5609985818382397e-05,0.0770293664533138,-1.359568654705915e-05
0.0778234836332449,-0.000186144598694,0.0778234836332449,-2.903812140565405e-05,0.0778234836332449,-1.997401005395304e-05,0.0778234836332449,-1.1581641513560131e-05
0.078617600813176,-0.0001827879718152,0.078617600813176,8.560316186966958e-06,0.078617600813176,-2.1652601374781436e-05,0.078617600813176,-1.1581602749767642e-05
0.079411717993107,-0.0001552638423618,0.079411717993107,1.46022760588879e-05,0.079411717993107,-2.2995161356515794e-05,0.079411717993107,-1.4266922692380146e-05
0.0802058351730381,-0.0001096097270809,0.0802058351730381,-9.969306859926404e-05,0.0802058351730381,-2.4337990379493267e-05,0.0802058351730381,-1.6616908164113218e-05
0.0809999523529692,-3.1056813335969424e-05,0.0809999523529692,-0.000119675801498,0.0809999523529692,-2.249191078039665e-05,0.0809999523529692,-1.7959819430256937e-05
0.0817940695329002,7.569590426032512e-05,0.0817940695329002,-2.2327635129839528e-05,0.0817940695329002,-2.1652632197443757e-05,0.0817940695329002,-1.963833560127581e-05
0.0825881867128313,0.0001347820114018,0.0825881867128313,8.946172953108393e-05,0.0825881867128313,-2.366666629934972e-05,0.0825881867128313,-1.930270561705392e-05
0.0833823038927624,0.0001082662092217,0.0833823038927624,0.0001435044596495,0.0833823038927624,-2.232406249408037e-05,0.0833823038927624,-1.829572187056028e-05
0.0841764210726934,0.0001018846340225,0.0841764210726934,0.0001223641020445,0.0841764210726934,-2.366656653622063e-05,0.0841764210726934,-1.4938933659448432e-05
0.0849705382526245,0.0001294098594865,0.0849705382526245,5.67381031589251e-05,0.0849705382526245,-2.2995352206507827e-05,0.0849705382526245,-1.795966507071477e-05
0.0857646554325556,8.946584203260903e-05,0.0857646554325556,-1.090640364619914e-05,0.0857646554325556,-2.1652675356639667e-05,0.0857646554325556,-1.930262463774801e-05
0.0865587726124866,0.000129745610676,0.0865587726124866,-5.119261066224808e-05,0.0865587726124866,-1.7624338934464966e-05,0.0865587726124866,-1.896701157787208e-05
0.0873528897924177,0.0001485467583395,0.0873528897924177,-7.804955478679282e-05,0.0873528897924177,-1.3931547466992732e-05,0.0873528897924177,-2.165256547855074e-05
0.0881470069723488,0.0001406589240684,0.0881470069723488,-9.08049057828858e-05,0.0881470069723488,-1.1749655597629826e-05,0.0881470069723488,-2.299514272446837e-05
0.0889411241522799,7.302086091529874e-05,0.0889411241522799,-8.610714888745764e-05,0.0889411241522799,-1.1078164118592742e-05,0.0889411241522799,-2.098139237488104e-05
0.0897352413322109,-4.0778992368727376e-05,0.0897352413322109,-6.093116009619886e-05,0.0897352413322109,-1.2252913198859927e-05,0.0897352413322109,-2.0309849602762317e-05
0.090529358512142,-0.0001260505451831,0.090529358512142,-1.9976239709759603e-05,0.090529358512142,-1.1581635077380468e-05,0.090529358512142,-2.1652529845239063e-05
0.0913234756920731,-0.0001545881265553,0.0913234756920731,1.1916323783126438e-05,0.0913234756920731,-1.4938497240006882e-05,0.0913234756920731,-1.661725413998968e-05
0.0921175928720041,-0.000151232030133,0.0921175928720041,1.9638330693907056e-05,0.0921175928720041,-1.527429698669161e-05,0.0921175928720041,-1.091025122624261e-05
0.0929117100519352,-0.0001394843306469,0.0929117100519352,1.3764265357455014e-05,0.0929117100519352,-1.6281285939692763e-05,0.0929117100519352,-9.903214060307237e-06
0.0937058272318663,-0.0001062520454302,0.0937058272318663,5.036279809851229e-06,0.0937058272318663,-1.4938723048797247e-05,0.0937058272318663,-1.0238769237800688e-05
0.0944999444117974,-4.716973592747676e-05,0.0944999444117974,4.531965249262583e-06,0.0944999444117974,-1.3595893998033555e-05,0.0944999444117974,-9.231780497825152e-06
0.0952940615917284,5.012423841074825e-07,0.0952940615917284,-7.720477358580626e-06,0.0952940615917284,-9.567604841325992e-06,0.0952940615917284,-2.853748498080955e-06
0.0960881787716595,2.73586820738325e-05,0.0960881787716595,-1.8966699367295254e-05,0.0960881787716595,-6.881891792745066e-06,0.0960881787716595,-1.6785214094429215e-06
0.0968822959515906,5.555440567881916e-05,0.0968822959515906,-1.762437592068009e-05,0.0968822959515906,-4.86789387971003e-06,0.0968822959515906,-2.5176300495749443e-06
0.0976764131315216,7.334815369101353e-05,0.0976764131315216,-1.3596240676209592e-05,0.0976764131315216,-7.552926216954194e-06,0.0976764131315216,2.5171891569258564e-06
0.0984705303114527,6.663678919775519e-05,0.0984705303114527,-1.1760300285719992e-06,0.0984705303114527,-1.1916917017510022e-05,0.0984705303114527,5.538764857938637e-06
0.0992646474913838,4.951663207941693e-05,0.0992646474913838,3.860197037449311e-06,0.0992646474913838,-9.735404283970336e-06,0.0992646474913838,5.038809633441707e-07
0.1000587646713148,2.9715168018384727e-05,0.1000587646713148,-5.022550467865421e-07,0.1000587646713148,-7.553866476903e-06,0.1000587646713148,-1.676500840070559e-07
0.1008528818512459,-1.0025293395613448e-06,0.1008528818512459,-2.8530903314711515e-06,0.1008528818512459,-1.1581000569171585e-05,0.1008528818512459,-2.853040378802916e-06
0.101646999031177,-3.3737660062774585e-05,0.101646999031177,-3.776605740026848e-05,0.101646999031177,-1.3260097951927771e-05,0.101646999031177,-5.203327132711083e-06
0.1024411162111081,-7.603796013041857e-05,0.1024411162111081,-6.193232192681999e-05,0.1024411162111081,-1.309256850922918e-05,0.1024411162111081,-8.896648735182289e-06
0.1032352333910391,-9.146635355106162e-05,0.1032352333910391,-3.4061706853205875e-05,0.1032352333910391,-1.5610888091116754e-05,0.1032352333910391,-1.3261580151861258e-05
0.1040293505709702,-5.249949572100685e-05,0.1040293505709702,5.722487486935619e-06,0.1040293505709702,-1.86314480335531e-05,0.1040293505709702,-1.82956e-05
0.1048234677509013,3.200256333993428e-05,0.1048234677509013,4.109938898553928e-05,0.1048234677509013,-1.8966775250286253e-05,0.1048234677509013,-1.82956e-05
0.1056175849308323,5.453924225100218e-05,0.1056175849308323,5.3537406938139584e-05,0.1056175849308323,-1.7121565218779713e-05,0.1056175849308323,-1.7960075489571246e-05
0.1064117021107634,-2.6993095182488492e-05,0.1064117021107634,4.582569676647892e-05,0.1064117021107634,-1.8630733222582316e-05,0.1064117021107634,-2.0980066482682165e-05
0.1072058192906945,-3.843490229235428e-05,0.1072058192906945,3.340482689438452e-05,0.1072058192906945,-1.7960052806332102e-05,0.1072058192906945,-2.3330465200597003e-05
0.1079999364706256,-1.96399041499525e-05,0.1079999364706256,1.3933057869879418e-05,0.1079999364706256,-1.359614917952496e-05,0.1079999364706256,-2.4338019420109624e-05
0.1087940536505566,-2.098233415519969e-05,0.1087940536505566,-4.197103299301047e-06,0.1087940536505566,-1.2924354633521732e-05,0.1087940536505566,-2.467368658380433e-05
0.1095881708304877,-3.776479992404883e-05,0.1095881708304877,-1.7122730669273495e-05,0.1095881708304877,-1.225318055534674e-05,0.1095881708304877,-2.299573335865039e-05
0.1103822880104188,-3.1702860135969505e-05,0.1103822880104188,-2.702418707857732e-05,0.1103822880104188,-1.3092139133314512e-05,0.1103822880104188,-2.500755172196408e-05
0.1111764051903498,2.5173037042827536e-05,0.1111764051903498,-2.8361709324913546e-05,0.1111764051903498,-1.292354451320468e-05,0.1111764051903498,-1.9638057805281877e-05
0.1119705223702809,1.6622242960608823e-05,0.1119705223702809,-1.897264714533867e-05,0.1119705223702809,-1.1246908429538908e-05,0.1119705223702809,-1.8967403371815563e-05
0.112764639550212,-2.90171741371914e-05,0.112764639550212,-1.3598238347482589e-05,0.112764639550212,-1.3594733222976367e-05,0.112764639550212,-2.0309190413129357e-05
0.1135587567301431,-5.185840599161419e-05,0.1135587567301431,-1.913310293232071e-05,0.1135587567301431,-1.6951771464849364e-05,0.1135587567301431,-1.863181426757532e-05
0.1143528739100741,-3.374057874099312e-05,0.1143528739100741,-1.561055975034078e-05,0.1143528739100741,-1.4938919861874829e-05,0.1143528739100741,-1.7624359930937413e-05
0.1151469910900052,-7.049969483888808e-06,0.1151469910900052,-1.0238860273758069e-05,0.1151469910900052,-1.2253030136879037e-05,0.1151469910900052,-1.695280753421976e-05
0.1159411082699363,1.3937817073523151e-05,0.1159411082699363,-6.210236896992727e-06,0.1159411082699363,-1.5609542239072815e-05,0.1159411082699363,-1.62814e-05
0.1167352254498673,6.0259901676807336e-05,0.1167352254498673,-4.867487021057034e-06,0.1167352254498673,-1.2252428084228134e-05,0.1167352254498673,-1.628125700685994e-05
0.1175293426297984,6.731169572814699e-05,0.1175293426297984,-4.359739613121133e-06,0.1175293426297984,-1.023966808168558e-05,0.1175293426297984,-1.5777148960284857e-05
0.1183234598097295,7.703618501340846e-05,0.1183234598097295,5.7000269443967765e-06,0.1183234598097295,-1.2251631382084509e-05,0.1183234598097295,-1.4268226429462389e-05
0.1191175769896605,7.838488461173331e-05,0.1191175769896605,-7.881666731092778e-06,0.1191175769896605,-1.0239873082400047e-05,0.1191175769896605,-9.73767443007252e-06
0.1199116941695916,3.945959917119821e-05,0.1199116941695916,-3.3056602252563266e-05,0.1199116941695916,-8.560956515468645e-06,0.1199116941695916,-7.721845819332726e-06
0.1207058113495227,2.383830885887928e-05,0.1207058113495227,-3.508002143603109e-05,0.1207058113495227,-8.224689760661485e-06,0.1207058113495227,-1.225192323582186e-05
0.1214999285294538,3.0715780546593376e-05,0.1214999285294538,-3.172380217458893e-05,0.1214999285294538,-1.426665608664007e-05,0.1214999285294538,-1.1581660434917785e-05
0.1222940457093848,1.3258090128411456e-05,0.1222940457093848,-3.273077393169335e-05,0.1222940457093848,-1.30919970831452e-05,0.1222940457093848,-1.3595761348512588e-05
0.1230881628893159,-2.1657455229941457e-05,0.1230881628893159,-3.575389717892761e-05,0.1230881628893159,-9.56796094951888e-06,0.1230881628893159,-1.2924537737892595e-05
0.123882280069247,-4.532421408654233e-05,0.123882280069247,-4.548757364859556e-05,0.123882280069247,-1.2253118412148889e-05,0.123882280069247,-1.359556317570222e-05
0.124676397249178,-5.925247744086895e-05,0.124676397249178,-4.682805486501261e-05,0.124676397249178,-1.2588867744086896e-05,0.124676397249178,-1.29244e-05
0.1254705144291091,-6.260574960820049e-05,0.1254705144291091,-4.313955536990136e-05,0.1254705144291091,-1.292419496082005e-05,0.1254705144291091,-1.29244e-05
0.1262646316090402,-6.227225575421308e-05,0.1262646316090402,-3.8607402705075136e-05,0.1262646316090402,-1.0407868133399747e-05,0.1262646316090402,-1.426657698314764e-05
0.1270587487889713,-6.059413105505249e-05,0.1270587487889713,-2.9712114575958848e-05,0.1270587487889713,-1.2252415855261595e-05,0.1270587487889713,-1.1079108988780391e-05
0.1278528659689023,-5.153123003081345e-05,0.1278528659689023,-4.179245995891541e-05,0.1278528659689023,-1.158171333561581e-05,0.1278528659689023,-9.56766501188777e-06
0.1286469831488334,-3.709500635590616e-05,0.1286469831488334,-4.98510290115948e-05,0.1286469831488334,-1.2588678626184062e-05,0.1286469831488334,-9.56741e-06
0.1294411003287645,-2.467346066385754e-05,0.1294411003287645,-4.380836065122168e-05,0.1294411003287645,-1.1246281767375617e-05,0.1294411003287645,-6.210207908277133e-06
0.1302352175086955,-2.1994093565998584e-05,0.1302352175086955,-4.111978937520422e-05,0.1302352175086955,-1.4268119617998828e-05,0.1302352175086955,-4.533309421519435e-06
0.1310293346886266,-4.315567242694057e-05,0.1310293346886266,-2.903026838362609e-05,0.1310293346886266,-1.762518928906133e-05,0.1310293346886266,-9.56741e-06
0.1318234518685577,-8.674801082434374e-05,0.1318234518685577,-1.0922698568989196e-05,0.1318234518685577,-1.997247980619341e-05,0.1318234518685577,-9.56741e-06
0.1326175690484888,-0.0001263685002416,0.1326175690484888,3.852513037260176e-06,0.1326175690484888,-2.098065338631366e-05,0.1326175690484888,-9.56741e-06
0.1334116862284198,-0.0001216928569428,0.1334116862284198,1.141071515102528e-05,0.1334116862284198,-1.8296661290876085e-05,0.1334116862284198,-1.3594208067637656e-05
0.1342058034083509,-8.645112743123607e-05,0.1342058034083509,1.3595259719600204e-05,0.1342058034083509,-1.7288749354470752e-05,0.1342058034083509,-1.4267033763686163e-05
0.134999920588282,-3.0386306997369505e-05,0.134999920588282,1.023913574954326e-05,0.134999920588282,-1.71206167924779e-05,0.134999920588282,-1.326020072486298e-05
0.135794037768213,8.644712657295e-05,0.135794037768213,-1.0075071884284027e-06,0.135794037768213,-1.89671437142345e-05,0.135794037768213,-1.1581631936496554e-05
0.1365881549481441,0.0001858117514028,0.1365881549481441,-9.56832715836069e-06,0.1365881549481441,-2.198797244274565e-05,0.1365881549481441,-1.2253655114508698e-05
0.1373822721280752,0.0001998962645624,0.1373822721280752,-1.4270536550677342e-05,0.1373822721280752,-2.030749890693076e-05,0.1373822721280752,-1.5609194617425768e-05
0.1381763893080062,0.0001656549995194,0.1381763893080062,-2.4003386344888356e-05,0.1381763893080062,-1.3592019021055216e-05,0.1381763893080062,-1.326125073570308e-05
0.1389705064879373,0.0001411762125869,0.1389705064879373,-2.601534964528728e-05,0.1389705064879373,-5.879513013983354e-06,0.1389705064879373,-1.5608541252835164e-05
0.1397646236678684,0.0001146535696827,0.1397646236678684,-2.8365386218040338e-05,0.1397646236678684,-3.1904128841887885e-06,0.1397646236678684,-1.8294327106331813e-05
0.1405587408477994,5.960446913705629e-05,0.1405587408477994,-4.204118889996588e-06,0.1405587408477994,-4.867082160734226e-06,0.1405587408477994,-1.762441913701186e-05
0.1413528580277305,3.810564160153307e-05,0.1413528580277305,3.104579737354648e-05,0.1413528580277305,-8.224009750542736e-06,0.1413528580277305,-2.098059974696661e-05
0.1421469752076616,2.803111446302205e-05,0.1421469752076616,5.220043963077614e-05,0.1421469752076616,-6.8818619280906944e-06,0.1421469752076616,-2.182037379630939e-05
0.1429410923875927,-2.0981942149299343e-05,0.1429410923875927,4.145762816694464e-05,0.1429410923875927,-8.22461e-06,0.1429410923875927,-1.7288539061101845e-05
0.1437352095675237,-2.736631110935314e-05,0.1437352095675237,3.138080029426058e-05,0.1437352095675237,-8.225141623187305e-06,0.1437352095675237,-1.7624377208608898e-05
0.1445293267474548,-5.355466191035388e-05,0.1445293267474548,4.8629389135060205e-06,0.1445293267474548,-1.0239213921209776e-05,0.1445293267474548,-1.8294979097635183e-05
0.1453234439273859,-7.971008492658647e-05,0.1453234439273859,-6.538136510944506e-06,0.1453234439273859,-1.124519557140924e-05,0.1453234439273859,-1.678595667785926e-05
0.146117561107317,-5.389388822315415e-05,0.146117561107317,1.459120963459613e-05,0.146117561107317,-9.903842248230146e-06,0.146117561107317,-1.3262048373966052e-05
0.146911678287248,-2.300781369413689e-05,0.146911678287248,1.309281210510624e-05,0.146911678287248,-1.392986777374067e-05,0.146911678287248,-1.4434523954266685e-05
0.1477057954671791,-3.004318401130061e-05,0.1477057954671791,-1.7784044291503212e-05,0.1477057954671791,-1.695202171912883e-05,0.1477057954671791,-1.493847027364157e-05
0.1484999126471102,-3.776525055365579e-05,0.1484999126471102,-2.2994727552529714e-05,0.1484999126471102,-1.7624126135100502e-05,0.1484999126471102,-1.3595947729798991e-05
0.1492940298270412,-2.8366121681171587e-05,0.1492940298270412,-4.1951580923954e-06,0.1492940298270412,-1.6952825221505665e-05,0.1492940298270412,-1.5274363053764162e-05
0.1500881470069723,-1.829833475552446e-05,0.1500881470069723,2.4336421861717954e-05,0.1500881470069723,-1.7624075692089128e-05,0.1500881470069723,-1.6952427076267383e-05
0.1508822641869034,-3.3074230464947096e-05,0.1508822641869034,1.5263297879843577e-05,0.1508822641869034,-1.6953805274422257e-05,0.1508822641869034,-1.4938823394316056e-05
0.1516763813668344,-5.690524796567837e-05,0.1516763813668344,-1.7795945395807305e-05,0.1516763813668344,-1.9973294812287216e-05,0.1516763813668344,-1.5611690870211514e-05
0.1524704985467655,-6.59589829285204e-05,0.1524704985467655,-2.601141226129316e-05,0.1524704985467655,-1.8296658728621382e-05,0.1524704985467655,-1.913257670143303e-05
0.1532646157266966,-4.985899847339337e-05,0.1532646157266966,-3.708933851626903e-05,0.1532646157266966,-1.7121168666412462e-05,0.1532646157266966,-1.762493108721929e-05
0.1540587329066277,-3.1394010896436115e-05,0.1540587329066277,-9.011715779270122e-05,0.1540587329066277,-1.5274921076188028e-05,0.1540587329066277,-1.561067755600819e-05
0.1548528500865587,-2.2325611335566554e-05,0.1548528500865587,-0.000112286816773,0.1548528500865587,-1.52743e-05,0.1548528500865587,-1.7623819703207435e-05
0.1556469672664898,-2.0309883033454475e-05,0.1556469672664898,-0.0001075911937625,0.1556469672664898,-1.3931555358384725e-05,0.1556469672664898,-1.829557232080764e-05
0.1564410844464209,-2.299430030965572e-05,0.1564410844464209,-4.917362330693194e-05,0.1564410844464209,-1.3595657185574309e-05,0.1564410844464209,-1.4938457185574307e-05
0.157235201626352,-1.3587445838110242e-05,0.157235201626352,8.893537853711804e-06,0.157235201626352,-1.225317049361803e-05,0.157235201626352,-1.359597049361803e-05
0.158029318806283,1.930700781476012e-05,0.158029318806283,-8.498809581413521e-07,0.158029318806283,-1.2925880825108653e-05,0.158029318806283,-1.4266526897677883e-05
0.1588234359862141,3.003737886126799e-05,0.1588234359862141,-2.7340585242189447e-05,0.1588234359862141,-1.6614480209173482e-05,0.1588234359862141,-1.2589890814012054e-05
0.1596175531661451,3.2042534854517266e-06,0.1596175531661451,-2.7023888919552985e-05,0.1596175531661451,-1.628158891955298e-05,0.1596175531661451,-1.3595233241341054e-05
0.1604116703460762,-7.264720109427983e-05,0.1604116703460762,-1.7795832828876333e-05,0.1604116703460762,-1.0241308774306803e-05,0.1604116703460762,-1.2421287837985384e-05
0.1612057875260073,-0.0001290609081114,0.1612057875260073,-3.52864788737244e-06,0.1612057875260073,-1.3259291501670034e-05,0.1612057875260073,-9.232563398847883e-06
0.1619999047059384,-0.00015391501852,0.1619999047059384,-4.1961494201096125e-06,0.1619999047059384,-1.795933594076729e-05,0.1619999047059384,-1.0574338841419404e-05
0.1627940218858694,-0.0001478740746742,0.1627940218858694,-5.203080163152488e-06,0.1627940218858694,-1.896702775977223e-05,0.1627940218858694,-1.225303701302964e-05
0.1635881390658005,-0.0001142985912734,0.1635881390658005,3.861676534472963e-06,0.1635881390658005,-1.997418818593271e-05,0.1635881390658005,-1.35958e-05
0.1643822562457316,-7.769274884362456e-05,0.1643822562457316,1.0410166836930264e-05,0.1643822562457316,-2.047732916697989e-05,0.1643822562457316,-1.3594716603374056e-05
0.1651763734256627,-1.1212628759861065e-05,0.1651763734256627,2.1150497977082905e-05,0.1651763734256627,-1.963571936740321e-05,0.1651763734256627,-1.0239430737081595e-05
0.1659704906055937,5.954111430397172e-05,0.1659704906055937,2.4336056591571034e-05,0.1659704906055937,-1.3935156682939783e-05,0.1659704906055937,-1.158073960401417e-05
0.1667646077855248,0.000119982151441,0.1667646077855248,2.7357907559705484e-05,0.1667646077855248,-1.1582760786895737e-05,0.1667646077855248,-9.568404955256618e-06
0.1675587249654559,0.0002240429521159,0.1675587249654559,2.584932325841604e-05,0.1675587249654559,-1.15816e-05,0.1675587249654559,-1.0574151152973515e-05
0.1683528421453869,0.000292547385139,0.1683528421453869,1.9304001425796564e-05,0.1683528421453869,-1.15816e-05,0.1683528421453869,-1.0910133259705791e-05
0.169146959325318,0.0002697351693714,0.169146959325318,1.426745795637404e-05,0.169146959325318,-1.2588648408725193e-05,0.169146959325318,-1.2252931211633588e-05
0.1699410765052491,0.0001455143743748,0.1699410765052491,6.20812343382809e-06,0.1699410765052491,-1.493853530777802e-05,0.1699410765052491,-9.567571729591404e-06
0.1707351936851801,3.5245474830878235e-05,0.1707351936851801,-1.7625428315310124e-05,0.1707351936851801,-1.4267363778627163e-05,0.1707351936851801,-1.124581811068642e-05
0.1715293108651112,2.3678907809778186e-05,0.1715293108651112,-2.26513302216308e-05,0.1715293108651112,-1.4938403079660336e-05,0.1715293108651112,-1.0909937465615468e-05
0.1723234280450423,5.486423907700701e-05,0.1723234280450423,-1.5258554119776372e-06,0.1723234280450423,-1.4435362310083897e-05,0.1723234280450423,-1.0239283032149182e-05
0.1731175452249733,2.3181370095159496e-05,0.1731175452249733,6.541505373748885e-06,0.1731175452249733,-1.0912218880370016e-05,0.1731175452249733,-1.4264892675419152e-05
0.1739116624049044,-4.21024383732853e-05,0.1739116624049044,9.06278950040824e-06,0.1739116624049044,-6.883532797646087e-06,0.1739116624049044,-1.7622772661541883e-05
0.1747057795848355,2.337542284189553e-06,0.1747057795848355,1.527257597587645e-05,0.1747057795848355,-7.888630430846351e-06,0.1747057795848355,-2.030905447485424e-05
0.1754998967647666,4.04467460336928e-05,0.1754998967647666,2.1651770698628305e-05,0.1754998967647666,-1.1581119879453418e-05,0.1754998967647666,-1.8295861884643696e-05
0.1762940139446976,-1.1582107033773712e-05,0.1762940139446976,6.545666027732822e-06,0.1762940139446976,-1.1245852834079817e-05,0.1762940139446976,-1.6617105895761978e-05
0.1770881311246287,-4.045247612898952e-05,0.1770881311246287,-1.930796666860514e-05,0.1770881311246287,-8.560698071100537e-06,0.1770881311246287,-1.6952578244141727e-05
0.1778822483045598,-4.515412953634618e-05,0.1778822483045598,-5.119573219012184e-05,0.1778822483045598,-1.0911249821671607e-05,0.1778822483045598,-1.5609160142662717e-05
0.1786763654844909,-5.3889168475917386e-05,0.1786763654844909,-5.672983623752272e-05,0.1786763654844909,-1.4269051971978763e-05,0.1786763654844909,-1.2923088209501487e-05
0.1794704826644219,-7.467935602441952e-05,0.1794704826644219,-4.985567823896978e-05,0.1794704826644219,-1.829297857277662e-05,0.1794704826644219,-1.00728568117464e-05
0.180264599844353,-0.0001008638038847,0.180264599844353,-6.260137100059665e-05,0.180264599844353,-1.69534767367793e-05,0.180264599844353,-7.554488896580416e-06
0.181058717024284,-0.0001179918982024,0.181058717024284,-4.113075698786363e-05,0.181058717024284,-1.6617219640992233e-05,0.181058717024284,-7.55322e-06
0.1818528342042151,-0.0001346115301907,0.1818528342042151,2.8442572229683705e-06,0.1818528342042151,-1.577797525491461e-05,0.1818528342042151,-9.566989415350336e-06
0.1826469513841462,-0.0001586165303194,0.1826469513841462,2.400110506958876e-05,0.1826469513841462,-1.728840750129688e-05,0.1826469513841462,-1.628098890887156e-05
0.1834410685640773,-0.0001592860721239,0.1834410685640773,1.4265373724128216e-05,0.1834410685640773,-1.6448982589700972e-05,0.1834410685640773,-1.76242e-05
0.1842351857440083,-0.0001253705135812,0.1842351857440083,-6.8852753953198114e-06,0.1842351857440083,-1.3931421468181852e-05,0.1842351857440083,-1.7624239254212348e-05
0.1850293029239394,-7.198696180101555e-05,0.1850293029239394,-2.1656309465579163e-05,0.1850293029239394,-1.3597462880961256e-05,0.1850293029239394,-1.7791680234251576e-05
0.1858234201038705,-1.867023400730434e-05,0.1858234201038705,-3.138069886188719e-05,0.1858234201038705,-1.7956716698492267e-05,0.1858234201038705,-1.6953412136895417e-05
0.1866175372838016,2.196462827847224e-05,0.1866175372838016,-3.709137421275476e-05,0.1866175372838016,-1.8630908730912323e-05,0.1866175372838016,-1.69528e-05
0.1874116544637326,3.6081464207186114e-05,0.1874116544637326,-3.70947e-05,0.1874116544637326,-1.4604653096094948e-05,0.1874116544637326,-1.7959461725976265e-05
0.1882057716436637,3.0717944770218456e-05,0.1882057716436637,-3.1053837866495764e-05,0.1882057716436637,-1.2253675836970573e-05,0.1882057716436637,-2.098033106675212e-05
0.1889998888235948,7.418331288178468e-05,0.1889998888235948,-3.071644700493605e-05,0.1889998888235948,-1.7287794925959255e-05,0.1889998888235948,-1.82959760394884e-05
0.1897940060035258,0.0001205154022393,0.1897940060035258,-1.8295504815155878e-05,0.1897940060035258,-2.030975177293569e-05,0.1897940060035258,-1.4267215229599257e-05
0.1905881231834569,4.1446691112726166e-05,0.1905881231834569,-5.706218984738673e-06,0.1905881231834569,-1.3931083348246922e-05,0.1905881231834569,-1.6281608325876538e-05
0.191382240363388,-3.6584138755394606e-05,0.191382240363388,-1.5079977706437808e-06,0.191382240363388,-1.1245188630325076e-05,0.191382240363388,-1.762247238058044e-05
0.192176357543319,-1.3573153431040576e-05,0.192176357543319,7.218576839584946e-06,0.192176357543319,-8.895708044547901e-06,0.192176357543319,-1.1914129481245162e-05
0.1929704747232501,3.672572930102746e-05,0.1929704747232501,9.565857367821764e-06,0.1929704747232501,-8.225053611081569e-06,0.1929704747232501,-4.872287896534705e-06
0.1937645919031812,7.635104018334466e-05,0.1937645919031812,1.0909509838378724e-05,0.1937645919031812,-1.0908819671617687e-05,0.1937645919031812,-7.216312213307948e-06
0.1945587090831123,9.784822813342876e-05,0.1945587090831123,1.6615009025709673e-05,0.1945587090831123,-1.1749092522100537e-05,0.1945587090831123,-1.090884702396355e-05
0.1953528262630433,6.47970353127568e-05,0.1953528262630433,-1.506673427735365e-06,0.1953528262630433,-1.5609155253281167e-05,0.1953528262630433,-1.2588332723574689e-05
0.1961469434429744,1.85082349480634e-06,0.1961469434429744,-2.5679178340034407e-05,0.1961469434429744,-1.493864782416494e-05,0.1961469434429744,-1.3595728263752588e-05
0.1969410606229055,-1.1581805048960974e-05,0.1969410606229055,-5.186693785957218e-05,0.1969410606229055,-1.2420530877819796e-05,0.1969410606229055,-1.0574423107403149e-05
0.1977351778028366,-1.427144733803735e-05,0.1977351778028366,-7.200459374677517e-05,0.1977351778028366,-8.896235520728846e-06,0.1977351778028366,-9.568161740987928e-06
0.1985292949827676,-3.324709193429741e-05,0.1985292949827676,-5.991896142315419e-05,0.1985292949827676,-9.904096485183326e-06,0.1985292949827676,-1.29244e-05
0.1993234121626987,-6.795320914379648e-05,0.1993234121626987,-5.1200453788091865e-05,0.1993234121626987,-1.2586714219048655e-05,0.1993234121626987,-1.29244e-05
0.2001175293426297,-8.20699423343506e-05,0.2001175293426297,-4.515498185670689e-05,0.2001175293426297,-1.6279211087568013e-05,0.2001175293426297,-1.29244e-05
0.2009116465225608,-3.275256888995473e-05,0.2009116465225608,-3.105837680662196e-05,0.2009116465225608,-1.8294703306979927e-05,0.2009116465225608,-1.896430992093977e-05
0.2017057637024919,2.465671622585427e-05,0.2017057637024919,-2.7024898867608903e-05,0.2017057637024919,-1.930240028309777e-05,0.2017057637024919,-2.198740084929332e-05
0.202499880882423,5.0854371745345605e-05,0.202499880882423,-3.2897518664949945e-05,0.202499880882423,-2.0980948187842525e-05,0.202499880882423,-2.366644820284474e-05
0.203293998062354,7.234294756959499e-05,0.203293998062354,-2.5680917613299145e-05,0.203293998062354,-1.493861474612004e-05,0.203293998062354,-2.2323903276915565e-05
0.2040881152422851,5.454973317668347e-05,0.2040881152422851,-2.850614018233145e-06,0.2040881152422851,-1.4267809042414338e-05,0.2040881152422851,-1.8463497447947427e-05
0.2048822324222162,4.582447054199698e-05,0.2048822324222162,1.660943518659422e-05,0.2048822324222162,-1.84635474154006e-05,0.2048822324222162,-1.91349474154006e-05
0.2056763496021472,5.151346139802209e-05,0.2056763496021472,-9.57316730532917e-06,0.2056763496021472,-1.8966704751092216e-05,0.2056763496021472,-1.9638104751092217e-05
0.2064704667820783,1.4627667335280705e-05,0.2064704667820783,-2.265081888007386e-05,0.2064704667820783,-1.8296050317625885e-05,0.2064704667820783,-1.8967450317625884e-05
0.2072645839620094,-4.042285263834192e-05,0.2072645839620094,-1.360054922561596e-05,0.2072645839620094,-1.561140719348554e-05,0.2072645839620094,-2.047680847986325e-05
0.2080587011419405,-7.635787998508865e-05,0.2080587011419405,-6.380986646108491e-06,0.2080587011419405,-1.124754262778015e-05,0.2080587011419405,-1.661855307498574e-05
0.2088528183218715,-2.9719976930727867e-05,0.2088528183218715,3.858187221635195e-06,0.2088528183218715,-6.882818561570328e-06,0.2088528183218715,-1.3764252920075006e-05
0.2096469355018026,1.5081039422520322e-06,0.2096469355018026,2.1986827445230138e-05,0.2096469355018026,-7.217492730422096e-06,0.2096469355018026,-1.1581777248194776e-05
0.2104410526817337,-2.43380554527506e-05,0.2104410526817337,2.1316320885757805e-05,0.2104410526817337,-9.56741e-06,0.2104410526817337,-8.5601318116659e-06
0.2112351698616647,-2.3668351787027447e-05,0.2112351698616647,1.2589418168272805e-05,0.2112351698616647,-9.567481814687963e-06,0.2112351698616647,-5.875150898824366e-06
0.2120292870415958,-3.139119380652124e-05,0.2120292870415958,1.594788173276365e-05,0.2120292870415958,-9.903706036878792e-06,0.2120292870415958,-7.889273622127275e-06
0.2128234042215269,-4.078035587504956e-05,0.2128234042215269,2.198377163396044e-05,0.2128234042215269,-1.1580342120544564e-05,0.2128234042215269,-8.895255272326738e-06
0.2136175214014579,-5.32007131274928e-05,0.2136175214014579,3.574360372935398e-05,0.2136175214014579,-1.292359060186118e-05,0.2136175214014579,-8.560512349534707e-06
0.214411638581389,-7.199874289092103e-05,0.214411638581389,3.977846632401479e-05,0.214411638581389,-1.4937683162007392e-05,0.214411638581389,-8.224762806332102e-06
0.2152057557613201,-8.744474989604204e-05,0.2152057557613201,2.937680115701515e-05,0.2152057557613201,-1.6280986947481914e-05,0.2152057557613201,-6.211039575701073e-06
0.2159998729412512,-0.0001022176363712,0.2159998729412512,2.7359722319561504e-05,0.2159998729412512,-1.6952692560146167e-05,0.2159998729412512,-5.539137438253598e-06
0.2167939901211822,-0.0001159838287505,0.2167939901211822,3.3234126906702426e-05,0.2167939901211822,-1.5610016706897253e-05,0.2167939901211822,-8.895968233005704e-06
0.2175881073011133,-0.0001092649189544,0.2175881073011133,3.373618022973504e-05,0.2175881073011133,-1.4938690732956534e-05,0.2175881073011133,-1.2253e-05
0.2183822244810444,-7.165783815281803e-05,0.2183822244810444,2.248340052999673e-05,0.2183822244810444,-1.5610664367766098e-05,0.2183822244810444,-1.2253379638723484e-05
0.2191763416609755,-2.297697764587361e-05,0.2191763416609755,-7.230648625965332e-06,0.2191763416609755,-1.7959178644091384e-05,0.2191763416609755,-1.359479010172794e-05
0.2199704588409065,1.960937910133012e-05,0.2199704588409065,-3.7745305481938247e-05,0.2199704588409065,-1.628254256042561e-05,0.2199704588409065,-1.1247499584595858e-05
0.2207645760208376,7.097277388798314e-05,0.2207645760208376,-6.0245889855763216e-05,0.2207645760208376,-1.561035851336223e-05,0.2207645760208376,-9.568306278065784e-06
0.2215586932007686,0.0001117722397157,0.2215586932007686,-7.670074407819154e-05,0.2215586932007686,-1.393214856739267e-05,0.2215586932007686,-1.02385405769069e-05
0.2223528103806997,0.0001156470781731,0.2223528103806997,-0.0001142960210485,0.2223528103806997,-1.258902068110372e-05,0.2223528103806997,-1.325937846751663e-05
0.2231469275606308,0.000122697356804,0.2231469275606308,-0.0001176616937292,0.2231469275606308,-1.426704686463331e-05,0.2231469275606308,-1.4602777491706648e-05
0.2239410447405619,8.308235451445973e-05,0.2239410447405619,-9.953236790801766e-05,0.2239410447405619,-1.1245956748387765e-05,0.2239410447405619,-1.3931708077421796e-05
0.2247351619204929,2.903605161843284e-05,0.2247351619204929,-5.9910835797815466e-05,0.2247351619204929,-1.2252726162672567e-05,0.2247351619204929,-1.7623378488017702e-05
0.225529279100424,1.9970446526299423e-05,0.225529279100424,-4.185505336255219e-06,0.225529279100424,-1.090996429179282e-05,0.225529279100424,-1.3595092875378464e-05
0.2263233962803551,9.575312796466982e-06,0.2263233962803551,2.6329101575240974e-05,0.2263233962803551,-1.0239309858326512e-05,0.2263233962803551,-1.1583129574979536e-05
0.2271175134602862,-2.867874951499186e-05,0.2271175134602862,8.571212405192003e-06,0.2271175134602862,-8.561338529022934e-06,0.2271175134602862,-1.426555434375898e-05
0.2279116306402172,-7.467150564866381e-05,0.2279116306402172,-1.2243317884559068e-05,0.2279116306402172,-7.553688486830754e-06,0.2279116306402172,-1.2757202760483394e-05
0.2287057478201483,-0.0001005337901483,0.2287057478201483,-2.047498781056924e-05,0.2287057478201483,-6.5464398618748285e-06,0.2287057478201483,-1.1581973156306955e-05
0.2294998650000794,-9.903135689090684e-05,0.2294998650000794,-2.366615777298892e-05,0.2294998650000794,-1.090945799690994e-05,0.2294998650000794,-1.3595457535465894e-05
0.2302939821800104,-8.711406746367928e-05,0.2302939821800104,-1.4603103421689157e-05,0.2302939821800104,-1.6952664384044345e-05,0.2302939821800104,-1.242082637089132e-05
0.2310880993599415,-6.327422195430361e-05,0.2310880993599415,-1.8483144171881847e-06,0.2310880993599415,-1.7959857991017157e-05,0.2310880993599415,-1.4938936071862762e-05
0.2318822165398726,-2.3486723613880884e-05,0.2318822165398726,-1.7628411373258094e-05,0.2318822165398726,-1.7623650686887374e-05,0.2318822165398726,-1.7623742239072813e-05
0.2326763337198036,2.1162457597396405e-05,0.2326763337198036,-3.306883652237197e-05,0.2326763337198036,-1.561028183581911e-05,0.2326763337198036,-1.5945911355875664e-05
0.2334704508997347,5.318605696198248e-05,0.2334704508997347,-3.910472642356876e-05,0.2334704508997347,-1.6280936269285415e-05,0.2334704508997347,-1.6448852236498673e-05
0.2342645680796658,9.279905163596336e-05,0.2342645680796658,-3.541820875594203e-05,0.2342645680796658,-1.62814e-05,0.2342645680796658,-1.628149127988926e-05
0.2350586852595969,0.0001502022449823,0.2350586852595969,-7.5642648432705315e-06,0.2350586852595969,-1.527469921292187e-05,0.2350586852595969,-1.6616966929026046e-05
0.2358528024395279,0.0001435126705554,0.2358528024395279,4.043975557348198e-05,0.2358528024395279,-1.4267450583314093e-05,0.2358528024395279,-1.66171e-05
0.236646919619459,8.846217342878458e-05,0.236646919619459,8.543074608803158e-05,0.236646919619459,-1.2924535938275086e-05,0.236646919619459,-2.1652090231468424e-05
0.2374410367993901,2.064422419573447e-05,0.2374410367993901,0.0001193406265835,0.2374410367993901,-1.4938491089563256e-05,0.2374410367993901,-1.963834554246429e-05
0.2382351539793211,-6.875830665956109e-06,0.2382351539793211,0.0001112765784294,0.2382351539793211,-1.2588895305509274e-05,0.2382351539793211,-1.8463139592654302e-05
0.2390292711592522,2.398865996844573e-05,0.2390292711592522,7.300317898673698e-05,0.2390292711592522,-1.3596601505819942e-05,0.2390292711592522,-1.7119397758324128e-05
0.2398233883391833,-1.625040626162591e-05,0.2398233883391833,4.014131152479474e-05,0.2398233883391833,-1.594389202295202e-05,0.2398233883391833,-1.359851192710273e-05
0.2406175055191144,-8.740517850741261e-05,0.2406175055191144,1.797369819640985e-05,0.2406175055191144,-1.661668187094888e-05,0.2406175055191144,-1.2253836258102245e-05
0.2414116226990454,-0.0001290562194985,0.2414116226990454,-9.554329294283654e-06,0.2414116226990454,-2.0979126222801407e-05,0.2414116226990454,-1.6615026222801406e-05
0.2422057398789765,-0.0001488755113891,0.2422057398789765,-2.7017981173777323e-05,0.2422057398789765,-1.6282939693685275e-05,0.2422057398789765,-1.963741019691661e-05
0.2429998570589076,-0.000112297587352,0.2429998570589076,-3.776416608263089e-05,0.2429998570589076,-1.4603202174588923e-05,0.2429998570589076,-1.7288923044424492e-05
0.2437939742388386,-5.992389909459212e-05,0.2437939742388386,-5.320769898434563e-05,0.2437939742388386,-1.628134554142404e-05,0.2437939742388386,-1.3595919808867117e-05
0.2445880914187697,7.732897324060898e-06,0.2445880914187697,-5.656589572677341e-05,0.2445880914187697,-1.6281322697025177e-05,0.2445880914187697,-1.3932002469336348e-05
0.2453822085987008,0.0001104567298674,0.2453822085987008,-6.260832916814002e-05,0.2453822085987008,-1.5610440973450018e-05,0.2453822085987008,-1.8294629858409964e-05
0.2461763257786318,0.0001550720214952,0.2461763257786318,-6.46225502175711e-05,0.2461763257786318,-1.7288706326466853e-05,0.2461763257786318,-1.46029e-05
0.2469704429585629,0.0001039348706658,0.2469704429585629,-6.596375919555032e-05,0.2469704429585629,-1.779164720708988e-05,0.2469704429585629,-1.46029e-05
0.247764560138494,6.430824471269342e-05,0.247764560138494,-6.0261061463025714e-05,0.247764560138494,-1.5611208788168873e-05,0.247764560138494,-1.829355431160807e-05
0.2485586773184251,4.78436849950001e-05,0.2485586773184251,-5.958677285693878e-05,0.2485586773184251,-1.628112714306122e-05,0.2485586773184251,-1.51076960907792e-05
0.2493527944983561,1.0080774527810186e-05,0.2493527944983561,-6.260701803259882e-05,0.2493527944983561,-1.3932108196867584e-05,0.2493527944983561,-1.3931804085492882e-05
0.2501469116782872,8.392646714770485e-06,0.2501469116782872,-6.730697722222477e-05,0.2501469116782872,-1.326017468412841e-05,0.2501469116782872,-1.0910536078577847e-05
0.2509410288582183,1.6532337711360787e-07,0.2509410288582183,-6.730713396948329e-05,0.2509410288582183,-1.4938502390893e-05,0.2509410288582183,-7.721094401913296e-06
0.2517351460381494,-6.932910937609843e-05,0.2517351460381494,-5.723536511317996e-05,0.2517351460381494,-1.2252876511317997e-05,0.2517351460381494,-8.392058663622757e-06
0.2525292632180804,-0.0001096038323411,0.2525292632180804,-5.052448950850728e-05,0.2525292632180804,-1.158248918047401e-05,0.2525292632180804,-6.210197708192417e-06
0.2533233803980115,-0.0001030641025587,0.2533233803980115,-5.62250521929709e-05,0.2533233803980115,-1.4265106914339244e-05,0.2533233803980115,-5.5395532636214535e-06
0.2541174975779426,-0.0001102724326418,0.2541174975779426,-5.069400493170775e-05,0.2541174975779426,-1.7957563357769056e-05,0.2541174975779426,-5.53903e-06
0.2549116147578736,-0.0001183300908113,0.2549116147578736,-3.3074851113707183e-05,0.2549116147578736,-1.6282214394092073e-05,0.2549116147578736,-6.881168489578257e-06
0.2557057319378047,-5.692164041769336e-05,0.2557057319378047,-8.904170127201282e-06,0.2557057319378047,-1.2254360027389728e-05,0.2557057319378047,-1.2251186636899224e-05
0.2564998491177358,1.86169467640369e-05,0.2564998491177358,-4.86839550515792e-06,0.2564998491177358,-1.2588636207586791e-05,0.2564998491177358,-1.4938089660694344e-05
0.2572939662976669,1.68632704504578e-07,0.2572939662976669,1.7958931056648652e-05,0.2572939662976669,-1.5609871757104366e-05,0.2572939662976669,-1.3260171246053132e-05
0.2580880834775979,-1.594524117810429e-05,0.2580880834775979,4.951758233501312e-05,0.2580880834775979,-1.4938317648064178e-05,0.2580880834775979,-1.2253635291855597e-05
0.258882200657529,-1.15726921451124e-05,0.258882200657529,6.932191210562232e-05,0.258882200657529,-1.2253339348778323e-05,0.258882200657529,-1.8295090976832516e-05
0.2596763178374601,2.3675625035797075e-05,0.2596763178374601,7.015757763017676e-05,0.2596763178374601,-1.3595263154539136e-05,0.2596763178374601,-1.6280393394771104e-05
0.2604704350173911,4.597483500407512e-05,0.2604704350173911,6.160678354795806e-05,0.2604704350173911,-1.2253954287606518e-05,0.2604704350173911,-1.376538932479572e-05
0.2612645521973222,2.938297176558908e-05,0.2612645521973222,5.22064012166883e-05,0.2612645521973222,-1.2253e-05,0.2612645521973222,-1.762202268637529e-05
0.2620586693772533,-4.85337190237744e-06,0.2620586693772533,4.683213657543699e-05,0.2620586693772533,-1.393080107017594e-05,0.2620586693772533,-1.5946398929824056e-05
0.2628527865571843,-8.223707577754078e-06,0.2628527865571843,3.172756089741845e-05,0.2628527865571843,-1.5609548786188844e-05,0.2628527865571843,-1.9637407329615457e-05
0.2636469037371154,6.394184962983402e-05,0.2636469037371154,-1.979995264790305e-05,0.2636469037371154,-1.3596044197357905e-05,0.2636469037371154,-1.9302740699559653e-05
0.2644410209170465,0.0001017165401226,0.2644410209170465,-4.4815691156357024e-05,0.2644410209170465,-9.063820203870044e-06,0.2644410209170465,-1.4938564625428094e-05
0.2652351380969776,8.426745229292159e-05,0.2652351380969776,-4.447795647779808e-05,0.2652351380969776,-7.55322e-06,0.2652351380969776,-1.3595566452617772e-05
0.2660292552769086,0.0001253754543999,0.2660292552769086,-3.272725837710082e-05,0.2660292552769086,-7.553273897143535e-06,0.2660292552769086,-1.2252568822851718e-05
0.2668233724568397,0.0001019025492285,0.2668233724568397,-2.2332114658372304e-05,0.2668233724568397,-7.720937505510124e-06,0.2668233724568397,-1.0911259955919003e-05
0.2676174896367708,8.62029612064532e-06,0.2676174896367708,-2.366583688193424e-05,0.2676174896367708,-8.224286337153088e-06,0.2676174896367708,-1.023923155903288e-05
0.2684116068167018,-6.257255804507263e-05,0.2684116068167018,-3.306164538321257e-05,0.2684116068167018,-9.566745054744652e-06,0.2684116068167018,-1.3594137636861634e-05
0.2692057239966329,-9.683709737217652e-05,0.2692057239966329,-2.8368133703557256e-05,0.2692057239966329,-1.258764976547502e-05,0.2692057239966329,-1.8293966296442743e-05
0.269999841176564,-9.61777342998173e-05,0.269999841176564,-1.024242607506427e-05,0.269999841176564,-1.2924332850091348e-05,0.269999841176564,-1.8631232850091346e-05
0.270793958356495,-8.476449862276087e-05,0.270793958356495,-6.210631279423626e-06,0.270793958356495,-1.6281223932939515e-05,0.270793958356495,-1.460311128047258e-05
0.2715880755364261,-6.260166821739618e-05,0.2715880755364261,-9.568368093945326e-06,0.2715880755364261,-1.3931468063503444e-05,0.2715880755364261,-1.5610319364965556e-05
0.2723821927163572,1.8549768141282003e-06,0.2723821927163572,-1.9639866610312868e-05,0.2723821927163572,-1.3596777756389633e-05,0.2723821927163572,-1.8965859284212092e-05
0.2731763098962882,3.7434260294254894e-05,0.2731763098962882,-2.568103085809306e-05,0.2731763098962882,-1.7623807425720824e-05,0.2731763098962882,-1.426706914190694e-05
0.2739704270762193,4.732636324340553e-05,0.2739704270762193,-2.601635807482619e-05,0.2739704270762193,-1.6617825775521432e-05,0.2739704270762193,-1.3931741925173811e-05
0.2747645442561504,-1.72514079608999e-05,0.2747645442561504,-2.165510486921842e-05,0.2747645442561504,-1.7623621940011485e-05,0.2747645442561504,-1.4938021940011489e-05
0.2755586614360815,-7.366175202659764e-05,0.2755586614360815,8.296554111885157e-07,0.2755586614360815,-1.7288643143460256e-05,0.2755586614360815,-1.3931929430380772e-05
0.2763527786160125,-4.2474604768199726e-05,0.2763527786160125,1.1242998404837788e-05,0.2763527786160125,-1.527486160154606e-05,0.2763527786160125,-1.544167881278151e-05
0.2771468957959436,-5.320679018736235e-05,0.2771468957959436,-2.2319494320742923e-05,0.2771468957959436,-1.7120357692759196e-05,0.2771468957959436,-1.510644405705505e-05
0.2779410129758747,-5.925062992942654e-05,0.2779410129758747,-3.138746534663486e-05,0.2779410129758747,-1.8295583541557408e-05,0.2779410129758747,-1.2924350624672222e-05
0.2787351301558057,-4.884528312283119e-05,0.2787351301558057,-1.090508228683207e-05,0.2787351301558057,-1.728855502935011e-05,0.2787351301558057,-9.902934913588908e-06
0.2795292473357368,-5.6058832328660513e-05,0.2795292473357368,2.0316693075872846e-05,0.2795292473357368,-1.7623573353910523e-05,0.2795292473357368,-8.89559223905149e-06
0.2803233645156679,-4.717271102970864e-05,0.2803233645156679,4.24481894913076e-05,0.2803233645156679,-1.5611610053511597e-05,0.2803233645156679,-7.554293361014216e-06
0.2811174816955989,-2.468848211451716e-05,0.2811174816955989,4.665936081999053e-05,0.2811174816955989,-1.29261530960949e-05,0.2811174816955989,-7.720960431494069e-06
0.2819115988755301,7.536939085246194e-06,0.2819115988755301,2.938233405591709e-05,0.2819115988755301,-1.5273112843335192e-05,0.2819115988755301,-1.0069812828179352e-05
0.2827057160554611,5.621209274070648e-05,0.2827057160554611,8.903333047669964e-06,0.2827057160554611,-1.82945195445399e-05,0.2827057160554611,-1.6279179081657094e-05
0.2834998332353922,8.039472348790975e-05,0.2834998332353922,-1.6594530870126369e-07,0.2834998332353922,-1.7624341014808147e-05,0.2834998332353922,-1.8966435940767406e-05
0.2842939504153233,7.972844192840294e-05,0.2842939504153233,8.559764933322188e-06,0.2842939504153233,-1.9134705664215843e-05,0.2842939504153233,-1.795996289260441e-05
0.2850880675952543,6.83108561678811e-05,0.2850880675952543,3.859272529910438e-06,0.2850880675952543,-2.064527136799112e-05,0.2850880675952543,-1.5274557211009992e-05
0.2858821847751854,2.432817852667418e-05,0.2858821847751854,-1.09121139823547e-05,0.2858821847751854,-1.7958025067111428e-05,0.2858821847751854,-1.8294740655759405e-05
0.2866763019551165,-1.8299680116287065e-05,0.2866763019551165,-1.914136647928552e-05,0.2866763019551165,-9.90437504820901e-06,0.2866763019551165,-1.4603282514462705e-05
0.2874704191350475,-2.9030051162794556e-05,0.2874704191350475,-3.641066819656625e-05,0.2874704191350475,-1.3257647215540556e-05,0.2874704191350475,-1.560926416466217e-05
0.2882645363149786,-4.447098202711758e-05,0.2882645363149786,-6.0914988834843936e-05,0.2882645363149786,-1.2924596044158285e-05,0.2882645363149786,-1.8629535602575448e-05
0.2890586534949096,-7.535082195571577e-05,0.2890586534949096,-8.475349847578553e-05,0.2890586534949096,-1.1078905733436146e-05,0.2890586534949096,-1.6953532504778514e-05
0.2898527706748408,-7.26794756620248e-05,0.2898527706748408,-9.684550954977068e-05,0.2898527706748408,-1.057464545107078e-05,0.2898527706748408,-1.6281593915506197e-05
0.2906468878547718,-4.985442417530958e-05,0.2906468878547718,-9.349247414550495e-05,0.2906468878547718,-1.2252762927247525e-05,0.2906468878547718,-1.62814e-05
0.2914410050347029,-6.059367237353681e-05,0.2914410050347029,-7.301415520627837e-05,0.2914410050347029,-1.3260114900564598e-05,0.2914410050347029,-1.2252989356739572e-05
0.292235122214634,-7.20067832814531e-05,0.292235122214634,-3.441049514007661e-05,0.292235122214634,-1.561010334370938e-05,0.292235122214634,-1.0574138298556403e-05
0.293029239394565,-6.86446391165182e-05,0.293029239394565,-4.347492063699983e-05,0.293029239394565,-1.6281096736771732e-05,0.293029239394565,-8.224812175485512e-06
0.2938233565744961,-4.986641486841501e-05,0.2938233565744961,-4.984603786597632e-05,0.2938233565744961,-1.527511508657227e-05,0.2938233565744961,-8.89546660895182e-06
0.2946174737544272,-2.100033439507091e-05,0.2946174737544272,-8.717300350202071e-07,0.2946174737544272,-1.4938822494507284e-05,0.2946174737544272,-8.560532494507285e-06
0.2954115909343582,1.0558242628877408e-05,0.2954115909343582,3.4055413143650955e-05,0.2954115909343582,-1.6280708194781183e-05,0.2954115909343582,-9.231364097390592e-06
0.2962057081142893,3.540706783720427e-05,0.2962057081142893,2.870417452963398e-05,0.2962057081142893,-1.460351704051062e-05,0.2962057081142893,-1.0238429779369771e-05
0.2969998252942204,5.152615450682743e-05,0.2969998252942204,8.900368004866715e-06,0.2969998252942204,-1.1582264784095466e-05,0.2969998252942204,-9.903173864899496e-06
0.2977939424741515,7.20058163837332e-05,0.2977939424741515,-1.3594170452827196e-05,0.2977939424741515,-1.0238897286787664e-05,0.2977939424741515,-9.9031e-06
0.2985880596540825,6.529120573652029e-05,0.2985880596540825,-1.5105719024606236e-05,0.2985880596540825,-1.1078087385490613e-05,0.2985880596540825,-8.896388321833657e-06
0.2993821768340136,3.607952544513413e-05,0.2993821768340136,-6.04111209531512e-06,0.2993821768340136,-1.091027476470829e-05,0.2993821768340136,-1.3931163547677043e-05
0.3001762940139447,-1.8001579667008582e-07,0.3001762940139447,5.013132802592701e-07,0.3001762940139447,-1.124602415154872e-05,0.3001762940139447,-1.2420303430788004e-05
0.3009704111938757,-3.304193420197858e-05,0.3009704111938757,-5.534554645367752e-06,0.3009704111938757,-1.1581351368281872e-05,0.3009704111938757,-1.1079094452808835e-05
0.3017645283738068,-3.004679461488356e-05,0.3017645283738068,-1.694602036159285e-05,0.3017645283738068,-1.5607607180155257e-05,0.3017645283738068,-1.0239298533833704e-05
0.3025586455537379,2.028732132161244e-05,0.3025586455537379,-1.7959450424646625e-05,0.3025586455537379,-1.42677994338045e-05,0.3025586455537379,-1.0574350141548877e-05
0.3033527627336689,4.8835573263640526e-05,0.3033527627336689,-9.234318193473308e-06,0.3033527627336689,-1.4938399369502958e-05,0.3033527627336689,-1.762209337978106e-05
0.3041468799136,-8.88727725195849e-06,0.3041468799136,3.858549899282855e-06,0.3041468799136,-1.7959443051586536e-05,0.3041468799136,-2.0645043051586537e-05
0.3049409970935311,-4.7165459912628326e-05,0.3049409970935311,1.661705330406302e-05,0.3049409970935311,-1.5610008601903357e-05,0.3049409970935311,-1.7959909830746694e-05
0.3057351142734621,-6.730977077488557e-05,0.3057351142734621,3.575494379024171e-05,0.3057351142734621,-1.5609130342972403e-05,0.3057351142734621,-1.76242e-05
0.3065292314533932,-8.308745239476843e-05,0.3065292314533932,5.689537801696934e-05,0.3065292314533932,-9.567605466029786e-06,0.3065292314533932,-1.7623320389764825e-05
0.3073233486333243,-9.012922405721173e-05,0.3073233486333243,3.794944021602151e-05,0.3073233486333243,-1.0238249910600797e-05,0.3073233486333243,-1.4605375439166225e-05
0.3081174658132554,-4.115607419056481e-05,0.3081174658132554,1.663144150125647e-05,0.3081174658132554,-9.735598771276302e-06,0.3081174658132554,-1.3093216367651248e-05
0.3089115829931864,6.154674971723321e-05,0.3089115829931864,-1.83664304750362e-06,0.3089115829931864,-1.2922725071650552e-05,0.3089115829931864,-1.6279725040138704e-05
0.3097057001731175,0.0001569029987591,0.3097057001731175,7.214097343971528e-06,0.3097057001731175,-1.4937839406414866e-05,0.3097057001731175,-1.5945826765597523e-05
0.3104998173530486,0.0002029194205088,0.3104998173530486,2.6683521128697448e-05,0.3104998173530486,-1.5609845555210118e-05,0.3104998173530486,-1.5610077222394943e-05
0.3112939345329796,0.0002012511384371,0.3112939345329796,2.9037706245653468e-05,0.3112939345329796,-1.5945672320807636e-05,0.3112939345329796,-1.6281344641615277e-05
0.3120880517129107,0.0001901735903347,0.3120880517129107,4.86507192187092e-06,0.3120880517129107,-1.2253142112810248e-05,0.3120880517129107,-1.2252923479220547e-05
0.3128821688928418,0.0001992231471708,0.3128821688928418,-3.4413384411499645e-05,0.3128821688928418,-1.443510712145484e-05,0.3128821688928418,-1.1077850064119468e-05
0.3136762860727728,0.0001340754585393,0.3136762860727728,-5.4557764667502216e-05,0.3136762860727728,-1.4937875210340762e-05,0.3136762860727728,-9.903703991382696e-06
0.314470403252704,3.263902542202921e-05,0.314470403252704,-7.333598891560673e-05,0.314470403252704,-1.2925911909941696e-05,0.314470403252704,-1.1580340075048587e-05
0.315264520432635,-1.1051741371009294e-05,0.315264520432635,-9.498962206507922e-05,0.315264520432635,-1.3595394481701698e-05,0.315264520432635,-1.3091287614028275e-05
0.3160586376125661,-5.7886626489558535e-05,0.3160586376125661,-9.550597019890056e-05,0.3160586376125661,-1.35958e-05,0.3160586376125661,-1.2253383017046e-05
0.3168527547924971,-0.0001048914858158,0.3168527547924971,-7.671290564277957e-05,0.3168527547924971,-9.233057742583313e-06,0.3168527547924971,-1.4434326142605496e-05
0.3176468719724282,-0.0001028923247449,0.3176468719724282,-5.6232801885898747e-05,0.3176468719724282,-9.567355870458636e-06,0.3176468719724282,-1.6281102279460314e-05
0.3184409891523593,-0.0001055769633174,0.3184409891523593,-4.179469721120043e-05,0.3184409891523593,-1.493852661871648e-05,0.3184409891523593,-1.359583669071007e-05
0.3192351063322903,-0.0001079267302856,0.3192351063322903,-9.22899011509558e-06,0.3192351063322903,-1.69528e-05,0.3192351063322903,-1.225326974118293e-05
0.3200292235122214,-0.0001059142741602,0.3200292235122214,1.1075504514232046e-05,0.3200292235122214,-1.6952233712809498e-05,0.3200292235122214,-1.426682247520633e-05
0.3208233406921525,-0.0001104412415306,0.3208233406921525,1.853996065174952e-06,0.3208233406921525,-1.4940270412410568e-05,0.3208233406921525,-1.2925513608273711e-05
0.3216174578720835,-0.0001344306118964,0.3216174578720835,-5.869448208853192e-06,0.3216174578720835,-1.3764402267382652e-05,0.3216174578720835,-1.2588929209498177e-05
0.3224115750520147,-0.0001686696742519,0.3224115750520147,-4.197128326125752e-06,0.3224115750520147,-1.5273491474910083e-05,0.3224115750520147,-1.1582138998886643e-05
0.3232056922319457,-0.0001831184043581,0.3232056922319457,7.884225591910191e-06,0.3232056922319457,-1.4267590369278902e-05,0.3232056922319457,-8.897050980867571e-06
0.3239998094118768,-0.0001653352709502,0.3239998094118768,-1.6275598269495294e-05,0.3239998094118768,-1.0911005798903873e-05,0.3239998094118768,-6.88230347694197e-06
0.3247939265918079,-0.0001361287001086,0.3247939265918079,-3.809978262453944e-05,0.3247939265918079,-1.09102e-05,0.3247939265918079,-8.224485854173402e-06
0.3255880437717389,-0.0001089319642999,0.3255880437717389,-3.8268239779429913e-05,0.3255880437717389,-1.3596022078177844e-05,0.3255880437717389,-9.567539545052462e-06
0.32638216095167,-7.199586770828962e-05,0.32638216095167,-1.358763407445388e-05,0.32638216095167,-1.7624472198869604e-05,0.32638216095167,-1.1917504149152202e-05
0.3271762781316011,-1.5584279648995646e-05,0.3271762781316011,2.6693754805214723e-05,0.3271762781316011,-1.896559065994741e-05,0.3271762781316011,-1.2924634890008764e-05
0.3279703953115321,5.785208114870484e-05,0.3279703953115321,4.312478842513929e-05,0.3279703953115321,-1.494166405914956e-05,0.3279703953115321,-1.3595289323475072e-05
0.3287645124914632,0.0001739886837637,0.3287645124914632,2.401414864874066e-05,0.3287645124914632,-1.5609587766710854e-05,0.3287645124914632,-1.929919601704226e-05
0.3295586296713942,0.0002764002453333,0.3295586296713942,-1.4987404930339812e-06,0.3295586296713942,-1.3261196014093947e-05,0.3295586296713942,-1.963824342655801e-05
0.3303527468513254,0.0002370155761328,0.3303527468513254,-1.325635395437448e-05,0.3303527468513254,-1.2924507030239388e-05,0.3303527468513254,-1.8967214060478774e-05
0.3311468640312564,0.0001901810194159,0.3311468640312564,-1.930166523333745e-05,0.3311468640312564,-1.3595685025926382e-05,0.3311468640312564,-1.9973927538889574e-05
0.3319409812111875,0.0001831241668039,0.3319409812111875,-2.2995212620190103e-05,0.3319409812111875,-1.5609952336994775e-05,0.3319409812111875,-2.0645484112331592e-05
0.3327350983911186,6.12494002988093e-05,0.3327350983911186,-1.6279652831483948e-05,0.3327350983911186,-1.79598168012632e-05,0.3327350983911186,-2.09812831987368e-05
0.3335292155710496,-6.462677892545365e-05,0.3335292155710496,-2.1767603965477868e-06,0.3335292155710496,-1.7288044860368815e-05,0.3335292155710496,-2.165205383244258e-05
0.3343233327509807,-8.223130797051409e-05,0.3343233327509807,1.7272158240603102e-05,0.3343233327509807,-1.5611408776703046e-05,0.3343233327509807,-1.9640090532043652e-05
0.3351174499309118,-5.440250292191216e-05,0.3351174499309118,3.238443455456633e-05,0.3351174499309118,-1.426813026797439e-05,0.3351174499309118,-1.527732337091677e-05
0.3359115671108428,-7.7365962952097e-05,0.3359115671108428,2.803317930928292e-05,0.3359115671108428,-1.3596166047581988e-05,0.3359115671108428,-1.2925681166536956e-05
0.3367056842907739,-8.24119977911738e-05,0.3367056842907739,1.4104839424538218e-05,0.3367056842907739,-1.1917967402942069e-05,0.3367056842907739,-1.37632663184099e-05
0.337499801470705,-7.100305387111753e-05,0.337499801470705,5.069474396216671e-07,0.337499801470705,-9.064573465279012e-06,0.337499801470705,-1.1582145580505916e-05
0.338293918650636,-5.925200378616668e-05,0.338293918650636,4.531517271645726e-06,0.338293918650636,-7.5533747727998735e-06,0.338293918650636,-7.72146553105776e-06
0.3390880358305671,-5.555735770256329e-05,0.3390880358305671,-1.7961316426542554e-05,0.3390880358305671,-9.231634255354394e-06,0.3390880358305671,-8.895888808296267e-06
0.3398821530104982,-3.910844715444615e-05,0.3398821530104982,-4.934663258797277e-05,0.3398821530104982,-7.553931610587598e-06,0.3398821530104982,-6.209902464151255e-06
0.3406762701904293,-3.676892591273112e-05,0.3406762701904293,-4.380459269763991e-05,0.3406762701904293,-1.1246926825590022e-05,0.3406762701904293,-3.5273400079130787e-06
0.3414703873703603,-6.594219399060662e-05,0.3414703873703603,-3.17328128952472e-05,0.3414703873703603,-1.4264871776188204e-05,0.3414703873703603,-1.0904508809355926e-05
0.3422645045502914,-7.133254841376008e-05,0.3422645045502914,-3.155580470587039e-05,0.3422645045502914,-1.5273671577580017e-05,0.3422645045502914,-1.09102e-05
0.3430586217302225,-5.7243317051730384e-05,0.3430586217302225,-3.0381259782101463e-05,0.3430586217302225,-1.6280920207187755e-05,0.3430586217302225,-1.1245740069062583e-05
0.3438527389101535,-3.005394137363871e-05,0.3438527389101535,-3.306541689812133e-05,0.3438527389101535,-1.3596683101878672e-05,0.3438527389101535,-1.4937385734916825e-05
0.3446468560900846,-1.0913668120212448e-05,0.3446468560900846,-3.64226915546777e-05,0.3446468560900846,-1.292452168906446e-05,0.3446468560900846,-1.628115662187108e-05
0.3454409732700157,-4.867833422923326e-06,0.3454409732700157,-2.098171985779632e-05,0.3454409732700157,-1.493853219202224e-05,0.3454409732700157,-1.3931579109307386e-05
0.3462350904499467,-6.885988350481978e-06,0.3462350904499467,-4.866559232113959e-06,0.3462350904499467,-1.7121039787234814e-05,0.3462350904499467,-1.7624658902475447e-05
0.3470292076298778,-4.347124650691842e-05,0.3470292076298778,4.534560231787289e-06,0.3470292076298778,-2.098023557880513e-05,0.3470292076298778,-2.1652073952075524e-05
0.3478233248098089,-3.676470217225532e-05,0.3478233248098089,1.459434676709589e-05,0.3478233248098089,-1.7291636194740427e-05,0.3478233248098089,-1.96401106516766e-05
0.34861744198974,4.610022693232561e-05,0.34861744198974,1.7286612604087843e-05,0.34861744198974,-1.9636748528576863e-05,0.34861744198974,-1.9973864075510975e-05
0.349411559169671,5.320428599298478e-05,0.349411559169671,3.532471616087952e-06,0.349411559169671,-1.7625318287718635e-05,0.349411559169671,-2.3664649861369364e-05
0.3502056763496021,7.236266727809012e-06,0.3502056763496021,5.202645809580824e-06,0.3502056763496021,-1.829532632383233e-05,0.3502056763496021,-2.115002626524776e-05
0.3509997935295332,9.063379880753611e-06,0.3509997935295332,2.8540510615682364e-06,0.3509997935295332,-1.795998729488123e-05,0.3509997935295332,-1.6618278467894708e-05
0.3517939107094642,3.3399263015668025e-05,0.3517939107094642,-4.866761714764725e-06,0.3517939107094642,-1.493893976510786e-05,0.3517939107094642,-1.628143775167865e-05
0.3525880278893953,4.481657256925999e-05,0.3525880278893953,1.191796032182884e-05,0.3525880278893953,-1.3595752833904187e-05,0.3525880278893953,-1.42672e-05
0.3533821450693264,6.966341080320256e-05,0.3533821450693264,3.071719735144524e-05,0.3533821450693264,-1.2253e-05,0.3533821450693264,-1.426686264986859e-05
0.3541762622492574,0.0001025555569801,0.3541762622492574,3.507418794076482e-05,0.3541762622492574,-1.2252557046159824e-05,0.3541762622492574,-1.2421076862643773e-05
0.3549703794291886,0.0001012140483353,0.3549703794291886,1.596063647592713e-05,0.3549703794291886,-1.0911248179227113e-05,0.3549703794291886,-1.3259444848953445e-05
0.3557644966091196,7.068386755202637e-05,0.3557644966091196,-1.324158371111603e-05,0.3557644966091196,-5.877912461851737e-06,0.3557644966091196,-1.5273023010187357e-05
0.3565586137890507,3.677549203443651e-05,0.3565586137890507,-3.5405423012072416e-05,0.3565586137890507,-8.894540408968377e-06,0.3565586137890507,-1.443540824540274e-05
0.3573527309689818,-2.50443186227557e-06,0.3573527309689818,-4.649044644128532e-05,0.3573527309689818,-1.2251862551085973e-05,0.3573527309689818,-1.3092654980920931e-05
0.3581468481489128,-3.1717914450369005e-05,0.3581468481489128,-4.448038521216591e-05,0.3581468481489128,-1.493808638377878e-05,0.3581468481489128,-1.7287697465091933e-05
0.3589409653288439,-5.270378382561632e-05,0.3589409653288439,-4.448e-05,0.3589409653288439,-1.7624082729399424e-05,0.3589409653288439,-1.561007329412536e-05
0.3597350825087749,-4.85057662450854e-05,0.3597350825087749,-5.455051161871488e-05,0.3597350825087749,-1.8295320924979933e-05,0.3597350825087749,-1.7960074421887544e-05
0.360529199688706,-2.315337659668321e-05,0.360529199688706,-4.984850174089657e-05,0.360529199688706,-1.561e-05,0.360529199688706,-1.963738814341694e-05
0.3613233168686371,1.591209431929912e-05,0.3613233168686371,-3.911813069438908e-05,0.3613233168686371,-1.561e-05,0.3613233168686371,-1.5613461542619083e-05
0.3621174340485681,1.9971228616186416e-05,0.3621174340485681,-2.9715999895565027e-05,0.3621174340485681,-1.0913549947782513e-05,0.3621174340485681,-1.1249010665798048e-05
0.3629115512284993,-2.1695172743093567e-06,0.3629115512284993,-2.7864043535040068e-05,0.3629115512284993,-1.1581220522436276e-05,0.3629115512284993,-1.12459e-05
0.3637056684084303,-2.432884715023604e-05,0.3637056684084303,-3.776196425129298e-05,0.3637056684084303,-1.023936078231703e-05,0.3637056684084303,-1.3594818630945198e-05
0.3644997855883614,-5.152235718449315e-05,0.3644997855883614,-4.347145890959649e-05,0.3644997855883614,-9.567591302052955e-06,0.3644997855883614,-7.387047063567727e-06
0.3652939027682925,-7.703967571501625e-05,0.3652939027682925,-4.7165147811331005e-05,0.3652939027682925,-1.3595306691135705e-05,0.3652939027682925,-4.196620535929114e-06
0.3660880199482235,-8.879219879165791e-05,0.3660880199482235,-4.985116626388597e-05,0.3660880199482235,-1.3260057829857465e-05,0.3660880199482235,-1.5106990379483142e-06
0.3668821371281546,-8.476430584061778e-05,0.3668821371281546,-4.850677665479943e-05,0.3668821371281546,-1.1581889886155556e-05,0.3668821371281546,-3.861283700550336e-06
0.3676762543080857,-8.711562551620564e-05,0.3676762543080857,-3.910428243692088e-05,0.3676762543080857,-1.3260529540751546e-05,0.3676762543080857,-8.22477107778183e-06
0.3684703714880167,-9.28160883117158e-05,0.3684703714880167,-2.4685212117395238e-05,0.3684703714880167,-1.4601838407684164e-05,0.3684703714880167,-8.727761902881561e-06
0.3692644886679478,-8.208521798778886e-05,0.3692644886679478,-2.4338316189130887e-05,0.3692644886679478,-1.3596448567392655e-05,0.3692644886679478,-1.1244278587958305e-05
0.3700586058478789,-5.288699814611922e-05,0.3700586058478789,-1.896966628521119e-05,0.3700586058478789,-1.3092449993713085e-05,0.3700586058478789,-1.091036664592828e-05
0.3708527230278099,-3.3744374820480515e-05,0.3708527230278099,-1.2255342054513564e-05,0.3708527230278099,-1.5273538814841517e-05,0.3708527230278099,-1.2252531589097286e-05
0.371646840207741,-9.572274263525576e-06,0.371646840207741,-5.540381184424466e-06,0.371646840207741,-1.8966256845245923e-05,0.371646840207741,-1.3931162202384512e-05
0.3724409573876721,5.4211876914665394e-05,0.3724409573876721,-3.692779089762846e-06,0.3724409573876721,-1.762427206528207e-05,0.3724409573876721,-1.4267181983679485e-05
0.3732350745676032,0.0001104485467507,0.3732350745676032,3.02294515755422e-06,0.3732350745676032,-1.829541083870734e-05,0.3732350745676032,-1.493869458064633e-05
0.3740291917475342,0.0001482257360994,0.3740291917475342,2.06548922524916e-05,0.3740291917475342,-1.628148096810974e-05,0.3740291917475342,-1.594594290432922e-05
0.3748233089274653,0.0002092548899891,0.3748233089274653,5.955264961563063e-05,0.3748233089274653,-1.6616808184842896e-05,0.3748233089274653,-1.6951924554528688e-05
0.3756174261073964,0.0002327900152364,0.3756174261073964,8.826795443288764e-05,0.3756174261073964,-1.5610727918439664e-05,0.3756174261073964,-1.561097055791955e-05
0.3764115432873274,0.0001475880465694,0.3764115432873274,8.577244819331955e-05,0.3764115432873274,-1.6281013807445386e-05,0.3764115432873274,-1.8294055229781548e-05
0.3772056604672585,1.6673085228748735e-05,0.3772056604672585,6.429548735401868e-05,0.3772056604672585,-1.292583553074703e-05,0.3772056604672585,-2.299329029971647e-05
0.3779997776471896,-2.180963591165086e-05,0.3779997776471896,3.3242895871162964e-05,0.3779997776471896,-9.903946088848892e-06,0.3779997776471896,-1.896812809046105e-05
0.3787938948271206,-2.3666455439940627e-05,0.3787938948271206,3.0252919883353207e-06,0.3787938948271206,-9.9031e-06,0.3787938948271206,-1.5610444666695187e-05
0.3795880120070517,-2.0309680700716383e-05,0.3795880120070517,-2.030997260061268e-05,0.3795880120070517,-1.1581594923466916e-05,0.3795880120070517,-1.5106458380886591e-05
0.3803821291869828,-1.2422520513539008e-05,0.3803821291869828,-3.172492011312792e-05,0.3803821291869828,-1.1246227718414136e-05,0.3803821291869828,-1.8966890760528626e-05
0.3811762463669139,-2.300299833077268e-05,0.3811762463669139,-4.04544047988188e-05,0.3811762463669139,-1.3259995968084294e-05,0.3811762463669139,-1.829518387233718e-05
0.3819703635468449,-4.7817112480072666e-05,0.3819703635468449,-4.917281254492737e-05,0.3819703635468449,-1.292466875135114e-05,0.3819703635468449,-1.695387500540456e-05
0.382764480726776,-7.400437542854762e-05,0.382764480726776,-5.1863643626989536e-05,0.382764480726776,-1.5104972979628822e-05,0.382764480726776,-1.5610878186505233e-05
0.3835585979067071,-0.0001015350596686,0.3835585979067071,-5.589175995891554e-05,0.3835585979067071,-1.4938684976391115e-05,0.3835585979067071,-1.225470003423704e-05
0.3843527150866381,-0.0001243678089202,0.3843527150866381,-5.388032276132674e-05,0.3843527150866381,-1.225396368176899e-05,0.3843527150866381,-1.2924159079557753e-05
0.3851468322665692,-0.0001606243408774,0.3851468322665692,-4.5488872925463e-05,0.3851468322665692,-1.2253e-05,0.3851468322665692,-1.225314183403704e-05
0.3859409494465003,-0.0001621419038592,0.3859409494465003,-3.9109306096135466e-05,0.3859409494465003,-1.3595714504736336e-05,0.3859409494465003,-1.1581642747631833e-05
0.3867350666264313,-6.125515484551259e-05,0.3867350666264313,-3.0547430974649046e-05,0.3867350666264313,-1.5777898597048945e-05,0.3867350666264313,-9.567804370574178e-06
0.3875291838063624,5.607677371230319e-05,0.3875291838063624,-1.6615664137065285e-05,0.3875291838063624,-1.6952955229675124e-05,0.3875291838063624,-1.4267704484883994e-05
0.3883233009862935,0.0001216332945281,0.3883233009862935,-1.0412160571978216e-05,0.3883233009862935,-1.7623609663141478e-05,0.3883233009862935,-1.6447281449172928e-05
0.3891174181662246,0.0001502040906234,0.3891174181662246,-1.852612930198868e-06,0.3891174181662246,-1.4605113972777996e-05,0.3891174181662246,-1.510738398790133e-05
0.3899115353461556,0.0001257333410668,0.3899115353461556,7.88321286985118e-06,0.3899115353461556,-1.5609410638681816e-05,0.3899115353461556,-1.4267691105171505e-05
0.3907056525260867,3.4784612545691576e-05,0.3907056525260867,-3.170616463587392e-05,0.3907056525260867,-1.8294424715439e-05,0.3907056525260867,-1.493830617885975e-05
0.3914997697060178,-7.264754258740714e-05,0.3914997697060178,-4.179157897897367e-05,0.3914997697060178,-1.8631202632632453e-05,0.3914997697060178,-1.6281010530529823e-05
0.3922938868859488,-7.402130870334024e-05,0.3922938868859488,1.1238343810431578e-05,0.3922938868859488,-1.7624343472494823e-05,0.3922938868859488,-1.2589226065814347e-05
0.3930880040658799,5.891502092477957e-05,0.3930880040658799,4.6662028660193015e-05,0.3930880040658799,-1.3595786247698691e-05,0.3930880040658799,-9.90308109068812e-06
0.393882121245811,4.345936430517621e-05,0.393882121245811,3.2727011659980226e-05,0.393882121245811,-1.0910558835681703e-05,0.393882121245811,-6.210932620875411e-06
0.394676238425742,-4.581816881238851e-05,0.394676238425742,9.228085583828433e-06,0.394676238425742,-1.3259797964069426e-05,0.394676238425742,-9.567661708605077e-06
0.3954703556056732,-3.0393216731615776e-05,0.3954703556056732,-2.843644274089248e-06,0.3954703556056732,-1.2253816313869891e-05,0.3954703556056732,-1.04060197060194e-05
0.3962644727856042,-4.212239835573944e-05,0.3962644727856042,-1.0904850327638396e-05,0.3962644727856042,-1.0407925939469616e-05,0.3962644727856042,-1.1916296964652114e-05
0.3970585899655353,-6.695907134362455e-05,0.3970585899655353,2.343042274678559e-06,0.3970585899655353,-1.0238886706280384e-05,0.3970585899655353,-1.25883532781617e-05
0.3978527071454664,-8.82808376303245e-05,0.3978527071454664,1.258492357439873e-05,0.3978527071454664,-7.218634352072223e-06,0.3978527071454664,-1.2924276182283454e-05
0.3986468243253974,-0.0001096012834909,0.3986468243253974,1.997246596069328e-05,0.3986468243253974,-5.539401370357183e-06,0.3986468243253974,-8.896901291954776e-06
0.3994409415053285,-0.0001304174666881,0.3994409415053285,-2.3482453722147123e-06,0.3994409415053285,-9.56711322573708e-06,0.3994409415053285,-9.567360537377276e-06
0.4002350586852595,-0.0001482091887393,0.4002350586852595,-4.0452742092040106e-05,0.4002350586852595,-1.1581699247564874e-05,0.4002350586852595,-1.2253148871347314e-05
0.4010291758651906,-0.0001236875114566,0.4010291758651906,-5.4555604194933575e-05,0.4010291758651906,-1.2924697046261613e-05,0.4010291758651906,-1.4266605907476776e-05
0.4018232930451217,-4.471820163837687e-05,0.4018232930451217,-7.53457917434357e-05,0.4018232930451217,-1.4266005913194227e-05,0.4018232930451217,-1.158398817361154e-05
0.4026174102250527,1.0868932020787475e-05,0.4026174102250527,-6.026912087690501e-05,0.4026174102250527,-1.762170645529245e-05,0.4026174102250527,-1.292340258211698e-05
0.4034115274049838,3.506611364821391e-05,0.4034115274049838,-1.563657477962251e-05,0.4034115274049838,-1.82952003774637e-05,0.4034115274049838,-1.5272901321122943e-05
0.4042056445849149,5.856888128017267e-05,0.4042056445849149,7.878391275696408e-06,0.4042056445849149,-2.0308898391606577e-05,0.4042056445849149,-1.8294247587409868e-05
0.404999761764846,9.348152467425788e-05,0.404999761764846,1.7016566014704497e-07,0.404999761764846,-2.2994494231100507e-05,0.404999761764846,-2.030919565082206e-05
0.4057938789447771,0.0001190011102243,0.4057938789447771,-1.1579808649662892e-05,0.4057938789447771,-2.2659651181660363e-05,0.4057938789447771,-1.561071654324508e-05
0.4065879961247081,0.0001200119950851,0.4065879961247081,-1.0574504915373349e-05,0.4065879961247081,-2.0309811468716405e-05,0.4065879961247081,-1.3595809830746692e-05
0.4073821133046392,0.0001555911617206,0.4073821133046392,-1.672262413143465e-07,0.4073821133046392,-1.3092176054762653e-05,0.4073821133046392,-1.5274443714234395e-05
0.4081762304845703,0.0001216576174613,0.4081762304845703,4.1944781520124935e-06,0.4081762304845703,-1.29244e-05,0.4081762304845703,-1.628149732537139e-05
0.4089703476645013,6.640601877620366e-06,0.4089703476645013,-1.8413817824982528e-06,0.4089703476645013,-1.29244e-05,0.4089703476645013,-1.6616824542104544e-05
0.4097644648444324,-6.121929534205037e-05,0.4097644648444324,-1.5108662616171756e-06,0.4097644648444324,-1.4266294953531295e-05,0.4097644648444324,-1.896541616867977e-05
0.4105585820243635,-7.636344772398605e-05,0.4105585820243635,3.5221792395739543e-06,0.4105585820243635,-1.5609293126341714e-05,0.4105585820243635,-1.7792618540771884e-05
0.4113526992042945,-5.355254787653182e-05,0.4113526992042945,-8.375927313361749e-07,0.4113526992042945,-1.4938854350423982e-05,0.4113526992042945,-1.829540921824022e-05
0.4121468163842256,1.8335307785771445e-06,0.4121468163842256,-4.531076051596804e-06,0.4121468163842256,-1.628108947196245e-05,0.4121468163842256,-1.8966844735981225e-05
0.4129409335641567,1.3259144983916252e-05,0.4129409335641567,-9.566988669571692e-06,0.4129409335641567,-1.62814e-05,0.4129409335641567,-1.7624312355227135e-05
0.4137350507440878,4.533045626664156e-06,0.4137350507440878,-4.448004290879159e-05,0.4137350507440878,-1.8966764001646237e-05,0.4137350507440878,-1.8295385456042037e-05
0.4145291679240188,2.199184539353976e-05,0.4145291679240188,-4.514927277232515e-05,0.4145291679240188,-1.5273839085532644e-05,0.4145291679240188,-1.4937820008774298e-05
0.4153232851039499,3.8758106341242856e-05,0.4153232851039499,-3.5089556159284664e-05,0.4153232851039499,-1.3094162232290568e-05,0.4153232851039499,-1.1249220624709855e-05
0.416117402283881,3.206425423932354e-05,0.416117402283881,-1.763734094696209e-05,0.416117402283881,-1.30922e-05,0.416117402283881,-1.1581347288033822e-05
0.416911519463812,1.8303929858786524e-05,0.416911519463812,-1.192075386898114e-05,0.416911519463812,-9.569543235705205e-06,0.416911519463812,-1.15816e-05
0.4177056366437431,2.232205653903056e-05,0.4177056366437431,-2.2990230402249226e-05,0.4177056366437431,-1.090958550233221e-05,0.4177056366437431,-1.1246053625561017e-05
0.4184997538236742,2.870022243519061e-05,0.4184997538236742,-3.6754732623306064e-05,0.4184997538236742,-1.1581391835283222e-05,0.4184997538236742,-7.218768982099749e-06
0.4192938710036052,1.5947772471674315e-05,0.4192938710036052,-3.977980914759773e-05,0.4192938710036052,-9.903372695779042e-06,0.4192938710036052,-5.707115426201137e-06
0.4200879881835363,-1.8966480422352536e-05,0.4200879881835363,-4.263365753514168e-05,0.4200879881835363,-1.158157502023386e-05,0.4200879881835363,-3.692709975570545e-06
0.4208821053634674,-5.052487189644942e-05,0.4208821053634674,-4.984999723753617e-05,0.4208821053634674,-1.09101109055012e-05,0.4208821053634674,-4.196319094498799e-06
0.4216762225433985,-6.764545533038105e-05,0.4216762225433985,-4.078495672542053e-05,0.4216762225433985,-1.023926986049605e-05,0.4216762225433985,-4.869227517288709e-06
0.4224703397233295,-7.569330853197675e-05,0.4224703397233295,-3.206644909035852e-05,0.4224703397233295,-1.1915905944161823e-05,0.4224703397233295,-1.05697602350663e-05
0.4232644569032606,-8.274487799863544e-05,0.4232644569032606,-1.9646895838766024e-05,0.4232644569032606,-5.87885313034674e-06,0.4232644569032606,-1.3929203808874023e-05
0.4240585740831917,-7.704586129047029e-05,0.4240585740831917,-4.204513475768221e-06,0.4240585740831917,-8.223349473994071e-06,0.4240585740831917,-1.0576300759100172e-05
0.4248526912631227,-6.395569073670538e-05,0.4248526912631227,1.6609006999358988e-05,0.4248526912631227,-1.2251433611399413e-05,0.4248526912631227,-1.0910069467292586e-05
0.4256468084430538,-4.851212551722124e-05,0.4256468084430538,2.802804638096204e-05,0.4256468084430538,-1.3931095052475952e-05,0.4256468084430538,-1.2923914062971143e-05
0.4264409256229849,-3.709576916490841e-05,0.4264409256229849,3.3065828305466563e-05,0.4264409256229849,-1.5609842768488855e-05,0.4264409256229849,-1.560974842958217e-05
0.4272350428029159,-2.7357427448101656e-05,0.4272350428029159,3.944461809690037e-05,0.4272350428029159,-1.762416380619925e-05,0.4272350428029159,-1.96384e-05
0.428029159982847,9.236303719296411e-06,0.428029159982847,3.977894889957871e-05,0.428029159982847,-1.6952225772259137e-05,0.428029159982847,-1.9637589339747226e-05
0.4288232771627781,3.203844457930372e-05,0.4288232771627781,3.307240456491514e-05,0.4288232771627781,-1.4101894485550398e-05,0.4288232771627781,-1.561366273894909e-05
0.4296173943427092,6.397859222279006e-06,0.4296173943427092,2.468020173654056e-05,0.4296173943427092,-1.0912632621745784e-05,0.4296173943427092,-1.0913784972462713e-05
0.4304115115226402,-1.2912524789321948e-05,0.4304115115226402,1.1925147936322518e-05,0.4304115115226402,-1.09102e-05,0.4304115115226402,-1.09102e-05
0.4312056287025713,-6.884645685662883e-06,0.4312056287025713,2.3543639984026574e-06,0.4312056287025713,-1.158128603388717e-05,0.4312056287025713,-1.4936716203323025e-05
0.4319997458825024,6.374026144976383e-06,0.4319997458825024,5.041389166357102e-07,0.4319997458825024,-1.0910414879707668e-05,0.4319997458825024,-1.2925044639123004e-05
0.4327938630624334,1.5776178905837474e-05,0.4327938630624334,-4.195419450676688e-06,0.4327938630624334,-1.1581484206697491e-05,0.4327938630624334,-1.4266968413394984e-05
0.4335879802423645,7.8891063045497e-06,0.4335879802423645,-8.393295340881252e-07,0.4335879802423645,-1.1245908353448626e-05,0.4335879802423645,-1.829549975861649e-05
0.4343820974222956,4.5327537913981375e-06,0.4343820974222956,-2.316896654101394e-05,0.4343820974222956,-1.4267776656555356e-05,0.4343820974222956,-1.8966876430738135e-05
0.4351762146022266,1.1246353094135148e-05,0.4351762146022266,-7.015805490161853e-05,0.4351762146022266,-1.8967724950616237e-05,0.4351762146022266,-1.7959175049383766e-05
0.4359703317821577,1.2922989177801036e-05,0.4359703317821577,-5.925997030226698e-05,0.4359703317821577,-2.165034268448166e-05,0.4359703317821577,-1.527655731551834e-05
0.4367644489620888,-1.5006220474942866e-06,0.4367644489620888,3.816730585068515e-06,0.4367644489620888,-1.963979785964826e-05,0.4367644489620888,-1.7622569163743698e-05
0.4375585661420199,-9.059732764770234e-06,0.4375585661420199,5.418778511486085e-05,0.4375585661420199,-1.896736686681088e-05,0.4375585661420199,-2.097936566594561e-05
0.438352683321951,5.868761913892543e-06,0.438352683321951,6.126218830574046e-05,0.438352683321951,-1.6618037231419847e-05,0.438352683321951,-1.9974501670608503e-05
0.439146800501882,8.405111984711418e-07,0.439146800501882,3.5422694693893936e-05,0.439146800501882,-1.896640957099821e-05,0.439146800501882,-1.829602173500128e-05
0.4399409176818131,-2.3328494142533428e-05,0.4399409176818131,-7.213099936356879e-06,0.4399409176818131,-1.8967e-05,0.4399409176818131,-1.762426960759535e-05
0.4407350348617442,-1.9971446915889796e-05,0.4407350348617442,-4.7838503414914537e-05,0.4407350348617442,-1.62814e-05,0.4407350348617442,-1.96384e-05
0.4415291520416752,4.046543907864248e-05,0.4415291520416752,-8.20811890595761e-05,0.4415291520416752,-1.6281175284316456e-05,0.4415291520416752,-1.96384e-05
0.4423232692216063,0.0001122249640147,0.4423232692216063,-9.71708139236146e-05,0.4423232692216063,-1.5107480081273688e-05,0.4423232692216063,-1.96384e-05
0.4431173864015373,8.377885105951256e-05,0.4431173864015373,-0.0001002036651573,0.4431173864015373,-1.4938729674838832e-05,0.4431173864015373,-1.796119713478534e-05
0.4439115035814684,3.142054174065027e-05,0.4439115035814684,-8.812845575263864e-05,0.4439115035814684,-1.560958023249112e-05,0.4439115035814684,-1.896637034873668e-05
0.4447056207613995,5.215836500953127e-06,0.4447056207613995,-6.698200140700414e-05,0.4447056207613995,-1.359676204331116e-05,0.4447056207613995,-1.6618222383863022e-05
0.4454997379413306,-2.3657171484070227e-05,0.4454997379413306,-4.784331544890895e-05,0.4454997379413306,-1.52737460132536e-05,0.4454997379413306,-1.3932386378794238e-05
0.4462938551212617,-4.850386721139268e-05,0.4462938551212617,-2.904133021396715e-05,0.4462938551212617,-1.4603022508293353e-05,0.4462938551212617,-1.39315e-05
0.4470879723011927,-5.9418219396061925e-05,0.4470879723011927,-4.868473183438109e-06,0.4470879723011927,-1.4938588289055928e-05,0.4470879723011927,-1.4938564867167784e-05
0.4478820894811238,-6.32787460128979e-05,0.4478820894811238,1.3261159291968576e-05,0.4478820894811238,-1.225262167854188e-05,0.4478820894811238,-1.6952497341931933e-05
0.4486762066610549,-5.924931648556717e-05,0.4486762066610549,2.265951273444513e-05,0.4486762066610549,-8.89601e-06,0.4486762066610549,-1.4267025468890256e-05
0.4494703238409859,-5.354875380110355e-05,0.4494703238409859,2.2324185517711976e-05,0.4494703238409859,-8.89601e-06,0.4494703238409859,-1.3596371035423946e-05
0.450264441020917,-3.24097889781194e-05,0.450264441020917,2.3330290997689536e-05,0.450264441020917,-1.2418318534153602e-05,0.450264441020917,-1.2924872668206978e-05
0.4510585582008481,-2.098755083498708e-05,0.4510585582008481,2.0646994271564683e-05,0.4510585582008481,-1.359514620402588e-05,0.4510585582008481,-9.904781118107752e-06
0.4518526753807791,-2.433672756390122e-05,0.4518526753807791,1.7793166625877403e-05,0.4518526753807791,-1.1246860733887966e-05,0.4518526753807791,-7.889733482101282e-06
0.4526467925607102,-3.574891804714618e-05,0.4526467925607102,1.1918834815611831e-05,0.4526467925607102,-1.09102877044957e-05,0.4526467925607102,-8.5601345910086e-06
0.4534409097406413,-2.920654413953109e-05,0.4534409097406413,6.546730578415635e-06,0.4534409097406413,-1.1749304602451156e-05,0.4534409097406413,-8.224648161293073e-06
0.4542350269205724,-1.9302187815089323e-05,0.4542350269205724,7.721291946557291e-06,0.4542350269205724,-1.3595891055276056e-05,0.4542350269205724,-1.1245911381909507e-05
0.4550291441005034,-4.18186982655817e-06,0.4550291441005034,1.4265192007518364e-05,0.4550291441005034,-1.6281156606093093e-05,0.4550291441005034,-1.1580808973427723e-05
0.4558232612804345,7.495498373333852e-05,0.4558232612804345,3.199433810905644e-06,0.4558232612804345,-1.4939847739160476e-05,0.4558232612804345,-7.221575133687405e-06
0.4566173784603656,0.0001588873043565,0.4566173784603656,-7.041655105510876e-06,0.4566173784603656,-1.1248790628977387e-05,0.4566173784603656,-7.552957215547509e-06
0.4574114956402966,0.0001193661620863,0.4574114956402966,-6.881926620624942e-06,0.4574114956402966,-1.2420053687386085e-05,0.4574114956402966,-9.06290042072765e-06
0.4582056128202277,-1.0175612748792805e-05,0.4582056128202277,-1.3592526048806526e-05,0.4582056128202277,-9.904327710973194e-06,0.4582056128202277,-8.896091849023652e-06
0.4589997300001588,-4.446835627385046e-05,0.4589997300001588,-2.332768954350867e-05,0.4589997300001588,-1.0238685845155297e-05,0.4589997300001588,-1.0238343384021696e-05
0.4597938471800898,-3.44110383300161e-05,0.4597938471800898,-3.306442626237916e-05,0.4597938471800898,-1.2923883106863217e-05,0.4597938471800898,-1.359515388357902e-05
0.4605879643600209,-1.5275158896563833e-05,0.4605879643600209,-5.387866576123858e-05,0.4605879643600209,-1.426713972624193e-05,0.4605879643600209,-1.2924430136879037e-05
0.461382081539952,2.131584852486062e-05,0.461382081539952,-6.596370024214001e-05,0.461382081539952,-1.35958e-05,0.461382081539952,-1.4267406848578518e-05
0.4621761987198831,1.1072603757980295e-05,0.4621761987198831,-5.622605962140491e-05,0.4621761987198831,-1.3596639122827146e-05,0.4621761987198831,-1.6281106294512392e-05
0.4629703158998141,-1.0891278993563064e-05,0.4629703158998141,-4.247774362429999e-05,0.4629703158998141,-1.694991129015846e-05,0.4629703158998141,-1.510741109146971e-05
0.4637644330797452,-1.7954866476423368e-05,0.4637644330797452,-2.770564643035104e-05,0.4637644330797452,-1.7623720616802226e-05,0.4637644330797452,-1.3093638149593323e-05
0.4645585502596763,-3.0373664565979004e-05,0.4645585502596763,-1.360378617600253e-05,0.4645585502596763,-1.896623940641477e-05,0.4645585502596763,-1.3931024600688056e-05
0.4653526674396073,-3.239405636883764e-05,0.4653526674396073,-3.5290481432465385e-06,0.4653526674396073,-1.8967e-05,0.4653526674396073,-1.6951534553256464e-05
0.4661467846195384,-3.440855362805341e-05,0.4661467846195384,6.543388153830027e-06,0.4661467846195384,-1.846353660654965e-05,0.4661467846195384,-1.69528e-05
0.4669409017994695,-4.196136583344225e-05,0.4669409017994695,1.1245318739434304e-05,0.4669409017994695,-1.2421547338193335e-05,0.4669409017994695,-1.4938849112731113e-05
0.4677350189794005,-3.340175926757815e-05,0.4677350189794005,6.546063829340603e-06,0.4677350189794005,-1.292444814648437e-05,0.4677350189794005,-1.2420880244140617e-05
0.4685291361593316,-2.333163244725052e-05,0.4685291361593316,4.196459980818371e-06,0.4685291361593316,-1.4938944971227556e-05,0.4685291361593316,-1.577811623218874e-05
0.4693232533392627,-2.702023183131496e-05,0.4693232533392627,5.537768847750896e-06,0.4693232533392627,-1.6950908271626345e-05,0.4693232533392627,-1.7622465868697685e-05
0.4701173705191938,-2.366936141947912e-05,0.4701173705191938,6.880755440136321e-06,0.4701173705191938,-1.527563070973956e-05,0.4701173705191938,-1.3598993703374944e-05
0.4709114876991248,-1.4608748101602431e-05,0.4709114876991248,1.308819296837643e-05,0.4709114876991248,-1.3932366394981329e-05,0.4709114876991248,-1.2589349796235994e-05
0.4717056048790559,-4.536941651352828e-06,0.4717056048790559,1.7789661222401812e-05,0.4717056048790559,-1.1750485885909402e-05,0.4717056048790559,-1.4434081219396667e-05
0.472499722058987,8.891309527398146e-06,0.472499722058987,1.5275181325048345e-05,0.472499722058987,-1.2923988689306984e-05,0.472499722058987,-1.5609588689306984e-05
0.473293839238918,2.584536757070225e-05,0.473293839238918,1.4603035938275089e-05,0.473293839238918,-1.2420901963829808e-05,0.473293839238918,-1.4938735938275086e-05
0.4740879564188491,2.8030680234167298e-05,0.4740879564188491,2.450545643766369e-05,0.4740879564188491,-1.2253009210223063e-05,0.4740879564188491,-1.594564472219518e-05
0.4748820735987802,1.9303757977830425e-05,0.4748820735987802,1.4264912885463077e-05,0.4748820735987802,-1.5777566625127378e-05,0.4748820735987802,-1.6616944413661795e-05
0.4756761907787112,3.071809173922121e-05,0.4756761907787112,-1.0408190329696217e-05,0.4756761907787112,-1.3260261118021069e-05,0.4756761907787112,-1.4937149940210124e-05
0.4764703079586423,3.775996329061794e-05,0.4764703079586423,-1.661169389478328e-05,0.4764703079586423,-1.3930915551487424e-05,0.4764703079586423,-8.901270027908265e-06
0.4772644251385734,2.3341451111056312e-05,0.4772644251385734,-9.572514023740924e-06,0.4772644251385734,-1.1247844392754664e-05,0.4772644251385734,-9.231466950905668e-06
0.4780585423185045,3.87175326678638e-06,0.4780585423185045,-8.896397011783504e-06,0.4780585423185045,-1.0910393505891751e-05,0.4780585423185045,-1.0238219488088992e-05
0.4788526594984356,-9.561651518165597e-06,0.4788526594984356,-2.4331477763473004e-05,0.4788526594984356,-1.22524241492435e-05,0.4788526594984356,-9.567697921089815e-06
0.4796467766783666,-1.2587850227433712e-05,0.4796467766783666,-2.568052232205382e-05,0.4796467766783666,-1.275635838483326e-05,0.4796467766783666,-9.064001629229817e-06
0.4804408938582977,-1.661656148459243e-05,0.4804408938582977,-8.562598675777406e-06,0.4804408938582977,-1.0910446812877816e-05,0.4804408938582977,-6.882111694508969e-06
0.4812350110382288,-2.1652637333958912e-05,0.4812350110382288,-8.396100176241972e-07,0.4812350110382288,-8.224633334454177e-06,0.4812350110382288,-1.0910242002267755e-05
0.4820291282181598,-2.433972425797236e-05,0.4820291282181598,-2.702543254183718e-05,0.4820291282181598,-9.903208283864824e-06,0.4820291282181598,-1.3931824851594472e-05
0.4828232453980909,-3.439954075996699e-05,0.4828232453980909,-3.775590347729812e-05,0.4828232453980909,-1.0573862717331132e-05,0.4828232453980909,-1.5943788151993396e-05
0.483617362578022,-5.118052510811314e-05,0.483617362578022,-3.541808649610334e-05,0.483617362578022,-1.1580791501669998e-05,0.483617362578022,-1.7958283003339997e-05
0.484411479757953,-6.59550219909285e-05,0.484411479757953,-2.702919890601884e-05,0.484411479757953,-1.527188048135171e-05,0.484411479757953,-2.097922039383322e-05
0.4852055969378841,-5.45567939925344e-05,0.4852055969378841,-3.4740880500122015e-05,0.4852055969378841,-1.661641834784731e-05,0.4852055969378841,-2.165225917392365e-05
0.4859997141178152,-4.7168259136382525e-05,0.4859997141178152,-3.0717850438026835e-05,0.4859997141178152,-1.728825826032886e-05,0.4859997141178152,-1.8296808698355696e-05
0.4867938312977463,-7.267327919714177e-05,0.4867938312977463,-1.896949641090665e-05,0.4867938312977463,-1.9470036387509293e-05,0.4867938312977463,-1.8631228673367034e-05
0.4875879484776773,-0.0001126244077717,0.4875879484776773,-2.467342968817241e-05,0.4875879484776773,-2.3666427710364667e-05,0.4875879484776773,-1.896697821656961e-05
0.4883820656576084,-0.0001330988922597,0.4883820656576084,-3.709532459074032e-05,0.4883820656576084,-2.232351137145816e-05,0.4883820656576084,-1.829535016205003e-05
0.4891761828375395,-7.13156721885391e-05,0.4891761828375395,-4.464871064875374e-05,0.4891761828375395,-1.7623659559831366e-05,0.4891761828375395,-1.5274686028691882e-05
0.4899703000174705,1.6539659039733592e-05,0.4899703000174705,-4.816959647997513e-05,0.4899703000174705,-1.5276369042699283e-05,0.4899703000174705,-1.6951322112357655e-05
0.4907644171974016,4.278238035939812e-05,0.4907644171974016,-4.515361765930801e-05,0.4907644171974016,-1.7790151987277077e-05,0.4907644171974016,-1.963642874728177e-05
0.4915585343773327,5.118907847396329e-05,0.4915585343773327,-4.313848112168039e-05,0.4915585343773327,-1.896631094882356e-05,0.4915585343773327,-2.1651418819676954e-05
0.4923526515572637,4.3140835640545215e-05,0.4923526515572637,-4.0452878561476565e-05,0.4923526515572637,-1.4940367842214846e-05,0.4923526515572637,-1.695486248258399e-05
0.4931467687371948,6.226652674115286e-05,0.4931467687371948,-3.055148440640556e-05,0.4931467687371948,-1.1246975546801891e-05,0.4931467687371948,-1.4435733341928076e-05
0.4939408859171259,5.941900999430884e-05,0.4939408859171259,-2.4338992332102703e-05,0.4939408859171259,-1.0910248233779385e-05,0.4939408859171259,-1.1917661746161338e-05
0.494735003097057,6.428646498537513e-05,0.494735003097057,-2.5009514403655398e-05,0.494735003097057,-1.3595811784808958e-05,0.494735003097057,-9.567415892560504e-06
0.495529120276988,0.0001065972050516,0.495529120276988,-2.870357129382624e-05,0.495529120276988,-1.6617176175425756e-05,0.495529120276988,-1.1078023809445063e-05
0.4963232374569191,0.0001937822814022,0.4963232374569191,-3.775740614562204e-05,0.4963232374569191,-1.71201170560488e-05,0.4963232374569191,-1.0574983039868572e-05
0.4971173546368502,0.0002200287176464,0.4971173546368502,-3.139298428183681e-05,0.4971173546368502,-1.628208210170695e-05,0.4971173546368502,-8.226519990443457e-06
0.4979114718167812,0.0001657031765591,0.4979114718167812,-2.2665406157141178e-05,0.4979114718167812,-1.4939493254944797e-05,0.4979114718167812,-1.0908413496762588e-05
0.4987055889967123,0.0001138288472109,0.4987055889967123,-4.5413135415214165e-06,0.4987055889967123,-1.0912285246403144e-05,0.4987055889967123,-1.6949672130395286e-05
0.4994997061766434,8.276119104661943e-05,0.4994997061766434,2.6005295375789077e-05,0.4994997061766434,-1.0406886322493756e-05,0.4994997061766434,-1.3932618045978922e-05
0.5002938233565745,2.367984436210576e-05,0.5002938233565745,6.159278350463573e-05,0.5002938233565745,-9.56759671921994e-06,0.5002938233565745,-8.225879627958258e-06
0.5010879405365055,-3.5076100360451084e-05,0.5010879405365055,6.495744859074193e-05,0.5010879405365055,-6.882021126657545e-06,0.5010879405365055,-7.553270281102703e-06
0.5018820577164366,-8.24162449803847e-05,0.5018820577164366,2.5844395407219325e-05,0.5018820577164366,-6.042606603415125e-06,0.5018820577164366,-1.15816e-05
0.5026761748963677,-0.0001132943812951,0.5026761748963677,-3.474199362828322e-05,0.5026761748963677,-6.546378483631767e-06,0.5026761748963677,-1.158145229506756e-05
0.5034702920762988,-9.686364734208968e-05,0.5034702920762988,-2.19996592813768e-05,0.5034702920762988,-7.720023742197807e-06,0.5034702920762988,-1.0910797861601252e-05
0.5042644092562298,-4.066133529826469e-05,0.5042644092562298,1.7930178148264925e-05,0.5042644092562298,-1.37591042985475e-05,0.5042644092562298,-1.4600152595063053e-05
0.5050585264361609,1.1500126253636937e-06,0.5050585264361609,3.876078636492036e-05,0.5050585264361609,-1.0911901847680867e-05,0.5050585264361609,-1.225440154617834e-05
0.505852643616092,-4.04330160394934e-05,0.505852643616092,3.7431002710720064e-05,0.505852643616092,-1.4936791867839808e-05,0.505852643616092,-1.0239704066080097e-05
0.506646760796023,-0.0001142827506258,0.506646760796023,2.9040428361935305e-05,0.506646760796023,-1.7287792058658115e-05,0.506646760796023,-7.554029069794008e-06
0.507440877975954,-0.0001579392931342,0.507440877975954,1.5947712044351085e-05,0.507440877975954,-1.795979681745029e-05,0.507440877975954,-7.049747386912283e-06
0.5082349951558852,-0.0001777518791655,0.5082349951558852,-1.1077935130492588e-05,0.5082349951558852,-1.2420833793496418e-05,0.5082349951558852,-1.0238780543436076e-05
0.5090291123358163,-0.0001774151973987,0.5090291123358163,-3.7096976884498375e-05,0.5090291123358163,-1.3595989741552388e-05,0.5090291123358163,-1.2252881404464613e-05
0.5098232295157473,-0.000164672363607,0.5098232295157473,-5.3192583398734095e-05,0.5098232295157473,-1.4937298608484818e-05,0.5098232295157473,-1.1414513418155115e-05
0.5106173466956784,-0.0001341371349375,0.5106173466956784,-7.735861264301594e-05,0.5106173466956784,-1.996995678348662e-05,0.5106173466956784,-1.0910614280511266e-05
0.5114114638756094,-9.28484807640553e-05,0.5114114638756094,-9.348111984840416e-05,0.5114114638756094,-1.8967680013694863e-05,0.5114114638756094,-1.2419780013218686e-05
0.5122055810555405,-3.376887437482395e-05,0.5122055810555405,-7.235415901306726e-05,0.5122055810555405,-1.9302522871970936e-05,0.5122055810555405,-1.3595180025516382e-05
0.5129996982354716,4.847714186955113e-05,0.5129996982354716,-3.979267565215089e-05,0.5129996982354716,-1.896712758482641e-05,0.5129996982354716,-1.7958241397256625e-05
0.5137938154154027,0.0001109334843974,0.5137938154154027,-1.695810680717162e-05,0.5137938154154027,-1.5275158457861905e-05,0.5137938154154027,-2.1987363500514287e-05
0.5145879325953338,0.0001421653496553,0.5145879325953338,-1.191772747631879e-05,0.5145879325953338,-1.5609971501578747e-05,0.5145879325953338,-2.4337900519540485e-05
0.5153820497752648,0.0001995728947447,0.5153820497752648,-1.963991521798837e-05,0.5153820497752648,-1.225283164237608e-05,0.5153820497752648,-2.2323942089562706e-05
0.5161761669551959,0.000197872568392,0.5161761669551959,-4.38132119274178e-05,0.5161761669551959,-9.567269001611923e-06,0.5161761669551959,-2.2994947525030463e-05
0.5169702841351269,9.59337937278121e-05,0.5169702841351269,-6.527405390938623e-05,0.5169702841351269,-8.896614568145615e-06,0.5169702841351269,-2.131841133031814e-05
0.5177644013150581,3.143639911727612e-05,0.5177644013150581,-2.906523705530609e-05,0.5177644013150581,-8.225116243161245e-06,0.5177644013150581,-1.6285196823709336e-05
0.5185585184949891,-1.4910506305119335e-05,0.5185585184949891,3.739009166308117e-05,0.5185585184949891,-1.0908571379040146e-05,0.5185585184949891,-1.2590939362158203e-05
0.5193526356749202,-4.4466444996333054e-05,0.5193526356749202,6.007960269448667e-05,0.5193526356749202,-1.5272297542719608e-05,0.5193526356749202,-1.2253154035175414e-05
0.5201467528548512,-4.884274160435285e-05,0.5201467528548512,3.8779835193586575e-05,0.5201467528548512,-1.3596322459864288e-05,0.5201467528548512,-1.1581808983945716e-05
0.5209408700347823,-6.596189762908547e-05,0.5209408700347823,2.199104742214428e-05,0.5209408700347823,-8.896779281146712e-06,0.5209408700347823,-8.89644958852519e-06
0.5217349872147133,-8.91275270174424e-05,0.5217349872147133,6.546368655789846e-06,0.5217349872147133,-1.0910167566755124e-05,0.5217349872147133,-8.2246208111353e-06
0.5225291043946444,-8.140515876298885e-05,0.5225291043946444,5.875337146995892e-06,0.5225291043946444,-1.3931720410579349e-05,0.5225291043946444,-1.02387118370814e-05
0.5233232215745756,-6.815978364650413e-05,0.5233232215745756,1.056989820347002e-05,0.5233232215745756,-1.5608356494245355e-05,0.5233232215745756,-9.568067392510344e-06
0.5241173387545066,-4.818933448817247e-05,0.5241173387545066,6.549474846499427e-06,0.5241173387545066,-1.359747743157774e-05,0.5241173387545066,-6.380925925003396e-06
0.5249114559344377,1.1411259552786791e-06,0.5249114559344377,1.2920029467890156e-05,0.5249114559344377,-1.3931269971272931e-05,0.5249114559344377,-1.0236154683343155e-05
0.5257055731143687,2.499668560303264e-05,0.5257055731143687,2.265436597355451e-05,0.5257055731143687,-1.66156561158043e-05,0.5257055731143687,-1.2251917086853222e-05
0.5264996902942998,7.056675367412546e-06,0.5264996902942998,2.937098115356282e-05,0.5264996902942998,-1.7959376230712565e-05,0.5264996902942998,-1.5440856067445218e-05
0.5272938074742308,3.861303289208611e-06,0.5272938074742308,4.263048474691136e-05,0.5272938074742308,-1.896675580264209e-05,0.5272938074742308,-1.2589391880390278e-05
0.528087924654162,3.205652411533752e-05,0.528087924654162,4.0116238914630186e-05,0.528087924654162,-1.96383362881667e-05,0.528087924654162,-1.4938377008583442e-05
0.528882041834093,4.817140883339423e-05,0.528882041834093,3.776548094499165e-05,0.528882041834093,-2.047732584970212e-05,0.528882041834093,-1.963836462542809e-05
0.5296761590140241,2.3662167680277268e-05,0.5296761590140241,2.6010556901035825e-05,0.5296761590140241,-1.5273829978546998e-05,0.5296761590140241,-1.8966798562234423e-05
0.5304702761939551,1.0277303842195107e-06,0.5304702761939551,-4.168722793727216e-06,0.5304702761939551,-1.2926539461414915e-05,0.5304702761939551,-1.7960816912034963e-05
0.5312643933738862,2.532660538158698e-05,0.5312643933738862,-1.0234183399551158e-05,0.5312643933738862,-1.0576295353532476e-05,0.5312643933738862,-1.561179535353248e-05
0.5320585105538173,1.7293466399320042e-05,0.5320585105538173,-9.903306935873465e-06,0.5320585105538173,-9.232537737329548e-06,0.5320585105538173,-1.4939013871746929e-05
0.5328526277337483,-3.589475337887352e-05,0.5328526277337483,-3.641086602588326e-05,0.5328526277337483,-1.309039001241552e-05,0.5328526277337483,-1.7622940858632745e-05
0.5336467449136795,-6.259922598333698e-05,0.5336467449136795,-6.863994651530087e-05,0.5336467449136795,-1.3595638209734244e-05,0.5336467449136795,-1.930216075265872e-05
0.5344408620936105,-7.67046511542092e-05,0.5344408620936105,-9.298427280442108e-05,0.5344408620936105,-1.6952216937343008e-05,0.5344408620936105,-1.9638341693734306e-05
0.5352349792735416,-9.886262164044609e-05,0.5352349792735416,-5.623045955149337e-05,0.5352349792735416,-1.4938652578378572e-05,0.5352349792735416,-1.6952870104504766e-05
0.5360290964534726,-7.602849103105635e-05,0.5360290964534726,-1.1581925830749884e-05,0.5360290964534726,-9.567247084625058e-06,0.5360290964534726,-1.3259896355781325e-05
0.5368232136334037,-1.667587333614836e-05,0.5368232136334037,-1.426454356461512e-05,0.5368232136334037,-8.22593821769244e-06,0.5368232136334037,-1.158326027211555e-05
0.5376173308133347,-3.238160240129997e-05,0.5376173308133347,-3.37212901776237e-05,0.5376173308133347,-6.88295170927242e-06,0.5376173308133347,-1.091076585885023e-05
0.5384114479932659,-5.11809304410642e-05,0.5384114479932659,-5.118186398595406e-05,0.5384114479932659,-1.0236466151679795e-05,0.5384114479932659,-1.0407050044572568e-05
0.539205565173197,-3.374725978226871e-05,0.539205565173197,-4.465148491150526e-05,0.539205565173197,-1.3929477726781524e-05,0.539205565173197,-1.0238891948891973e-05
0.539999682353128,-1.393942364921506e-05,0.539999682353128,-4.917798697246934e-05,0.539999682353128,-1.5944894201096173e-05,0.539999682353128,-6.212031589806473e-06
0.5407937995330591,-4.534303177637298e-06,0.5407937995330591,-6.294002497879729e-05,0.5407937995330591,-1.6449072877701813e-05,0.5407937995330591,-6.546035243385299e-06
0.5415879167129901,2.064285900143544e-05,0.5415879167129901,-6.596438308978068e-05,0.5415879167129901,-1.292476973558224e-05,0.5415879167129901,-1.158107180091646e-05
0.5423820338929212,7.939443388757117e-05,0.5423820338929212,-5.94181916031062e-05,0.5423820338929212,-1.6952928968114144e-05,0.5423820338929212,-1.426715701062862e-05
0.5431761510728523,0.0001200117447913,0.5431761510728523,-4.984769142326808e-05,0.5431761510728523,-1.997390862205083e-05,0.5431761510728523,-1.3260450850072043e-05
0.5439702682527834,0.0001186702361465,0.5439702682527834,-3.140479439189803e-05,0.5439702682527834,-1.896792697185137e-05,0.5439702682527834,-1.5104700597627668e-05
0.5447643854327144,8.847998482702769e-05,0.5447643854327144,-1.2267810607174843e-05,0.5447643854327144,-1.8296119673143027e-05,0.5447643854327144,-1.4938729879585046e-05
0.5455585026126455,5.490772927424772e-05,0.5455585026126455,5.192394788666971e-06,0.5455585026126455,-1.5611682346951277e-05,0.5455585026126455,-1.2925661760213456e-05
0.5463526197925765,1.4622189924186556e-05,0.5463526197925765,1.929594850738068e-05,0.5463526197925765,-1.695215699933478e-05,0.5463526197925765,-1.2588860750166306e-05
0.5471467369725076,-1.6271168992462e-05,0.5471467369725076,2.198741034429001e-05,0.5471467369725076,-1.5946033620891244e-05,0.5471467369725076,-1.1078600414773426e-05
0.5479408541524387,-1.376406248739294e-05,0.5479408541524387,2.9372243415623523e-05,0.5479408541524387,-1.2253678301372592e-05,0.5479408541524387,-1.2924060858498058e-05
0.5487349713323698,-1.6281309094006028e-05,0.5487349713323698,3.3066166673856565e-05,0.5487349713323698,-1.242079394152602e-05,0.5487349713323698,-1.7288342432739575e-05
0.5495290885123009,-2.568355365444676e-05,0.5495290885123009,1.0907695847839458e-05,0.5495290885123009,-1.5610317686791405e-05,0.5495290885123009,-1.7288238370999115e-05
0.5503232056922319,-4.949168615354728e-05,0.5503232056922319,-1.1559127784328445e-05,0.5503232056922319,-1.846054908454649e-05,0.5503232056922319,-1.4940947853867036e-05
0.551117322872163,-1.899305193920567e-05,0.551117322872163,-4.370235143206891e-06,0.551117322872163,-1.5947847109263566e-05,0.551117322872163,-1.2926117721523088e-05
0.551911440052094,1.6592005236423853e-05,0.551911440052094,1.3918597516739544e-05,0.551911440052094,-1.091375115576866e-05,0.551911440052094,-1.6614495819102982e-05
0.5527055572320251,1.4268510403607476e-05,0.5527055572320251,1.5273551197938584e-05,0.5527055572320251,-1.1245712799484649e-05,0.5527055572320251,-1.9301202395877168e-05
0.5534996744119562,3.708533934374225e-05,0.5534996744119562,2.0475466332156128e-05,0.5534996744119562,-1.0910337657312704e-05,0.5534996744119562,-1.829601297193811e-05
0.5542937915918873,5.555325375019242e-05,0.5542937915918873,3.138493630454571e-05,0.5542937915918873,-9.567762453815607e-06,0.5542937915918873,-1.7792132184289083e-05
0.5550879087718184,1.930686563503517e-05,0.5550879087718184,4.783511003702013e-05,0.5550879087718184,-8.22476428363017e-06,0.5550879087718184,-1.6281573563339092e-05
0.5558820259517494,-1.1246744863451269e-05,0.5558820259517494,4.330420027507343e-05,0.5558820259517494,-1.2588678055409877e-05,0.5558820259517494,-1.5609912221639507e-05
0.5566761431316805,-3.710146917427682e-05,0.5566761431316805,1.577335773095619e-05,0.5566761431316805,-1.1917028031803053e-05,0.5566761431316805,-1.2924520878755084e-05
0.5574702603116115,-7.465791767047798e-05,0.5574702603116115,-8.873052854392397e-06,0.5574702603116115,-1.0408105500980793e-05,0.5574702603116115,-1.35951753122213e-05
0.5582643774915427,-3.511155674309249e-05,0.5582643774915427,-2.4996866771029943e-05,0.5582643774915427,-8.226320792795555e-06,0.5582643774915427,-1.4266673611866175e-05
0.5590584946714737,-3.544913098508559e-06,0.5590584946714737,-4.11128447585132e-05,0.5590584946714737,-1.023751810117849e-05,0.5590584946714737,-1.4938172698271384e-05
0.5598526118514048,-3.137417912762543e-05,0.5598526118514048,-4.649157432629719e-05,0.5598526118514048,-1.577509224802371e-05,0.5598526118514048,-1.5609671784676497e-05
0.5606467290313358,-1.293070101112607e-05,0.5606467290313358,-5.052122522649024e-05,0.5606467290313358,-1.57778e-05,0.5606467290313358,-1.4938829128918294e-05
0.5614408462112669,-1.493820987246074e-05,0.5614408462112669,-4.850879012753926e-05,0.5614408462112669,-1.393185760722656e-05,0.5614408462112669,-1.292479012753926e-05
0.5622349633911979,-6.86478235251942e-05,0.5622349633911979,-4.985113808778405e-05,0.5622349633911979,-1.4602869043892028e-05,0.5622349633911979,-1.2253030956107972e-05
0.563029080571129,-0.0001381447970732,0.563029080571129,-4.582137107356103e-05,0.563029080571129,-1.2924910334490608e-05,0.563029080571129,-1.292429793310188e-05
0.5638231977510602,-0.0001854252354099,0.5638231977510602,-3.1737727859720023e-05,0.5638231977510602,-1.795481858548863e-05,0.5638231977510602,-1.1918316282902277e-05
0.5646173149309912,-0.0001561253432392,0.5646173149309912,-1.562390284568311e-05,0.5646173149309912,-1.5947437866495478e-05,0.5646173149309912,-8.898616791115146e-06
0.5654114321109223,-7.273836504423523e-05,0.5654114321109223,-3.701203571617384e-06,0.5654114321109223,-1.5610240101213357e-05,0.5654114321109223,-1.124421929865876e-05
0.5662055492908533,-5.120619565592378e-05,0.5662055492908533,-1.6945272975604592e-05,0.5662055492908533,-2.0642641629838717e-05,0.5662055492908533,-1.4600994419892475e-05
0.5669996664707844,-3.374503272801753e-05,0.5669996664707844,-3.943515204986024e-05,0.5669996664707844,-1.829658710365704e-05,0.5669996664707844,-1.493845898519185e-05
0.5677937836507154,5.2848900434749447e-05,0.5677937836507154,-3.8102165886422365e-05,0.5677937836507154,-1.4939514716055915e-05,0.5677937836507154,-1.2253731772844732e-05
0.5685879008306466,0.00016900949286,0.5685879008306466,-3.440956121243235e-05,0.5685879008306466,-1.0575045069238233e-05,0.5685879008306466,-1.258865807159706e-05
