X [s],R BICEPS BRACHII: EMG 1 [V],X [s].1,R DELTOID ANTERIOR: EMG 2 [V],X [s].5,R DELTOID MEDIUS: EMG 6 [V],X [s].6,R DELTOID POSTERIOR: EMG 7 [V]
0.0,-1.35958e-05,0.0,1.59457e-05,0.0,6.54612e-06,0.0,-1.42672e-05
0.000794117179931,-9.875524324051347e-09,0.000794117179931,-1.0475796717756688e-05,0.000794117179931,6.151181605010434e-06,0.000794117179931,-1.322060600212542e-05
0.0015882343598621,6.9805491802761815e-06,0.0015882343598621,-3.571242935105267e-05,0.0015882343598621,5.242819981963295e-06,0.0015882343598621,-1.1502612513281571e-05
0.0023823515397932,5.282358268074406e-06,0.0023823515397932,-5.05621271378887e-05,0.0023823515397932,1.0959589690342975e-06,0.0023823515397932,-1.0613990986033773e-05
0.0031764687197242,-1.09595074196171e-06,0.0031764687197242,-5.978397920213865e-05,0.0031764687197242,3.653188377605242e-07,0.0031764687197242,-1.1463116648957903e-05
0.0039705858996553,-3.455677705542241e-07,0.0039705858996553,-6.660647517224723e-05,0.0039705858996553,-1.056440735174457e-06,0.0039705858996553,-1.087072280018644e-05
0.0047647030795864,-1.20949709670953e-05,0.0047647030795864,-7.179991457097178e-05,0.0047647030795864,-4.097492460155283e-06,0.0047647030795864,-9.093478716796068e-06
0.0055588202595174,-3.667984156332889e-05,0.0055588202595174,-7.683545268599107e-05,0.0055588202595174,-7.079259823718773e-06,0.0055588202595174,-1.115701866823661e-05
0.0063529374394485,-3.375746702084193e-05,0.0063529374394485,-7.236284131771453e-05,0.0063529374394485,-9.448926648957904e-06,0.0063529374394485,-1.0357283351042095e-05
0.0071470546193796,-2.1040494681900564e-05,0.0071470546193796,-5.079917446926785e-05,0.0071470546193796,-1.164079861989107e-05,0.0071470546193796,-1.0702876414726306e-05
0.0079411717993107,-4.117292703688358e-06,0.0079411717993107,-1.5096709271567696e-05,0.0079411717993107,-1.5491467468984093e-05,0.0079411717993107,-1.3358829055986897e-05
0.0087352889792417,1.7900467033290366e-05,0.0087352889792417,1.0337490312150123e-05,0.0087352889792417,-1.5254572853312727e-05,0.0087352889792417,-1.49386e-05
0.0095294061591728,3.288854952186339e-05,0.0095294061591728,1.334895266137528e-05,0.0095294061591728,-1.2065386201849218e-05,0.0095294061591728,-1.2608450053126289e-05
0.0103235233391039,3.845724864409021e-05,0.0103235233391039,8.983469141653011e-07,0.0103235233391039,-7.23744875007034e-06,0.0103235233391039,-1.312182085635993e-05
0.0111176405190349,3.5100213146809006e-05,0.0111176405190349,-1.1700309525112626e-05,0.0111176405190349,-2.4189809215143245e-06,0.0111176405190349,-1.266768069929089e-05
0.011911757698966,3.034103339033224e-05,0.011911757698966,-2.7102672304540227e-05,0.011911757698966,-7.897667599918664e-07,0.011911757698966,-1.1660514310142389e-05
0.0127058748788971,2.530610769419369e-05,0.0127058748788971,-3.715392985808479e-05,0.0127058748788971,2.280748693546222e-06,0.0127058748788971,-1.4029947290609506e-05
0.0134999920588282,1.6617191629692746e-05,0.0134999920588282,-3.927669743349648e-05,0.0134999920588282,2.51774e-06,0.0134999920588282,-1.695278854628841e-05
0.0142941092387592,5.558411771286485e-06,0.0142941092387592,-3.549527137865707e-05,0.0142941092387592,2.51774e-06,0.0142941092387592,-1.4987945370002566e-05
0.0150882264186903,-5.24245904678687e-06,0.0150882264186903,-3.039057169818588e-05,0.0150882264186903,2.3300166071755454e-06,0.0150882264186903,-1.568887994900761e-05
0.0158823435986214,-8.303567791867703e-06,0.0158823435986214,-2.936388115474052e-05,0.0158823435986214,4.4924511040661485e-06,0.0158823435986214,-1.69528e-05
0.0166764607785524,-9.44893895106367e-06,0.0166764607785524,-2.4101218990446045e-05,0.0166764607785524,3.3668448088669785e-06,0.0166764607785524,-1.5846942097872662e-05
0.0174705779584835,-1.138408886329078e-05,0.0174705779584835,-2.1889497065620167e-05,0.0174705779584835,2.201763757143167e-06,0.0174705779584835,-1.4128935635714753e-05
0.0182646951384146,-1.28454364812765e-05,0.0182646951384146,-1.9579177180343243e-05,0.0182646951384146,6.605235241412596e-06,0.0182646951384146,-1.8275754074894e-05
0.0190588123183456,-1.3536547294964443e-05,0.0190588123183456,-1.835479410424769e-05,0.0190588123183456,7.257021215007271e-06,0.0190588123183456,-1.7722954508392594e-05
0.0198529294982767,-1.7110946779194632e-05,0.0198529294982767,-1.809799282632716e-05,0.0198529294982767,6.664585322080536e-06,0.0198529294982767,-1.54519803385986e-05
0.0206470466782078,-1.934226200425384e-05,0.0206470466782078,-2.015183825067169e-05,0.0206470466782078,7.88891e-06,0.0206470466782078,-1.49386e-05
0.0214411638581389,-2.0408468605555647e-05,0.0214411638581389,-1.809818375509541e-05,0.0214411638581389,5.87472e-06,0.0214411638581389,-1.49386e-05
0.0222352810380699,-2.3271820030712454e-05,0.0222352810380699,-1.8177123553467224e-05,0.0222352810380699,6.901597202836441e-06,0.0222352810380699,-1.416844209787267e-05
0.023029398218001,-2.4456625222660155e-05,0.023029398218001,-1.849291083996992e-05,0.023029398218001,7.375490944551014e-06,0.023029398218001,-1.177908716634696e-05
0.0238235153979321,-2.3548263312198447e-05,0.0238235153979321,-1.932244190336477e-05,0.0238235153979321,7.020256668918733e-06,0.0238235153979321,-1.3279710063404666e-05
0.0246176325778631,-2.181057254071557e-05,0.0246176325778631,-1.693304270759992e-05,0.0246176325778631,3.050919205977268e-06,0.0246176325778631,-1.5531007846997518e-05
0.0254117497577942,-1.912486298141956e-05,0.0254117497577942,-1.6577594159058292e-05,0.0254117497577942,2.695416242258148e-06,0.0254117497577942,-1.3082262981419555e-05
0.0262058669377253,-1.6439454317650933e-05,0.0262058669377253,-2.4969952379697293e-05,0.0262058669377253,1.471048900071279e-06,0.0262058669377253,-1.1630936782277788e-05
0.0269999841176564,-1.3931557268557964e-05,0.0269999841176564,-2.366680782679691e-05,0.0269999841176564,3.021261365721017e-06,0.0269999841176564,-1.2588671364015071e-05
0.0277941012975874,-1.142362585491833e-05,0.0277941012975874,-1.0535318275416076e-05,0.0277941012975874,2.2412434964544493e-06,0.0277941012975874,-1.3398348251772774e-05
0.0285882184775185,-1.1403951608305997e-05,0.0285882184775185,-1.471175588029499e-06,0.0285882184775185,1.1156187091194032e-06,0.0285882184775185,-1.2786212410519928e-05
0.0293823356574496,-8.836800246382917e-06,0.0293823356574496,-2.418820647941764e-06,0.0293823356574496,1.7673936618438892e-06,0.0293823356574496,-1.1956773169078056e-05
0.0301764528373806,-8.530689374338018e-06,0.0301764528373806,-8.71804086611795e-06,0.0301764528373806,6.911406411693214e-08,0.0301764528373806,-1.2529458748676036e-05
0.0309705700173117,-8.71830384705422e-06,0.0309705700173117,-1.5136190954632717e-05,0.0309705700173117,1.7277735885688806e-06,0.0309705700173117,-1.189758769410844e-05
0.0317646871972428,-9.014185566642727e-06,0.0317646871972428,-2.157335921114105e-05,0.0317646871972428,1.6094680356174758e-06,0.0317646871972428,-1.0831242208132296e-05
0.0325588043771738,-2.0585939029373743e-05,0.0325588043771738,-2.4456620964806428e-05,0.0325588043771738,5.233045108302456e-07,0.0325588043771738,-1.05745e-05
0.0333529215571049,-3.146684475531834e-05,0.0333529215571049,-2.564118269214388e-05,0.0333529215571049,-4.24599446167861e-07,0.0333529215571049,-9.685877519861296e-06
0.034147038737036,-2.374660215975893e-05,0.034147038737036,-2.8850351194222527e-05,0.034147038737036,-3.8997909597220366e-06,0.034147038737036,-8.994825170685302e-06
0.0349411559169671,-1.3517213295972786e-05,0.0349411559169671,-2.627342782914004e-05,0.0349411559169671,-4.117318610646057e-06,0.0349411559169671,-7.790117392226275e-06
0.0357352730968981,-3.2878452602790736e-06,0.0357352730968981,-2.48515300734088e-05,0.0357352730968981,-2.85344e-06,0.0357352730968981,-1.0692997369860464e-05
0.0365293902768292,-1.6883747810747866e-06,0.0365293902768292,-2.29560614473001e-05,0.0365293902768292,1.0853872578522492e-07,0.0365293902768292,-1.202591048042288e-05
0.0373235074567603,2.675313110919426e-06,0.0373235074567603,-1.928300565124131e-05,0.0373235074567603,1.964765234089958e-06,0.0373235074567603,-8.836797382955022e-06
0.0381176246366913,1.23219230714345e-05,0.0381176246366913,-1.6360378974796642e-05,0.0381176246366913,2.813938196642962e-06,0.0381176246366913,-8.856508196642962e-06
0.0389117418166224,1.79599e-05,0.0389117418166224,-1.948033555994082e-05,0.0389117418166224,3.86053e-06,0.0389117418166224,-8.42209377624094e-06
0.0397058589965535,1.572846608029714e-05,0.0397058589965535,-2.1020739301806117e-05,0.0397058589965535,1.807057532943848e-06,0.0397058589965535,-8.50122398070437e-06
0.0404999761764846,1.4602951541702176e-05,0.0404999761764846,-2.03098e-05,0.0404999761764846,-1.6781463901875104e-07,0.0404999761764846,-6.881854361134783e-06
0.0412940933564156,1.021902306862763e-05,0.0412940933564156,-1.8434030189788745e-05,0.0412940933564156,2.083308399030591e-06,0.0412940933564156,-9.271215197091776e-06
0.0420882105363467,3.5849773704537465e-06,0.0420882105363467,-1.0929927247788132e-05,0.0420882105363467,3.406163334266462e-06,0.0420882105363467,-1.2805727450497104e-05
0.0428823277162778,-8.7376855732134e-06,0.0428823277162778,-1.776145601949855e-05,0.0428823277162778,3.288026522342413e-06,0.0428823277162778,-1.2016195346666445e-05
0.0436764448962088,-1.1759340934539288e-05,0.0436764448962088,-3.819984541971374e-05,0.0436764448962088,9.577388974323018e-07,0.0436764448962088,-9.68590219148082e-06
0.0444705620761399,-1.02388e-05,0.0444705620761399,-4.8883659088139445e-05,0.0444705620761399,4.097337697810384e-06,0.0444705620761399,-1.0949601709279917e-05
0.045264679256071,-9.152757934988095e-06,0.045264679256071,-5.091751255058367e-05,0.045264679256071,5.4799620268041936e-06,0.045264679256071,-1.1739504130023809e-05
0.046058796436002,-9.211947644609889e-06,0.046058796436002,-5.072006759027002e-05,0.046058796436002,2.3006135436497155e-06,0.046058796436002,-1.2568937644609888e-05
0.0468529136159331,-1.4701676207954443e-05,0.0468529136159331,-4.507302988390579e-05,0.0468529136159331,3.9987880381810285e-06,0.0468529136159331,-1.2312220741667915e-05
0.0476470307958642,-1.4662506497587554e-05,0.0476470307958642,-3.223701659959171e-05,0.0476470307958642,4.393883248793776e-06,0.0476470307958642,-1.3506746047562789e-05
0.0484411479757953,-1.106823592881626e-05,0.0484411479757953,-6.844123618226325e-06,0.0484411479757953,3.939419069598136e-06,0.0484411479757953,-1.4918877732600466e-05
0.0492352651557263,-9.369960564957016e-06,0.0492352651557263,1.1166741478624029e-05,0.0492352651557263,6.230153741047948e-06,0.0492352651557263,-1.5116315693995036e-05
0.0500293823356574,-7.829572254419814e-06,0.0500293823356574,8.640219479402121e-06,0.0500293823356574,8.046869493299408e-06,0.0500293823356574,-1.412902152010178e-05
0.0508234995155885,-1.123582907761779e-05,0.0508234995155885,-3.988579922323948e-06,0.0508234995155885,6.190880422549435e-06,0.0508234995155885,-1.267750151686105e-05
0.0516176166955195,-1.5274180108840287e-05,0.0516176166955195,-1.803872382768831e-05,0.0516176166955195,3.347168943981199e-06,0.0516176166955195,-1.4425110229691614e-05
0.0524117338754506,-2.595760474767495e-05,0.0524117338754506,-2.0408615947719693e-05,0.0524117338754506,4.0580080493851465e-06,0.0524117338754506,-1.49386e-05
0.0532058510553817,-3.111191033127513e-05,0.0532058510553817,-2.9590061886030734e-05,0.0532058510553817,2.201852730531746e-06,0.0532058510553817,-1.4405516974042327e-05
0.0539999682353128,-2.1149469598763423e-05,0.0539999682353128,-4.481526870504837e-05,0.0539999682353128,2.517694185153628e-06,0.0539999682353128,-1.3595822907423186e-05
0.0547940854152438,-1.620242396695122e-05,0.0547940854152438,-2.7873636609641463e-05,0.0547940854152438,2.478251983475608e-06,0.0547940854152438,-1.3832762672174798e-05
0.0555882025951749,-1.118746207953282e-05,0.0555882025951749,-2.0546459484097085e-05,0.0555882025951749,-1.7471258130082528e-06,0.0555882025951749,-1.35958e-05
0.056382319775106,-2.5377473350231157e-06,0.056382319775106,-2.828685480466356e-05,0.056382319775106,-4.94655343073293e-06,0.056382319775106,-1.284547656926707e-05
0.057176436955037,2.4583912437164414e-06,0.057176436955037,-4.360986741790862e-05,0.057176436955037,-6.921258239871516e-06,0.057176436955037,-1.1147210820142227e-05
0.0579705541349681,8.678445833812335e-06,0.0579705541349681,-6.549083521325362e-05,0.0579705541349681,-9.25139940338836e-06,0.0579705541349681,-7.918694433940923e-06
0.0587646713148992,1.46029e-05,0.0587646713148992,-6.675543454139353e-05,0.0587646713148992,-8.007687984600346e-06,0.0587646713148992,-7.276549339087431e-06
0.0595587884948302,1.2707308493475437e-05,0.0595587884948302,-5.054249611653365e-05,0.0595587884948302,-3.998905986859791e-06,0.0595587884948302,-1.0771824013140208e-05
0.0603529056747613,1.3556304984112431e-05,0.0603529056747613,-7.775388335692814e-06,0.0603529056747613,-4.176482492056217e-06,0.0603529056747613,-1.0929947507943783e-05
0.0611470228546924,1.3457776156216953e-05,0.0611470228546924,5.512275525204853e-05,0.0611470228546924,-3.485647762206303e-06,0.0611470228546924,-9.093686156216952e-06
0.0619411400346235,1.112760134406376e-05,0.0619411400346235,8.093360921736009e-05,0.0619411400346235,-1.68834827027187e-06,0.0619411400346235,-8.26404308108748e-06
0.0627352572145545,6.79304750542524e-06,0.0627352572145545,6.327981731990963e-05,0.0627352572145545,-2.6164463604251437e-06,0.0627352572145545,-9.409414240283428e-06
0.0635293743944856,4.334391303020838e-06,0.0635293743944856,3.67810022284593e-05,0.0635293743944856,-5.627705436182832e-06,0.0635293743944856,-9.56741e-06
0.0643234915744167,5.815520600180564e-06,0.0643234915744167,7.396317129962168e-06,0.0643234915744167,-7.198014783513629e-06,0.0643234915744167,-9.685810563152823e-06
0.0651176087543477,4.058096285343176e-06,0.0651176087543477,-1.979602815774942e-05,0.0651176087543477,-3.169544879508359e-06,0.0651176087543477,-1.1127360228794094e-05
0.0659117259342788,-7.997714604842368e-07,0.0659117259342788,-2.2758441620402426e-05,0.0659117259342788,1.3526776410119231e-06,0.0659117259342788,-1.2786172322529345e-05
0.0667058431142099,-4.512108679184558e-06,0.0667058431142099,-3.057750213103893e-05,0.0667058431142099,3.386508632544375e-06,0.0667058431142099,-1.42672e-05
0.067499960294141,-5.874634098016018e-06,0.067499960294141,-4.4479358190579545e-05,0.067499960294141,5.20321546288406e-06,0.067499960294141,-1.493854273144203e-05
0.068294077474072,-5.687141640613862e-06,0.068294077474072,-4.64942e-05,0.068294077474072,6.21042e-06,0.068294077474072,-1.4227729164043016e-05
0.0690881946540031,-7.582393950955647e-06,0.0690881946540031,-5.178550936145142e-05,0.0690881946540031,3.505382071326053e-06,0.0690881946540031,-1.446472959108732e-05
0.0698823118339342,-9.409586045957332e-06,0.0698823118339342,-6.837251502845836e-05,0.0698823118339342,2.2806799712766663e-06,0.0698823118339342,-1.2253e-05
0.0706764290138652,-8.501051568108645e-06,0.0706764290138652,-8.39735348215795e-05,0.0706764290138652,3.712385685491509e-06,0.0706764290138652,-1.3635207840543223e-05
0.0714705461937963,-1.3437201569230762e-05,0.0714705461937963,-8.421106088090563e-05,0.0714705461937963,2.044000631623933e-06,0.0714705461937963,-1.6636777952136753e-05
0.0722646633737274,-3.1208362006811094e-05,0.0722646633737274,-6.223497390030612e-05,0.0722646633737274,2.7545594823783955e-06,0.0722646633737274,-1.7209559388699692e-05
0.0730587805536585,-4.677012970828736e-05,0.0730587805536585,-3.3204929731819394e-05,0.0730587805536585,3.52483e-06,0.0730587805536585,-1.632094761820341e-05
0.0738528977335895,-4.910084114751862e-05,0.0738528977335895,-1.4623558760575829e-05,0.0738528977335895,2.3005282295037246e-06,0.0738528977335895,-1.3852541147518623e-05
0.0746470149135206,-4.400633434074296e-05,0.0746470149135206,-6.921430361959234e-06,0.0746470149135206,9.185177100315091e-07,0.0746470149135206,-1.339810093635984e-05
0.0754411320934517,-3.402597440347343e-05,0.0754411320934517,-7.236521677234283e-06,0.0754411320934517,-1.2537832547517455e-06,0.0754411320934517,-1.6636810813687937e-05
0.0762352492733827,-3.644117347818421e-06,0.0762352492733827,-1.6162583533161325e-05,0.0762352492733827,-2.51774e-06,0.0762352492733827,-1.59260144268563e-05
0.0770293664533138,1.7840546169031346e-05,0.0770293664533138,-2.1415739528592228e-05,0.0770293664533138,1.3326522239151185e-06,0.0770293664533138,-1.213465978976096e-05
0.0778234836332449,3.184111329307417e-05,0.0778234836332449,-1.801936110014796e-05,0.0778234836332449,5.953394528656402e-06,0.0778234836332449,-1.05745e-05
0.078617600813176,4.035269117683133e-05,0.078617600813176,-1.2095134454267095e-05,0.078617600813176,9.073634064302303e-06,0.078617600813176,-1.0870681016075576e-05
0.079411717993107,4.173526680865289e-05,0.079411717993107,-6.171320701211907e-06,0.079411717993107,8.165376808652889e-06,0.079411717993107,-1.1107666595673556e-05
0.0802058351730381,3.569381875538797e-05,0.0802058351730381,-5.9138676505915945e-06,0.0802058351730381,8.777500029633619e-06,0.0802058351730381,-1.3121760118534478e-05
0.0809999523529692,2.467441850042611e-05,0.0809999523529692,-1.6951999013216838e-05,0.0809999523529692,8.560344361134784e-06,0.0809999523529692,-1.2924468722269569e-05
0.0817940695329002,1.3842886532076285e-05,0.0817940695329002,-2.374540898817058e-05,0.0817940695329002,1.089036147082068e-05,0.0817940695329002,-1.09102e-05
0.0825881867128313,2.992703730099346e-06,0.0825881867128313,-2.2955876311642977e-05,0.0825881867128313,1.3655170635886218e-05,0.0825881867128313,-1.12459e-05
0.0833823038927624,-4.610456572211927e-06,0.0833823038927624,-2.3705892311963028e-05,0.0833823038927624,9.864024864607124e-06,0.0833823038927624,-9.449059215035396e-06
0.0841764210726934,-1.2005809070200092e-05,0.0841764210726934,-2.56809e-05,0.0841764210726934,6.635016238120731e-06,0.0841764210726934,-8.56031e-06
0.0849705382526245,-1.8107714663287795e-05,0.0849705382526245,-2.75272016253162e-05,0.0849705382526245,5.815725790262307e-06,0.0849705382526245,-1.012012095929511e-05
0.0857646554325556,-2.07044744222226e-05,0.0857646554325556,-3.5633090272302826e-05,0.0857646554325556,4.808199744203882e-06,0.0857646554325556,-1.1897339537778076e-05
0.0865587726124866,-2.325188774819738e-05,0.0865587726124866,-3.19805315711267e-05,0.0865587726124866,4.601157786648523e-06,0.0865587726124866,-1.3556240928084991e-05
0.0873528897924177,-2.455530604364048e-05,0.0873528897924177,-8.503790103165229e-06,0.0873528897924177,3.27795468249908e-06,0.0873528897924177,-1.6478824174561904e-05
0.0881470069723488,-2.2738937739226e-05,0.0881470069723488,1.4345588644526588e-05,0.0881470069723488,2.804537223283405e-06,0.0881470069723488,-1.5561071333442146e-05
0.0889411241522799,-2.1948889826335703e-05,0.0889411241522799,1.4366780803686808e-05,0.0889411241522799,-7.604260048624172e-07,0.0889411241522799,-1.1621010173664294e-05
0.0897352413322109,-2.106020933356988e-05,0.0897352413322109,7.257283220623963e-06,0.0897352413322109,1.016923215715983e-06,0.0897352413322109,-1.2253e-05
0.090529358512142,-2.161292221703849e-05,0.090529358512142,3.347682516032917e-06,0.090529358512142,-9.971854935030285e-07,0.090529358512142,-1.2726826949265998e-05
0.0913234756920731,-2.2205538212484025e-05,0.0913234756920731,-2.971536108117321e-06,0.0913234756920731,8.984346517181417e-07,0.0913234756920731,-1.5056979419243598e-05
0.0921175928720041,-2.1060249421560447e-05,0.0921175928720041,-7.987462208984684e-06,0.0921175928720041,1.6192029338296652e-06,0.0921175928720041,-1.561e-05
0.0929117100519352,-2.03098e-05,0.0929117100519352,-7.040048156053944e-06,0.0929117100519352,2.85344e-06,0.0929117100519352,-1.62814e-05
0.0937058272318663,-2.0004102142523078e-05,0.0937058272318663,-7.4341045371921295e-06,0.0937058272318663,1.2049603665582522e-06,0.0937058272318663,-1.4543902670354238e-05
0.0944999444117974,-1.6281660565967918e-05,0.0944999444117974,-1.7791281175590497e-05,0.0944999444117974,-2.517479429016605e-06,0.0944999444117974,-1.35958e-05
0.0952940615917284,-1.422776352517778e-05,0.0952940615917284,-1.1700968513507518e-05,0.0952940615917284,-1.383527744532537e-07,0.0952940615917284,-1.2648018033570371e-05
0.0960881787716595,-1.654680218307663e-05,0.0960881787716595,-8.658157025089884e-06,0.0960881787716595,1.7081810447989122e-06,0.0960881787716595,-1.0495723134396735e-05
0.0968822959515906,-2.929386802198603e-05,0.0968822959515906,-2.271714541607491e-05,0.0968822959515906,-3.453483491015785e-07,0.0968822959515906,-8.145722105395452e-06
0.0976764131315216,-3.042053862723532e-05,0.0976764131315216,-3.966080474770717e-05,0.0976764131315216,-4.345618962082669e-07,0.0976764131315216,-8.106071994355198e-06
0.0984705303114527,-1.541381700645819e-05,0.0984705303114527,-5.056182644799858e-05,0.0984705303114527,1.9155237127748418e-06,0.0984705303114527,-9.429037281703075e-06
0.0992646474913838,-3.505855418591214e-06,0.0992646474913838,-5.876627536413692e-05,0.0992646474913838,-5.824766873524498e-07,0.0992646474913838,-1.2331929157588715e-05
0.1000587646713148,3.624737551830675e-06,0.1000587646713148,-6.502438291955035e-05,0.1000587646713148,-1.6293666684139162e-06,0.1000587646713148,-1.1956598946226482e-05
0.1008528818512459,9.962341808360569e-06,0.1008528818512459,-5.8091214164397415e-05,0.1008528818512459,-5.973458099157058e-06,0.1008528818512459,-1.183832814414815e-05
0.101646999031177,1.296338031956297e-05,0.101646999031177,-3.934304881224719e-05,0.101646999031177,-5.657423193066276e-06,0.101646999031177,-1.2253e-05
0.1024411162111081,1.5267417870870574e-05,0.1024411162111081,-3.0401238047082547e-05,0.1024411162111081,-8.381218656752247e-06,0.1024411162111081,-1.27257330849095e-05
0.1032352333910391,6.250879162420574e-07,0.1032352333910391,-3.5098977925029646e-05,0.1032352333910391,-1.09102e-05,0.1032352333910391,-1.5451851284857735e-05
0.1040293505709702,-1.0910527437126205e-05,0.1040293505709702,-3.188035035308836e-05,0.1040293505709702,-4.985623748744317e-06,0.1040293505709702,-1.331909716727836e-05
0.1048234677509013,-1.1501441323679194e-05,0.1048234677509013,-3.1485157199741194e-05,0.1048234677509013,8.793259842215584e-07,0.1048234677509013,-1.1424125905435011e-05
0.1056175849308323,-6.010437691039671e-06,0.1056175849308323,-4.402353916864389e-05,0.1056175849308323,1.253508338578792e-06,0.1056175849308323,-1.3438663322842416e-05
0.1064117021107634,-4.823085828874746e-07,0.1064117021107634,-5.111561077906201e-05,0.1064117021107634,7.011420885571472e-07,0.1064117021107634,-1.367441420268842e-05
0.1072058192906945,-2.6171829648370364e-06,0.1072058192906945,-3.795324131788935e-05,0.1072058192906945,1.471264102491319e-06,0.1072058192906945,-1.29244e-05
0.1079999364706256,-9.5670438758528e-06,0.1079999364706256,-2.1318173843521448e-05,0.1079999364706256,1.5107315313776229e-06,0.1079999364706256,-1.3595708468622375e-05
0.1087940536505566,-8.817805629215642e-06,0.1087940536505566,-1.8671541699359327e-05,0.1087940536505566,2.1222742838010496e-06,0.1087940536505566,-1.3496933570950262e-05
0.1095881708304877,4.5885981064255005e-07,0.1095881708304877,-2.2679115120991784e-05,0.1095881708304877,5.479351900819721e-06,0.1095881708304877,-1.257003496994906e-05
0.1103822880104188,1.3865018585682423e-05,0.1103822880104188,-2.230419617834091e-05,0.1103822880104188,3.368061403203691e-06,0.1103822880104188,-1.02388e-05
0.1111764051903498,2.6228914560278163e-05,0.1111764051903498,-1.7582048070753536e-05,0.1111764051903498,3.010639500432118e-06,0.1111764051903498,-1.134359933390949e-05
0.1119705223702809,2.9867408670164563e-05,0.1119705223702809,-8.997670163579387e-06,0.1119705223702809,6.2688726888330055e-06,0.1119705223702809,-1.154263468065825e-05
0.112764639550212,2.77346373904519e-05,0.112764639550212,-3.80125563197268e-06,0.112764639550212,7.493998221812487e-06,0.112764639550212,-1.0426410953970569e-05
0.1135587567301431,2.030844815574068e-05,0.1135587567301431,-3.169682530968737e-06,0.1135587567301431,3.9982045965678605e-06,0.1135587567301431,-1.2845728467174496e-05
0.1143528739100741,1.1759384481464568e-05,0.1143528739100741,-4.313133463159656e-06,0.1143528739100741,2.7547168962929133e-06,0.1143528739100741,-1.361556534443937e-05
0.1151469910900052,8.284585631382483e-06,0.1151469910900052,-9.706407780810244e-06,0.1151469910900052,8.594938040041365e-07,0.1151469910900052,-1.055502703925964e-05
0.1159411082699363,2.6968771488892072e-06,0.1159411082699363,-1.2687543165803114e-05,0.1159411082699363,-1.5497808439467463e-06,0.1159411082699363,-1.1659881687893493e-05
0.1167352254498673,-1.6284820432690898e-06,0.1167352254498673,-1.1266370132711227e-05,0.1167352254498673,-1.668800156564473e-06,0.1167352254498673,-1.1384680469693418e-05
0.1175293426297984,-6.625423348835709e-06,0.1175293426297984,-1.3913257594463806e-05,0.1175293426297984,-4.838704240746466e-07,0.1175293426297984,-7.98759757980964e-06
0.1183234598097295,-1.0042631545947393e-05,0.1183234598097295,-1.932056858655686e-05,0.1183234598097295,-2.657261545947392e-06,0.1183234598097295,-9.52872280264569e-06
0.1191175769896605,-1.4624280781575244e-05,0.1191175769896605,-1.869070791742173e-05,0.1191175769896605,-5.460450195393811e-06,0.1191175769896605,-1.1206610097696903e-05
0.1199116941695916,-2.0745305794811367e-05,0.1199116941695916,-1.7031209766998673e-05,0.1199116941695916,-6.013308010207971e-07,0.1199116941695916,-1.2450589532756818e-05
0.1207058113495227,-3.006555522760155e-05,0.1207058113495227,-1.8967e-05,0.1207058113495227,2.280808967816731e-06,0.1207058113495227,-1.2726862064366536e-05
0.1214999285294538,-4.24648702720017e-05,0.1214999285294538,-1.8967e-05,0.1214999285294538,1.175145945599661e-06,0.1214999285294538,-1.158170297279983e-05
0.1222940457093848,-4.077935946158858e-05,0.1222940457093848,-2.6177484613194697e-05,0.1222940457093848,1.17494e-06,0.1222940457093848,-1.15816e-05
0.1230881628893159,-3.287238363205642e-05,0.1230881628893159,-3.1655217960197885e-05,0.1230881628893159,2.6053758904507283e-06,0.1230881628893159,-1.1641285454007051e-05
0.123882280069247,-2.2874531489184967e-05,0.123882280069247,-2.867268632592957e-05,0.123882280069247,5.734962372968646e-06,0.123882280069247,-1.1215247641630787e-05
0.124676397249178,-8.70516363566084e-06,0.124676397249178,-2.4811316763951163e-05,0.124676397249178,7.769899998123758e-06,0.124676397249178,-1.2805388225532536e-05
0.1254705144291091,-1.432759888013619e-06,0.1254705144291091,-2.354801771455095e-05,0.1254705144291091,6.54612e-06,0.1254705144291091,-1.4464256827373e-05
0.1262646316090402,1.6882888330260529e-06,0.1262646316090402,-2.5028956108782453e-05,0.1262646316090402,6.052468141644809e-06,0.1262646316090402,-1.5175614156798546e-05
0.1270587487889713,4.779098727009663e-06,0.1270587487889713,-1.6779479796021703e-05,0.1270587487889713,5.855046969827474e-06,0.1270587487889713,-1.2973581110312442e-05
0.1278528659689023,6.11170836232033e-06,0.1278528659689023,-1.4185607114004417e-05,0.1278528659689023,7.84934844280312e-06,0.1278528659689023,-1.5787640731878846e-05
0.1286469831488334,-2.2193015548322742e-06,0.1286469831488334,-2.3431062741720317e-05,0.1286469831488334,9.9031e-06,0.1286469831488334,-1.6538433978754246e-05
0.1294411003287645,-1.1620729377919348e-05,0.1294411003287645,-3.2732346665819766e-05,0.1294411003287645,9.705912966560488e-06,0.1294411003287645,-1.3527320674627292e-05
0.1302352175086955,-1.13548885172394e-05,0.1302352175086955,-4.1180330795193946e-05,0.1302352175086955,8.205253195973331e-06,0.1302352175086955,-1.22925311202594e-05
0.1310293346886266,-1.3852745578917856e-05,0.1310293346886266,-3.6884099874985406e-05,0.1310293346886266,7.88891e-06,0.1310293346886266,-1.2411005697364732e-05
0.1318234518685577,-1.5076710249905614e-05,0.1318234518685577,-1.9538252974687088e-05,0.1318234518685577,4.728154219571028e-06,0.1318234518685577,-1.428651586246002e-05
0.1326175690484888,-1.49386e-05,0.1326175690484888,-1.4355554401203938e-05,0.1326175690484888,2.51774e-06,0.1326175690484888,-1.0631756353168116e-05
0.1334116862284198,-1.2488945802311955e-05,0.1334116862284198,-1.623237813393601e-05,0.1334116862284198,4.591397599486232e-06,0.1334116862284198,-9.429293799743115e-06
0.1342058034083509,-7.158167060787897e-06,0.1342058034083509,-1.525634524592956e-05,0.1342058034083509,5.104566765196975e-06,0.1342058034083509,-8.89601e-06
0.134999920588282,-6.881705585777962e-06,0.134999920588282,-1.0910687961290744e-05,0.134999920588282,1.8468548622950584e-06,0.134999920588282,-1.0238571173260037e-05
0.135794037768213,-5.362016529961333e-06,0.135794037768213,-1.1148401062666536e-05,0.135794037768213,-1.8359703126543687e-06,0.135794037768213,-1.09102e-05
0.1365881549481441,-6.247637178109472e-06,0.1365881549481441,-1.6573972719421455e-05,0.1365881549481441,-1.0966386687389783e-06,0.1365881549481441,-1.1452881755678651e-05
0.1373822721280752,-1.150323804991463e-05,0.1373822721280752,-1.796014179631511e-05,0.1373822721280752,4.251864000573911e-07,0.1373822721280752,-1.2862966825298796e-05
0.1381763893080062,-7.595955749814759e-06,0.1381763893080062,1.2047870824181604e-05,0.1381763893080062,-2.3773487319267865e-06,0.1381763893080062,-1.49386e-05
0.1389705064879373,-3.2681953456321774e-06,0.1389705064879373,4.982041456913654e-05,0.1389705064879373,-7.275894040640638e-06,0.1389705064879373,-1.1542680446347045e-05
0.1397646236678684,-4.19623e-06,0.1397646236678684,5.425352833405485e-05,0.1397646236678684,-8.422184043811338e-06,0.1397646236678684,-1.2608359469274792e-05
0.1405587408477994,-3.564188698467567e-06,0.1405587408477994,1.6754657820225428e-05,0.1405587408477994,-5.617746810716807e-06,0.1405587408477994,-1.518573999735634e-05
0.1413528580277305,-4.314729914173873e-06,0.1413528580277305,-1.9947948228795848e-05,0.1413528580277305,-6.921270214565316e-06,0.1413528580277305,-1.4839899828347748e-05
0.1421469752076616,-1.945280958227887e-06,0.1421469752076616,-3.998017300285272e-05,0.1421469752076616,-6.467491676898802e-06,0.1421469752076616,-1.3714179520886056e-05
0.1429410923875927,-1.7485457446390611e-06,0.1429410923875927,-6.326205919742836e-05,0.1429410923875927,-4.789394176216216e-06,0.1429410923875927,-1.29244e-05
0.1437352095675237,1.6284019536885937e-06,0.1437352095675237,-6.661779157997102e-05,0.1437352095675237,-9.587597206104251e-07,0.1437352095675237,-1.2539449059645976e-05
0.1445293267474548,1.5697439053442822e-06,0.1445293267474548,-5.672220444854359e-05,0.1445293267474548,4.156829906614513e-06,0.1445293267474548,-1.1265600046692745e-05
0.1453234439273859,-1.67849e-07,0.1453234439273859,-5.5142921640090216e-05,0.1453234439273859,6.961858541898858e-06,0.1453234439273859,-1.0495778363602584e-05
0.146117561107317,-1.3534355803339774e-06,0.146117561107317,-6.031573652388192e-05,0.146117561107317,9.192408631669498e-06,0.146117561107317,-1.09102e-05
0.146911678287248,-4.1866251668234896e-06,0.146911678287248,-6.833650240585366e-05,0.146911678287248,7.908125551907586e-06,0.146911678287248,-1.15816e-05
0.1477057954671791,-4.7887720688979e-06,0.1477057954671791,-7.356874009314035e-05,0.1477057954671791,4.482551249105341e-06,0.1477057954671791,-1.1779115003578634e-05
0.1484999126471102,-8.224232434941907e-06,0.1484999126471102,-5.824612955484396e-05,0.1484999126471102,4.36408e-06,0.1484999126471102,-1.1078320238004732e-05
0.1492940298270412,-2.656331707613518e-05,0.1492940298270412,-2.3873167028717704e-05,0.1492940298270412,3.86053e-06,0.1492940298270412,-1.1235522029657586e-05
0.1500881470069723,-3.841892096515467e-05,0.1500881470069723,4.482416570972618e-06,0.1500881470069723,1.4137780660046182e-06,0.1500881470069723,-1.016051668978112e-05
0.1508822641869034,-3.1454694191304606e-05,0.1508822641869034,2.202727066401657e-05,0.1508822641869034,5.511608975819507e-07,0.1508822641869034,-1.15816e-05
0.1516763813668344,-1.4671788773637444e-05,0.1516763813668344,2.4986325561792268e-05,0.1516763813668344,4.391493143684529e-06,0.1516763813668344,-1.15816e-05
0.1524704985467655,5.869645724564188e-06,0.1524704985467655,3.40006899296665e-06,0.1524704985467655,6.862371664595708e-06,0.1524704985467655,-1.2253e-05
0.1532646157266966,2.1533936125733204e-05,0.1532646157266966,-2.6747561252672328e-05,0.1532646157266966,2.3994859468937893e-06,0.1532646157266966,-1.0930037343759238e-05
0.1540587329066277,1.385064660353371e-05,0.1540587329066277,-2.414743287910236e-05,0.1540587329066277,-7.998760114217477e-07,0.1540587329066277,-1.0219114917752507e-05
0.1548528500865587,-1.112661293875233e-05,0.1548528500865587,2.549793700539131e-06,0.1548528500865587,-8.897599981101116e-08,0.1548528500865587,-9.804417764269458e-06
0.1556469672664898,-1.22548491323482e-05,0.1556469672664898,1.539316681989299e-05,0.1556469672664898,1.2641845633890716e-06,0.1556469672664898,-7.42513553031918e-06
0.1564410844464209,-4.473270331203227e-06,0.1564410844464209,6.740626748708133e-06,0.1564410844464209,-3.3846710644001515e-06,0.1564410844464209,-7.592325863403302e-06
0.157235201626352,-2.498426605473868e-06,0.157235201626352,-8.023611810918916e-06,0.157235201626352,-8.983838572240684e-06,0.157235201626352,-7.968007240415536e-06
0.158029318806283,4.641228467167294e-07,0.158029318806283,-1.4197851162739038e-05,0.158029318806283,-9.72524778684322e-06,0.158029318806283,-1.0673365085185517e-05
0.1588234359862141,1.559720264411362e-06,0.1588234359862141,-1.3023754846863667e-05,0.1588234359862141,-3.287288759810144e-06,0.1588234359862141,-1.1660330216611984e-05
0.1596175531661451,-1.2158379108179375e-06,0.1596175531661451,-2.727572917664803e-05,0.1596175531661451,-2.7748257973115425e-06,0.1596175531661451,-1.2135078695967311e-05
0.1604116703460762,-5.045958116910408e-06,0.1604116703460762,-4.466095956148433e-05,0.1604116703460762,-1.786895332568602e-06,0.1604116703460762,-1.3872055332568602e-05
0.1612057875260073,-1.6459571877820807e-05,0.1612057875260073,-3.7338615723437575e-05,0.1612057875260073,-3.05094059588402e-06,0.1612057875260073,-1.09102e-05
0.1619999047059384,-2.870110162346837e-05,0.1619999047059384,-2.601789440182305e-05,0.1619999047059384,-3.52483e-06,0.1619999047059384,-1.3595250811734184e-05
0.1627940218858694,-2.728133616662731e-05,0.1627940218858694,-1.93027e-05,0.1627940218858694,-3.415530820795414e-06,0.1627940218858694,-1.712975319447724e-05
0.1635881390658005,-2.56809e-05,0.1635881390658005,-2.1215129092031477e-05,0.1635881390658005,-6.053883666785322e-06,0.1635881390658005,-1.8484014188568483e-05
0.1643822562457316,-2.4556291472954195e-05,0.1643822562457316,-3.034054448109199e-05,0.1643822562457316,2.0426005216396817e-07,0.1643822562457316,-1.658629911555836e-05
0.1651763734256627,-2.642846950632977e-05,0.1651763734256627,-4.306129388021208e-05,0.1651763734256627,3.435547199051919e-06,0.1651763734256627,-1.872890780253191e-05
0.1659704906055937,-3.168462621203591e-05,0.1659704906055937,-5.490161954175461e-05,0.1659704906055937,1.4523335496522485e-06,0.1659704906055937,-1.664754709405951e-05
0.1667646077855248,-1.9195116236998916e-05,0.1667646077855248,-5.4945523875100936e-05,0.1667646077855248,-8.912983112124984e-08,0.1667646077855248,-1.5096519886698212e-05
0.1675587249654559,2.124882768135045e-06,0.1675587249654559,-3.7063151055894925e-05,0.1675587249654559,5.0359586568396905e-06,0.1675587249654559,-1.6242018369477602e-05
0.1683528421453869,1.9933609175041567e-05,0.1683528421453869,-2.723099327937559e-05,0.1683528421453869,4.650441380201291e-06,0.1683528421453869,-1.517562276040258e-05
0.169146959325318,3.2491920822879594e-05,0.169146959325318,-2.864320776020485e-05,0.169146959325318,6.506340137146599e-06,0.169146959325318,-1.3003959725706805e-05
0.1699410765052491,3.94446e-05,0.1699410765052491,-3.144739063701639e-05,0.1699410765052491,7.21752e-06,0.1699410765052491,-1.2350737449592749e-05
0.1707351936851801,3.6878629611266445e-05,0.1707351936851801,-3.350017106061643e-05,0.1707351936851801,6.319430363943256e-06,0.1707351936851801,-1.2905111844506578e-05
0.1715293108651112,2.787260636583425e-05,0.1715293108651112,-3.666043856423063e-05,0.1715293108651112,7.533492364221121e-06,0.1715293108651112,-1.0673240728361555e-05
0.1723234280450423,1.870889968410515e-05,0.1723234280450423,-3.413519433229426e-05,0.1723234280450423,7.413873284968457e-06,0.1723234280450423,-1.186816006317897e-05
0.1731175452249733,1.149989251536879e-05,0.1731175452249733,-2.5109170542943943e-05,0.1731175452249733,2.832241503792924e-06,0.1731175452249733,-1.2865424893110966e-05
0.1739116624049044,-2.883509591029477e-07,0.1739116624049044,-2.5701624668725306e-05,0.1739116624049044,3.634067019349984e-06,0.1739116624049044,-1.2193566798596003e-05
0.1747057795848355,-1.8690919943987733e-05,0.1747057795848355,-3.0429062493686413e-05,0.1747057795848355,5.85498905364285e-06,0.1747057795848355,-1.25887e-05
0.1754998967647666,-3.289724728778992e-05,0.1754998967647666,-2.8367034197577632e-05,0.1754998967647666,4.867927474761896e-06,0.1754998967647666,-1.3259951261511378e-05
0.1762940139446976,-2.4973201882365195e-05,0.1762940139446976,-2.46738e-05,0.1762940139446976,4.560514834167985e-06,0.1762940139446976,-1.416830490588174e-05
0.1770881311246287,-2.153309626029894e-05,0.1770881311246287,-2.4941289868350084e-05,0.1770881311246287,8.302863022824951e-06,0.1770881311246287,-1.30438626362334e-05
0.1778822483045598,-1.9160003529125288e-05,0.1778822483045598,-1.939220791136583e-05,0.1778822483045598,7.810583614627086e-06,0.1778822483045598,-1.282368265600936e-05
0.1786763654844909,-8.743791855016807e-06,0.1786763654844909,-1.2688014542024214e-06,0.1786763654844909,6.112835080312508e-06,0.1786763654844909,-1.4879071229921873e-05
0.1794704826644219,-3.52483e-06,0.1794704826644219,1.4914443369805306e-05,0.1794704826644219,3.327847110487749e-06,0.1794704826644219,-1.3240674547440124e-05
0.180264599844353,-3.52483e-06,0.180264599844353,1.8828710516388248e-05,0.180264599844353,3.504954538624021e-06,0.180264599844353,-1.156201775776894e-05
0.181058717024284,-3.52483e-06,0.181058717024284,1.046176179964224e-05,0.181058717024284,3.899923096549817e-06,0.181058717024284,-9.932647756065668e-06
0.1818528342042151,-9.241074153825965e-06,0.1818528342042151,-6.008735624546359e-06,0.1818528342042151,2.873287809197754e-06,0.1818528342042151,-9.922957809197756e-06
0.1826469513841462,-1.7957859471363827e-05,0.1826469513841462,-1.5255133401835594e-05,0.1826469513841462,1.1458627249504068e-06,0.1826469513841462,-8.243996965534793e-06
0.1834410685640773,-3.3039777977859746e-05,0.1834410685640773,-1.946108766308411e-05,0.1834410685640773,5.426310481139558e-07,0.1834410685640773,-1.0988367027619364e-05
0.1842351857440083,-4.3729591318162256e-05,0.1842351857440083,-2.3132231348358644e-05,0.1842351857440083,-3.645972081142754e-07,0.1842351857440083,-1.1739817363675489e-05
0.1850293029239394,-3.069644993534924e-05,0.1850293029239394,-3.0095013432759844e-05,0.1850293029239394,-3.011422814520336e-06,0.1850293029239394,-1.0712748443561008e-05
0.1858234201038705,-9.582255693390408e-06,0.1858234201038705,-3.379511808093332e-05,0.1858234201038705,-1.5700143108783976e-06,0.1858234201038705,-1.4385948621756797e-05
0.1866175372838016,1.1025002336471056e-05,0.1866175372838016,-3.329455680550313e-05,0.1866175372838016,-2.735484297885117e-06,0.1866175372838016,-1.4345837134743255e-05
0.1874116544637326,2.593945850334333e-05,0.1874116544637326,-2.4108335720786488e-05,0.1874116544637326,-1.7274965292468716e-06,0.1874116544637326,-1.1531805520613884e-05
0.1882057716436637,3.2157940302748205e-05,0.1882057716436637,-1.676712576787234e-05,0.1882057716436637,2.9630723098711142e-08,0.1882057716436637,-1.0712719394503586e-05
0.1889998888235948,2.937432080959873e-05,0.1889998888235948,-1.762376853272574e-05,0.1889998888235948,1.1747798219977785e-06,0.1889998888235948,-1.091003982008917e-05
0.1897940060035258,2.060928708156485e-05,0.1897940060035258,-1.4818244731014325e-05,0.1897940060035258,2.277510678096768e-07,0.1897940060035258,-1.1048098345736064e-05
0.1905881231834569,7.4586211895409395e-06,0.1905881231834569,-8.857041396198483e-06,0.1905881231834569,-8.961382028657036e-08,0.1905881231834569,-1.3733778607927942e-05
0.191382240363388,9.98730206305891e-07,0.191382240363388,-9.014353275447877e-06,0.191382240363388,-1.784745134455673e-06,0.191382240363388,-1.4384674128963614e-05
0.192176357543319,-3.5115865481215538e-06,0.192176357543319,-1.1167665691388862e-05,0.192176357543319,-3.584364490789247e-06,0.192176357543319,-1.5826631018421503e-05
0.1929704747232501,-1.110576027488444e-05,0.1929704747232501,-1.4936664591125888e-05,0.1929704747232501,5.8120263973066e-07,0.1929704747232501,-1.4070228983293495e-05
0.1937645919031812,-1.4760797003853798e-05,0.1937645919031812,-2.058627913521492e-05,0.1937645919031812,7.70586931355822e-07,0.1937645919031812,-1.3339048501926898e-05
0.1945587090831123,-1.6222293156134152e-05,0.1945587090831123,-2.7968771779738683e-05,0.1945587090831123,-3.762019180458359e-06,0.1945587090831123,-1.4543793156134153e-05
0.1953528262630433,-1.7821508615085254e-05,0.1953528262630433,-2.856510142770332e-05,0.1953528262630433,-2.4190856924573745e-06,0.1953528262630433,-1.6498577153771312e-05
0.1961469434429744,-1.9520043411168787e-05,0.1961469434429744,-2.4969689767915004e-05,0.1961469434429744,-2.4983702335063533e-06,0.1961469434429744,-1.5155943411168784e-05
0.1969410606229055,-1.9006072047782265e-05,0.1969410606229055,-1.3020599433094544e-05,0.1969410606229055,2.00262760918018e-06,0.1969410606229055,-1.4563827952217736e-05
0.1977351778028366,-2.1177913584707008e-05,0.1977351778028366,5.991026422407928e-07,0.1977351778028366,4.788515597451168e-06,0.1977351778028366,-1.3418328805097666e-05
0.1985292949827676,-2.4871297545455315e-05,0.1985292949827676,-4.040322999496112e-06,0.1985292949827676,3.811164877568637e-06,0.1985292949827676,-1.0041330689950193e-05
0.1993234121626987,-2.8663342950836485e-05,0.1993234121626987,-1.6709727210409734e-05,0.1993234121626987,1.3530457705018916e-06,0.1993234121626987,-1.065438013117108e-05
0.2001175293426297,-3.0045e-05,0.2001175293426297,-2.8067210999348857e-05,0.2001175293426297,3.0711670988439915e-06,0.2001175293426297,-1.2885075699614664e-05
0.2009116465225608,-3.065698973065085e-05,0.2009116465225608,-4.130366847898248e-05,0.2009116465225608,3.9793546538268415e-06,0.2009116465225608,-1.0258130211498584e-05
0.2017057637024919,-2.173153430765534e-05,0.2017057637024919,-4.773521435311259e-05,0.2017057637024919,5.835230768048618e-06,0.2017057637024919,-1.0436269139469008e-05
0.202499880882423,-9.569126210774604e-06,0.202499880882423,-4.783738523863784e-05,0.202499880882423,6.54612e-06,0.202499880882423,-1.09102e-05
0.203293998062354,2.691694515629801e-06,0.203293998062354,-2.895131878290977e-05,0.203293998062354,5.500046734158801e-06,0.203293998062354,-1.2528773759417291e-05
0.2040881152422851,6.9920904230625644e-06,0.2040881152422851,-4.633880943780996e-06,0.2040881152422851,5.20333e-06,0.2040881152422851,-1.3043908500342986e-05
0.2048822324222162,-6.70635769273438e-08,0.2048822324222162,-3.208404778298621e-06,0.2048822324222162,6.999275763633779e-06,0.2048822324222162,-9.441618841482576e-06
0.2056763496021472,-1.0178655703327917e-06,0.2056763496021472,-1.17815295224973e-05,0.2056763496021472,6.78427907238765e-06,0.2056763496021472,-6.389040634501005e-06
0.2064704667820783,-5.022849979750352e-06,0.2064704667820783,-2.4805142226653063e-05,0.2064704667820783,3.219703222269173e-06,0.2064704667820783,-8.618522420159696e-06
0.2072645839620094,-1.0436545664292398e-05,0.2072645839620094,-3.960245545635758e-05,0.2072645839620094,2.833508773276012e-06,0.2072645839620094,-9.923031226723989e-06
0.2080587011419405,-5.104124997483235e-06,0.2080587011419405,-4.81901379490274e-05,0.2080587011419405,4.96650194994193e-06,0.2080587011419405,-8.264026028604611e-06
0.2088528183218715,-7.012244288809397e-07,0.2088528183218715,-4.550762149786296e-05,0.2088528183218715,3.643358579242409e-06,0.2088528183218715,-1.0199032055334324e-05
0.2096469355018026,-1.67849e-07,0.2096469355018026,-4.61488881666349e-05,0.2096469355018026,2.8340874325474576e-06,0.2096469355018026,-1.3240747432547458e-05
0.2104410526817337,1.2530611635097717e-06,0.2104410526817337,-5.31498946314502e-05,0.2104410526817337,7.019818556869738e-08,0.2104410526817337,-9.942160581754886e-06
0.2112351698616647,2.51774e-06,0.2112351698616647,-5.319017408830534e-05,0.2112351698616647,-1.51064e-06,0.2112351698616647,-1.2113979260440262e-05
0.2120292870415958,2.8731972538037427e-06,0.2120292870415958,-4.98512e-05,0.2120292870415958,-2.0043113730981284e-06,0.2120292870415958,-1.2095028626901871e-05
0.2128234042215269,-4.0529888632693253e-07,0.2128234042215269,-4.9259329626282335e-05,0.2128234042215269,-4.37431860836858e-06,0.2128234042215269,-1.2193637130543806e-05
0.2136175214014579,-9.179053638484308e-07,0.2136175214014579,-5.444061014431887e-05,0.2136175214014579,-3.425119028811504e-06,0.2136175214014579,-1.2806409899802866e-05
0.214411638581389,-4.069098071641697e-06,0.214411638581389,-5.59821698631092e-05,0.214411638581389,-2.9722317219428657e-06,0.214411638581389,-1.3753303590034688e-05
0.2152057557613201,-1.5106380407206016e-05,0.2152057557613201,-1.9476884485939715e-05,0.2152057557613201,-5.440301163279225e-06,0.2152057557613201,-1.177905767344155e-05
0.2159998729412512,-1.561041187756639e-05,0.2159998729412512,4.748995863326e-05,0.2159998729412512,-5.706732705660148e-06,0.2159998729412512,-1.2253e-05
0.2167939901211822,-1.2510773758956276e-05,0.2167939901211822,8.917298165869314e-05,0.2167939901211822,-1.0790304601173972e-05,0.2167939901211822,-1.383258770684062e-05
0.2175881073011133,-8.385469658763093e-06,0.2175881073011133,8.305291601105572e-05,0.2175881073011133,-9.806466974630231e-06,0.2175881073011133,-1.1227464290497376e-05
0.2183822244810444,-4.274523153920909e-06,0.2183822244810444,5.367446488639108e-05,0.2183822244810444,-6.0538348582760535e-06,0.2183822244810444,-9.449970269118636e-06
0.2191763416609755,-5.005707033894282e-06,0.2191763416609755,2.5454954133645834e-05,0.2191763416609755,-1.5537943484826628e-06,0.2191763416609755,-8.284155932211436e-06
0.2199704588409065,-9.392268686715782e-07,0.2199704588409065,-1.61834972985971e-05,0.2199704588409065,3.5830080960634283e-06,0.2199704588409065,-9.013869474513192e-06
0.2207645760208376,1.17494e-06,0.2207645760208376,-4.5309213908379165e-05,0.2207645760208376,3.574276760659697e-06,0.2207645760208376,-1.0011537360349717e-05
0.2215586932007686,1.17494e-06,0.2215586932007686,-5.672034401918572e-05,0.2215586932007686,3.821103092610926e-06,0.2215586932007686,-1.407006252683966e-05
0.2223528103806997,-1.2536716165830783e-06,0.2223528103806997,-5.688035795607635e-05,0.2223528103806997,5.726334813550982e-06,0.2223528103806997,-1.584706862451221e-05
0.2231469275606308,-5.043977702714302e-06,0.2231469275606308,-6.920452778383435e-05,0.2231469275606308,8.066427684205729e-06,0.2231469275606308,-1.5373309754392363e-05
0.2239410447405619,-1.0475033044486385e-05,0.2239410447405619,-8.081181389179764e-05,0.2239410447405619,8.579834557863716e-06,0.2239410447405619,-1.3911975442136286e-05
0.2247351619204929,-1.209474831205792e-05,0.2247351619204929,-4.398263991935336e-05,0.2247351619204929,1.0563772586026908e-05,0.2247351619204929,-1.308265168794208e-05
0.225529279100424,-1.458313130477405e-05,0.225529279100424,-1.2084553400481673e-05,0.225529279100424,1.1107703042838924e-05,0.225529279100424,-1.2016027993618989e-05
0.2263233962803551,-1.3082028553764733e-05,0.2263233962803551,-1.260624048177245e-05,0.2263233962803551,8.204168875689987e-06,0.2263233962803551,-1.2954069733569932e-05
0.2271175134602862,-1.1363907299238252e-05,0.2271175134602862,7.051842164765275e-06,0.2271175134602862,5.360671893897461e-06,0.2271175134602862,-1.2944062024438664e-05
0.2279116306402172,-1.1384056331352844e-05,0.2279116306402172,3.0048525699898863e-05,0.2279116306402172,5.717186127353044e-06,0.2279116306402172,-1.5531231005941468e-05
0.2287057478201483,-1.1818576896292914e-05,0.2287057478201483,1.2017481710201808e-06,0.2287057478201483,7.849386370307924e-06,0.2287057478201483,-1.671582310370709e-05
0.2294998650000794,-1.2924010991645093e-05,0.2294998650000794,-3.3732548101295844e-05,0.2294998650000794,1.023831374245336e-05,0.2294998650000794,-1.6281594504177453e-05
0.2302939821800104,-2.8438208419274102e-05,0.2302939821800104,-4.614330129542656e-05,0.2302939821800104,1.2390863947653811e-05,0.2302939821800104,-1.456395407851928e-05
0.2310880993599415,-5.629857212881264e-05,0.2310880993599415,-6.603552942473399e-05,0.2310880993599415,1.1760931546679033e-05,0.2310880993599415,-1.4345384226660483e-05
0.2318822165398726,-6.082388877397039e-05,0.2318822165398726,-7.141589181367095e-05,0.2318822165398726,4.42879936731433e-06,0.2318822165398726,-1.4703754936319524e-05
0.2326763337198036,-3.383467812996236e-05,0.2326763337198036,-4.372080342217225e-05,0.2326763337198036,-1.824731679023804e-06,0.2326763337198036,-1.1405625221301432e-05
0.2334704508997347,-3.1985050053093045e-06,0.2334704508997347,1.78490800700776e-06,0.2334704508997347,-3.2085143982251462e-06,0.2334704508997347,-1.112649921717766e-05
0.2342645680796658,2.561911811804248e-05,0.2342645680796658,3.810133909611175e-05,0.2342645680796658,-4.640339689277624e-06,0.2342645680796658,-1.2430837320412788e-05
0.2350586852595969,4.801570034602316e-05,0.2350586852595969,4.797474708325644e-05,0.2350586852595969,-7.434903705435437e-06,0.2350586852595969,-1.1285338960659443e-05
0.2358528024395279,4.894370067904719e-05,0.2358528024395279,3.593696330985839e-05,0.2358528024395279,-9.448869954730188e-06,0.2358528024395279,-1.1700140045269813e-05
0.236646919619459,2.768310820286581e-05,0.236646919619459,2.1424952914849543e-05,0.236646919619459,-8.22461e-06,0.236646919619459,-1.0436845965992715e-05
0.2374410367993901,1.5633182025477145e-06,0.2374410367993901,8.320269297717326e-06,0.2374410367993901,-1.0355912949100156e-05,0.2374410367993901,-7.80890413038857e-06
0.2382351539793211,-1.2253163027274878e-06,0.2382351539793211,-2.2588876703647228e-05,0.2382351539793211,-1.2253e-05,0.2382351539793211,-9.488278435317857e-06
0.2390292711592522,2.63613495298992e-06,0.2390292711592522,-4.80363079861836e-05,0.2390292711592522,-1.053508501284804e-05,0.2390292711592522,-5.953845251982318e-06
0.2398233883391833,5.6781378882916615e-06,0.2398233883391833,-6.002556719550799e-05,0.2398233883391833,-8.934954627820184e-06,0.2398233883391833,-5.954486460257676e-06
0.2406175055191144,1.1296979788141845e-05,0.2406175055191144,-6.78980973771365e-05,0.2406175055191144,-4.589643822340096e-06,0.2406175055191144,-9.963410675939228e-06
0.2414116226990454,1.6321365549434196e-05,0.2414116226990454,-6.940029468154481e-05,0.2414116226990454,2.873992635755064e-06,0.2414116226990454,-9.981892077458747e-06
0.2422057398789765,1.4366222068905947e-05,0.2422057398789765,-6.156537166504535e-05,0.2422057398789765,5.440312629306622e-06,0.2422057398789765,-1.0436234741386756e-05
0.2429998570589076,4.533783501194733e-06,0.2429998570589076,-5.62303321154576e-05,0.2429998570589076,3.860941891199322e-06,0.2429998570589076,-1.09102e-05
0.2437939742388386,-2.555062957612026e-06,0.2437939742388386,-5.630957247750501e-05,0.2437939742388386,6.52505663248299e-06,0.2437939742388386,-1.343688120406602e-05
0.2445880914187697,-2.13626870228545e-05,0.2445880914187697,-5.458010185523833e-05,0.2445880914187697,8.18552648619031e-06,0.2445880914187697,-1.35958e-05
0.2453822085987008,-4.07564787171472e-05,0.2453822085987008,-3.378012758145924e-05,0.2453822085987008,8.56031e-06,0.2453822085987008,-1.509514044373214e-05
0.2461763257786318,-3.9861501615435526e-05,0.2461763257786318,-9.564128878445966e-06,0.2461763257786318,7.455747720409664e-06,0.2461763257786318,-1.5729114747267292e-05
0.2469704429585629,-3.1263542803802105e-05,0.2469704429585629,5.493867615660939e-06,0.2469704429585629,7.21752e-06,0.2469704429585629,-1.4761065877275562e-05
0.247764560138494,-2.1376816081769354e-05,0.247764560138494,1.1443517741159656e-05,0.247764560138494,6.782896857247495e-06,0.247764560138494,-1.4395548945838417e-05
0.2485586773184251,-1.2608053840181755e-05,0.2485586773184251,2.60362329134889e-06,0.2485586773184251,7.55322e-06,0.2485586773184251,-1.4899149573313136e-05
0.2493527944983561,-2.1731512070525774e-06,0.2493527944983561,-1.0600052365065689e-05,0.2493527944983561,4.769021556567042e-06,0.2493527944983561,-1.582715422171648e-05
0.2501469116782872,4.589829386005171e-06,0.2501469116782872,-1.856236519080501e-05,0.2501469116782872,5.163460616958643e-06,0.2501469116782872,-1.5018331716118055e-05
0.2509410288582183,1.073060473469023e-05,0.2509410288582183,-2.1297689565678764e-05,0.2509410288582183,5.67760094351135e-06,0.2509410288582183,-1.1700620176738143e-05
0.2517351460381494,1.3773225429213537e-05,0.2517351460381494,-2.587699556850476e-05,0.2517351460381494,6.742698645021759e-06,0.2517351460381494,-1.1551568573422696e-05
0.2525292632180804,9.90329391201824e-06,0.2525292632180804,-2.9551884630242813e-05,0.2525292632180804,8.738055789035174e-06,0.2525292632180804,-1.0594291578070344e-05
0.2533233803980115,5.933178962898115e-06,0.2533233803980115,-3.409085845557619e-05,0.2533233803980115,7.21752e-06,0.2533233803980115,-1.181898282929151e-05
0.2541174975779426,3.0431532788209334e-07,0.2541174975779426,-3.249484791476309e-05,0.2541174975779426,7.810216707214798e-06,0.2541174975779426,-1.262804723244015e-05
0.2549116147578736,-6.842940257820881e-06,0.2549116147578736,-2.8188030455210987e-05,0.2549116147578736,1.0160000723670927e-05,0.2549116147578736,-1.357636101309878e-05
0.2557057319378047,-1.094959930487928e-05,0.2557057319378047,-3.043635978175607e-05,0.2557057319378047,7.494066389753102e-06,0.2557057319378047,-1.691323491303901e-05
0.2564998491177358,-1.3259773919467255e-05,0.2564998491177358,-3.7093333686964926e-05,0.2564998491177358,5.874937387021829e-06,0.2564998491177358,-1.6617426080532744e-05
0.2572939662976669,-1.264871796880204e-05,0.2572939662976669,-3.614649168207698e-05,0.2572939662976669,3.683784514041212e-06,0.2572939662976669,-1.4189376953203063e-05
0.2580880834775979,-1.010085005714058e-05,0.2580880834775979,-3.5474575857974694e-05,0.2580880834775979,3.46503577639674e-06,0.2580880834775979,-1.130570011428116e-05
0.258882200657529,-8.540745311040326e-06,0.258882200657529,-3.425178850085262e-05,0.258882200657529,2.344760418259534e-06,0.258882200657529,-1.0356188133758049e-05
0.2596763178374601,-8.806665358482879e-06,0.2596763178374601,-2.595644619162775e-05,0.2596763178374601,-3.71972701953736e-06,0.2596763178374601,-1.207431071696576e-05
0.2604704350173911,-1.1107085206039976e-05,0.2604704350173911,-2.1910532884028328e-05,0.2604704350173911,-3.1697784842784443e-06,0.2604704350173911,-1.1365357989933376e-05
0.2612645521973222,-1.4719537256026825e-05,0.2612645521973222,-1.663710347003521e-05,0.2612645521973222,-4.038390203257272e-06,0.2612645521973222,-1.0712319390228183e-05
0.2620586693772533,-3.839886572062596e-05,0.2620586693772533,-1.35958e-05,0.2620586693772533,-9.970926304484295e-07,0.2620586693772533,-1.5412690536428806e-05
0.2628527865571843,-5.90917339175335e-05,0.2628527865571843,-3.987796820953631e-06,0.2628527865571843,-2.023582246096905e-06,0.2628527865571843,-1.8729896977405545e-05
0.2636469037371154,-5.897557660989872e-05,0.2636469037371154,1.578822617671042e-05,0.2636469037371154,-2.3801283049493584e-06,0.2636469037371154,-1.6795904533661376e-05
0.2644410209170465,-5.053075561098047e-05,0.2644410209170465,3.127065609262564e-05,0.2644410209170465,-2.9412225336068464e-06,0.2644410209170465,-1.221398528235474e-05
0.2652351380969776,-3.05442482197565e-05,0.2652351380969776,4.129834533367108e-05,0.2652351380969776,-4.235801503052174e-06,0.2652351380969776,-1.260782797558261e-05
0.2660292552769086,-1.4524639253403713e-05,0.2660292552769086,3.2254733592654545e-05,0.2660292552769086,-3.208937724541454e-06,0.2660292552769086,-1.3773551509746295e-05
0.2668233724568397,-7.985636959569632e-07,0.2668233724568397,1.0982251029772496e-05,0.2668233724568397,-2.577079986611801e-06,0.2668233724568397,-1.3733938844940542e-05
0.2676174896367708,2.221392965453873e-06,0.2676174896367708,-9.048399244449182e-06,0.2676174896367708,-1.2235401377304296e-06,0.2676174896367708,-1.1225023723630989e-05
0.2684116068167018,4.730404684873799e-06,0.2684116068167018,-3.243871762869307e-05,0.2684116068167018,1.4318218784076163e-06,0.2684116068167018,-9.360149704409077e-06
0.2692057239966329,1.61821944746557e-05,0.2692057239966329,-5.3179334720070136e-05,0.2692057239966329,2.3005370476670093e-06,0.2692057239966329,-1.1147194095334018e-05
0.269999841176564,2.1316442343111847e-05,0.269999841176564,-5.9921634968030335e-05,0.269999841176564,1.175283242666115e-06,0.269999841176564,-9.567867653479924e-06
0.270793958356495,2.3210947669607592e-05,0.270793958356495,-6.000219029326226e-05,0.270793958356495,2.7933990991432045e-06,0.270793958356495,-1.004093249670372e-05
0.2715880755364261,2.8049121049228657e-05,0.2715880755364261,-6.111909598147641e-05,0.2715880755364261,3.446701479614128e-06,0.2715880755364261,-1.118608841969146e-05
0.2723821927163572,2.891738587415472e-05,0.2723821927163572,-5.766150190325565e-05,0.2723821927163572,1.5137901837369825e-06,0.2723821927163572,-1.1425105420377516e-05
0.2731763098962882,3.15150180196333e-05,0.2731763098962882,-5.134940416436622e-05,0.2731763098962882,-1.4212885518819882e-06,0.2731763098962882,-1.0376906720143356e-05
0.2739704270762193,3.35795226813022e-05,0.2739704270762193,-3.552314118771031e-05,0.2739704270762193,-1.5299853626044025e-06,0.2739704270762193,-1.1226554637395596e-05
0.2747645442561504,3.0904961025570566e-05,0.2747645442561504,-2.346950306997747e-05,0.2747645442561504,-2.675568355320621e-06,0.2747645442561504,-8.817095822339689e-06
0.2755586614360815,2.232381767004336e-05,0.2755586614360815,-2.334821110534985e-05,0.2755586614360815,-2.873176679370848e-06,0.2755586614360815,-8.244346679370848e-06
0.2763527786160125,9.391486800177658e-06,0.2763527786160125,-2.789203408943993e-05,0.2763527786160125,-2.063482755689042e-06,0.2763527786160125,-9.547431798709791e-06
0.2771468957959436,-1.034632725527456e-06,0.2771468957959436,-2.943288337312949e-05,0.2771468957959436,-1.945395618501976e-06,0.2771468957959436,-1.2943666572247036e-05
0.2779410129758747,-5.53903e-06,0.2779410129758747,-2.83665e-05,0.2779410129758747,-1.67849e-07,0.2779410129758747,-1.1681147214289906e-05
0.2787351301558057,-7.078329996829151e-06,0.2787351301558057,-2.753766998090177e-05,0.2787351301558057,-1.194047214687896e-06,0.2787351301558057,-9.291751276355376e-06
0.2795292473357368,-1.1818227695426196e-05,0.2795292473357368,-2.724087181000603e-05,0.2795292473357368,1.2822025524340838e-07,0.2795292473357368,-1.2449998773596672e-05
0.2803233645156679,-1.5235271329503386e-05,0.2803233645156679,-2.5248242677964746e-05,0.2803233645156679,1.056272882181747e-06,0.2803233645156679,-1.7900565734099322e-05
0.2811174816955989,-1.7061567814481917e-05,0.2811174816955989,-1.431017843875731e-05,0.2811174816955989,3.553773492337835e-07,0.2811174816955989,-1.5549810889272968e-05
0.2819115988755301,-1.7347841473184726e-05,0.2819115988755301,-3.2467198413438827e-06,0.2819115988755301,-5.628887080306905e-07,0.2819115988755301,-1.1936796317038184e-05
0.2827057160554611,-2.095133641508852e-05,0.2827057160554611,1.0552864000686477e-06,0.2827057160554611,-1.9450401716522528e-06,0.2827057160554611,-1.1008900171652252e-05
0.2834998332353922,-2.366627954562727e-05,0.2834998332353922,1.175101800227847e-06,0.2834998332353922,-2.18204e-06,0.2834998332353922,-1.1749219815493514e-05
0.2842939504153233,-2.10217605337389e-05,0.2842939504153233,-5.116449631961631e-06,0.2842939504153233,8.180574186288441e-07,0.2842939504153233,-1.1108081916455774e-05
0.2850880675952543,-1.9914276953664005e-05,0.2850880675952543,-1.320639812458603e-05,0.2850880675952543,5.497495228843475e-06,0.2850880675952543,-1.2321948693513283e-05
0.2858821847751854,-2.4049742689085497e-05,0.2858821847751854,-2.1049068342489045e-05,0.2858821847751854,6.982813693912628e-06,0.2858821847751854,-1.1285017911891892e-05
0.2866763019551165,-2.457639814306769e-05,0.2866763019551165,-3.0184201530752543e-05,0.2866763019551165,3.5465854399653743e-06,0.2866763019551165,-1.3514478249631549e-05
0.2874704191350475,-2.228528503727817e-05,0.2874704191350475,-3.6341172916426935e-05,0.2874704191350475,2.755014559113296e-06,0.2874704191350475,-1.4406049118226592e-05
0.2882645363149786,-1.792112388745732e-05,0.2882645363149786,-4.003724684668936e-05,0.2882645363149786,2.3599230861016267e-06,0.2882645363149786,-1.5194701674295404e-05
0.2890586534949096,-1.466212723715373e-05,0.2890586534949096,-3.3131036263337404e-05,0.2890586534949096,1.84634e-06,0.2890586534949096,-1.917437137901584e-05
0.2898527706748408,-1.0970166795921687e-05,0.2898527706748408,-2.0707434322681068e-05,0.2898527706748408,3.406270554488812e-06,0.2898527706748408,-1.876985190929853e-05
0.2906468878547718,-9.092748157688758e-06,0.2906468878547718,-1.9164491940426625e-05,0.2906468878547718,3.643146457735284e-06,0.2906468878547718,-1.3438984795853017e-05
0.2914410050347029,-1.2528030314140623e-05,0.2914410050347029,-2.137627665402993e-05,0.2914410050347029,5.646256829620019e-06,0.2914410050347029,-1.0812721116777568e-05
0.292235122214634,-1.4010654447526556e-05,0.292235122214634,-2.0666353078045644e-05,0.292235122214634,7.257097223763278e-06,0.292235122214634,-8.462073342579666e-06
0.293029239394565,-1.4385485244157573e-05,0.293029239394565,-8.598668625090791e-06,0.293029239394565,7.829437588281048e-06,0.293029239394565,-1.0001564637112564e-05
0.2938233565744961,-1.7742857090379173e-05,0.2938233565744961,3.99213095112732e-06,0.2938233565744961,9.54713049617095e-06,0.2938233565744961,-1.0751785932223411e-05
0.2946174737544272,-1.888827113703749e-05,0.2946174737544272,-1.030970394326668e-05,0.2946174737544272,6.110905416280101e-06,0.2946174737544272,-8.935374431481255e-06
0.2954115909343582,-1.817693998568546e-05,0.2954115909343582,-3.299027563418372e-05,0.2954115909343582,4.058045003578635e-06,0.2954115909343582,-9.17237999284273e-06
0.2962057081142893,-1.5985316684084426e-05,0.2962057081142893,-3.888997739852527e-05,0.2962057081142893,3.070977430851252e-06,0.2962057081142893,-8.955084814594651e-06
0.2969998252942204,-1.2925280989509444e-05,0.2969998252942204,-3.877353901000115e-05,0.2969998252942204,-5.029187262778302e-07,0.2969998252942204,-1.1748707812702122e-05
0.2977939424741515,-1.2016246691241616e-05,0.2977939424741515,-2.10931962122911e-05,0.2977939424741515,1.9240622105292447e-06,0.2977939424741515,-1.2726506617516769e-05
0.2985880596540825,-1.125501131549686e-05,0.2985880596540825,1.2682674069411132e-05,0.2985880596540825,1.2256459398655788e-06,0.2985880596540825,-1.3871665487636548e-05
0.2993821768340136,-2.269392524022462e-05,0.2993821768340136,2.8948641596607743e-05,0.2993821768340136,-8.001340541403968e-07,0.2993821768340136,-1.4446451284487024e-05
0.3001762940139447,-3.89650346421452e-05,0.3001762940139447,1.839130232044465e-05,0.3001762940139447,4.868901948589308e-08,0.3001762940139447,-1.32601e-05
0.3009704111938757,-3.235986396251975e-05,0.3009704111938757,3.762411760480989e-08,0.3009704111938757,-8.778892005055743e-07,0.3009704111938757,-1.4089688760119988e-05
0.3017645283738068,-2.675616971476639e-05,0.3017645283738068,-8.9552124568149e-06,0.3017645283738068,-1.6096332015223564e-06,0.3017645283738068,-1.2766594527523855e-05
0.3025586455537379,-2.8919467422157348e-05,0.3025586455537379,-3.314287672104817e-06,0.3025586455537379,1.0860485793904387e-07,0.3025586455537379,-1.1305144436194786e-05
0.3033527627336689,-9.413242658934063e-06,0.3033527627336689,4.830204316750036e-06,0.3033527627336689,1.3920712896616652e-06,0.3033527627336689,-8.678878710338336e-06
0.3041468799136,1.1201606767904325e-05,0.3041468799136,-5.696947745396767e-06,0.3041468799136,1.6481828988862202e-06,0.3041468799136,-1.071204289888622e-05
0.3049409970935311,2.7825027289984975e-05,0.3049409970935311,-2.0547584414338383e-05,0.3049409970935311,3.763079781675232e-06,0.3049409970935311,-1.0396952017195974e-05
0.3057351142734621,4.3745599879399744e-05,0.3057351142734621,-3.436402560006959e-05,0.3057351142734621,-6.398828655114694e-07,0.3057351142734621,-1.1008419495287054e-05
0.3065292314533932,4.501412048296846e-05,0.3065292314533932,-6.486081429435873e-05,0.3065292314533932,-7.209885343894367e-07,0.3065292314533932,-1.2549025312481562e-05
0.3073233486333243,2.4157373165675954e-05,0.3073233486333243,-7.000960911342643e-05,0.3073233486333243,2.241362824478502e-06,0.3073233486333243,-1.3812854351042997e-05
0.3081174658132554,1.0968201644949836e-05,0.3081174658132554,-4.02416735165386e-05,0.3081174658132554,1.9250803289899674e-06,0.3081174658132554,-1.2667440328989968e-05
0.3089115829931864,1.0436309270564904e-05,0.3089115829931864,-2.5995689647393e-05,0.3089115829931864,3.762108281014019e-06,0.3089115829931864,-1.2371278864931773e-05
0.3097057001731175,1.2469798350623884e-05,0.3097057001731175,-3.3807688922937364e-05,0.3097057001731175,5.519602000414537e-06,0.3097057001731175,-9.804414234163794e-06
0.3104998173530486,1.762301581280203e-05,0.3104998173530486,-4.313564604211527e-05,0.3104998173530486,5.048637564982682e-07,0.3104998173530486,-1.1245242122142812e-05
0.3112939345329796,2.186801008240177e-05,0.3112939345329796,-4.175456649155087e-05,0.3112939345329796,-1.2900679894380661e-07,0.3112939345329796,-1.1818347575744656e-05
0.3120880517129107,1.997918190271124e-05,0.3120880517129107,-3.630667156041454e-05,0.3120880517129107,1.924421032413877e-06,0.3120880517129107,-1.1383827010804623e-05
0.3128821688928418,7.067678830565908e-06,0.3128821688928418,-3.8751670984959606e-05,0.3128821688928418,2.856736142089558e-06,0.3128821688928418,-1.4462732229322577e-05
0.3136762860727728,-2.3360537472924017e-06,0.3136762860727728,-4.73214655571375e-05,0.3136762860727728,-1.3209762668374e-06,0.3136762860727728,-1.5393471954378325e-05
0.314470403252704,-3.683024480831072e-06,0.314470403252704,-2.238357517784853e-05,0.314470403252704,1.2521893369656317e-06,0.314470403252704,-1.246129872562258e-05
0.315264520432635,-1.5802585298030537e-06,0.315264520432635,1.48572504987412e-05,0.315264520432635,2.873551937892047e-06,0.315264520432635,-1.2608024818752065e-05
0.3160586376125661,1.727817376810565e-06,0.3160586376125661,3.3160684508875045e-05,0.3160586376125661,-9.971562711693008e-07,0.3160586376125661,-1.4869458483365967e-05
0.3168527547924971,2.4191888867041264e-06,0.3168527547924971,2.5883792191000897e-05,0.3168527547924971,6.213352070145256e-07,0.3168527547924971,-1.3517272216760316e-05
0.3176468719724282,-1.5875022046503652e-06,0.3176468719724282,1.99741e-05,0.3176468719724282,2.8933775207303333e-06,0.3176468719724282,-1.2489609983415732e-05
0.3184409891523593,-7.787031960389774e-06,0.3184409891523593,1.266593871141224e-05,0.3184409891523593,2.4982555732322056e-06,0.3184409891523593,-1.3634768853535588e-05
0.3192351063322903,-1.6455748109973327e-05,0.3192351063322903,-2.183498187565553e-05,0.3192351063322903,2.18204e-06,0.3192351063322903,-1.3754131777897545e-05
0.3200292235122214,-2.5019018533733883e-05,0.3200292235122214,-4.661381201251377e-05,0.3200292235122214,3.307363332679424e-06,0.3200292235122214,-9.143281027623732e-06
0.3208233406921525,-3.2733181528090865e-05,0.3208233406921525,-6.33880193865842e-05,0.3208233406921525,6.753729863185824e-06,0.3208233406921525,-8.767919863185825e-06
0.3216174578720835,-5.13161589067198e-05,0.3216174578720835,-6.359868214164579e-05,0.3216174578720835,7.869223224194632e-06,0.3216174578720835,-9.883413224194632e-06
0.3224115750520147,-5.01270327865261e-05,0.3224115750520147,-4.5029971164249705e-05,0.3224115750520147,8.027106462448743e-06,0.3224115750520147,-8.046694658026905e-06
0.3232056922319457,-3.9109789465610494e-05,0.3232056922319457,-2.0126127813442657e-05,0.3232056922319457,7.513565978215552e-06,0.3232056922319457,-7.76027340974342e-06
0.3239998094118768,-2.7362557832528443e-05,0.3239998094118768,-4.535073517906789e-06,0.3239998094118768,7.050150535642716e-06,0.3239998094118768,-1.1245007573157924e-05
0.3247939265918079,-1.0048475136978206e-05,0.3247939265918079,1.2039889145052605e-06,0.3247939265918079,4.394146314538041e-06,0.3247939265918079,-8.818355995798894e-06
0.3255880437717389,2.296517216038888e-06,0.3255880437717389,-6.044284618841199e-06,0.3255880437717389,1.5522947530851072e-06,0.3255880437717389,-8.182964836068071e-06
0.32638216095167,8.084413564253936e-06,0.32638216095167,-2.235990380424887e-05,0.32638216095167,-1.2874852009954261e-07,0.32638216095167,-1.29244e-05
0.3271762781316011,9.705464151049876e-06,0.3271762781316011,-4.4561439131178126e-05,0.3271762781316011,-3.843651367437242e-07,0.3271762781316011,-1.2372183395800492e-05
0.3279703953115321,9.9031e-06,0.3279703953115321,-6.107979800423179e-05,0.3279703953115321,-2.18204e-06,0.3279703953115321,-1.4720575731867575e-05
0.3287645124914632,9.429754581158096e-06,0.3287645124914632,-6.651779799996618e-05,0.3287645124914632,-2.18204e-06,0.3287645124914632,-1.561e-05
0.3295586296713942,4.571554742751222e-06,0.3295586296713942,-6.59647e-05,0.3295586296713942,-3.6037623371936506e-06,0.3295586296713942,-1.5925940388574317e-05
0.3303527468513254,6.622083490019057e-07,0.3303527468513254,-6.917255605705611e-05,0.3303527468513254,-4.670550705463007e-06,0.3303527468513254,-1.6399980176365752e-05
0.3311468640312564,-3.799830545595444e-06,0.3311468640312564,-6.50664899994208e-05,0.3311468640312564,-3.3074357347364766e-06,0.3311468640312564,-1.515600074130586e-05
0.3319409812111875,-8.064217663545512e-06,0.3319409812111875,-4.279051699754245e-05,0.3319409812111875,-4.848151306245932e-06,0.3319409812111875,-1.4899642612491864e-05
0.3327350983911186,-1.3988540684081838e-05,0.3327350983911186,-2.1255580257854955e-05,0.3327350983911186,-3.24929568989561e-06,0.3327350983911186,-1.42672e-05
0.3335292155710496,-1.9558959093585636e-05,0.3335292155710496,-6.782702401331233e-06,0.3335292155710496,-1.2146642165646275e-06,0.3335292155710496,-1.620195909358563e-05
0.3343233327509807,-2.210690509814021e-05,0.3343233327509807,-3.820719047123504e-06,0.3343233327509807,-3.653536915281308e-07,0.3343233327509807,-2.003341138305626e-05
0.3351174499309118,-2.147441479089193e-05,0.3351174499309118,-6.367409029563099e-06,0.3351174499309118,-1.3924960469286247e-06,0.3351174499309118,-1.8531889783134372e-05
0.3359115671108428,-1.572812854101212e-05,0.3359115671108428,-1.008132416481177e-05,0.3359115671108428,-4.9258311748087296e-08,0.3359115671108428,-1.171960027271184e-05
0.3367056842907739,-7.563873144329068e-06,0.3367056842907739,-1.7432834213003907e-05,0.3367056842907739,5.625553128872745e-07,0.3367056842907739,-9.172701041610325e-06
0.337499801470705,-2.1829696112937117e-06,0.337499801470705,-2.0644986348482983e-05,0.337499801470705,2.517310946667386e-06,0.337499801470705,-8.895723964444924e-06
0.338293918650636,-1.1535028245193674e-05,0.338293918650636,-1.3751984126525104e-05,0.338293918650636,2.715667780565442e-06,0.338293918650636,-1.213268887773823e-05
0.3390880358305671,-3.207204198509771e-05,0.3390880358305671,-6.0549981768541495e-06,0.3390880358305671,1.4507710895543375e-06,0.3390880358305671,-1.3655668910445663e-05
0.3398821530104982,-3.404109036293222e-05,0.3398821530104982,-3.919588634390184e-06,0.3398821530104982,4.610119959674198e-06,0.3398821530104982,-1.0675631285558278e-05
0.3406762701904293,-2.4008456116392737e-05,0.3406762701904293,-4.936593447465816e-06,0.3406762701904293,4.651124837222675e-06,0.3406762701904293,-8.481856127917007e-06
0.3414703873703603,-1.8712353300279687e-05,0.3414703873703603,-3.3284943409515625e-06,0.3414703873703603,4.570506310986806e-06,0.3414703873703603,-9.764186945957478e-06
0.3422645045502914,-4.713351081642072e-06,0.3422645045502914,-4.255417047269437e-06,0.3422645045502914,5.716951201673432e-06,0.3422645045502914,-1.0209476665205758e-05
0.3430586217302225,1.3694006777598256e-05,0.3430586217302225,-2.046777551268959e-06,0.3430586217302225,3.149764150075909e-06,0.3430586217302225,-9.725377327780316e-06
0.3438527389101535,2.171094804992972e-05,0.3438527389101535,-2.555026997799254e-06,0.3438527389101535,9.377710072382844e-07,0.3438527389101535,-1.404918801717112e-05
0.3446468560900846,2.12785388459173e-05,0.3446468560900846,-8.46134158970687e-06,0.3446468560900846,3.662310578934916e-06,0.3446468560900846,-1.53734129486391e-05
0.3454409732700157,1.6621759667413548e-05,0.3454409732700157,-1.6834504116727913e-05,0.3454409732700157,3.86053e-06,0.3454409732700157,-1.391202703925962e-05
0.3462350904499467,7.141552568787461e-06,0.3462350904499467,-1.800008038788544e-05,0.3462350904499467,3.4757459955564563e-06,0.3462350904499467,-1.385232266962903e-05
0.3470292076298778,1.5702587672985214e-06,0.3470292076298778,-2.0843197296313845e-05,0.3470292076298778,9.579441822662683e-07,0.3470292076298778,-1.6241656663948396e-05
0.3478233248098089,-3.585236622332737e-06,0.3478233248098089,-2.4258467840972536e-05,0.3478233248098089,7.407692360792546e-07,0.3478233248098089,-1.8176988675309648e-05
0.34861744198974,-1.552360399664517e-05,0.34861744198974,-1.7981695353625045e-05,0.34861744198974,1.84634e-06,0.34861744198974,-1.703157472707218e-05
0.349411559169671,-2.615517314438081e-05,0.349411559169671,-1.6242020474984878e-05,0.349411559169671,1.9649082860952038e-06,0.349411559169671,-1.5935647570857196e-05
0.3502056763496021,-3.432972903950238e-05,0.3502056763496021,-1.98512792037328e-05,0.3502056763496021,4.729273013167462e-06,0.3502056763496021,-1.5530629039502384e-05
0.3509997935295332,-3.256421299348842e-05,0.3509997935295332,-2.7021696798866244e-05,0.3509997935295332,3.1900324265010344e-06,0.3509997935295332,-1.7623902523022755e-05
0.3517939107094642,-2.111419246592899e-05,0.3517939107094642,-3.4924223416201466e-05,0.3517939107094642,2.0830703767035503e-06,0.3517939107094642,-1.3518217739778697e-05
0.3525880278893953,-1.3007862635311274e-05,0.3525880278893953,-4.483932217165704e-05,0.3525880278893953,2.2210547176452203e-06,0.3525880278893953,-1.15816e-05
0.3533821450693264,-6.065557189822847e-06,0.3533821450693264,-5.256552531905368e-05,0.3533821450693264,3.86053e-06,0.3533821450693264,-1.233117849364681e-05
0.3541762622492574,-2.4148733545669734e-07,0.3541762622492574,-4.965252290492095e-05,0.3541762622492574,3.86053e-06,0.3541762622492574,-1.264830313932246e-05
0.3549703794291886,5.755066498065967e-06,0.3549703794291886,-3.662938818620797e-05,0.3549703794291886,3.42645275155876e-06,0.3549703794291886,-1.1720534928893092e-05
0.3557644966091196,6.1902394135747485e-06,0.3557644966091196,-2.157495177130252e-05,0.3557644966091196,2.192130293212626e-06,0.3557644966091196,-9.33077043981894e-06
0.3565586137890507,7.849368434044577e-06,0.3565586137890507,-1.3518535588642469e-05,0.3565586137890507,1.8364544612734508e-06,0.3565586137890507,-9.508096767640704e-06
0.3573527309689818,9.76443696309482e-06,0.3573527309689818,-1.7275962028061366e-05,0.3573527309689818,-1.2333111000557728e-06,0.3573527309689818,-9.03467303690518e-06
0.3581468481489128,1.2390451170667046e-05,0.3581468481489128,-1.946072071834281e-05,0.3581468481489128,-3.288257938282583e-06,0.3581468481489128,-7.829769627282725e-06
0.3589409653288439,1.3024067602454446e-05,0.3589409653288439,-5.854334251854414e-06,0.3589409653288439,-8.781801075135755e-07,0.3589409653288439,-8.579777227726652e-06
0.3597350825087749,9.865172049912313e-06,0.3597350825087749,9.799832317646918e-06,0.3597350825087749,-2.664966270130574e-06,0.3597350825087749,-8.126459153246284e-06
0.360529199688706,5.578790922751922e-06,0.360529199688706,2.5172270385957245e-06,0.360529199688706,-2.5376231094479702e-06,0.360529199688706,-7.86903218669605e-06
0.3613233168686371,2.803692145834845e-06,0.3613233168686371,-1.4927482549507894e-05,0.3613233168686371,-2.18204e-06,0.3613233168686371,-7.71101194155415e-06
0.3621174340485681,-3.262793002180854e-07,0.3621174340485681,-2.1958453584016056e-05,0.3621174340485681,-3.3672587872620517e-06,0.3621174340485681,-6.585513096549817e-06
0.3629115512284993,-2.833765809728444e-06,0.3629115512284993,-2.1208084697068143e-05,0.3629115512284993,-3.248274682506388e-06,0.3629115512284993,-9.004719434671493e-06
0.3637056684084303,-2.85344e-06,0.3637056684084303,-2.149803040207101e-05,0.3637056684084303,8.982087429956761e-07,0.3637056684084303,-1.0001765773570033e-05
0.3644997855883614,-2.0145761479993643e-06,0.3644997855883614,-1.5276172239123352e-05,0.3644997855883614,1.1752489183994916e-06,0.3644997855883614,-1.1580982163201017e-05
0.3652939027682925,-1.17494e-06,0.3652939027682925,-1.845500529682608e-05,0.3652939027682925,5.03548e-07,0.3652939027682925,-1.2016275356310136e-05
0.3660880199482235,-3.4050522070432264e-06,0.3660880199482235,-2.56809e-05,0.3660880199482235,2.949568522042329e-06,0.3660880199482235,-1.252880815749955e-05
0.3668821371281546,-4.945797027619364e-06,0.3668821371281546,-2.4694054779176262e-05,0.3668821371281546,5.164246486190318e-06,0.3668821371281546,-1.3752134055238726e-05
0.3676762543080857,-6.919477475490934e-06,0.3676762543080857,-2.157351126452168e-05,0.3676762543080857,3.487182524509066e-06,0.3676762543080857,-1.6042964559865848e-05
0.3684703714880167,-1.0632300531005271e-05,0.3684703714880167,-2.16319757718337e-05,0.3684703714880167,1.84634e-06,0.3684703714880167,-1.7940634727350975e-05
0.3692644886679478,-1.1423851734634857e-05,0.3692644886679478,-2.141589290304365e-05,0.3692644886679478,3.6037041326825727e-06,0.3692644886679478,-1.363620693853942e-05
0.3700586058478789,-1.1226123189533216e-05,0.3700586058478789,-2.0664773162321225e-05,0.3700586058478789,2.596846652745587e-06,0.3700586058478789,-1.221344637906643e-05
0.3708527230278099,-1.4937604644851157e-05,0.3708527230278099,-2.62402836025666e-05,0.3708527230278099,4.017359778769542e-06,0.3708527230278099,-1.495769677107173e-05
0.371646840207741,-1.6824912468094057e-05,0.371646840207741,-3.4842990086268054e-05,0.371646840207741,8.323745880693934e-06,0.371646840207741,-1.4682889701734836e-05
0.3724409573876721,-1.5293761494712923e-05,0.3724409573876721,-4.625742367451407e-05,0.3724409573876721,7.21752e-06,0.3724409573876721,-1.1284822989425846e-05
0.3732350745676032,-2.0740148153285624e-05,0.3732350745676032,-5.3285007174265626e-05,0.3732350745676032,6.961008771793148e-06,0.3732350745676032,-1.2943344912827408e-05
0.3740291917475342,-3.880113482113837e-05,0.3740291917475342,-4.9080916484183775e-05,0.3740291917475342,7.079511826305263e-06,0.3740291917475342,-1.4069508173694736e-05
0.3748233089274653,-3.938440402338667e-05,0.3748233089274653,-4.079303579373305e-05,0.3748233089274653,3.445472219825258e-06,0.3748233089274653,-1.713068266276889e-05
0.3756174261073964,-3.0260883613889084e-05,0.3756174261073964,-3.65613484475009e-05,0.3756174261073964,1.806941170436494e-06,0.3756174261073964,-1.6774695318254022e-05
0.3764115432873274,-2.36468915605566e-05,0.3764115432873274,-3.5179000177689525e-05,0.3764115432873274,5.262591210992801e-06,0.3764115432873274,-1.2884835761525196e-05
0.3772056604672585,-1.7643420283894198e-05,0.3772056604672585,-2.84138021271056e-05,0.3772056604672585,3.86053e-06,0.3772056604672585,-1.1433624633839427e-05
0.3779997776471896,-2.7020015909766115e-05,0.3779997776471896,-1.024498432142182e-05,0.3779997776471896,3.86053e-06,0.3779997776471896,-1.0910280113813012e-05
0.3787938948271206,-3.192146217864773e-05,0.3787938948271206,1.3934366317614148e-05,0.3787938948271206,3.4258518591744757e-06,0.3787938948271206,-1.26274567320284e-05
0.3795880120070517,-2.216451272265587e-05,0.3795880120070517,1.8784256544510047e-05,0.3795880120070517,3.584737416312971e-06,0.3795880120070517,-1.3574864749001712e-05
0.3803821291869828,-9.379093478762292e-06,0.3803821291869828,-7.368891120049157e-06,0.3803821291869828,1.45556452017714e-06,0.3803821291869828,-1.4130421946871335e-05
0.3811762463669139,4.324748003954929e-06,0.3811762463669139,-2.8150184822038323e-05,0.3811762463669139,-3.71931512987174e-06,0.3811762463669139,-1.1849856734205798e-05
0.3819703635468449,1.6967861396654783e-05,0.3819703635468449,-4.123169936791572e-05,0.3819703635468449,-3.841276168773181e-06,0.3819703635468449,-9.883851455544571e-06
0.382764480726776,2.4495836823942977e-05,0.382764480726776,-5.044529832096974e-05,0.382764480726776,-2.5774005580997896e-06,0.382764480726776,-9.261028680556902e-06
0.3835585979067071,2.3429912717402375e-05,0.3835585979067071,-3.2448676866316046e-05,0.3835585979067071,-1.5205312717402377e-06,0.3835585979067071,-1.0850852369558574e-05
0.3843527150866381,1.4920543517888195e-05,0.3843527150866381,-6.580186965439626e-06,0.3843527150866381,-3.0705368915794143e-06,0.3843527150866381,-1.1028803108420583e-05
0.3851468322665692,3.234396947196553e-06,0.3851468322665692,2.629072209614953e-05,0.3851468322665692,-3.435253619963156e-06,0.3851468322665692,-1.1619857959836066e-05
0.3859409494465003,-1.0516133294460168e-05,0.3859409494465003,6.254878034037021e-05,0.3859409494465003,-6.366065514036206e-06,0.3859409494465003,-1.4909413459661142e-05
0.3867350666264313,-4.437322772829442e-06,0.3867350666264313,7.534321348546841e-05,0.3867350666264313,-9.024262753747867e-06,0.3867350666264313,-1.5332807480808734e-05
0.3875291838063624,1.17494e-06,0.3875291838063624,5.206250626902462e-05,0.3875291838063624,-5.1250516688310645e-06,0.3875291838063624,-1.37543489535208e-05
0.3883233009862935,4.927717705467062e-06,0.3883233009862935,9.872026691197365e-06,0.3883233009862935,-3.840901250529697e-06,0.3883233009862935,-1.0949459265056191e-05
0.3891174181662246,1.7014190498146375e-05,0.3891174181662246,-2.7751505120970305e-05,0.3891174181662246,-3.050461639083295e-06,0.3891174181662246,-9.271114562577235e-06
0.3899115353461556,2.3449499489930782e-05,0.3899115353461556,-5.756458657420329e-05,0.3899115353461556,1.4909176564290276e-06,0.3899115353461556,-8.668910255034609e-06
0.3907056525260867,2.15936827698295e-05,0.3907056525260867,-7.101752037991116e-05,0.3907056525260867,1.84634e-06,0.3907056525260867,-1.1067771537713129e-05
0.3914997697060178,1.930336360248781e-05,0.3914997697060178,-6.46253515539624e-05,0.3914997697060178,1.84634e-06,0.3914997697060178,-1.1581931801243906e-05
0.3922938868859488,1.192157597973843e-05,0.3922938868859488,-4.807188389814418e-05,0.3922938868859488,3.651805425812568e-06,0.3922938868859488,-1.138362635532489e-05
0.3930880040658799,4.3130006839545706e-07,0.3930880040658799,-3.7824321762519626e-05,0.3930880040658799,6.408227387277625e-06,0.3930880040658799,-9.756179963086006e-06
0.393882121245811,-8.053180078353732e-06,0.393882121245811,-4.291767540360168e-05,0.393882121245811,5.047041808870941e-06,0.393882121245811,-1.189417638225812e-05
0.394676238425742,-1.37493754132557e-05,0.394676238425742,-5.150026351231607e-05,0.394676238425742,3.584450301455786e-06,0.394676238425742,-1.5095439095632642e-05
0.3954703556056732,-2.3226255811646017e-05,0.3954703556056732,-4.993382018902933e-05,0.3954703556056732,1.0381031859780902e-06,0.3954703556056732,-1.3557315220390696e-05
0.3962644727856042,-4.0172455715714616e-05,0.3962644727856042,-3.778920744560632e-05,0.3962644727856042,7.401341944200597e-07,0.3962644727856042,-1.1423874617479209e-05
0.3970585899655353,-4.708644689402319e-05,0.3970585899655353,-9.725605246543225e-06,0.3970585899655353,-3.848190483905055e-07,0.3970585899655353,-1.0278376552988406e-05
0.3978527071454664,-4.029498841434274e-05,0.3978527071454664,1.4917790857287608e-05,0.3978527071454664,-2.6162223171314523e-06,0.3978527071454664,-1.1778564634262903e-05
0.3986468243253974,-3.453097050198973e-05,0.3986468243253974,7.475473305480175e-06,0.3986468243253974,-5.644822972024082e-07,0.3986468243253974,-1.4068882374502567e-05
0.3994409415053285,-1.968739966144974e-05,0.3994409415053285,-1.3990728695553391e-05,0.3994409415053285,4.0161296500971565e-06,0.3994409415053285,-1.4150499827886725e-05
0.4002350586852595,-3.411438039402232e-06,0.4002350586852595,-3.771610044222572e-05,0.4002350586852595,7.31561936035384e-06,0.4002350586852595,-1.1868212116101483e-05
0.4010291758651906,5.72606863708283e-06,0.4010291758651906,-5.1233491768144566e-05,0.4010291758651906,7.947943504512014e-06,0.4010291758651906,-1.2647704691133028e-05
0.4018232930451217,6.022575088940602e-06,0.4018232930451217,-4.972614163423528e-05,0.4018232930451217,8.540666948751905e-06,0.4018232930451217,-1.3161531118003047e-05
0.4026174102250527,2.7344954517764204e-06,0.4026174102250527,-5.385430705964616e-05,0.4026174102250527,9.824280582791807e-06,0.4026174102250527,-1.545235881763631e-05
0.4034115274049838,1.0367116100831364e-06,0.4034115274049838,-6.590619970004062e-05,0.4034115274049838,9.23171e-06,0.4034115274049838,-1.4622654302654964e-05
0.4042056445849149,9.776452018167851e-07,0.4042056445849149,-6.574884311596038e-05,0.4042056445849149,8.985088563677758e-06,0.4042056445849149,-1.2944241831172776e-05
0.404999761764846,1.1745967614237189e-06,0.404999761764846,-6.19378638838724e-05,0.404999761764846,7.218120669553428e-06,0.404999761764846,-1.1917643242666156e-05
0.4057938789447771,6.326589950678709e-06,0.4057938789447771,-5.010606446234763e-05,0.4057938789447771,7.88891e-06,0.4057938789447771,-1.0436785110702484e-05
0.4065879961247081,6.725902829191662e-06,0.4065879961247081,-3.568601952899395e-05,0.4065879961247081,5.718802829191662e-06,0.4065879961247081,-9.15374936087406e-06
0.4073821133046392,-4.3377846560151865e-08,0.4073821133046392,-1.508188156162401e-05,0.4073821133046392,1.6900756719074392e-06,0.4073821133046392,-9.130406724884238e-06
0.4081762304845703,-6.956961554501488e-06,0.4081762304845703,9.766239347759248e-06,0.4081762304845703,-4.85974885172836e-08,0.4081762304845703,-9.80591231249749e-06
0.4089703476645013,-8.73777547419122e-06,0.4089703476645013,1.9581621218141077e-05,0.4089703476645013,-3.4531394554816386e-07,0.4089703476645013,-9.07347547419122e-06
0.4097644648444324,-1.2735123877020874e-05,0.4097644648444324,3.1725859862281315e-06,0.4097644648444324,-2.669780279645844e-07,0.4097644648444324,-1.1225627882197083e-05
0.4105585820243635,-1.878885391442897e-05,0.4105585820243635,-1.3805325333943153e-05,0.4105585820243635,1.1353524526913234e-06,0.4105585820243635,-1.2253e-05
0.4113526992042945,-1.864133952842421e-05,0.4113526992042945,-1.723521328825235e-05,0.4113526992042945,1.17494e-06,0.4113526992042945,-1.2509231322679815e-05
0.4121468163842256,-2.360208628596825e-05,0.4121468163842256,2.2512483880932417e-07,0.4121468163842256,-1.2131343453251705e-06,0.4121468163842256,-1.4957694581835784e-05
0.4129409335641567,-4.246074723425724e-05,0.4129409335641567,2.53845417732883e-05,0.4129409335641567,-4.6097066034709965e-06,0.4129409335641567,-1.5215967112984428e-05
0.4137350507440878,-4.424615948070966e-05,0.4137350507440878,3.2178149384237886e-05,0.4137350507440878,-4.0792691780592e-06,0.4137350507440878,-1.42672e-05
0.4145291679240188,-3.125138875136802e-05,0.4145291679240188,1.3734350338243524e-05,0.4145291679240188,2.102322974373857e-06,0.4145291679240188,-1.533329039020732e-05
0.4153232851039499,-1.9439996471469414e-05,0.4153232851039499,-8.528568032798067e-06,0.4153232851039499,4.116992354247297e-06,0.4153232851039499,-1.6162845882420724e-05
0.416117402283881,-9.942549814241746e-07,0.416117402283881,-1.5054529493420237e-05,0.416117402283881,1.737614042906917e-06,0.416117402283881,-1.5017432057209222e-05
0.416911519463812,1.572833153556085e-05,0.416911519463812,-2.4259781526184177e-05,0.416911519463812,1.84634e-06,0.416911519463812,-1.2509721853800934e-05
0.4177056366437431,2.0448214316969663e-05,0.4177056366437431,-3.617704202564448e-05,0.4177056366437431,1.313356080023131e-06,0.4177056366437431,-9.804460096907276e-06
0.4184997538236742,1.762544139430885e-05,0.4184997538236742,-5.185998616044426e-05,0.4184997538236742,1.1747626611255308e-06,0.4184997538236742,-1.0909490637106267e-05
0.4192938710036052,1.5175301711635028e-05,0.4192938710036052,-6.438566988825149e-05,0.4192938710036052,3.761531711635029e-06,0.4192938710036052,-1.0871494865094916e-05
0.4200879881835363,1.5394175413220328e-05,0.4200879881835363,-6.166484226399988e-05,0.4200879881835363,2.241977706610164e-06,0.4200879881835363,-8.22461e-06
0.4208821053634674,1.1011537673026876e-05,0.4208821053634674,-5.526311501895927e-05,0.4208821053634674,1.2335308726323322e-06,0.4208821053634674,-1.0590345235793992e-05
0.4216762225433985,7.023172166683361e-06,0.4216762225433985,-4.98309383159558e-05,0.4216762225433985,1.6012363185444898e-07,0.4216762225433985,-1.4778434295872603e-05
0.4224703397233295,4.493490986079613e-06,0.4224703397233295,-4.106900457124774e-05,0.4224703397233295,-1.51064e-06,0.4224703397233295,-1.507762073955971e-05
0.4232644569032606,-1.0696570965343077e-07,0.4232644569032606,-3.464716903368075e-05,0.4232644569032606,1.4755341560610638e-07,0.4232644569032606,-1.2016446250485437e-05
0.4240585740831917,-6.03222349691474e-06,0.4240585740831917,-2.2059403284163395e-05,0.4240585740831917,1.17494e-06,0.4240585740831917,-1.092999974252162e-05
0.4248526912631227,-1.0632641073827698e-05,0.4248526912631227,4.281733927309721e-06,0.4248526912631227,6.939055486701448e-08,0.4248526912631227,-9.794566620209624e-06
0.4256468084430538,-1.4187095637991196e-05,0.4256468084430538,2.3290286458224077e-05,0.4256468084430538,-8.39246e-07,0.4256468084430538,-8.18645875717278e-06
0.4264409256229849,-1.5571122874683742e-05,0.4264409256229849,2.060624656124092e-05,0.4264409256229849,-1.67849e-07,0.4264409256229849,-6.969292952915925e-06
0.4272350428029159,-1.4425623309275128e-05,0.4272350428029159,6.630840571774279e-06,0.4272350428029159,-1.67849e-07,0.4272350428029159,-9.931420633788602e-06
0.428029159982847,-1.3793560474838574e-05,0.428029159982847,-6.437149130907213e-06,0.428029159982847,5.03548e-07,0.428029159982847,-1.1946415614442996e-05
0.4288232771627781,-1.1107431060975657e-05,0.4288232771627781,-2.31028598503206e-05,0.4288232771627781,-2.300582676157174e-06,0.4288232771627781,-1.584708535231435e-05
0.4296173943427092,-4.748132314026335e-06,0.4296173943427092,-2.83665e-05,0.4296173943427092,-1.869455628183255e-07,0.4296173943427092,-1.665652176161834e-05
0.4304115115226402,-1.31318232655845e-06,0.4304115115226402,-2.520670581598595e-05,0.4304115115226402,1.17494e-06,0.4304115115226402,-1.61629693062338e-05
0.4312056287025713,-9.03110159554531e-06,0.4312056287025713,-1.550014947982595e-05,0.4312056287025713,-1.0365184540520396e-06,0.4312056287025713,-1.5905911325504563e-05
0.4319997458825024,-3.137974529330085e-05,0.4319997458825024,-7.89071804844357e-06,0.4319997458825024,-1.685812461131328e-07,0.4319997458825024,-1.795916774897902e-05
0.4327938630624334,-4.144797117926729e-05,0.4327938630624334,-1.4110368672563508e-05,0.4327938630624334,2.595115871727799e-06,0.4327938630624334,-1.3460356970383616e-05
0.4335879802423645,-3.991513696548184e-05,0.4335879802423645,-1.711090696595612e-05,0.4335879802423645,4.6278292023480406e-06,0.4335879802423645,-1.3415952482087522e-05
0.4343820974222956,-5.340767564348661e-05,0.4343820974222956,-1.853154689271123e-05,0.4343820974222956,9.29029227311174e-06,0.4343820974222956,-1.5492835453776523e-05
0.4351762146022266,-5.529645941231006e-05,0.4351762146022266,-2.5039497030444463e-05,0.4351762146022266,8.21691604973993e-06,0.4351762146022266,-1.322258731794539e-05
0.4359703317821577,-3.630534616884173e-05,0.4359703317821577,-2.90379e-05,0.4359703317821577,4.335267901692961e-06,0.4359703317821577,-1.215464538129521e-05
0.4367644489620888,-1.2812206113169484e-05,0.4367644489620888,-1.9472838352475348e-05,0.4367644489620888,4.334816177182318e-06,0.4367644489620888,-1.0989045529127071e-05
0.4375585661420199,1.2388662616299046e-05,0.4375585661420199,-1.0409345838503656e-05,0.4375585661420199,3.060900361095177e-06,0.4375585661420199,-1.3457161671252835e-05
0.438352683321951,3.18977750285909e-05,0.438352683321951,-1.5169946095528057e-05,0.438352683321951,1.4121920809507583e-06,0.438352683321951,-1.233247347320382e-05
0.439146800501882,4.035250678916902e-05,0.439146800501882,-2.672619408862187e-05,0.439146800501882,5.03548e-07,0.439146800501882,-1.3298220367507064e-05
0.4399409176818131,3.97220015110668e-05,0.4399409176818131,-3.48830597469821e-05,0.4399409176818131,2.021234887924728e-06,0.4399409176818131,-1.5057820820263387e-05
0.4407350348617442,3.543892587953242e-05,0.4407350348617442,-2.79180878211682e-05,0.4407350348617442,4.354664750697296e-06,0.4407350348617442,-1.3754234750697294e-05
0.4415291520416752,2.557380173119596e-05,0.4415291520416752,-2.3745498621742857e-05,0.4415291520416752,4.987915721974749e-08,0.4415291520416752,-1.2450777636971765e-05
0.4423232692216063,1.8038643826325368e-05,0.4423232692216063,-3.0937988591743046e-05,0.4423232692216063,-1.885919660786121e-06,0.4423232692216063,-1.05745e-05
0.4431173864015373,1.645939002147173e-05,0.4431173864015373,-3.2592577235074974e-05,0.4431173864015373,-2.85344e-06,0.4431173864015373,-1.1463317516103794e-05
0.4439115035814684,2.001346358299515e-05,0.4439115035814684,-3.23949e-05,0.4439115035814684,2.8625623263304253e-07,0.4439115035814684,-1.1186696119144242e-05
0.4447056207613995,2.4594188252926748e-05,0.4447056207613995,-3.6628828871380016e-05,0.4447056207613995,-3.651108695513163e-07,0.4447056207613995,-1.1206094126463374e-05
0.4454997379413306,2.3668021484264587e-05,0.4454997379413306,-3.64238085150019e-05,0.4454997379413306,-1.1747512199077766e-06,0.4454997379413306,-1.3762561719052851e-05
0.4462938551212617,5.531357395855654e-06,0.4462938551212617,-2.874046026354841e-05,0.4462938551212617,-1.51064e-06,0.4462938551212617,-1.3320439017569508e-05
0.4470879723011927,-1.8798909989379075e-05,0.4470879723011927,-1.4631429693750136e-05,0.4470879723011927,-1.924249042002624e-06,0.4470879723011927,-1.1818355374989813e-05
0.4478820894811238,-2.6945601768545137e-05,0.4478820894811238,-5.105781852746619e-06,0.4478820894811238,-2.3187107418313614e-06,0.4478820894811238,-1.1839201768545136e-05
0.4486762066610549,-2.414384547440129e-05,0.4486762066610549,-1.2332678114451354e-05,0.4486762066610549,-4.323178854949434e-06,0.4486762066610549,-9.589567329119878e-06
0.4494703238409859,-1.717332025530508e-05,0.4494703238409859,-2.8200766516484804e-05,0.4494703238409859,-1.5921099488062105e-06,0.4494703238409859,-8.668230780144775e-06
0.450264441020917,-1.3280440766336203e-05,0.450264441020917,-4.135642867693243e-05,0.450264441020917,9.180843993040918e-07,0.450264441020917,-1.1146719425247846e-05
0.4510585582008481,-9.72589907824576e-06,0.4510585582008481,-6.085777758642136e-05,0.4510585582008481,2.122606374353008e-06,0.4510585582008481,-1.1601411208548996e-05
0.4518526753807791,-5.53903e-06,0.4518526753807791,-6.880461510448228e-05,0.4518526753807791,1.3528876602336614e-06,0.4518526753807791,-9.784471760373672e-06
0.4526467925607102,-9.113462338429218e-06,0.4526467925607102,-4.903495869680016e-05,0.4526467925607102,2.0828353231415647e-06,0.4526467925607102,-1.2844238307853912e-05
0.4534409097406413,-3.1362898034972544e-06,0.4534409097406413,-1.8730985293277697e-05,0.4534409097406413,2.972722258423119e-06,0.4534409097406413,-1.4841464516846238e-05
0.4542350269205724,4.984470687518992e-06,0.4542350269205724,8.520242418795901e-07,0.4542350269205724,8.99661592348949e-07,0.4542350269205724,-1.159303832470182e-05
0.4550291441005034,9.78991801150162e-07,0.4550291441005034,8.40212709539125e-06,0.4550291441005034,1.6485452008948658e-06,0.4550291441005034,-1.0169873886237064e-05
0.4558232612804345,-4.5517876146745495e-06,0.4558232612804345,1.7230921352649735e-05,0.4558232612804345,1.6290026135236303e-06,0.4558232612804345,-8.89601e-06
0.4566173784603656,-7.099220317062744e-06,0.4566173784603656,1.631665340382969e-05,0.4566173784603656,-1.67849e-07,0.4566173784603656,-1.0673601808782254e-05
0.4574114956402966,-1.0337319985100888e-05,0.4574114956402966,2.230954517362912e-06,0.4574114956402966,2.8335651554441936e-06,0.4574114956402966,-1.1463215170343306e-05
0.4582056128202277,-1.5767428212370317e-05,0.4582056128202277,-7.368245065748169e-06,0.4582056128202277,3.761904357525937e-06,0.4582056128202277,-1.09102e-05
0.4589997300001588,-1.896583297493528e-05,0.4589997300001588,-1.4265278943326348e-05,0.4589997300001588,1.8473125150932777e-06,0.4589997300001588,-1.0574694504177454e-05
0.4597938471800898,-2.034845353778177e-05,0.4597938471800898,-1.2252523037247775e-05,0.4597938471800898,2.6747357940787305e-06,0.4597938471800898,-1.300170707556354e-05
0.4605879643600209,-2.5716739476538128e-05,0.4605879643600209,-7.824560847666679e-06,0.4605879643600209,5.754781683854821e-06,0.4605879643600209,-1.3200127895307625e-05
0.461382081539952,-2.980691427200371e-05,0.461382081539952,-2.290892799959188e-05,0.461382081539952,5.343813086431286e-06,0.461382081539952,-1.653517617241998e-05
0.4621761987198831,-3.151473771671814e-05,0.4621761987198831,-4.3295089743381256e-05,0.4621761987198831,4.27460664248312e-06,0.4621761987198831,-1.804936447325936e-05
0.4629703158998141,-3.40734e-05,0.4629703158998141,-3.0226836982990336e-05,0.4629703158998141,2.143669634612855e-06,0.4629703158998141,-1.608477222595964e-05
0.4637644330797452,-2.8071527298360835e-05,0.4637644330797452,-1.900527220643113e-05,0.4637644330797452,2.8623092217324717e-06,0.4637644330797452,-1.4109531824590209e-05
0.4645585502596763,-3.154460057106731e-05,0.4645585502596763,-2.847644610866648e-05,0.4645585502596763,5.163696116874548e-06,0.4645585502596763,-1.35958e-05
0.4653526674396073,-3.800337501300567e-05,0.4653526674396073,-4.504691719225386e-05,0.4653526674396073,5.144011246748582e-06,0.4653526674396073,-1.4701324986994329e-05
0.4661467846195384,-2.7287419294341944e-05,0.4661467846195384,-4.8133711610342e-05,0.4661467846195384,4.236325178607165e-06,0.4661467846195384,-1.2550648428657196e-05
0.4669409017994695,-8.887665166070778e-06,0.4669409017994695,-4.1527709347162346e-05,0.4669409017994695,1.788076256268922e-06,0.4669409017994695,-1.0593921363617024e-05
0.4677350189794005,1.03890873037626e-05,0.4677350189794005,-4.8691051716867176e-05,0.4677350189794005,2.1215973322102126e-06,0.4677350189794005,-1.1166671183229112e-05
0.4685291361593316,2.435619316888117e-05,0.4685291361593316,-4.7225528316810645e-05,0.4685291361593316,6.032582679587205e-06,0.4685291361593316,-1.355585071834882e-05
0.4693232533392627,2.698404988865685e-05,0.4693232533392627,-2.8481799866206845e-05,0.4693232533392627,4.591184175945263e-06,0.4693232533392627,-1.3516720768383163e-05
0.4701173705191938,1.137196394426398e-05,0.4701173705191938,-1.876064151140564e-06,0.4701173705191938,5.163891039340556e-06,0.4701173705191938,-1.039655584263778e-05
0.4709114876991248,-1.454269929935834e-05,0.4709114876991248,1.543256540606388e-05,0.4709114876991248,3.52483e-06,0.4709114876991248,-9.17252905119911e-06
0.4717056048790559,-1.9283760633777377e-05,0.4717056048790559,1.5795063309858397e-05,0.4717056048790559,2.360340452698126e-06,0.4717056048790559,-8.69877018107925e-06
0.472499722058987,-1.7288700224888538e-05,0.472499722058987,3.1941737634450697e-06,0.472499722058987,-1.670481070066907e-07,0.472499722058987,-1.057309843174464e-05
0.473293839238918,-1.4784054645037663e-05,0.473293839238918,-6.300129544617563e-06,0.473293839238918,3.068363186335343e-06,0.473293839238918,-1.2825378779580194e-05
0.4740879564188491,-3.572667717843413e-07,0.4740879564188491,-2.0038998761174317e-05,0.4740879564188491,3.210180355349217e-06,0.4740879564188491,-1.1108041785359877e-05
0.4748820735987802,1.4540463547900348e-05,0.4748820735987802,-3.7189726753127593e-05,0.4748820735987802,3.1110647005999005e-06,0.4748820735987802,-1.1019537711084466e-05
0.4756761907787112,1.4684782380056636e-05,0.4756761907787112,-3.991832619789596e-05,0.4756761907787112,3.093860510549054e-07,0.4756761907787112,-8.918235977312345e-06
0.4764703079586423,1.3564576360603908e-05,0.4764703079586423,-3.0148737522651976e-05,0.4764703079586423,3.644589691179076e-07,0.4764703079586423,-8.579483741271443e-06
0.4772644251385734,1.5315073064049824e-05,0.4772644251385734,-2.8623094715359752e-05,0.4772644251385734,2.51774e-06,0.4772644251385734,-8.481481633006229e-06
0.4780585423185045,9.153704179006134e-06,0.4780585423185045,-2.90379e-05,0.4780585423185045,6.22483575068507e-07,0.4780585423185045,-9.172241976270638e-06
0.4788526594984356,4.809672381927748e-06,0.4788526594984356,-2.9588743266616076e-05,0.4788526594984356,-1.1547131088139369e-06,0.4788526594984356,-8.146432663378216e-06
0.4796467766783666,-6.788097289391288e-07,0.4796467766783666,-3.421087753411266e-05,0.4796467766783666,-9.19462896569988e-07,0.4796467766783666,-8.262633651181328e-06
0.4804408938582977,-6.640379856419398e-06,0.4804408938582977,-3.3698633547639435e-05,0.4804408938582977,1.0778625410185763e-06,0.4804408938582977,-1.162043126120659e-05
0.4812350110382288,-1.3218389162662273e-05,0.4812350110382288,-2.7618703746947865e-05,0.4812350110382288,-2.0423346633307e-06,0.4812350110382288,-1.327886185007212e-05
0.4820291282181598,-1.32800860822478e-05,0.4820291282181598,-2.4298793146401564e-05,0.4820291282181598,-2.5577121644956017e-06,0.4820291282181598,-1.7307446721083257e-05
0.4828232453980909,-1.2134503089531656e-05,0.4828232453980909,-1.6487069733614004e-05,0.4828232453980909,-6.812919537643495e-07,0.4828232453980909,-1.8522627761130184e-05
0.483617362578022,-1.1877855306326867e-05,0.483617362578022,4.520610458163527e-06,0.483617362578022,-2.3994059189806e-06,0.483617362578022,-1.5708605859191225e-05
0.484411479757953,-1.0456161034452974e-05,0.484411479757953,3.1664584986986715e-05,0.484411479757953,6.88261685238174e-08,0.484411479757953,-1.8137408448320535e-05
0.4852055969378841,-7.534313702441834e-06,0.4852055969378841,4.5603517842463385e-05,0.4852055969378841,1.451885644268147e-06,0.4852055969378841,-1.6638058235533253e-05
0.4859997141178152,-4.197259721863495e-06,0.4859997141178152,3.525449460975375e-05,0.4859997141178152,-8.384222212822423e-07,0.4859997141178152,-1.359621189119932e-05
0.4867938312977463,-4.036798182697095e-06,0.4867938312977463,1.0926911704613395e-06,0.4867938312977463,-3.0490077525468547e-06,0.4867938312977463,-1.32601e-05
0.4875879484776773,-1.745562842135034e-05,0.4875879484776773,-2.9089625971340445e-05,0.4875879484776773,-6.683972481626396e-06,0.4875879484776773,-1.3991495036747208e-05
0.4883820656576084,-2.521252862678723e-05,0.4883820656576084,-3.8770687863979646e-05,0.4883820656576084,-4.8208056209275215e-06,0.4883820656576084,-1.29244e-05
0.4891761828375395,-1.778804485006835e-05,0.4891761828375395,-5.154955392810016e-05,0.4891761828375395,-2.6370606928669067e-06,0.4891761828375395,-1.375251896069964e-05
0.4899703000174705,-1.3202613100452416e-05,0.4899703000174705,-6.272086445826189e-05,0.4899703000174705,-8.009201571689013e-07,0.4899703000174705,-1.3202613100452416e-05
0.4907644171974016,-5.404606649126172e-06,0.4907644171974016,-6.675444347710151e-05,0.4907644171974016,-6.027792351562921e-07,0.4907644171974016,-1.09102e-05
0.4915585343773327,5.557467132401699e-06,0.4915585343773327,-6.588781367425802e-05,0.4915585343773327,2.378941678461714e-06,0.4915585343773327,-1.122607159240986e-05
0.4923526515572637,2.8360185466727557e-06,0.4923526515572637,-5.278825902125256e-05,0.4923526515572637,4.86763e-06,0.4923526515572637,-1.2509110924268692e-05
0.4931467687371948,-6.049927581480116e-06,0.4931467687371948,-2.9287973232404635e-05,0.4931467687371948,3.061407365584134e-06,0.4931467687371948,-1.2451478149881292e-05
0.4939408859171259,-9.56741e-06,0.4939408859171259,-2.1573368318621748e-05,0.4939408859171259,3.266779012166661e-06,0.4939408859171259,-1.1659239590358429e-05
0.494735003097057,-8.541571032772254e-06,0.494735003097057,-2.4652466932740137e-05,0.494735003097057,4.788389741806937e-06,0.494735003097057,-1.3437319483613872e-05
0.495529120276988,-6.74396628550501e-06,0.495529120276988,-2.929443002875608e-05,0.495529120276988,1.7684830884517088e-06,0.495529120276988,-1.39315e-05
0.4963232374569191,-6.901607599774129e-06,0.4963232374569191,-2.446414945047116e-05,0.4963232374569191,-4.245493289915999e-07,0.4963232374569191,-1.4148714530953823e-05
0.4971173546368502,-2.3332497244337695e-05,0.4971173546368502,-7.935764884821915e-06,0.4971173546368502,1.955014359969707e-06,0.4971173546368502,-1.35958e-05
0.4979114718167812,-2.745846793301577e-05,0.4979114718167812,4.492452745320531e-06,0.4979114718167812,-1.6189818495332104e-06,0.4979114718167812,-1.4543741983253944e-05
0.4987055889967123,-1.7647372027310138e-05,0.4987055889967123,-2.4077188896736958e-06,0.4987055889967123,-2.794706226268168e-06,0.4987055889967123,-1.38423064215935e-05
0.4994997061766434,-1.6845224646353432e-06,0.4994997061766434,-1.3592189041158247e-05,0.4994997061766434,8.375526783413514e-07,0.4994997061766434,-1.5273770802697028e-05
0.5002938233565745,1.103187045500882e-05,0.5002938233565745,-1.482030732949944e-05,0.5002938233565745,-1.0045651152341926e-06,0.5002938233565745,-1.4682596466294698e-05
0.5010879405365055,2.0681126423645872e-05,0.5010879405365055,-2.395719243077745e-05,0.5010879405365055,-8.814176872089286e-07,0.5010879405365055,-1.156376625693658e-05
0.5018820577164366,2.339352833960743e-05,0.5018820577164366,-2.35719991236418e-05,0.5018820577164366,3.7199609183628095e-06,0.5018820577164366,-8.89601e-06
0.5026761748963677,1.7176391007167568e-05,0.5026761748963677,-3.840814070229355e-06,0.5026761748963677,4.651262134289009e-06,0.5026761748963677,-9.724103575929226e-06
0.5034702920762988,6.215488273845293e-06,0.5034702920762988,2.1255453233387683e-06,0.5034702920762988,4.886780858427069e-06,0.5034702920762988,-1.3849828862921809e-05
0.5042644092562298,-8.771992170898552e-07,0.5042644092562298,-1.199153239875258e-05,0.5042644092562298,5.71708849669497e-06,0.5042644092562298,-1.604494922328528e-05
0.5050585264361609,-7.611233804033826e-06,0.5050585264361609,-3.1612735310908375e-05,0.5050585264361609,4.571598281207738e-06,0.5050585264361609,-1.4958434140603868e-05
0.505852643616092,-1.7739924711296526e-05,0.505852643616092,-3.9318647022396034e-05,0.505852643616092,5.0846752944560325e-06,0.505852643616092,-1.5175909411087937e-05
0.506646760796023,-2.252243629931164e-05,0.506646760796023,-3.5209434886706495e-05,0.506646760796023,7.867752490600245e-06,0.506646760796023,-1.2806175270484037e-05
0.507440877975954,-1.7527179177120796e-05,0.507440877975954,-3.331302153350126e-05,0.507440877975954,7.169009588560398e-06,0.507440877975954,-1.296320832915168e-05
0.5082349951558852,-1.722797010547916e-05,0.5082349951558852,-3.5700771926121704e-05,0.5082349951558852,7.27585907383541e-06,0.5082349951558852,-1.4108708042191664e-05
0.5090291123358163,-2.2006035741994422e-05,0.5090291123358163,-3.739115478458356e-05,0.5090291123358163,5.46121504489607e-06,0.5090291123358163,-1.49386e-05
0.5098232295157473,-4.145857005859167e-05,0.5098232295157473,-3.416471033401504e-05,0.5098232295157473,1.84634e-06,0.5098232295157473,-1.5827225972376058e-05
0.5106173466956784,-6.296419600748535e-05,0.5106173466956784,-3.28685970823492e-05,0.5106173466956784,2.142583840299414e-06,0.5106173466956784,-1.3793080798502928e-05
0.5114114638756094,-5.51448784638612e-05,0.5114114638756094,-3.180250560275838e-05,0.5114114638756094,-6.218376323993465e-07,0.5114114638756094,-1.2647846550718632e-05
0.5122055810555405,-3.267751802391139e-05,0.5122055810555405,-3.530961249966979e-05,0.5122055810555405,-5.234935218165737e-07,0.5122055810555405,-1.442451355209609e-05
0.5129996982354716,-5.549464557620888e-06,0.5129996982354716,-4.598640587331832e-05,0.5129996982354716,-8.388112278990324e-07,0.5129996982354716,-1.6951930451912686e-05
0.5137938154154027,1.887691244070779e-05,0.5137938154154027,-4.543731602877916e-05,0.5137938154154027,-1.747301580539101e-06,0.5137938154154027,-1.4388107355687193e-05
0.5145879325953338,3.237049218718804e-05,0.5145879325953338,-3.2601635387118925e-05,0.5145879325953338,1.645445265142043e-07,0.5145879325953338,-9.2739169968843e-06
0.5153820497752648,3.4846377296046515e-05,0.5153820497752648,-2.343099966001721e-05,0.5153820497752648,3.32972890906619e-06,0.5153820497752648,-7.55322e-06
0.5161761669551959,3.002998966641264e-05,0.5161761669551959,-2.3350691772564015e-05,0.5161761669551959,-4.998915807597498e-07,0.5161761669551959,-7.001163575711388e-06
0.5169702841351269,2.4597242331981056e-05,0.5169702841351269,-2.677567294561491e-05,0.5169702841351269,-3.898813548942196e-06,0.5169702841351269,-9.111703257444564e-06
0.5177644013150581,2.123808879513949e-05,0.5177644013150581,-2.222675406760448e-05,0.5177644013150581,-4.295496385418468e-06,0.5177644013150581,-1.045629493104776e-05
0.5185585184949891,2.129706012638248e-05,0.5185585184949891,-2.1352347403664773e-05,0.5185585184949891,-2.8931191562349364e-06,0.5185585184949891,-9.597172174426712e-06
0.5193526356749202,2.1099860438557612e-05,0.5193526356749202,-3.225324134253896e-05,0.5193526356749202,-3.780921999765014e-06,0.5193526356749202,-7.000480438557615e-06
0.5201467528548512,1.6621577059461138e-05,0.5201467528548512,-3.315582820296924e-05,0.5201467528548512,-1.2362922538618366e-06,0.5201467528548512,-6.7636010034977135e-06
0.5209408700347823,6.926544682267605e-06,0.5209408700347823,-2.6077248397521608e-05,0.5209408700347823,1.904535294686563e-06,0.5209408700347823,-7.37270629679708e-06
0.5217349872147133,-1.259840085673369e-07,0.5217349872147133,-1.865309181416048e-07,0.5217349872147133,3.6227772619434506e-06,0.5217349872147133,-1.0928893201538756e-05
0.5225291043946444,-4.116153672130779e-06,0.5225291043946444,4.212699454478818e-05,0.5225291043946444,3.86053e-06,0.5225291043946444,-9.113905718097404e-06
0.5233232215745756,-8.579995994194004e-06,0.5233232215745756,6.222561093563522e-05,0.5233232215745756,4.6503925862018255e-06,0.5233232215745756,-9.014472586201824e-06
0.5241173387545066,-1.112751432185727e-05,0.5241173387545066,4.940821965153321e-05,0.5241173387545066,4.907091892714243e-06,0.5241173387545066,-9.71552905364288e-06
0.5249114559344377,-1.5175140338765077e-05,0.5249114559344377,2.3686939934648628e-05,0.5249114559344377,4.729347542345635e-06,0.5249114559344377,-1.02388e-05
0.5257055731143687,-1.936138790962228e-05,0.5257055731143687,2.442218008551141e-07,0.5257055731143687,2.637462490051077e-06,0.5257055731143687,-8.698816045188861e-06
0.5264996902942998,-1.9638846215465908e-05,0.5264996902942998,-1.963078769645277e-05,0.5264996902942998,-1.674027865279079e-07,0.5264996902942998,-1.0237461360248328e-05
0.5272938074742308,-1.6204264914847908e-05,0.5272938074742308,-2.63523e-05,0.5272938074742308,4.372412188003644e-06,0.5272938074742308,-1.3298667542576046e-05
0.528087924654162,-1.5963476412926774e-05,0.528087924654162,-2.6668644110978475e-05,0.528087924654162,4.471900565170709e-06,0.528087924654162,-1.3664697111759972e-05
0.528882041834093,-1.5375911694128463e-05,0.528882041834093,-2.6154992594017268e-05,0.528882041834093,5.656072990745788e-06,0.528882041834093,-1.479797358822628e-05
0.5296761590140241,-1.35958e-05,0.5296761590140241,-3.17824368984873e-05,0.5296761590140241,7.650201743436553e-06,0.5296761590140241,-1.5729355017133507e-05
0.5304702761939551,-1.5293427975582573e-05,0.5304702761939551,-4.422597189125369e-05,0.5304702761939551,9.152566993895644e-06,0.5304702761939551,-1.306355803662614e-05
0.5312643933738862,-1.4237998027113156e-05,0.5312643933738862,-4.6633581385000105e-05,0.5312643933738862,9.803824104950682e-06,0.5312643933738862,-1.3674605484149325e-05
0.5320585105538173,-1.35958e-05,0.5320585105538173,-4.367117848878291e-05,0.5320585105538173,8.995237441985366e-06,0.5320585105538173,-1.4879063180106249e-05
0.5328526277337483,-1.2154632343142743e-05,0.5328526277337483,-4.17998870641071e-05,0.5328526277337483,6.329086171571373e-06,0.5328526277337483,-1.595581693179429e-05
0.5336467449136795,-1.09102e-05,0.5336467449136795,-3.255456554350379e-05,0.5336467449136795,6.002403158721465e-06,0.5336467449136795,-1.49386e-05
0.5344408620936105,-7.495041904354381e-06,0.5344408620936105,-2.6470373920385563e-05,0.5344408620936105,9.309280216514726e-06,0.5344408620936105,-1.5513036507257306e-05
0.5352349792735416,-7.315447739020934e-06,0.5352349792735416,-3.126642146687234e-05,0.5352349792735416,8.522967001651046e-06,0.5352349792735416,-1.290572968130542e-05
0.5360290964534726,-6.250488397513897e-06,0.5360290964534726,-2.3144945647487783e-05,0.5360290964534726,6.930689266110894e-06,0.5360290964534726,-1.3555736304126736e-05
0.5368232136334037,-8.20469776780483e-06,0.5368232136334037,-8.078453196660885e-06,0.5368232136334037,7.65200947468217e-06,0.5368232136334037,-1.517550228955889e-05
0.5376173308133347,-1.2727061871359788e-05,0.5376173308133347,2.7937136186376385e-06,0.5376173308133347,5.9536552514560856e-06,0.5376173308133347,-1.702193681408706e-05
0.5384114479932659,-1.4385447237327756e-05,0.5384114479932659,-5.025228249294447e-06,0.5384114479932659,6.476975904665969e-06,0.5384114479932659,-1.4030705525344486e-05
0.539205565173197,-1.9400031506149937e-05,0.539205565173197,-2.3104299563798275e-05,0.539205565173197,3.5553898483383265e-06,0.539205565173197,-1.0762327817839427e-05
0.539999682353128,-2.1988071171555923e-05,0.539999682353128,-3.0378645393931795e-05,0.539999682353128,5.045777225451799e-07,0.539999682353128,-1.0909856791416166e-05
0.5407937995330591,-2.488589164218051e-05,0.5407937995330591,-3.6443260065664536e-05,0.5407937995330591,-4.273333637617541e-06,0.5407937995330591,-1.2104410419029086e-05
0.5415879167129901,-4.410416253496802e-05,0.5415879167129901,-4.024471229585272e-05,0.5415879167129901,-3.6449159074494486e-06,0.5415879167129901,-1.2145140900856842e-05
0.5423820338929212,-4.679914989682581e-05,0.5423820338929212,-6.04642864725309e-05,0.5423820338929212,-3.3333595530132487e-06,0.5423820338929212,-1.270572695389437e-05
0.5431761510728523,-3.55243983188439e-05,0.5431761510728523,-8.677865747053495e-05,0.5431761510728523,-6.6729286975274825e-06,0.5431761510728523,-1.3043766458555724e-05
0.5439702682527834,-1.775493043113508e-05,0.5439702682527834,-4.905774036930081e-05,0.5439702682527834,-6.723528267080242e-06,0.5439702682527834,-9.785749926313331e-06
0.5447643854327144,3.5799277536615484e-06,0.5447643854327144,1.163401060739733e-05,0.5447643854327144,-8.579208935472266e-06,0.5447643854327144,-9.56741e-06
0.5455585026126455,1.112679255347182e-05,0.5455585026126455,2.0574741014930877e-05,0.5455585026126455,-1.0524872242229229e-05,0.5455585026126455,-9.251561339644977e-06
0.5463526197925765,8.66189149865964e-06,0.5463526197925765,3.2366817136708936e-06,0.5463526197925765,-1.0318469341338877e-05,0.5463526197925765,-8.22461e-06
0.5471467369725076,-8.413845350569228e-06,0.5471467369725076,-1.0887641311455036e-05,0.5471467369725076,-7.751783399325898e-06,0.5471467369725076,-8.796725060949658e-06
0.5479408541524387,-2.0115930344652648e-05,0.5479408541524387,-2.761481960844949e-05,0.5479408541524387,-6.258887413836838e-06,0.5479408541524387,-9.664344250165022e-06
0.5487349713323698,-1.0798323023768836e-05,0.5487349713323698,-3.30663e-05,0.5487349713323698,-7.43432528844381e-06,0.5487349713323698,-1.25280842948127e-05
0.5495290885123009,8.830855406943207e-06,0.5495290885123009,-3.12889509193811e-05,0.5495290885123009,-7.1974767106412045e-06,0.5495290885123009,-1.2470958223396988e-05
0.5503232056922319,3.103175584700301e-05,0.5503232056922319,-3.231511404185481e-05,0.5503232056922319,-8.125972431516595e-06,0.5503232056922319,-1.1482779406714717e-05
0.551117322872163,4.351282626013295e-05,0.551117322872163,-2.3316744300991444e-05,0.551117322872163,-3.919562411564697e-06,0.551117322872163,-1.2440542558631904e-05
0.551911440052094,4.801433645790927e-05,0.551911440052094,-1.4228002153527428e-05,0.551911440052094,1.31269010391223e-06,0.551911440052094,-1.197641215263642e-05
0.5527055572320251,4.7719715908975095e-05,0.5527055572320251,-1.4424737885916812e-05,0.5527055572320251,2.4191544886218875e-06,0.5527055572320251,-1.39315e-05
0.5534996744119562,4.246824542168253e-05,0.5534996744119562,-1.2422168912659464e-05,0.5534996744119562,2.517505450844879e-06,0.5534996744119562,-1.39315e-05
0.5542937915918873,3.0606246081052106e-05,0.5542937915918873,-9.251491839678472e-06,0.5542937915918873,4.906163144493988e-06,0.5542937915918873,-1.541188876299599e-05
0.5550879087718184,1.6722903738061722e-05,0.5550879087718184,-1.2417434854540162e-05,0.5550879087718184,5.134418091721051e-06,0.5550879087718184,-1.5433260986430183e-05
0.5558820259517494,7.245359833851589e-06,0.5558820259517494,-1.8164534946691264e-05,0.5558820259517494,5.047316993528804e-06,0.5558820259517494,-1.35958e-05
0.5566761431316805,-2.722034643666369e-07,0.5566761431316805,-2.4693353353358125e-05,0.5566761431316805,3.170510596928116e-06,0.5566761431316805,-1.3181742315205425e-05
0.5574702603116115,-4.13345744094734e-06,0.5574702603116115,-3.0178493498851184e-05,0.5574702603116115,3.702232546369039e-06,0.5574702603116115,-1.2154722603226656e-05
0.5582643774915427,-1.974831440843292e-05,0.5582643774915427,-3.651074863026723e-05,0.5582643774915427,4.167094893181952e-06,0.5582643774915427,-1.2035479328308474e-05
0.5590584946714737,-4.1159073674923926e-05,0.5590584946714737,-4.022310200933633e-05,0.5590584946714737,2.57731062646344e-06,0.5590584946714737,-1.163123972408436e-05
0.5598526118514048,-4.126375279383936e-05,0.5598526118514048,-3.855827246702097e-05,0.5598526118514048,2.024356456398124e-06,0.5598526118514048,-9.913272921169122e-06
0.5606467290313358,-2.738787948924777e-05,0.5606467290313358,-3.8555288151707376e-05,0.5606467290313358,2.7541435949223613e-06,0.5606467290313358,-1.0711607189844722e-05
0.5614408462112669,-1.470602520974701e-05,0.5614408462112669,-4.491388817759852e-05,0.5614408462112669,4.887011232521083e-06,0.5614408462112669,-1.1820393837394589e-05
0.5622349633911979,-6.807324704075792e-06,0.5622349633911979,-4.60609247751434e-05,0.5622349633911979,3.921174308743014e-06,0.5622349633911979,-9.982368861748603e-06
0.563029080571129,1.1348347773978964e-06,0.563029080571129,-3.15485410559241e-05,0.563029080571129,3.820425837137935e-06,0.563029080571129,-1.1541490538437744e-05
0.5638231977510602,2.983706893984527e-08,0.5638231977510602,-4.536023482859116e-06,0.5638231977510602,3.86053e-06,0.5638231977510602,-1.2134571738064887e-05
0.5646173149309912,-5.144240258469504e-06,0.5646173149309912,2.4720709176995693e-05,0.5646173149309912,3.86053e-06,0.5646173149309912,-1.0396716367021394e-05
0.5654114321109223,-8.737616179566726e-06,0.5654114321109223,4.799391217950463e-05,0.5654114321109223,2.596938970086412e-06,0.5654114321109223,-9.9031e-06
0.5662055492908533,-1.197591911345763e-05,0.5662055492908533,5.366770700718006e-05,0.5662055492908533,4.174931910556296e-06,0.5662055492908533,-1.1620274098284794e-05
0.5669996664707844,-1.4937158380802532e-05,0.5669996664707844,3.945236634667283e-05,0.5669996664707844,6.54612e-06,0.5669996664707844,-1.359531946026751e-05
0.5677937836507154,-1.7701231890905463e-05,0.5677937836507154,1.0455271064104304e-05,0.5677937836507154,5.973781351515757e-06,0.5677937836507154,-1.1977845406063025e-05
0.5685879008306466,-1.794220958227899e-05,0.5685879008306466,-1.6745565746185488e-05,0.5685879008306466,5.005448083544202e-06,0.5685879008306466,-1.1995054250632606e-05
0.5693820180105776,-1.7955673099747048e-05,0.5693820180105776,-2.37462240106884e-05,0.5693820180105776,4.356442327958969e-06,0.5693820180105776,-1.2058012406979246e-05
0.5701761351905087,-2.0615643773576e-05,0.5701761351905087,-2.243213987841097e-05,0.5701761351905087,3.711295101464686e-06,0.5701761351905087,-1.0850505329299956e-05
0.5709702523704397,-2.1513390476973982e-05,0.5709702523704397,-3.396284270560995e-05,0.5709702523704397,6.22951365131599e-06,0.5709702523704397,-1.2094696825657997e-05
0.5717643695503708,-2.0093981745887763e-05,0.5717643695503708,-5.1326288513483845e-05,0.5717643695503708,5.066300067903797e-06,0.5717643695503708,-1.1364070748093754e-05
0.5725584867303019,-1.6084739639707016e-05,0.5725584867303019,-7.311703067674443e-05,0.5725584867303019,2.893165019661643e-06,0.5725584867303019,-1.2539040027402826e-05
