X [s].2,L DELTOID ANTERIOR: EMG 3 [V],X [s].3,L BICEPS BRACHII: EMG 4 [V],X [s].4,L DELTOID POSTERIOR: EMG 5 [V],X [s].7,L DELTOID MEDIUS: EMG 8 [V]
0.0,-3.44091e-05,0.0,-1.09102e-05,0.0,-1.66171e-05,0.0,2.18204e-06
0.000794117179931,-8.50995476529885e-05,0.000794117179931,-1.1581599306659364e-05,0.000794117179931,-1.779199878670552e-05,0.000794117179931,2.18204e-06
0.0015882343598621,-0.0001109478164154,0.0015882343598621,-1.309218927117968e-05,0.0015882343598621,-1.7288503576036693e-05,0.0015882343598621,-2.517706620485131e-06
0.0023823515397932,-0.0001124589007351,0.0023823515397932,-1.4267202603679951e-05,0.0023823515397932,-1.8463397396320047e-05,0.0023823515397932,-6.881825207340517e-06
0.0031764687197242,-6.12650825346737e-05,0.0031764687197242,-1.560999783514553e-05,0.0031764687197242,-1.712060216485447e-05,0.0031764687197242,-9.567405670307178e-06
0.0039705858996553,7.50278962641248e-05,0.0039705858996553,-1.3595810400083348e-05,0.0039705858996553,-1.6281404333109893e-05,0.0039705858996553,-1.3092181800163944e-05
0.0047647030795864,0.0002220637186411,0.0047647030795864,-1.4267194149038335e-05,0.0047647030795864,-1.5610005850961664e-05,0.0047647030795864,-1.9974040027207232e-05
0.0055588202595174,0.0002863509877675,0.0055588202595174,-1.0406699725721002e-05,0.0055588202595174,-2.0309800713075063e-05,0.0055588202595174,-2.51774017004324e-05
0.0063529374394485,0.000248920120692,0.0063529374394485,-9.567412706197066e-06,0.0063529374394485,-2.2491792964384183e-05,0.0063529374394485,-3.038068322253906e-05
0.0071470546193796,0.000161639591379,0.0071470546193796,-8.56031682368253e-06,0.0071470546193796,-2.198830341150249e-05,0.0071470546193796,-3.27305840780741e-05
0.0079411717993107,0.0001025566101361,0.0079411717993107,-8.56031e-06,0.0079411717993107,-2.06455138667778e-05,0.0079411717993107,-3.105211733347225e-05
0.0087352889792417,3.6759084576228445e-05,0.0087352889792417,-1.2252995253373358e-05,0.0087352889792417,-1.4938607335715582e-05,0.0087352889792417,-3.038070086302536e-05
0.0095294061591728,-9.56718593848106e-06,0.0095294061591728,-1.560998376359146e-05,0.0095294061591728,-1.3931504870922564e-05,0.0095294061591728,-2.9037906494563417e-05
0.0103235233391039,-3.8438609969692106e-05,0.0103235233391039,-1.1245949332182254e-05,0.0103235233391039,-1.56099802671271e-05,0.0103235233391039,-2.568078160570165e-05
0.0111176405190349,-7.62037969576109e-05,0.0111176405190349,-1.2924502761823562e-05,0.0111176405190349,-1.4938531492117624e-05,0.0111176405190349,-2.165249723817644e-05
0.011911757698966,-8.00638943803305e-05,0.011911757698966,-1.4938492718782971e-05,0.011911757698966,-1.3595871520811352e-05,0.011911757698966,-1.963850728121703e-05
0.0127058748788971,-9.063826547902998e-05,0.0127058748788971,-1.49386e-05,0.0127058748788971,-1.5274246901182262e-05,0.0127058748788971,-2.0477573452172863e-05
0.0134999920588282,-0.000104233864043,0.0134999920588282,-1.5609993285854747e-05,0.0134999920588282,-1.7791974822455304e-05,0.0134999920588282,-1.628144196290783e-05
0.0142941092387592,-0.0001126270663966,0.0142941092387592,-1.82956e-05,0.0142941092387592,-1.8966972660671943e-05,0.0142941092387592,-1.2253015622473172e-05
0.0150882264186903,-0.0001183339106514,0.0150882264186903,-1.829557766619404e-05,0.0150882264186903,-1.661701066477615e-05,0.0150882264186903,-1.3595732998582114e-05
0.0158823435986214,-0.0001156481907505,0.0158823435986214,-1.76242476805409e-05,0.0158823435986214,-1.3931690722163608e-05,0.0158823435986214,-1.1581743041622703e-05
0.0166764607785524,-0.0001044025554519,0.0166764607785524,-1.76242e-05,0.0166764607785524,-1.4602866838836591e-05,0.0166764607785524,-5.8750018689011525e-06
0.0174705779584835,-7.402234325940104e-05,0.0174705779584835,-1.4602983861017049e-05,0.0174705779584835,-1.695273477476452e-05,0.0174705779584835,-2.853523860461914e-06
0.0182646951384146,-3.189165792605208e-05,0.0182646951384146,-1.2588712331199167e-05,0.0182646951384146,-1.6617102055199863e-05,0.0182646951384146,-2.517742055199861e-06
0.0190588123183456,1.1747395133006057e-06,0.0190588123183456,-1.3595862489892702e-05,0.0190588123183456,-1.5442113019503264e-05,0.0190588123183456,1.6781254773322636e-07
0.0198529294982767,-1.1750216692217334e-05,0.0198529294982767,-1.7624224937223645e-05,0.0198529294982767,-1.6281449874447294e-05,0.0198529294982767,-2.182139748523167e-06
0.0206470466782078,-3.373622372757155e-05,0.0206470466782078,-1.8295554922876785e-05,0.0206470466782078,-1.7624109845753562e-05,0.0206470466782078,-4.867449692178517e-06
0.0214411638581389,-3.843728609807484e-05,0.0214411638581389,-1.49387527870894e-05,0.0214411638581389,-1.628146111483576e-05,0.0214411638581389,-6.88172832820149e-06
0.0222352810380699,-4.078734388787387e-05,0.0222352810380699,-8.560462304103571e-06,0.0222352810380699,-1.7624167935927926e-05,0.0222352810380699,-1.1581487776225308e-05
0.023029398218001,-3.709470828659808e-05,0.023029398218001,-9.567407740018708e-06,0.023029398218001,-1.3931508286598067e-05,0.023029398218001,-1.7959885686785152e-05
0.0238235153979321,-3.239486745318088e-05,0.0238235153979321,-9.56741325468191e-06,0.0238235153979321,-9.063908820034766e-06,0.0238235153979321,-1.5610006509363823e-05
0.0246176325778631,-3.071609705294537e-05,0.0246176325778631,-9.735321966032796e-06,0.0246176325778631,-1.1581531148396671e-05,0.0246176325778631,-1.5945830815995334e-05
0.0254117497577942,-2.333146721076085e-05,0.0254117497577942,-1.1245804434795167e-05,0.0254117497577942,-9.90320618426383e-06,0.0254117497577942,-1.9134598253061792e-05
0.0262058669377253,-1.0239345092447366e-05,0.0262058669377253,-1.174937903682748e-05,0.0262058669377253,-8.896051930092179e-06,0.0262058669377253,-2.0645437102155465e-05
0.0269999841176564,5.538714436573072e-06,0.0269999841176564,-1.0910216784363114e-05,0.0269999841176564,-6.210473712962032e-06,0.0269999841176564,-1.930272685658102e-05
0.0277941012975874,1.527430054854567e-05,0.0277941012975874,-1.2588698354363e-05,0.0277941012975874,-8.224612194182668e-06,0.0277941012975874,-1.8127701919991536e-05
0.0285882184775185,1.5609753977726837e-05,0.0285882184775185,-1.158156094873474e-05,0.0285882184775185,-9.56741e-06,0.0285882184775185,-1.930266094873474e-05
0.0293823356574496,5.0363367005614855e-06,0.0293823356574496,-9.903235984601895e-06,0.0293823356574496,-9.56741e-06,0.0293823356574496,-1.7624335984601898e-05
0.0301764528373806,-2.8529714669049472e-06,0.0301764528373806,-9.56742993706042e-06,0.0301764528373806,-7.553339625332076e-06,0.0301764528373806,-1.24211090366117e-05
0.0309705700173117,1.728773950446071e-05,0.0309705700173117,-1.242069226507641e-05,0.0309705700173117,-8.224584650450744e-06,0.0309705700173117,-9.567517734923587e-06
0.0317646871972428,4.548664537233543e-05,0.0317646871972428,-1.3931475643967685e-05,0.0317646871972428,-1.1078053995038952e-05,0.0317646871972428,-1.0238789175616245e-05
0.0325588043771738,1.930253716372926e-05,0.0325588043771738,-1.3931505551255294e-05,0.0325588043771738,-1.292441480334745e-05,0.0325588043771738,-5.03547352353549e-06
0.0333529215571049,-1.023892756746655e-05,0.0333529215571049,-1.49386e-05,0.0333529215571049,-1.5610018223923795e-05,0.0333529215571049,-3.860548223923793e-06
0.034147038737036,-1.4938237467038471e-05,0.034147038737036,-1.49386e-05,0.034147038737036,-1.6281348209576924e-05,0.034147038737036,-4.531878209576925e-06
0.0349411559169671,-9.56770817194992e-06,0.0349411559169671,-1.4602918635781566e-05,0.0349411559169671,-1.5610037271563133e-05,0.0349411559169671,-6.881689550084171e-06
0.0357352730968981,-3.1893560877059087e-06,0.0357352730968981,-1.124601373090646e-05,0.0357352730968981,-1.4938622746181293e-05,0.0357352730968981,-7.553197253818708e-06
0.0365293902768292,5.874609019697252e-06,0.0365293902768292,-1.0910204110399722e-05,0.0365293902768292,-1.49386e-05,0.0365293902768292,-1.158155067544821e-05
0.0373235074567603,3.5247417363160764e-06,0.0373235074567603,-1.2253e-05,0.0373235074567603,-1.2253003152291194e-05,0.0373235074567603,-9.56741945677968e-06
0.0381176246366913,-5.874897031782109e-06,0.0381176246366913,-1.2252979172658524e-05,0.0381176246366913,-1.2588679172658526e-05,0.0381176246366913,-1.0574520827341474e-05
0.0389117418166224,-1.1581181911919349e-05,0.0389117418166224,-1.1581649187005396e-05,0.0389117418166224,-1.1917349187005396e-05,0.0389117418166224,-1.1245850812994605e-05
0.0397058589965535,-1.829525332182394e-05,0.0397058589965535,-1.1245917333908804e-05,0.0397058589965535,-1.292434799827359e-05,0.0397058589965535,-1.2924313330455984e-05
0.0404999761764846,-2.8366197866463573e-05,0.0404999761764846,-1.12459e-05,0.0404999761764846,-1.4602849643910583e-05,0.0404999761764846,-1.3260089928782117e-05
0.0412940933564156,-3.105207753178432e-05,0.0412940933564156,-8.22463527665898e-06,0.0412940933564156,-1.326011123410784e-05,0.0412940933564156,-1.292440280852696e-05
0.0420882105363467,-2.9037178520274023e-05,0.0420882105363467,-9.567436721486074e-06,0.0420882105363467,-1.2253e-05,0.0420882105363467,-1.795988218558751e-05
0.0428823277162778,2.534025034891446e-05,0.0428823277162778,-1.1581416679488297e-05,0.0428823277162778,-1.2253e-05,0.0428823277162778,-1.6617222214281234e-05
0.0436764448962088,9.432651295095757e-05,0.0436764448962088,-9.064034709758286e-06,0.0436764448962088,-1.023893976836176e-05,0.0436764448962088,-1.695277670527304e-05
0.0444705620761399,6.730879057651316e-05,0.0444705620761399,-7.217608175720634e-06,0.0444705620761399,-9.903116032036037e-06,0.0444705620761399,-2.1316691583531515e-05
0.045264679256071,-1.695059890482457e-05,0.045264679256071,-8.560274922880757e-06,0.045264679256071,-1.1581556153274412e-05,0.045264679256071,-2.366663861719644e-05
0.046058796436002,-5.052244933547818e-05,0.046058796436002,-7.217526026571896e-06,0.046058796436002,-8.896022053188674e-06,0.046058796436002,-2.0645513559438942e-05
0.0468529136159331,-4.313654030156389e-05,0.0468529136159331,-9.231796329508011e-06,0.0468529136159331,-1.0910211510623928e-05,0.0468529136159331,-2.0645471223440185e-05
0.0476470307958642,1.1710787682285451e-06,0.0476470307958642,-1.4266761222949396e-05,0.0476470307958642,-1.158154149627707e-05,0.0476470307958642,-1.8967146259307325e-05
0.0484411479757953,6.09253852876766e-05,0.0484411479757953,-1.5945590035729027e-05,0.0484411479757953,-9.567541956470033e-06,0.0484411479757953,-1.695293195712517e-05
0.0492352651557263,0.0001012112323935,0.0492352651557263,-1.4938644190489822e-05,0.0492352651557263,-1.2252882159132591e-05,0.0492352651557263,-1.712059263711231e-05
0.0500293823356574,0.0001210185594258,0.0500293823356574,-1.2253059739778836e-05,0.0500293823356574,-1.3260077597582936e-05,0.0500293823356574,-1.4267263472402787e-05
0.0508234995155885,9.785611412967478e-05,0.0508234995155885,-1.3260099385655706e-05,0.0508234995155885,-1.493859897609284e-05,0.0508234995155885,-8.896013276496805e-06
0.0516176166955195,4.347199084959794e-05,0.0516176166955195,-1.2924396470438504e-05,0.0516176166955195,-1.4938628228083238e-05,0.0516176166955195,-1.0910298798291332e-05
0.0524117338754506,-4.527933142328767e-06,0.0524117338754506,-1.275651397923928e-05,0.0524117338754506,-1.6281288199389503e-05,0.0524117338754506,-1.5609608697863258e-05
0.0532058510553817,-4.3470599854166856e-05,0.0532058510553817,-1.2253031033390377e-05,0.0532058510553817,-1.4938682763925714e-05,0.0532058510553817,-1.628135861803714e-05
0.0539999682353128,-6.327840773486006e-05,0.0539999682353128,-1.0406773853597755e-05,0.0539999682353128,-1.4267226856581017e-05,0.0539999682353128,-1.0239041709229156e-05
0.0547940854152438,-1.510728476078562e-05,0.0547940854152438,-1.2588659924521012e-05,0.0547940854152438,-1.42672e-05,0.0547940854152438,-9.063881579414888e-06
0.0555882025951749,1.7959824310458205e-05,0.0555882025951749,-1.1581601096953196e-05,0.0555882025951749,-1.3595797806093608e-05,0.0555882025951749,-1.3092192869967607e-05
0.056382319775106,-5.20099020187472e-06,0.056382319775106,-1.1917266089779764e-05,0.056382319775106,-1.292446782044047e-05,0.056382319775106,-1.0910420411380854e-05
0.057176436955037,-2.500792755414535e-05,0.057176436955037,-1.3595666741002067e-05,0.057176436955037,-1.3931420044601245e-05,0.057176436955037,-1.1917220044601245e-05
0.0579705541349681,-5.253521009886536e-05,0.0579705541349681,-1.409927091922487e-05,0.0579705541349681,-1.2253096945543316e-05,0.0579705541349681,-9.231865112291732e-06
0.0587646713148992,-8.207723287885062e-05,0.0587646713148992,-1.4267193934984988e-05,0.0587646713148992,-1.4267127241493525e-05,0.0587646713148992,-5.203475516290497e-06
0.0595587884948302,-0.0001163195038955,0.0595587884948302,-1.3595809727453646e-05,0.0595587884948302,-1.8631236771551297e-05,0.0595587884948302,-3.021321614079467e-06
0.0603529056747613,-0.0001626461655055,0.0603529056747613,-1.1245911993310184e-05,0.0603529056747613,-1.8966983209365745e-05,0.0603529056747613,-5.539065979716188e-06
0.0611470228546924,-0.0001858067500418,0.0611470228546924,-1.2924236957443024e-05,0.0611470228546924,-1.6617328259579763e-05,0.0611470228546924,-1.0574010875243154e-05
0.0619411400346235,-0.0001703681660815,0.0619411400346235,-1.7288170450951298e-05,0.0619411400346235,-1.561007604978047e-05,0.0619411400346235,-1.0910174650073176e-05
0.0627352572145545,-0.000126392369444,0.0627352572145545,-1.3595998959594904e-05,0.0627352572145545,-1.69527276510564e-05,0.0627352572145545,-1.2756400522896509e-05
0.0635293743944856,-0.0001112844870884,0.0635293743944856,-1.225304329817991e-05,0.0635293743944856,-2.165244845637032e-05,0.0635293743944856,-8.560445304877536e-06
0.0643234915744167,-5.253742332127749e-05,0.0643234915744167,-1.3595785752583758e-05,0.0643234915744167,-1.9302724932978426e-05,0.0643234915744167,-8.72815821907297e-06
0.0651176087543477,0.0001139714634818,0.0651176087543477,-1.4938577797774722e-05,0.0651176087543477,-1.6449172247769546e-05,0.0651176087543477,-9.903185108530233e-06
0.0659117259342788,0.0002467256182854,0.0659117259342788,-1.2924587840815344e-05,0.0659117259342788,-1.3931734796356268e-05,0.0659117259342788,-1.762347994354118e-05
0.0667058431142099,0.0002925577174442,0.0667058431142099,-1.1246020240270272e-05,0.0667058431142099,-1.2253120240270271e-05,0.0667058431142099,-2.6351674757758137e-05
0.067499960294141,0.0002516080477943,0.067499960294141,-9.063969104360383e-06,0.067499960294141,-1.3931416073184311e-05,0.067499960294141,-3.1051865004916075e-05
0.068294077474072,0.0001656694377984,0.068294077474072,-5.5391299874909205e-06,0.068294077474072,-1.4434985717410008e-05,0.068294077474072,-2.937364761336107e-05
0.0690881946540031,0.0001515680949165,0.0690881946540031,-8.224591920284263e-06,0.0690881946540031,-1.2253014689541824e-05,0.0690881946540031,-2.534522711977557e-05
0.0698823118339342,0.0001670082857461,0.0698823118339342,-1.023857639988915e-05,0.0698823118339342,-1.0910349067480649e-05,0.0698823118339342,-2.568086273312984e-05
0.0706764290138652,0.0001361287607804,0.0706764290138652,-8.89613003459494e-06,0.0706764290138652,-5.539510139273676e-06,0.0706764290138652,-2.56809e-05
0.0714705461937963,5.892033161492134e-05,0.0714705461937963,-1.4266836061776909e-05,0.0714705461937963,-3.189299222591467e-06,0.0714705461937963,-2.56809e-05
0.0722646633737274,8.419246324885702e-07,0.0722646633737274,-1.5945622582548125e-05,0.0722646633737274,-5.538921616028607e-06,0.0722646633737274,-2.769500709905775e-05
0.0730587805536585,-4.1122072403840495e-05,0.0730587805536585,-1.762415889600277e-05,0.0730587805536585,-5.87471177944544e-06,0.0730587805536585,-2.131705619274062e-05
0.0738528977335895,-7.183941233349771e-05,0.0738528977335895,-1.76242e-05,0.0738528977335895,-1.0910185628429148e-05,0.0738528977335895,-1.762421053919382e-05
0.0746470149135206,-8.610517148600056e-05,0.0746470149135206,-1.594587982580661e-05,0.0746470149135206,-1.2924184209032068e-05,0.0746470149135206,-1.4938887721290576e-05
0.0754411320934517,-9.718375267756948e-05,0.0754411320934517,-1.6617042586001098e-05,0.0754411320934517,-8.896354483138282e-06,0.0754411320934517,-6.882508966276566e-06
0.0762352492733827,-0.0001002058070012,0.0762352492733827,-1.4267350110159704e-05,0.0762352492733827,-7.049787943058116e-06,0.0762352492733827,-5.539115776595322e-06
0.0770293664533138,-9.95346283632352e-05,0.0770293664533138,-1.091034181617606e-05,0.0770293664533138,-1.2252780185772006e-05,0.0770293664533138,-8.392339457095248e-06
0.0778234836332449,-0.0001015489584823,0.0778234836332449,-9.903120756780069e-06,0.0778234836332449,-1.3595772324293245e-05,0.0778234836332449,-4.867702648318026e-06
0.078617600813176,-8.9631482298422e-05,0.078617600813176,-4.867629312558089e-06,0.078617600813176,-1.242079879702785e-05,0.078617600813176,-4.867633093468121e-06
0.079411717993107,-7.234478516263994e-05,0.079411717993107,-4.196299326904964e-06,0.079411717993107,-1.1246021316920824e-05,0.079411717993107,-7.888598030992809e-06
0.0802058351730381,-4.884601835070425e-05,0.0802058351730381,-6.210255570056259e-06,0.0802058351730381,-1.560964373335312e-05,0.0802058351730381,-8.89592778461995e-06
0.0809999523529692,-2.63536495371962e-05,0.0809999523529692,-7.553139430256935e-06,0.0809999523529692,-1.76240791453854e-05,0.0809999523529692,-1.0238719430856949e-05
0.0817940695329002,-1.762453486952909e-05,0.0817940695329002,-1.3931255285615427e-05,0.0817940695329002,-2.0645384082296464e-05,0.0817940695329002,-1.1245861360765488e-05
0.0825881867128313,-2.8536871497032027e-06,0.0825881867128313,-1.6281360680622558e-05,0.0825881867128313,-2.131688876589216e-05,0.0825881867128313,-1.3595760680622556e-05
0.0833823038927624,2.7355743902553515e-05,0.0833823038927624,-1.4938762494080369e-05,0.0833823038927624,-1.913506405893117e-05,0.0833823038927624,-1.0239206235200922e-05
0.0841764210726934,-1.6511300753106316e-07,0.0841764210726934,-1.2253266927558744e-05,0.0841764210726934,-2.165234975044407e-05,0.0841764210726934,-4.8681638521357285e-06
0.0849705382526245,-5.119003232476665e-05,0.0849705382526245,-1.1917326103253914e-05,0.0849705382526245,-2.0645578309761745e-05,0.0849705382526245,1.84581793725444e-06
0.0857646554325556,-7.60343058039505e-05,0.0857646554325556,-1.1581618840562996e-05,0.0857646554325556,-2.232380580279733e-05,0.0857646554325556,4.867460435494255e-06
0.0865587726124866,-8.14067147540467e-05,0.0865587726124866,-1.3595730532767516e-05,0.0865587726124866,-2.6352161065535032e-05,0.0865587726124866,1.1750673562479974e-06
0.0873528897924177,-7.872133452144926e-05,0.0873528897924177,-1.5609974108913055e-05,0.0873528897924177,-2.467382157590579e-05,0.0873528897924177,-2.853388218083194e-06
0.0881470069723488,-8.207790678188749e-05,0.0881470069723488,-1.9302267460076228e-05,0.0881470069723488,-2.2324175252678765e-05,0.0881470069723488,-8.223980854533983e-06
0.0889411241522799,-7.267959779401809e-05,0.0889411241522799,-2.2994947304758583e-05,0.0889411241522799,-1.963865650302519e-05,0.0889411241522799,-1.325961903987402e-05
0.0897352413322109,-4.649613450034234e-05,0.0897352413322109,-2.2323949602762315e-05,0.0897352413322109,-1.8295699205524632e-05,0.0897352413322109,-1.6616851986188425e-05
0.090529358512142,-1.829707323953069e-05,0.090529358512142,-1.8967175381677832e-05,0.090529358512142,-1.762423507738047e-05,0.090529358512142,-2.0645289535717186e-05
0.0913234756920731,-1.7624220551998623e-05,0.0913234756920731,-1.2253205519986235e-05,0.0913234756920731,-1.4938682207994494e-05,0.0913234756920731,-2.4002297243067943e-05
0.0921175928720041,-1.0238866292784556e-05,0.0921175928720041,-5.539090265898493e-06,0.0921175928720041,-1.225302410646711e-05,0.0921175928720041,-2.500949096007483e-05
0.0929117100519352,-3.1899384176203988e-06,0.0929117100519352,-1.8467582199939675e-06,0.0929117100519352,-9.232052179789145e-06,0.0929117100519352,-2.5680823959795177e-05
0.0937058272318663,-6.210143142038914e-06,0.0937058272318663,1.6766442781212473e-07,0.0937058272318663,-6.882035334478823e-06,0.0937058272318663,-2.5848784614318545e-05
0.0944999444117974,-2.1823219927006364e-06,0.0944999444117974,-1.8461990037196831e-06,0.0944999444117974,-8.224516002666459e-06,0.0944999444117974,-2.635226475423749e-05
0.0952940615917284,2.1818289223402054e-06,0.0952940615917284,-5.53885139549148e-06,0.0952940615917284,-6.210517420421162e-06,0.0952940615917284,-2.63523e-05
0.0960881787716595,-1.677861814082153e-07,0.0960881787716595,-3.860574870632745e-06,0.0960881787716595,-5.874728974126549e-06,0.0960881787716595,-3.575164872445663e-05
0.0968822959515906,-4.867014280108885e-06,0.0968822959515906,-5.538810099149889e-06,0.0968822959515906,-7.217344079319911e-06,0.0968822959515906,-3.642321203965996e-05
0.0976764131315216,-1.5110072290807374e-06,0.0976764131315216,-6.8816731090240586e-06,0.0976764131315216,-6.210530169052399e-06,0.0976764131315216,-2.9710034460349323e-05
0.0984705303114527,3.944100585420228e-05,0.0984705303114527,-1.3595210795224176e-05,0.0984705303114527,-1.846722982489979e-06,0.0984705303114527,-2.232454812718408e-05
0.0992646474913838,9.88592710383312e-05,0.0992646474913838,-1.4938511209457497e-05,0.0992646474913838,-1.679599875830199e-07,0.0992646474913838,-2.0981288783930164e-05
0.1000587646713148,0.0001085951158533,0.1000587646713148,-1.577755136871139e-05,0.1000587646713148,-8.390470840070559e-07,0.1000587646713148,-1.896759675064528e-05
0.1008528818512459,8.30891963248137e-05,0.1008528818512459,-1.5610024968968422e-05,0.1008528818512459,-3.5244303798445294e-06,0.1008528818512459,-1.292529915070668e-05
0.101646999031177,7.368581146920448e-05,0.101646999031177,-1.7624197542313327e-05,0.101646999031177,-5.203327951927772e-06,0.101646999031177,-1.107810225281844e-05
0.1024411162111081,5.555397279323185e-05,0.1024411162111081,-1.7288328025123406e-05,0.1024411162111081,-8.896157399300824e-06,0.1024411162111081,-1.040642975941073e-05
0.1032352333910391,2.7351801928264285e-05,0.1032352333910391,-1.6112957292348044e-05,0.1032352333910391,-9.903396030372252e-06,0.1032352333910391,-8.559865957381057e-06
0.1040293505709702,1.502794248143916e-06,0.1040293505709702,-1.4266681860515663e-05,0.1040293505709702,-1.0910644100659295e-05,0.1040293505709702,-7.048411719208352e-06
0.1048234677509013,-1.6269488305341203e-05,0.1048234677509013,-1.3092986657472898e-05,0.1048234677509013,-1.1916625750858762e-05,0.1048234677509013,-4.198140365871884e-06
0.1056175849308323,-4.480078349099545e-05,0.1056175849308323,-1.0911340656075244e-05,0.1056175849308323,-1.2588349020857509e-05,0.1056175849308323,-6.880416088657597e-06
0.1064117021107634,-8.206431999059753e-05,0.1064117021107634,-1.09102e-05,0.1064117021107634,-1.779004785004471e-05,0.1064117021107634,-4.532811620828787e-06
0.1072058192906945,-0.0001008727215364,0.1072058192906945,-1.4937683162007392e-05,0.1072058192906945,-1.8966732577539142e-05,0.1072058192906945,-1.6884223683438114e-07
0.1079999364706256,-0.0001257170123467,0.1079999364706256,-1.6616965700182708e-05,0.1079999364706256,-1.7624307439853834e-05,0.1079999364706256,5.034942803131184e-07
0.1087940536505566,-0.0001431737751591,0.1087940536505566,-1.6281445366478267e-05,0.1087940536505566,-1.9638672192112608e-05,0.1087940536505566,-3.189480246559905e-06
0.1095881708304877,-0.0001250256459485,0.1095881708304877,-1.695265554711654e-05,0.1095881708304877,-2.36667e-05,0.1095881708304877,-8.223598834118791e-06
0.1103822880104188,-2.110571109094424e-05,0.1103822880104188,-1.62814e-05,0.1103822880104188,-2.3665847648763048e-05,0.1103822880104188,-3.522759926928401e-06
0.1111764051903498,9.819710376329428e-05,0.1111764051903498,-1.6280373415845615e-05,0.1111764051903498,-2.1315017929050292e-05,0.1111764051903498,2.179986841884699e-06
0.1119705223702809,0.0001085917480372,0.1119705223702809,-1.4268410115446689e-05,0.1119705223702809,-1.7626418544985596e-05,0.1119705223702809,-1.8439197811224648e-06
0.112764639550212,9.249221481546428e-05,0.112764639550212,-1.762267603282338e-05,0.112764639550212,-2.0308580826258708e-05,0.112764639550212,-6.543986455032076e-06
0.1135587567301431,9.61764686113343e-05,0.1135587567301431,-1.7959797146484938e-05,0.1135587567301431,-2.668604581385231e-05,0.1135587567301431,-4.196949971541594e-06
0.1143528739100741,8.443006584505616e-05,0.1143528739100741,-1.712073328372135e-05,0.1143528739100741,-2.232459303406213e-05,0.1143528739100741,-5.874453450025677e-06
0.1151469910900052,5.3544246572986734e-05,0.1151469910900052,-1.6617105650103737e-05,0.1151469910900052,-1.7624252738416146e-05,0.1151469910900052,-9.90305479490588e-06
0.1159411082699363,2.735116034421868e-05,0.1159411082699363,-1.5609176031694666e-05,0.1159411082699363,-1.7960128880463594e-05,0.1159411082699363,-1.3596257760927186e-05
0.1167352254498673,-3.307773825864892e-05,0.1167352254498673,-9.566266174135107e-06,0.1167352254498673,-1.9637732764932823e-05,0.1167352254498673,-1.6952085091088075e-05
0.1175293426297984,-7.335451272701933e-05,0.1175293426297984,-5.53903e-06,0.1175293426297984,-1.7288644680280928e-05,0.1175293426297984,-1.443521704197044e-05
0.1183234598097295,-8.358194289290381e-05,0.1183234598097295,-5.53903e-06,0.1183234598097295,-1.7623971897014085e-05,0.1183234598097295,-1.4938257811546896e-05
0.1191175769896605,-3.5777385573811485e-05,0.1191175769896605,-4.8679876941333495e-06,0.1191175769896605,-1.9637326917599957e-05,0.1191175769896605,-1.829381152933325e-05
0.1199116941695916,4.545580861896277e-05,0.1199116941695916,-6.545473484531355e-06,0.1199116941695916,-1.4940410254097156e-05,0.1199116941695916,-2.366463117669237e-05
0.1207058113495227,3.6089833274762064e-05,0.1207058113495227,-9.231071917084076e-06,0.1207058113495227,-1.0911157127937814e-05,0.1207058113495227,-2.4505800586466536e-05
0.1214999285294538,1.1583805865497813e-05,0.1214999285294538,-1.1917058261228994e-05,0.1214999285294538,-8.39268663004156e-06,0.1214999285294538,-2.6184348912705537e-05
0.1222940457093848,7.216399111470549e-06,0.1222940457093848,-1.3595742022768882e-05,0.1222940457093848,-5.538885057497893e-06,0.1222940457093848,-2.769513865148741e-05
0.1230881628893159,-1.2255548130497992e-05,0.1230881628893159,-1.258808018153482e-05,0.1230881628893159,-3.0215654737336885e-06,0.1230881628893159,-2.836608678632221e-05
0.123882280069247,-2.4667287374138896e-05,0.123882280069247,-9.56788364506824e-06,0.123882280069247,-4.365441732657594e-06,0.123882280069247,-2.6352832872306605e-05
0.124676397249178,-6.192806960819239e-06,0.124676397249178,-1.0910703232260685e-05,0.124676397249178,-8.224442255913104e-06,0.124676397249178,-2.786476128792817e-05
0.1254705144291091,2.9016370996045772e-05,0.1254705144291091,-1.1916684882460148e-05,0.1254705144291091,-7.889115039179951e-06,0.1254705144291091,-3.1385647119149565e-05
0.1262646316090402,4.749273356467692e-05,0.1262646316090402,-8.897411783278123e-06,0.1262646316090402,-8.89554273736073e-06,0.1262646316090402,-2.870344603370472e-05
0.1270587487889713,4.817248757797901e-05,0.1270587487889713,-1.2251937893058891e-05,0.1270587487889713,-1.2251937893058891e-05,0.1270587487889713,-1.7627704931707746e-05
0.1278528659689023,2.534905339405707e-05,0.1278528659689023,-9.567863340775194e-06,0.1278528659689023,-1.3763345003304673e-05,0.1278528659689023,-1.258955001711858e-05
0.1286469831488334,5.875133224561388e-06,0.1286469831488334,-8.728177811513282e-06,0.1286469831488334,-1.5106371501578748e-05,0.1286469831488334,-1.376357506494256e-05
0.1294411003287645,-1.511350508345654e-05,0.1294411003287645,-9.56732516280542e-06,0.1294411003287645,-1.560991516280542e-05,0.1294411003287645,-1.49386e-05
0.1302352175086955,-7.136054562539841e-05,0.1302352175086955,-8.89601e-06,0.1302352175086955,-1.493795626740082e-05,0.1302352175086955,-1.4938691961799884e-05
0.1310293346886266,-0.0001613273080771,0.1310293346886266,-8.89827122793026e-06,0.1310293346886266,-1.2589971943078852e-05,0.1310293346886266,-1.5271897445060977e-05
0.1318234518685577,-0.0002190031897993,0.1318234518685577,-1.4263496706765388e-05,0.1318234518685577,-1.5607916893677243e-05,0.1318234518685577,-9.571344749492697e-06
0.1326175690484888,-0.0002250827201007,0.1326175690484888,-1.9132158060987343e-05,0.1326175690484888,-1.3932411022810573e-05,0.1326175690484888,-4.534663057576514e-06
0.1334116862284198,-0.000170388623762,0.1334116862284198,-1.9973768326842307e-05,0.1334116862284198,-1.5944904031842938e-05,0.1334116862284198,-4.53193e-06
0.1342058034083509,-7.622691453159714e-05,0.1342058034083509,-1.6953548063412265e-05,0.1342058034083509,-2.0308719463960064e-05,0.1342058034083509,-4.867546881843082e-06
0.134999920588282,7.568480739817702e-05,0.134999920588282,-1.7288466425045672e-05,0.134999920588282,-1.9806250367432227e-05,0.134999920588282,2.517001354005267e-06
0.135794037768213,0.0001797676706474,0.135794037768213,-1.628146387299311e-05,0.135794037768213,-1.7288531936496554e-05,0.135794037768213,2.8532643499348826e-06
0.1365881549481441,0.0001938654758303,0.1365881549481441,-1.762347937404043e-05,0.1365881549481441,-1.7959343142910166e-05,0.1365881549481441,-8.39540800358022e-07
0.1373822721280752,0.0001911714862298,0.1373822721280752,-1.3931672564843664e-05,0.1373822721280752,-1.5106227435156336e-05,0.1373822721280752,-2.351730867600782e-06
0.1381763893080062,0.0001663278212287,0.1381763893080062,-1.4434260265818514e-05,0.1381763893080062,-1.4601420482667468e-05,0.1381763893080062,-7.723618047834338e-06
0.1389705064879373,0.000143525170935,0.1389705064879373,-1.2925337734996044e-05,0.1389705064879373,-1.1583475532069075e-05,0.1389705064879373,-1.2921169929407545e-05
0.1397646236678684,0.0001012330479804,0.1397646236678684,-9.569001112345534e-06,0.1397646236678684,-9.73613510965718e-06,0.1397646236678684,-1.5608727106331812e-05
0.1405587408477994,3.141059011867845e-05,0.1405587408477994,-7.553877407771706e-06,0.1405587408477994,-1.3594539965445672e-05,0.1405587408477994,-2.299288952550833e-05
0.1413528580277305,-3.238349524600748e-05,0.1413528580277305,-9.567049849968027e-06,0.1413528580277305,-1.5945279822876625e-05,0.1413528580277305,-2.568041979757329e-05
0.1421469752076616,-6.260685661405629e-05,0.1421469752076616,-1.0910158071909304e-05,0.1421469752076616,-1.2253115303108086e-05,0.1421469752076616,-2.3331073374705147e-05
0.1429410923875927,-7.167163906110185e-05,0.1429410923875927,-1.2924790611018451e-05,0.1429410923875927,-1.0909926573450656e-05,0.1429410923875927,-2.047777578077616e-05
0.1437352095675237,-7.199932566538737e-05,0.1437352095675237,-1.6281843021522245e-05,0.1437352095675237,-8.560841623187306e-06,0.1437352095675237,-2.1987148144042164e-05
0.1445293267474548,-4.178153050986064e-05,0.1445293267474548,-1.7960106940054733e-05,0.1445293267474548,-1.0574913921209776e-05,0.1445293267474548,-1.7619784848649113e-05
0.1453234439273859,-1.026087202589757e-05,0.1453234439273859,-1.8463047820677745e-05,0.1453234439273859,-1.158089557140924e-05,0.1453234439273859,-6.8893338909788585e-06
0.146117561107317,-3.976397059421296e-05,0.146117561107317,-1.7624663877505764e-05,0.146117561107317,-9.568523366817602e-06,0.146117561107317,-4.868743366817603e-06
0.146911678287248,-5.25316313240301e-05,0.146911678287248,-1.5610816113129666e-05,0.146911678287248,-8.225154075419778e-06,0.146911678287248,-1.0068891699644767e-05
0.1477057954671791,-1.9646874562410906e-05,0.1477057954671791,-1.4267545902609408e-05,0.1477057954671791,-9.567064097390591e-06,0.1477057954671791,-1.42661190672255e-05
0.1484999126471102,4.380171978900083e-05,0.1484999126471102,-1.2253221594698489e-05,0.1484999126471102,-1.510579062118013e-05,0.1484999126471102,-1.2924547729798991e-05
0.1492940298270412,7.838469202955264e-05,0.1492940298270412,-7.553068671341668e-06,0.1492940298270412,-2.064534867096601e-05,0.1492940298270412,-1.5945788275269824e-05
0.1500881470069723,5.420392587799643e-05,0.1500881470069723,-3.5246435399851647e-06,0.1500881470069723,-1.6617037846044563e-05,0.1500881470069723,-1.8295848615821745e-05
0.1508822641869034,-7.212493651179762e-06,0.1508822641869034,-2.517851697158028e-06,0.1508822641869034,-1.628151169715803e-05,0.1508822641869034,-1.963778564899439e-05
0.1516763813668344,7.906543534156897e-06,0.1516763813668344,-2.8553724409165474e-06,0.1516763813668344,-1.6616938962457443e-05,0.1516763813668344,-1.779224158029917e-05
0.1524704985467655,4.462471394411308e-05,0.1524704985467655,-6.879279063923852e-06,0.1524704985467655,-1.6281611745724277e-05,0.1524704985467655,-1.8295282349875648e-05
0.1532646157266966,4.215807451963398e-06,0.1532646157266966,-5.036373575782115e-06,0.1532646157266966,-1.1583874568855564e-05,0.1532646157266966,-1.9637750123184127e-05
0.1540587329066277,-5.1175367300599966e-05,0.1540587329066277,-4.196512315003413e-06,0.1540587329066277,-7.89015218265112e-06,0.1540587329066277,-1.896722585200273e-05
0.1548528500865587,-7.200337028535759e-05,0.1548528500865587,-5.538776468804956e-06,0.1548528500865587,-9.567093086006192e-06,0.1548528500865587,-1.5610633827987614e-05
0.1556469672664898,-7.569984776444202e-05,0.1556469672664898,-6.2103923212199e-06,0.1556469672664898,-9.56741e-06,0.1556469672664898,-1.7624116962422914e-05
0.1564410844464209,-5.186250801851529e-05,0.1564410844464209,-8.224967035000675e-06,0.1564410844464209,-1.0574839178943236e-05,0.1564410844464209,-1.9638221481967885e-05
0.157235201626352,-2.468121644699059e-05,0.157235201626352,-1.1582196727663106e-05,0.157235201626352,-1.3763557389292364e-05,0.157235201626352,-1.795810981701068e-05
0.158029318806283,-5.389360048819858e-05,0.158029318806283,-1.3932711584179807e-05,0.158029318806283,-1.3597415445573077e-05,0.158029318806283,-1.0907036435126625e-05
0.1588234359862141,-8.87675311394944e-05,0.1588234359862141,-1.6950656534778307e-05,0.1588234359862141,-1.762134204637107e-05,0.1588234359862141,-3.026886797478599e-06
0.1596175531661451,-9.81865103087928e-05,0.1596175531661451,-1.846254989014973e-05,0.1596175531661451,-1.84629277292557e-05,0.1596175531661451,-3.189045540223509e-06
0.1604116703460762,-9.718511812905114e-05,0.1604116703460762,-1.645003625810227e-05,0.1604116703460762,-1.963791216201461e-05,0.1604116703460762,-5.70582468567579e-06
0.1612057875260073,-9.953397116796558e-05,0.1612057875260073,-1.829510590430727e-05,0.1612057875260073,-1.9974010166852226e-05,0.1612057875260073,-4.867854580193441e-06
0.1619999047059384,-8.275171448525791e-05,0.1619999047059384,-1.661730144972597e-05,0.1619999047059384,-1.6953162609506743e-05,0.1619999047059384,-3.021511593498388e-06
0.1627940218858694,-4.414350243678761e-05,0.1627940218858694,-1.896696298697036e-05,0.1627940218858694,-1.393146298697036e-05,0.1627940218858694,-4.867764171681167e-06
0.1635881390658005,-1.157654352195438e-05,0.1635881390658005,-1.7623729628319982e-05,0.1635881390658005,-1.2589229168140022e-05,0.1635881390658005,-9.736112546918575e-06
0.1643822562457316,1.7304642512908298e-05,0.1643822562457316,-1.4938058301687027e-05,0.1643822562457316,-1.561e-05,0.1643822562457316,-1.4603550037975569e-05
0.1651763734256627,6.732074543174178e-05,0.1651763734256627,-1.3259311578648004e-05,0.1651763734256627,-1.5609684631459203e-05,0.1651763734256627,-1.6618361474163196e-05
0.1659704906055937,9.548813174837232e-05,0.1659704906055937,-1.1582675494982288e-05,0.1659704906055937,-1.4939030197992916e-05,0.1659704906055937,-1.9300979208028337e-05
0.1667646077855248,5.94364262960886e-05,0.1667646077855248,-1.3259270866503045e-05,0.1667646077855248,-1.6951805039803657e-05,0.1667646077855248,-2.299347595570399e-05
0.1675587249654559,3.6766849084075246e-05,0.1675587249654559,-1.5273602299019206e-05,0.1675587249654559,-1.7623967433006403e-05,0.1675587249654559,-2.1988648815851285e-05
0.1683528421453869,5.0855496927524256e-05,0.1683528421453869,-1.7623732817940553e-05,0.1683528421453869,-1.4267867402942066e-05,0.1683528421453869,-1.9638867182059448e-05
0.169146959325318,6.26071981017939e-05,0.169146959325318,-1.4938737576732822e-05,0.169146959325318,-1.4938565605816794e-05,0.169146959325318,-1.96384e-05
0.1699410765052491,3.339798910054462e-05,0.1699410765052491,-1.3931402961667033e-05,0.1699410765052491,-1.4602802961667033e-05,0.1699410765052491,-2.1316835307778025e-05
0.1707351936851801,-8.232962683152358e-06,0.1707351936851801,-1.292390866411851e-05,0.1707351936851801,-1.3595963778627165e-05,0.1707351936851801,-2.0643288988533298e-05
0.1715293108651112,-4.246859095789019e-05,0.1715293108651112,-1.0909543667948924e-05,0.1715293108651112,-1.4266478010891273e-05,0.1715293108651112,-1.1579893534321051e-05
0.1723234280450423,-4.934274895644289e-05,0.1723234280450423,-9.232917573178557e-06,0.1723234280450423,-1.2422128374382263e-05,0.1723234280450423,-7.220659694580885e-06
0.1731175452249733,-4.716684982945285e-05,0.1731175452249733,-3.695852559843375e-06,0.1731175452249733,-1.02400497721764e-05,0.1731175452249733,-8.895048620485625e-06
0.1739116624049044,-5.8238989783088207e-05,0.1739116624049044,-4.531573165385471e-06,0.1739116624049044,-1.4601044460004447e-05,0.1739116624049044,-1.0909343601176955e-05
0.1747057795848355,-2.5018725845918645e-05,0.1747057795848355,-7.048971072951863e-06,0.1747057795848355,-1.493850680935678e-05,0.1747057795848355,-9.567782759796867e-06
0.1754998967647666,4.816318490995343e-05,0.1754998967647666,-8.895769940376805e-06,0.1754998967647666,-1.258900553208431e-05,0.1754998967647666,-3.5256156513307e-06
0.1762940139446976,3.9443232188490245e-05,0.1762940139446976,-1.1581564625603769e-05,0.1762940139446976,-1.225304716609581e-05,0.1762940139446976,-7.049773175483335e-06
0.1770881311246287,-3.8434728068286e-05,0.1770881311246287,-9.567520876277694e-06,0.1770881311246287,-1.4938433683106294e-05,0.1770881311246287,-1.2924122805177155e-05
0.1778822483045598,-2.1617326148197062e-05,0.1778822483045598,-1.0239324910835803e-05,0.1778822483045598,-1.393249731495172e-05,0.1778822483045598,-1.1245060145789977e-05
0.1786763654844909,9.114672988397402e-05,0.1786763654844909,-1.1918380316987613e-05,0.1786763654844909,-1.7119674014010616e-05,0.1786763654844909,-8.559538349606138e-06
0.1794704826644219,0.000101206446497,0.1794704826644219,-1.4265670834119694e-05,0.1794704826644219,-1.510771071361169e-05,0.1794704826644219,-6.882912254835709e-06
0.180264599844353,4.215997621669941e-05,0.180264599844353,-1.3260607552584476e-05,0.180264599844353,-1.3261030487872818e-05,0.180264599844353,-9.901577352326064e-06
0.181058717024284,-5.522041039689712e-06,0.181058717024284,-1.2253358922976695e-05,0.181058717024284,-1.2924519640992232e-05,0.181058717024284,-9.9031e-06
0.1818528342042151,-2.030671570352066e-05,0.1818528342042151,-1.3931149511051855e-05,0.1818528342042151,-1.2588770097789629e-05,0.1818528342042151,-1.3259399022103712e-05
0.1826469513841462,-3.2394160040989584e-05,0.1826469513841462,-1.4267179445412964e-05,0.1826469513841462,-1.3931417781651856e-05,0.1826469513841462,-1.4602817781651856e-05
0.1834410685640773,-4.783804359016e-05,0.1834410685640773,-1.6281631908924444e-05,0.1834410685640773,-1.8295223147997778e-05,0.1834410685640773,-1.0238655057785747e-05
0.1842351857440083,-5.992384916818111e-05,0.1842351857440083,-1.8967e-05,0.1842351857440083,-1.3931578531818147e-05,0.1842351857440083,-8.560977506418185e-06
0.1850293029239394,-6.697356284285762e-05,0.1850293029239394,-1.8966040626547456e-05,0.1850293029239394,-1.4268990794881352e-05,0.1850293029239394,-1.1413891889931966e-05
0.1858234201038705,-7.133271677143517e-05,0.1858234201038705,-1.6451036556572072e-05,0.1858234201038705,-1.8963571829145515e-05,0.1858234201038705,-1.1916932659508422e-05
0.1866175372838016,-7.066489126908767e-05,0.1866175372838016,-1.493948032630897e-05,0.1866175372838016,-1.62829650763507e-05,0.1866175372838016,-1.1246291269087676e-05
0.1874116544637326,-6.831562263938872e-05,0.1874116544637326,-1.3596384365364982e-05,0.1874116544637326,-1.4939184365364982e-05,0.1874116544637326,-1.3594777360611282e-05
0.1882057716436637,-6.562987235634899e-05,0.1882057716436637,-7.722759586674385e-06,0.1882057716436637,-1.49386e-05,0.1882057716436637,-1.3763551740310796e-05
0.1889998888235948,-5.992299908391284e-05,0.1889998888235948,-7.553243502468024e-06,0.1889998888235948,-1.3595988019744198e-05,0.1889998888235948,-1.292451750533909e-05
0.1897940060035258,-3.709449186297523e-05,0.1897940060035258,-7.553225076457474e-06,0.1897940060035258,-1.225298096307654e-05,0.1897940060035258,-1.3260143150531226e-05
0.1905881231834569,-9.563660148185157e-06,0.1905881231834569,-8.22492248726338e-06,0.1905881231834569,-9.735442283590544e-06,0.1905881231834569,-1.8967026032977423e-05
0.191382240363388,1.461001369674924e-05,0.191382240363388,-1.0240019496060863e-05,0.191382240363388,-1.0909031322329496e-05,0.191382240363388,-1.9135358950830795e-05
0.192176357543319,3.81155388831225e-05,0.192176357543319,-1.426735097772605e-05,0.192176357543319,-7.050349395269823e-06,0.192176357543319,-2.098270973228649e-05
0.1929704747232501,6.863011582793372e-05,0.1929704747232501,-1.4602678194459217e-05,0.1929704747232501,-8.559311881673726e-06,0.1929704747232501,-2.4335882010664703e-05
0.1937645919031812,0.0001045515381419,0.1937645919031812,-1.493842745830974e-05,0.1937645919031812,-1.124451967161769e-05,0.1937645919031812,-2.232493525014155e-05
0.1945587090831123,0.000120678095926,0.1945587090831123,-1.1582829984876665e-05,0.1945587090831123,-1.0910322998487666e-05,0.1945587090831123,-2.098169195731126e-05
0.1953528262630433,0.0001173277345528,0.1953528262630433,-9.567850729522252e-06,0.1953528262630433,-1.1581453089429876e-05,0.1953528262630433,-2.232360620074098e-05
0.1961469434429744,7.838837381581266e-05,0.1961469434429744,-7.217687383864987e-06,0.1961469434429744,-8.896201295947458e-06,0.1961469434429744,-2.7862605447077715e-05
0.1969410606229055,2.802710913397271e-05,0.1969410606229055,-8.224866310437706e-06,0.1969410606229055,-1.1581292428085564e-05,0.1969410606229055,-2.702334116431829e-05
0.1977351778028366,-2.0317167038840512e-05,0.1977351778028366,-1.1582051045936352e-05,0.1977351778028366,-7.55337034640612e-06,0.1977351778028366,-2.2322922756197872e-05
0.1985292949827676,-5.32223998396529e-05,0.1985292949827676,-1.3596111383067412e-05,0.1985292949827676,-8.226602966656179e-06,0.1985292949827676,-1.795877895416876e-05
0.1993234121626987,-9.144950276932694e-05,0.1993234121626987,-1.4434379480423604e-05,0.1993234121626987,-1.3591828445491492e-05,0.1993234121626987,-1.494083400357026e-05
0.2001175293426297,-0.0001310665191764,0.2001175293426297,-1.5273802490263447e-05,0.2001175293426297,-1.6279808063685827e-05,0.2001175293426297,-1.5609602015921457e-05
0.2009116465225608,-0.0001357879076272,0.2009116465225608,-1.52743e-05,0.2009116465225608,-1.4268096693020076e-05,0.2009116465225608,-1.2925595590693435e-05
0.2017057637024919,-9.90420395925303e-05,0.2017057637024919,-1.66167003774637e-05,0.2017057637024919,-1.4938400188731849e-05,0.2017057637024919,-4.870027726289695e-06
0.202499880882423,-1.9314661024972334e-05,0.202499880882423,-1.8966647462979533e-05,0.202499880882423,-1.7959446738116547e-05,0.202499880882423,1.1740334807337529e-06
0.203293998062354,6.831438618223556e-05,0.203293998062354,-1.7288504096144453e-05,0.203293998062354,-1.762420081922889e-05,0.203293998062354,-1.510633446217678e-06
0.2040881152422851,9.91988512760263e-05,0.2040881152422851,-1.695260510410515e-05,0.2040881152422851,-1.930304106781599e-05,0.2040881152422851,-3.1898708552514485e-06
0.2048822324222162,9.886231559541336e-05,0.2048822324222162,-1.5609901732823708e-05,0.2048822324222162,-2.165304218765716e-05,0.2048822324222162,-8.22461e-06
0.2056763496021472,9.583599506581942e-05,0.2056763496021472,-1.5274152375546107e-05,0.2056763496021472,-2.316231425327665e-05,0.2056763496021472,-8.22534811787195e-06
0.2064704667820783,8.242300628544622e-05,0.2064704667820783,-1.4938825158812942e-05,0.2064704667820783,-2.115035095287765e-05,0.2064704667820783,-9.901974212642436e-06
0.2072645839620094,3.2756632974687004e-05,0.2072645839620094,-1.594517230244292e-05,0.2072645839620094,-1.9135855395114152e-05,0.2072645839620094,-1.694910611710046e-05
0.2080587011419405,-1.1229347441494524e-05,0.2080587011419405,-9.569810759914724e-06,0.2080587011419405,-2.4503978304270583e-05,0.2080587011419405,-2.097968372820294e-05
0.2088528183218715,-2.1985841991023745e-05,0.2088528183218715,-5.539951748789821e-06,0.2088528183218715,-2.568063116670891e-05,0.2088528183218715,-2.299483914619833e-05
0.2096469355018026,8.373916730890448e-07,0.2096469355018026,-5.706856366023368e-06,0.2096469355018026,-2.0645909035545365e-05,0.2096469355018026,-2.064569087892213e-05
0.2104410526817337,3.340173271650361e-05,0.2104410526817337,-6.210375453414099e-06,0.2104410526817337,-1.76241109055012e-05,0.2104410526817337,-2.0645388631876503e-05
0.2112351698616647,2.936871648141673e-05,0.2112351698616647,-5.53874273269088e-06,0.2112351698616647,-1.6279389133114784e-05,0.2112351698616647,-1.896570729710896e-05
0.2120292870415958,6.54115051925742e-06,0.2120292870415958,-4.196472414751517e-06,0.2120292870415958,-6.880607929853001e-06,0.2120292870415958,-1.2923672755745448e-05
0.2128234042215269,-7.207205433429845e-06,0.2128234042215269,-4.867126848217826e-06,0.2128234042215269,-3.5273457514168018e-06,0.2128234042215269,-1.0911709455346522e-05
0.2136175214014579,-1.3927453021361271e-05,0.2136175214014579,-9.564577118569504e-06,0.2136175214014579,-4.19582530093059e-06,0.2136175214014579,-1.4936171805583536e-05
0.214411638581389,4.24402286272444e-05,0.214411638581389,-1.2922871941230856e-05,0.214411638581389,-5.5384187746715945e-06,0.214411638581389,-1.896516632401478e-05
0.2152057557613201,9.817465841278114e-05,0.2152057557613201,-1.3763341857556467e-05,0.2152057557613201,-6.210213476817012e-06,0.2152057557613201,-2.131617715809335e-05
0.2159998729412512,3.5426245578326415e-05,0.2159998729412512,-1.3595826851962278e-05,0.2159998729412512,-7.217358840219248e-06,0.2159998729412512,-1.896737603948842e-05
0.2167939901211822,-3.507962289162677e-05,0.2167939901211822,-1.2253016706897251e-05,0.2167939901211822,-8.560293293227166e-06,0.2167939901211822,-2.0309783293102748e-05
0.2175881073011133,-5.824624050926897e-05,0.2175881073011133,-1.091083513069574e-05,0.2175881073011133,-4.86763e-06,0.2175881073011133,-2.400258146591307e-05
0.2183822244810444,-7.704517274202178e-05,0.2183822244810444,-1.5610427079427834e-05,0.2183822244810444,-4.867867271374961e-06,0.2183822244810444,-2.534444072255303e-05
0.2191763416609755,-8.54373197535679e-05,0.2191763416609755,-1.7120816428260696e-05,0.2191763416609755,-5.707952029565301e-06,0.2191763416609755,-2.2658878687067608e-05
0.2199704588409065,-9.01318008988786e-05,0.2199704588409065,-1.7623857197837154e-05,0.2199704588409065,-8.222896166168614e-06,0.2199704588409065,-2.0982342492355287e-05
0.2207645760208376,-8.359239547858279e-05,0.2207645760208376,-1.52755547967678e-05,0.2207645760208376,-8.560130743318886e-06,0.2207645760208376,-2.2323183026673423e-05
0.2215586932007686,-6.328704760749175e-05,0.2215586932007686,-1.3932018853914135e-05,0.2215586932007686,-1.0909292009514232e-05,0.2215586932007686,-1.896829709614564e-05
0.2223528103806997,-5.455308442717418e-05,0.2223528103806997,-1.695207846751663e-05,0.2223528103806997,-1.6783497032111986e-05,0.2223528103806997,-1.024088442717418e-05
0.2231469275606308,-7.066302990960311e-05,0.2231469275606308,-1.7624138745853324e-05,0.2231469275606308,-1.930247029238829e-05,0.2231469275606308,-7.049960955372041e-06
0.2239410447405619,-0.0001008779836725,0.2239410447405619,-1.1581637832258508e-05,0.2239410447405619,-1.9973816258061187e-05,0.2239410447405619,-5.87470108443423e-06
0.2247351619204929,-0.0001183298923993,0.2247351619204929,-1.2253821511982296e-05,0.2247351619204929,-1.4939010755991149e-05,0.2247351619204929,-5.538893081336284e-06
0.225529279100424,-9.81744755169863e-05,0.225529279100424,-1.6282107124621535e-05,0.225529279100424,-1.69528e-05,0.225529279100424,-4.867217510637437e-06
0.2263233962803551,-4.8881574435119495e-05,0.2263233962803551,-1.8294070425020465e-05,0.2263233962803551,-1.69528e-05,0.2263233962803551,-3.6935722520713966e-06
0.2271175134602862,-1.6636847752338145e-05,0.2271175134602862,-1.4940657070301271e-05,0.2271175134602862,-1.561082282812051e-05,0.2271175134602862,-6.879865789341494e-06
0.2279116306402172,4.277395909556192e-05,0.2279116306402172,-1.292533698296528e-05,0.2279116306402172,-1.711989728603547e-05,0.2279116306402172,-1.1243869879545664e-05
0.2287057478201483,0.000103207808478,0.2287057478201483,-8.226102685573134e-06,0.2287057478201483,-1.695285329443213e-05,0.2287057478201483,-8.896756341198533e-06
0.2294998650000794,0.0001190023173441,0.2294998650000794,-8.56025292257765e-06,0.2294998650000794,-1.69528e-05,0.2294998650000794,-1.1245500459743794e-05
0.2302939821800104,9.248549519887228e-05,0.2302939821800104,-5.539097807528963e-06,0.2302939821800104,-1.7624184931560482e-05,0.2302939821800104,-1.8631134247165307e-05
0.2310880993599415,5.588829684827497e-05,0.2310880993599415,-6.210546026948536e-06,0.2310880993599415,-1.695273698026881e-05,0.2310880993599415,-1.99741e-05
0.2318822165398726,1.1906313792291568e-05,0.2318822165398726,-7.217794653829109e-06,0.2318822165398726,-1.6448147163503486e-05,0.2318822165398726,-1.9973916895629124e-05
0.2326763337198036,-2.837241855220127e-05,0.2326763337198036,-8.225173671638216e-06,0.2326763337198036,-1.2587854492542675e-05,0.2326763337198036,-1.93027e-05
0.2334704508997347,-4.245616165499376e-05,0.2334704508997347,-9.566482538570834e-06,0.2334704508997347,-1.057589119214375e-05,0.2334704508997347,-1.93027e-05
0.2342645680796658,-2.032185248125415e-05,0.2342645680796658,-9.902917391263254e-06,0.2342645680796658,-9.567957837089842e-06,0.2342645680796658,-1.762511307088274e-05
0.2350586852595969,1.0394524025702951e-05,0.2350586852595969,-1.158093464513022e-05,0.2350586852595969,-1.040636730670917e-05,0.2350586852595969,-1.4939664567791648e-05
0.2358528024395279,4.749207024346847e-05,0.2358528024395279,-1.2924065888914544e-05,0.2358528024395279,-8.225152940466533e-06,0.2358528024395279,-8.561897025167746e-06
0.236646919619459,8.039646952238387e-05,0.236646919619459,-1.3595732030862455e-05,0.236646919619459,-1.0909928124462176e-05,0.236646919619459,-1.847019688338386e-06
0.2374410367993901,4.884220185640674e-05,0.2374410367993901,-1.2253155586338204e-05,0.2374410367993901,-1.3595807776999567e-05,0.2374410367993901,-1.6794235138580128e-07
0.2382351539793211,7.885850229202345e-06,0.2382351539793211,-1.560941408347218e-05,0.2382351539793211,-1.376389296796034e-05,0.2382351539793211,-2.18204e-06
0.2390292711592522,-7.90184852232352e-06,0.2390292711592522,-1.2588642732530247e-05,0.2390292711592522,-1.5275216006651363e-05,0.2390292711592522,-2.1818682487528694e-06
0.2398233883391833,-4.579361424636773e-05,0.2398233883391833,-1.2420929179686946e-05,0.2398233883391833,-1.79578337405166e-05,0.2398233883391833,-1.678877423653138e-06
0.2406175055191144,-8.205572109351659e-05,0.2406175055191144,-1.3762763741897756e-05,0.2406175055191144,-1.7792104563401373e-05,0.2406175055191144,-4.36240749002323e-06
0.2414116226990454,-6.999884276762689e-05,0.2414116226990454,-1.124709638616276e-05,0.2414116226990454,-1.6282117822193853e-05,0.2414116226990454,-8.390545753628175e-06
0.2422057398789765,-5.287810885137838e-05,0.2422057398789765,-9.5679598873258e-06,0.2422057398789765,-1.4939039912481506e-05,0.2422057398789765,-6.882314898265612e-06
0.2429998570589076,2.700931656157788e-05,0.2429998570589076,-1.1749007183835994e-05,0.2429998570589076,-1.49386e-05,0.2429998570589076,-6.378360652376677e-06
0.2437939742388386,4.515081185062408e-05,0.2437939742388386,-1.35957400939442e-05,0.2437939742388386,-1.7959801974563268e-05,0.2437939742388386,-1.3931254937057063e-05
0.2445880914187697,1.057531168123564e-05,0.2445880914187697,-1.7288384045537763e-05,0.2445880914187697,-1.8463110119601262e-05,0.2445880914187697,-2.0981470548898184e-05
0.2453822085987008,1.7633107611146606e-05,0.2453822085987008,-1.6281047221239985e-05,0.2453822085987008,-1.5945964584070008e-05,0.2453822085987008,-2.332976530061183e-05
0.2461763257786318,5.152447258475782e-05,0.2461763257786318,-1.493832487072523e-05,0.2461763257786318,-1.695183704753831e-05,0.2461763257786318,-1.863116243536261e-05
0.2469704429585629,3.878213823785095e-05,0.2469704429585629,-1.4267670437258896e-05,0.2469704429585629,-1.4604546530406144e-05,0.2469704429585629,-1.829583521862945e-05
0.247764560138494,-1.356678852996534e-05,0.247764560138494,-1.3596171943343988e-05,0.247764560138494,-1.2254301801703955e-05,0.247764560138494,-2.2992696451990265e-05
0.2485586773184251,-2.651494752424849e-05,0.2485586773184251,-1.4602490714591832e-05,0.2485586773184251,-1.594419928683671e-05,0.2485586773184251,-2.567980857224488e-05
0.2493527944983561,-3.004408771763953e-05,0.2493527944983561,-1.2253608196867583e-05,0.2493527944983561,-1.6616926229466404e-05,0.2493527944983561,-2.1989255712052955e-05
0.2501469116782872,-3.172331328967898e-05,0.2501469116782872,-1.460263860555056e-05,0.2501469116782872,-1.6952762657935797e-05,0.2501469116782872,-1.829601076270626e-05
0.2509410288582183,-2.903772918406275e-05,0.2509410288582183,-1.191722679316975e-05,0.2509410288582183,-1.4938502390893e-05,0.2509410288582183,-1.712064270580158e-05
0.2517351460381494,-2.433711210893668e-05,0.2517351460381494,-9.903532210387016e-06,0.2517351460381494,-1.225330872170501e-05,0.2517351460381494,-1.829473557922597e-05
0.2525292632180804,-1.8964388048912197e-05,0.2525292632180804,-1.2252666557322244e-05,0.2525292632180804,-1.3931833442677754e-05,0.2525292632180804,-1.3595911147559251e-05
0.2533233803980115,-1.1084248400159788e-05,0.2533233803980115,-1.1246684907122784e-05,0.2533233803980115,-1.4937815092877216e-05,0.2533233803980115,-1.3931238364292406e-05
0.2541174975779426,-1.0239331086691156e-05,0.2541174975779426,-1.1749081398607176e-05,0.2541174975779426,-1.443531866467016e-05,0.2541174975779426,-1.7118582022439217e-05
0.2549116147578736,-6.547911657298727e-06,0.2549116147578736,-9.5684686832082e-06,0.2549116147578736,-1.5273892778694384e-05,0.2549116147578736,-1.7623955657512798e-05
0.2557057319378047,5.8705266024716e-06,0.2557057319378047,-1.0909746660912855e-05,0.2557057319378047,-1.7623406650689325e-05,0.2557057319378047,-1.2925986698621348e-05
0.2564998491177358,3.86091275257896e-06,0.2564998491177358,-1.09102e-05,0.2564998491177358,-1.577815086777404e-05,0.2564998491177358,-8.896775507058199e-06
0.2572939662976669,-1.7958973804280533e-05,0.2572939662976669,-9.231781245628669e-06,0.2572939662976669,-1.460294987011488e-05,0.2572939662976669,-8.392481373815939e-06
0.2580880834775979,-3.239539411588768e-05,0.2580880834775979,-9.903452939919776e-06,0.2580880834775979,-1.2589123527903732e-05,0.2580880834775979,-1.02388e-05
0.258882200657529,-3.7100977927127305e-05,0.258882200657529,-1.3259675814027092e-05,0.258882200657529,-1.6617184837194582e-05,0.258882200657529,-1.0238460653748846e-05
0.2596763178374601,-6.195874601240043e-05,0.2596763178374601,-1.1582405268191292e-05,0.2596763178374601,-1.695320263409565e-05,0.2596763178374601,-8.894399471613322e-06
0.2604704350173911,-0.0001177902780981,0.2604704350173911,-1.359436856859022e-05,0.2604704350173911,-1.795918428429511e-05,0.2604704350173911,-4.870492848606158e-06
0.2612645521973222,-0.0001991910878178,0.2612645521973222,-1.5608864024995367e-05,0.2612645521973222,-1.6785562680285198e-05,0.2612645521973222,-7.719460707716599e-06
0.2620586693772533,-0.000270375365542,0.2620586693772533,-1.5274439785964813e-05,0.2620586693772533,-1.5946049444091958e-05,0.2620586693772533,-3.5265773203961337e-06
0.2628527865571843,-0.000288528126837,0.2628527865571843,-1.493869024276223e-05,0.2628527865571843,-1.3260821942097851e-05,0.2628527865571843,-2.182400968360729e-06
0.2636469037371154,-0.0002187164654356,0.2636469037371154,-1.6952555802642096e-05,0.2636469037371154,-1.2588781399119304e-05,0.2636469037371154,-7.216909509029992e-06
0.2644410209170465,-4.716078023828738e-05,0.2644410209170465,-1.6281333671360482e-05,0.2644410209170465,-8.392420203870045e-06,0.2644410209170465,-9.567471905237396e-06
0.2652351380969776,0.0001358160404983,0.2652351380969776,-1.3763220494200164e-05,0.2652351380969776,-6.882199512756862e-06,0.2652351380969776,-1.1917708707918898e-05
0.2660292552769086,0.0002855483263857,0.2660292552769086,-1.158203117714828e-05,0.2660292552769086,-9.06488404251614e-06,0.2660292552769086,-1.4269787030779386e-05
0.2668233724568397,0.0003985526994242,0.2668233724568397,-1.2923340044080992e-05,0.2668233724568397,-1.2250482612585982e-05,0.2668233724568397,-2.2317540343422207e-05
0.2676174896367708,0.000401828950191,0.2676174896367708,-1.258891577951644e-05,0.2676174896367708,-1.091106311806576e-05,0.2676174896367708,-3.071100551208899e-05
0.2684116068167018,0.0003067081275245,0.2684116068167018,-7.5557135348036866e-06,0.2684116068167018,-7.554882353234504e-06,0.2684116068167018,-3.340067010948931e-05
0.2692057239966329,0.0002194093402089,0.2692057239966329,-6.210886772444931e-06,0.2692057239966329,-4.8685635414137485e-06,0.2692057239966329,-2.971058362422356e-05
0.269999841176564,0.000168027273916,0.269999841176564,-4.1966328974516185e-06,0.269999841176564,1.1737313076451448e-06,0.269999841176564,-2.769550289945191e-05
0.270793958356495,0.0001354557078557,0.270793958356495,-4.531912393293952e-06,0.270793958356495,4.196071540170043e-06,0.270793958356495,-2.8702147179881852e-05
0.2715880755364261,0.0001069084070993,0.2715880755364261,-4.196357745986222e-06,0.2715880755364261,2.517468540920886e-06,0.2715880755364261,-2.1652025143062e-05
0.2723821927163572,-1.4949355271742787e-05,0.2723821927163572,-5.5402521882055655e-06,0.2723821927163572,-3.377757231047667e-07,0.2723821927163572,-1.5608696324813826e-05
0.2731763098962882,-5.925145429046529e-05,0.2731763098962882,-1.0575546864744469e-05,0.2731763098962882,-8.896271716186117e-06,0.2731763098962882,-1.0238734590443805e-05
0.2739704270762193,-6.092809037413095e-05,0.2739704270762193,-1.3258164598609517e-05,0.2739704270762193,-9.56692614965238e-06,0.2739704270762193,-1.0071120926553965e-05
0.2747645442561504,-9.078925100180438e-05,0.2747645442561504,-1.1750267118682004e-05,0.2747645442561504,-1.158044388576282e-05,0.2747645442561504,-1.0238703685367816e-05
0.2755586614360815,-0.0001075838429975,0.2755586614360815,-1.309162742615897e-05,0.2755586614360815,-1.6950509704635885e-05,0.2755586614360815,-9.567696282656486e-06
0.2763527786160125,-0.0001129615021728,0.2763527786160125,-1.2253233986703134e-05,0.2763527786160125,-1.493916160154606e-05,0.2763527786160125,-1.0238612802272857e-05
0.2771468957959436,-0.0001136339119383,0.2771468957959436,-1.2253e-05,0.2771468957959436,-1.8966471315339405e-05,0.2771468957959436,-6.210948682035808e-06
0.2779410129758747,-0.0001018837366747,0.2779410129758747,-1.35958e-05,0.2779410129758747,-2.2323867084749056e-05,0.2779410129758747,-6.8818913195910525e-06
0.2787351301558057,-8.576912900209622e-05,0.2787351301558057,-1.35958e-05,0.2787351301558057,-2.0310020117400445e-05,0.2787351301558057,-1.1246065088050332e-05
0.2795292473357368,-7.435673003098859e-05,0.2795292473357368,-1.3596008882029826e-05,0.2795292473357368,-2.1652704441014912e-05,0.2795292473357368,-1.225268667695526e-05
0.2803233645156679,-7.284780750016613e-05,0.2803233645156679,-1.4266663315496134e-05,0.2803233645156679,-2.198803165774807e-05,0.2803233645156679,-1.1246705026755798e-05
0.2811174816955989,-8.69366963107794e-05,0.2811174816955989,-1.69510469039051e-05,0.2811174816955989,-2.2994642654242045e-05,0.2811174816955989,-1.66135938078102e-05
0.2819115988755301,-9.969595548576764e-05,0.2819115988755301,-1.3597495938092588e-05,0.2819115988755301,-2.232423918761852e-05,0.2819115988755301,-1.5610508781427776e-05
0.2827057160554611,-8.342692240078199e-05,0.2827057160554611,-1.6280439595146573e-05,0.2827057160554611,-1.963936036909215e-05,0.2827057160554611,-1.2254200506066782e-05
0.2834998332353922,-5.388580463055544e-05,0.2834998332353922,-1.4267623044424444e-05,0.2834998332353922,-1.82958820296163e-05,0.2834998332353922,-1.4938035940767405e-05
0.2842939504153233,-4.0116859526015365e-05,0.2842939504153233,-1.42672e-05,0.2842939504153233,-1.6617204821007353e-05,0.2842939504153233,-1.49386e-05
0.2850880675952543,-2.8029456795461085e-05,0.2850880675952543,-1.29244e-05,0.2850880675952543,-1.5945985790011098e-05,0.2850880675952543,-1.2923542633372e-05
0.2858821847751854,-1.225487493288857e-05,0.2858821847751854,-1.2925103099833212e-05,0.2858821847751854,-1.93027e-05,0.2858821847751854,-2.85000263700048e-06
0.2866763019551165,-2.0317513984691853e-05,0.2866763019551165,-1.594710255302991e-05,0.2866763019551165,-1.9303210019283605e-05,0.2866763019551165,1.191857504820901e-05
0.2874704191350475,-4.060466076361752e-05,0.2874704191350475,-1.963570193709461e-05,0.2874704191350475,-2.064451888621622e-05,0.2874704191350475,1.5271847215540558e-05
0.2882645363149786,-7.400199369384873e-05,0.2882645363149786,-1.695436835326627e-05,0.2882645363149786,-2.165201186752515e-05,0.2882645363149786,6.551217136435641e-06
0.2890586534949096,-0.0001102611779404,0.2890586534949096,-1.7959460497132893e-05,0.2890586534949096,-1.6619297514335543e-05,0.2890586534949096,1.1772840065631578e-06
0.2898527706748408,-0.000112458369789,0.2898527706748408,-1.76242969577531e-05,0.2898527706748408,-1.5610290873259298e-05,0.2898527706748408,-2.1810704282454617e-06
0.2906468878547718,-7.134170826124953e-05,0.2906468878547718,-1.695289482910099e-05,0.2906468878547718,-1.695261034179802e-05,0.2906468878547718,-1.023766205643775e-05
0.2914410050347029,-4.195738283714435e-06,0.2914410050347029,-1.5945697871347913e-05,0.2914410050347029,-1.9638385099435404e-05,0.2914410050347029,-2.030986811623264e-05
0.292235122214634,7.335252856177813e-05,0.292235122214634,-1.560989665629062e-05,0.292235122214634,-1.7288034953307797e-05,0.292235122214634,-3.1053236780803165e-05
0.293029239394565,8.91238565204023e-05,0.293029239394565,-1.4937386947086932e-05,0.293029239394565,-1.4266593473543463e-05,0.293029239394565,-3.843770217548551e-05
0.2938233565744961,7.571086774002956e-05,0.2938233565744961,-1.091346034628908e-05,0.2938233565744961,-1.225463017314454e-05,0.2938233565744961,-3.910835660895182e-05
0.2946174737544272,8.308050512083974e-05,0.2946174737544272,-6.213534909846428e-06,0.2946174737544272,-6.885379898860996e-06,0.2946174737544272,-4.397327386278327e-05
0.2954115909343582,0.0001233482460495,0.2954115909343582,-3.0229330270907684e-06,0.2954115909343582,-3.8620865565903775e-06,0.2954115909343582,-4.7835011085755705e-05
0.2962057081142893,0.0001424969657014,0.2962057081142893,-4.531374667216586e-06,0.2962057081142893,-1.5115038530387231e-06,0.2962057081142893,-4.0789991533383175e-05
0.2969998252942204,0.000159285306755,0.2969998252942204,-9.566302030908204e-06,0.2969998252942204,-1.846266135100504e-06,0.2969998252942204,-3.306799889268841e-05
0.2977939424741515,0.00013444879982,0.2977939424741515,-1.225280542714918e-05,0.2977939424741515,-1.510664321696916e-06,0.2977939424741515,-3.105224593018149e-05
0.2985880596540825,6.56272588375996e-05,0.2985880596540825,-1.0574146900423318e-05,0.2985880596540825,-4.196406549788341e-06,0.2985880596540825,-3.3065820791392375e-05
0.2993821768340136,4.112354858824975e-05,0.2993821768340136,-5.87434617868567e-06,0.2993821768340136,-6.545746178685669e-06,0.2993821768340136,-2.668642996339716e-05
0.3001762940139447,4.312625054914678e-05,0.3001762940139447,-4.196726606194881e-06,0.3001762940139447,-4.868374905594033e-06,0.3001762940139447,-1.9636041120574315e-05
0.3009704111938757,1.328222814884948e-05,0.3009704111938757,-5.538035473127499e-06,0.3009704111938757,-6.880328217097615e-06,0.3009704111938757,-1.326482400264438e-05
0.3017645283738068,-4.310380064097108e-05,0.3017645283738068,-9.229516593688738e-06,0.3017645283738068,-7.552821196692542e-06,0.3017645283738068,-9.56960341225114e-06
0.3025586455537379,-9.950942391413276e-05,0.3025586455537379,-8.560609716902251e-06,0.3025586455537379,-1.1076526472871013e-05,0.3025586455537379,-8.560759575353376e-06
0.3033527627336689,-0.0001090991410303,0.3033527627336689,-9.734908896630176e-06,0.3033527627336689,-1.7622243867595044e-05,0.3033527627336689,-7.217921258005843e-06
0.3041468799136,-6.194353343464407e-05,0.3041468799136,-1.091002229935163e-05,0.3041468799136,-1.8631147683862178e-05,0.3041468799136,1.667320196778193e-07
0.3049409970935311,-6.613258463964131e-05,0.3049409970935311,-1.3260091398096645e-05,0.3049409970935311,-1.6281408601903355e-05,0.3049409970935311,4.364064639527841e-06
0.3057351142734621,-9.080282475180636e-05,0.3057351142734621,-1.4938889886155602e-05,0.3057351142734621,-1.6281496628718535e-05,0.3057351142734621,3.524636744002144e-06
0.3065292314533932,-6.596039971240834e-05,0.3065292314533932,-1.6952213593176552e-05,0.3065292314533932,-1.695363072844307e-05,0.3065292314533932,2.182333203411724e-06
0.3073233486333243,-5.120610206510196e-05,0.3073233486333243,-1.4940250292777484e-05,0.3073233486333243,-1.980386212619836e-05,0.3073233486333243,3.188314853611258e-06
0.3081174658132554,-2.100152654568985e-05,0.3081174658132554,-1.560954829599454e-05,0.3081174658132554,-2.232220614361849e-05,0.3081174658132554,1.008568031289953e-06
0.3089115829931864,9.21584225525431e-06,0.3089115829931864,-1.4267905235200598e-05,0.3089115829931864,-1.7962191961882196e-05,0.3089115829931864,3.1879939980510022e-06
0.3097057001731175,2.06411899734604e-05,0.3097057001731175,-1.2924907062390088e-05,0.3097057001731175,-1.6282033827987613e-05,0.3097057001731175,5.873705882772137e-06
0.3104998173530486,8.563090003917568e-06,0.3104998173530486,-1.4602513888025291e-05,0.3104998173530486,-1.661702277760506e-05,0.3104998173530486,3.860993332069312e-06
0.3112939345329796,-1.5608007105570673e-05,0.3112939345329796,-1.5274244641615278e-05,0.3112939345329796,-1.8295461604038197e-05,0.3112939345329796,-5.031881723132493e-07
0.3120880517129107,-1.930127884324049e-05,0.3120880517129107,-1.3595865592030798e-05,0.3120880517129107,-1.9302459495887075e-05,0.3120880517129107,-1.5108149114308314e-06
0.3128821688928418,2.5201678367283207e-06,0.3128821688928418,-1.460268577836146e-05,0.3128821688928418,-1.5609214520658692e-05,0.3128821688928418,-4.197301103938468e-06
0.3136762860727728,1.3931016806893845e-05,0.3136762860727728,-1.359555840344692e-05,0.3136762860727728,-1.1916454415662624e-05,0.3136762860727728,-9.233763567102771e-06
0.314470403252704,1.258970793996113e-05,0.314470403252704,-1.2924903969980564e-05,0.314470403252704,-9.569173887425722e-06,0.314470403252704,-1.493431626267145e-05
0.315264520432635,2.1311628262122075e-05,0.315264520432635,-1.29244e-05,0.315264520432635,-9.56741e-06,0.315264520432635,-2.064205309446444e-05
0.3160586376125661,2.2658987181854547e-05,0.3160586376125661,-1.1917759647839642e-05,0.3160586376125661,-1.1580680708884792e-05,0.3160586376125661,-1.930331286378619e-05
0.3168527547924971,-1.626937402346499e-05,0.3168527547924971,-8.896943051607443e-06,0.3168527547924971,-1.1749348179069296e-05,0.3168527547924971,-1.7624718363719834e-05
0.3176468719724282,-7.099137693313103e-05,0.3176468719724282,-8.224718259082725e-06,0.3176468719724282,-1.3595502279460316e-05,0.3176468719724282,-1.9638075222751822e-05
0.3184409891523593,-0.0001116194450516,0.3184409891523593,-1.091016330942655e-05,0.3184409891523593,-1.2924409172677516e-05,0.3184409891523593,-2.198826789562869e-05
0.3192351063322903,-0.0001136313925018,0.3192351063322903,-1.5274120172544712e-05,0.3192351063322903,-1.3092132571400256e-05,0.3192351063322903,-2.0309889913727644e-05
0.3200292235122214,-9.415584953224134e-05,0.3200292235122214,-1.3930933712809495e-05,0.3200292235122214,-1.2589738193182592e-05,0.3200292235122214,-2.0981058414145003e-05
0.3208233406921525,-6.732977208254244e-05,0.3208233406921525,-1.1918970412410567e-05,0.3208233406921525,-1.6278337577247293e-05,0.3208233406921525,-2.047801764456854e-05
0.3216174578720835,-3.577344555627236e-05,0.3216174578720835,-1.560747869552007e-05,0.3216174578720835,-1.561045841899635e-05,0.3216174578720835,-2.114854158100365e-05
0.3224115750520147,1.22273078267764e-05,0.3224115750520147,-1.4938959332591097e-05,0.3224115750520147,-1.7287601668522258e-05,0.3224115750520147,-2.467191353065669e-05
0.3232056922319457,7.433312734408609e-05,0.3232056922319457,-1.359632049237187e-05,0.3232056922319457,-1.762406987690703e-05,0.3232056922319457,-2.299595061546484e-05
0.3239998094118768,0.0001179875246622,0.3239998094118768,-1.2253322319561548e-05,0.3239998094118768,-1.8295438840219223e-05,0.3239998094118768,-1.6954250414023434e-05
0.3247939265918079,0.0001018854897979,0.3247939265918079,-8.224982439328865e-06,0.3247939265918079,-1.7624262073375567e-05,0.3247939265918079,-1.3596110366877834e-05
0.3255880437717389,6.395295029981813e-05,0.3255880437717389,-8.39245074674259e-06,0.3255880437717389,-1.6281474026059282e-05,0.3255880437717389,-1.3596114610751946e-05
0.32638216095167,0.0001065898522351,0.32638216095167,-8.22392950688019e-06,0.32638216095167,-1.7624063900565197e-05,0.32638216095167,-1.9304163058788623e-05
0.3271762781316011,0.0001354355026042,0.3271762781316011,-4.868686998042418e-06,0.3271762781316011,-1.6953034890008765e-05,0.3271762781316011,-2.6518966809961437e-05
0.3279703953115321,8.262201535800005e-05,0.3279703953115321,-7.886611970850118e-06,0.3279703953115321,-1.7623689323475074e-05,0.3279703953115321,-2.2997981089786587e-05
0.3287645124914632,1.531562617234016e-05,0.3287645124914632,-1.6611740973381008e-05,0.3287645124914632,-1.3598273399734874e-05,0.3287645124914632,-1.829848557162496e-05
0.3295586296713942,-2.029320326178968e-05,0.3295586296713942,-1.829481713279004e-05,0.3295586296713942,-1.1582539440651957e-05,0.3295586296713942,-1.2255818321955866e-05
0.3303527468513254,-2.2658850820206984e-05,0.3303527468513254,-1.7792160561300432e-05,0.3303527468513254,-9.56805217824806e-06,0.3303527468513254,-8.225894359684393e-06
0.3311468640312564,-1.091221202916376e-05,0.3311468640312564,-1.5610373657176992e-05,0.3311468640312564,-8.224839948147232e-06,0.3311468640312564,-1.158102513134437e-05
0.3319409812111875,-2.2995014024335e-05,0.3319409812111875,-1.4267231775336815e-05,0.3319409812111875,-1.0910136449563e-05,0.3319409812111875,-1.0238831775336817e-05
0.3327350983911186,-3.692773597959308e-05,0.3327350983911186,-1.2924150403789602e-05,0.3327350983911186,-1.19173e-05,0.3327350983911186,-1.2588325606923589e-05
0.3335292155710496,-4.448091027926237e-05,0.3335292155710496,-1.0909562807227927e-05,0.3335292155710496,-1.1917391027926237e-05,0.3335292155710496,-9.56672729326481e-06
0.3343233327509807,-4.783418244659392e-05,0.3343233327509807,-8.562282278991192e-06,0.3343233327509807,-1.225271824465939e-05,0.3343233327509807,-7.051783156661497e-06
0.3351174499309118,-5.823649042319848e-05,0.3351174499309118,-1.1579506903985443e-05,0.3351174499309118,-1.1246597700980793e-05,0.3351174499309118,-1.224939522545488e-05
0.3359115671108428,-6.998669422183527e-05,0.3359115671108428,-1.3259184881045031e-05,0.3359115671108428,-1.4265552785881056e-05,0.3359115671108428,-1.3595067904836023e-05
0.3367056842907739,-6.965753348058841e-05,0.3367056842907739,-1.2924533480588412e-05,0.3367056842907739,-1.3596066961176826e-05,0.3367056842907739,-8.226745685438426e-06
0.337499801470705,-6.395202691055507e-05,0.337499801470705,-1.4938096375685144e-05,0.337499801470705,-1.6951960626141907e-05,0.337499801470705,-3.861621181014785e-06
0.338293918650636,-6.193660636509923e-05,0.338293918650636,-1.4602934394183206e-05,0.338293918650636,-1.5945803182549614e-05,0.338293918650636,-2.8535431815250653e-06
0.3390880358305671,-6.428616365882561e-05,0.3390880358305671,-1.5274254552941876e-05,0.3390880358305671,-1.577783787480477e-05,0.3390880358305671,-4.196298170135921e-06
0.3398821530104982,-6.126040687151035e-05,0.3398821530104982,-1.4267329384443958e-05,0.3398821530104982,-1.6617358768887917e-05,0.3398821530104982,-5.707225807220884e-06
0.3406762701904293,-3.742537996378211e-05,0.3406762701904293,-1.4938942275196671e-05,0.3406762701904293,-1.7959329541338877e-05,0.3406762701904293,-7.554703185721677e-06
0.3414703873703603,-2.2670982427524343e-05,0.3414703873703603,-1.5944923925396065e-05,0.3414703873703603,-1.628269345767322e-05,0.3414703873703603,-1.1913937025461693e-05
0.3422645045502914,-2.634999578446005e-05,0.3422645045502914,-1.7623152629300024e-05,0.3422645045502914,-1.493943789655998e-05,0.3422645045502914,-2.064005367236013e-05
0.3430586217302225,-3.373418151937688e-05,0.3430586217302225,-1.4939879447499315e-05,0.3430586217302225,-1.6280760276250342e-05,0.3430586217302225,-2.0981040069062588e-05
0.3438527389101535,-8.306917306874509e-05,0.3438527389101535,-1.1247114265083177e-05,0.3438527389101535,-1.3596683101878672e-05,0.3438527389101535,-1.6618535040552843e-05
0.3446468560900846,-0.0001258792423493,0.3446468560900846,-8.896435909913144e-06,0.3446468560900846,-1.3092291275860684e-05,0.3446468560900846,-1.7288378310935538e-05
0.3454409732700157,-8.812217139453322e-05,0.3454409732700157,-1.1917198288370012e-05,0.3454409732700157,-1.695267003302605e-05,0.3454409732700157,-2.5009240072785088e-05
0.3462350904499467,1.7967089437940326e-05,0.3462350904499467,-1.2588432306889322e-05,0.3462350904499467,-1.7959402855651597e-05,0.3462350904499467,-3.038024109752455e-05
0.3470292076298778,8.107435626142988e-05,0.3470292076298778,-1.023844930399538e-05,0.3470292076298778,-1.3594134186795888e-05,0.3470292076298778,-2.6350984906305774e-05
0.3478233248098089,9.314603617487e-05,0.3478233248098089,-8.897150425958107e-06,0.3478233248098089,-7.222937046656641e-06,0.3478233248098089,-2.1321176544261907e-05
0.34861744198974,9.48336203775549e-05,0.34861744198974,-1.057332038458274e-05,0.34861744198974,-6.2111277734670594e-06,0.34861744198974,-2.2323192296811317e-05
0.349411559169671,0.000124695412121,0.349411559169671,-9.567969138307298e-06,0.349411559169671,-5.53940275702086e-06,0.349411559169671,-2.2491706781596684e-05
0.3502056763496021,0.000186455821711,0.3502056763496021,-1.023852632790853e-05,0.3502056763496021,-6.88127265174086e-06,0.3502056763496021,-2.098181575099625e-05
0.3509997935295332,0.0001737273173095,0.3509997935295332,-9.903187294881232e-06,0.3509997935295332,-7.217432705118768e-06,0.3509997935295332,-2.2323550846478917e-05
0.3517939107094642,0.0001079343993065,0.3517939107094642,-9.567447750554085e-06,0.3517939107094642,-1.2923758223712064e-05,0.3517939107094642,-1.7960390760576807e-05
0.3525880278893953,7.637222540316418e-05,0.3525880278893953,-1.1581482085111722e-05,0.3525880278893953,-1.4267082084760471e-05,0.3525880278893953,-1.2252905668159627e-05
0.3533821450693264,9.98722627660619e-05,0.3533821450693264,-8.224364662920843e-06,0.3533821450693264,-1.0910445338906228e-05,0.3533821450693264,-9.567348665273445e-06
0.3541762622492574,0.0001106003757495,0.3541762622492574,-6.882484427461531e-06,0.3541762622492574,-1.225410738460044e-05,0.3541762622492574,-9.231599261539958e-06
0.3549703794291886,7.237287326409114e-05,0.3549703794291886,-8.894437738965254e-06,0.3549703794291886,-1.560737955193222e-05,0.3549703794291886,-8.896272044806777e-06
0.3557644966091196,5.623971585510179e-05,0.3557644966091196,-1.0908923016527293e-05,0.3557644966091196,-1.4603538494906322e-05,0.3557644966091196,-7.554071320201826e-06
0.3565586137890507,2.234039208307769e-05,0.3565586137890507,-1.09102e-05,0.3565586137890507,-1.225414301903002e-05,0.3565586137890507,-4.868936302598763e-06
0.3573527309689818,-4.9826744911031954e-05,0.3573527309689818,-1.2252545019079068e-05,0.3573527309689818,-1.460210378338837e-05,0.3573527309689818,-4.86763e-06
0.3581468481489128,-0.0001055663425399,0.3581468481489128,-1.2253e-05,0.3581468481489128,-1.9301801171612868e-05,0.3581468481489128,-2.853825210253432e-06
0.3589409653288439,-0.0001203473550029,0.3589409653288439,-1.2588685341174928e-05,0.3589409653288439,-1.6617217270600576e-05,0.3589409653288439,-8.224375460108843e-06
0.3597350825087749,-9.550253716114467e-05,0.3597350825087749,-1.3931395346867474e-05,0.3597350825087749,-1.6952765115622493e-05,0.3597350825087749,-1.0910234884377507e-05
0.360529199688706,-6.026527808324105e-05,0.360529199688706,-1.2924652964145764e-05,0.360529199688706,-1.661752160690961e-05,0.360529199688706,-1.1244635184294787e-05
0.3613233168686371,-8.960625971396191e-05,0.3613233168686371,-1.3930634614345227e-05,0.3613233168686371,-1.8294157690575385e-05,0.3613233168686371,-6.214746911088159e-06
0.3621174340485681,-0.0001196555840129,0.3621174340485681,-1.3596039281984464e-05,0.3621174340485681,-1.896652143603107e-05,0.3621174340485681,-4.533126402794474e-06
0.3629115512284993,-0.0001079336411399,0.3629115512284993,-1.6950902612181387e-05,0.3629115512284993,-1.7624958955127446e-05,0.3629115512284993,-9.22905366835801e-06
0.3637056684084303,-9.316246856372516e-05,0.3637056684084303,-1.7623919608841486e-05,0.3637056684084303,-1.6617520586737774e-05,0.3637056684084303,-8.392810488948144e-06
0.3644997855883614,-7.134179237748003e-05,0.3644997855883614,-1.896663739049329e-05,0.3644997855883614,-1.7791682730183622e-05,0.3644997855883614,-5.87539989012468e-06
0.3652939027682925,-4.867907485088122e-05,0.3652939027682925,-1.695304665504444e-05,0.3652939027682925,-1.8463317781651853e-05,0.3652939027682925,-7.2173555633037075e-06
0.3660880199482235,-3.843748734770105e-05,0.3660880199482235,-1.8295608434028508e-05,0.3660880199482235,-1.963836626388597e-05,0.3660880199482235,-1.242086325646999e-05
0.3668821371281546,-3.7930537337866094e-05,0.3668821371281546,-1.8630952136613333e-05,0.3668821371281546,-1.8295773931693336e-05,0.3668821371281546,-1.4938252136613332e-05
0.3676762543080857,-1.8453896458854697e-05,0.3676762543080857,-1.6616563074060568e-05,0.3676762543080857,-1.930237784443634e-05,0.3676762543080857,-1.2924829540751546e-05
0.3684703714880167,1.12224123885993e-05,0.3684703714880167,-1.4939926990394797e-05,0.3684703714880167,-1.829639619423688e-05,0.3684703714880167,-1.4266138407684164e-05
0.3692644886679478,1.963299527172785e-05,0.3692644886679478,-1.3093389072419624e-05,0.3692644886679478,-1.259237521522506e-05,0.3692644886679478,-2.3660646768734696e-05
0.3700586058478789,-1.0895035270167653e-05,0.3700586058478789,-1.0911283173713173e-05,0.3700586058478789,-1.1582099937784846e-05,0.3700586058478789,-3.406823397622325e-05
0.3708527230278099,-5.856277148271998e-05,0.3708527230278099,-7.554391020280153e-06,0.3708527230278099,-1.4266263178194571e-05,0.3708527230278099,-3.239548551362839e-05
0.371646840207741,-3.0386374979815248e-05,0.371646840207741,-5.035986694410736e-06,0.371646840207741,-1.7623524404769023e-05,0.371646840207741,-2.836731071427717e-05
0.3724409573876721,4.011221658879171e-05,0.3724409573876721,-4.531957024480776e-06,0.3724409573876721,-8.560796440117291e-06,0.3724409573876721,-2.114938734820773e-05
0.3732350745676032,2.9370999045373865e-05,0.3732350745676032,-8.390568400221342e-07,0.3732350745676032,-7.049843396912466e-06,0.3732350745676032,-1.7624956635779252e-05
0.3740291917475342,1.6678427321597423e-06,0.3740291917475342,1.1738064536993804e-06,0.3740291917475342,-8.896333870027046e-06,0.3740291917475342,-2.568122387243897e-05
0.3748233089274653,-4.242752644592456e-05,0.3748233089274653,-3.5207446138787475e-06,0.3748233089274653,-1.0237632748064318e-05,0.3748233089274653,-2.7022532739371585e-05
0.3756174261073964,-8.204966868593063e-05,0.3756174261073964,-9.059856463037592e-06,0.3756174261073964,-8.896980550691683e-06,0.3756174261073964,-2.4340041115839097e-05
0.3764115432873274,-4.1817671438235845e-05,0.3764115432873274,-1.1580151783672247e-05,0.3764115432873274,-9.567023807445388e-06,0.3764115432873274,-2.383488961565572e-05
0.3772056604672585,3.135650555800168e-05,0.3772056604672585,-1.057493065922411e-05,0.3772056604672585,-1.0574069345052122e-05,0.3772056604672585,-1.896908149820204e-05
0.3779997776471896,6.394148107041052e-05,0.3779997776471896,-1.1245711980255802e-05,0.3779997776471896,-1.426616589140691e-05,0.3779997776471896,-1.82957880197442e-05
0.3787938948271206,6.630008874655932e-05,0.3787938948271206,-1.2252866599991444e-05,0.3787938948271206,-1.6952444266643852e-05,0.3787938948271206,-1.8966911066660964e-05
0.3795880120070517,4.850829339431743e-05,0.3795880120070517,-1.091024061226468e-05,0.3795880120070517,-1.49386e-05,0.3795880120070517,-2.316320761404352e-05
0.3803821291869828,4.14618040691925e-05,0.3803821291869828,-1.3595854619735688e-05,0.3803821291869828,-1.4938490760528622e-05,0.3803821291869828,-2.366560762155662e-05
0.3811762463669139,5.991247306236584e-05,0.3811762463669139,-1.3930823777053138e-05,0.3811762463669139,-1.4265743556279072e-05,0.3811762463669139,-1.6950667361222808e-05
0.3819703635468449,2.855952813124606e-05,0.3819703635468449,-1.1751146923810908e-05,0.3819703635468449,-9.571172510910258e-06,0.3819703635468449,-1.0076509362669866e-05
0.382764480726776,-1.4910168809992577e-05,0.382764480726776,-1.2588151100734405e-05,0.382764480726776,-6.883576366470499e-06,0.382764480726776,-7.554866619317206e-06
0.3835585979067071,-1.7622839972610366e-05,0.3835585979067071,-1.661505995891555e-05,0.3835585979067071,-9.901569979314955e-06,0.3835585979067071,-7.217690003423703e-06
0.3843527150866381,-2.869822484858621e-05,0.3843527150866381,-2.2489691964071983e-05,0.3843527150866381,-9.23195091685392e-06,0.3843527150866381,-8.224248622924958e-06
0.3851468322665692,-5.991560473840277e-05,0.3851468322665692,-2.5008968132923657e-05,0.3851468322665692,-1.2252361748945832e-05,0.3851468322665692,-4.197080999997215e-06
0.3859409494465003,-7.536331681083481e-05,0.3859409494465003,-2.165281373179222e-05,0.3859409494465003,-1.2588678626184084e-05,0.3859409494465003,2.852991151775847e-06
0.3867350666264313,-4.716205067658013e-05,0.3867350666264313,-1.8295374644906685e-05,0.3867350666264313,-1.2253e-05,0.3867350666264313,-1.1755878933759111e-06
0.3875291838063624,-4.86312835560571e-06,0.3875291838063624,-1.5609534310974638e-05,0.3875291838063624,-1.225284477032488e-05,0.3875291838063624,-8.89585477032488e-06
0.3883233009862935,1.4585780292651197e-05,0.3883233009862935,-1.359757101057557e-05,0.3883233009862935,-1.1582190336858523e-05,0.3883233009862935,-8.225200336858524e-06
0.3891174181662246,4.127134335037926e-05,0.3891174181662246,-9.570361956376113e-06,0.3891174181662246,-1.0910691993950664e-05,0.3891174181662246,-7.218257983598117e-06
0.3899115353461556,9.849400477805132e-05,0.3899115353461556,-8.225395815090915e-06,0.3899115353461556,-8.56168517055704e-06,0.3899115353461556,-1.392757093624955e-05
0.3907056525260867,0.0001069163272357,0.3907056525260867,-1.0909024719815243e-05,0.3907056525260867,-9.902512362095746e-06,0.3907056525260867,-1.6280371626009124e-05
0.3914997697060178,7.235302880985281e-05,0.3914997697060178,-7.55419366787459e-06,0.3914997697060178,-1.426593422422192e-05,0.3914997697060178,-1.4938989469470178e-05
0.3922938868859488,1.2932864834456196e-05,0.3922938868859488,-5.5393169435650334e-06,0.3922938868859488,-1.5609808703340238e-05,0.3922938868859488,-1.2421158688360106e-05
0.3930880040658799,-4.716555874360816e-05,0.3930880040658799,-6.210437190325425e-06,0.3930880040658799,-1.577781633111384e-05,0.3930880040658799,-9.567382495499803e-06
0.393882121245811,-3.910274855560317e-05,0.393882121245811,-9.567512522953462e-06,0.393882121245811,-1.896669242655854e-05,0.393882121245811,-4.196127475519513e-06
0.394676238425742,1.171919655689582e-06,0.394676238425742,-1.0239655753474633e-05,0.394676238425742,-1.6952699321356475e-05,0.394676238425742,-3.5258367834361837e-06
0.3954703556056732,-8.88784690182903e-06,0.3954703556056732,-1.308988715122992e-05,0.3954703556056732,-1.66173721046233e-05,0.3954703556056732,-6.8790989618726174e-06
0.3962644727856042,-3.0366434209249048e-05,0.3962644727856042,-1.0911648843591346e-05,0.3962644727856042,-1.695257709587827e-05,0.3962644727856042,-8.223718390153059e-06
0.3970585899655353,-1.6288681106962667e-05,0.3970585899655353,-1.2587833195404252e-05,0.3970585899655353,-2.0308066390808503e-05,0.3970585899655353,-8.560136639080851e-06
0.3978527071454664,7.8799951576038e-06,0.3978527071454664,-1.2253123817716543e-05,0.3978527071454664,-1.9638647635433093e-05,0.3978527071454664,-9.902604732822162e-06
0.3986468243253974,1.6615168864850037e-05,0.3986468243253974,-1.3595502901944232e-05,0.3986468243253974,-2.0980902901944236e-05,0.3986468243253974,-1.0909977176458174e-05
0.3994409415053285,6.211186669178789e-06,0.3994409415053285,-1.3092237100650583e-05,0.3994409415053285,-2.165255053737728e-05,0.3994409415053285,-1.3595602149509107e-05
0.4002350586852595,-1.2925144349345478e-05,0.4002350586852595,-1.2253049623782435e-05,0.4002350586852595,-1.762424962378244e-05,0.4002350586852595,-1.6952750376217562e-05
0.4010291758651906,-2.2997676370092892e-05,0.4010291758651906,-1.2924251476869194e-05,0.4010291758651906,-1.82956e-05,0.4010291758651906,-1.6280508861215165e-05
0.4018232930451217,-3.372814730555384e-05,0.4018232930451217,-1.2253597043402884e-05,0.4018232930451217,-1.82956e-05,0.4018232930451217,-1.225658226041731e-05
0.4026174102250527,-4.346576872034811e-05,0.4026174102250527,-1.0575746772353774e-05,0.4026174102250527,-1.7289248063412263e-05,0.4026174102250527,-1.426570387317547e-05
0.4034115274049838,-4.951190345669406e-05,0.4034115274049838,-1.2587501132391094e-05,0.4034115274049838,-1.4268998301413355e-05,0.4034115274049838,-1.6280201132391094e-05
0.4042056445849149,-4.9347775111651486e-05,0.4042056445849149,-1.3595349195803288e-05,0.4042056445849149,-1.0408428060372758e-05,0.4042056445849149,-1.9301347587409867e-05
0.404999761764846,-4.414596122037413e-05,0.404999761764846,-1.191780362431495e-05,0.404999761764846,-1.124564820284474e-05,0.404999761764846,-1.997389855027402e-05
0.4057938789447771,-4.045226299826399e-05,0.4057938789447771,-1.2588597636679274e-05,0.4057938789447771,-1.544146023686859e-05,0.4057938789447771,-1.9806225598453302e-05
0.4065879961247081,-3.642331966149339e-05,0.4065879961247081,-1.2420800819472928e-05,0.4065879961247081,-1.6952792626695943e-05,0.4065879961247081,-1.7624210649731547e-05
0.4073821133046392,-3.6425551508735406e-05,0.4073821133046392,-1.35958e-05,0.4073821133046392,-1.5609712571531212e-05,0.4073821133046392,-1.3595297007314672e-05
0.4081762304845703,-5.220353313428477e-05,0.4081762304845703,-1.3596578602971128e-05,0.4081762304845703,-1.3596286626856955e-05,0.4081762304845703,-1.0070270051017035e-05
0.4089703476645013,-6.058671355261364e-05,0.4089703476645013,-1.6279196336836364e-05,0.4089703476645013,-1.5272922710522726e-05,0.4089703476645013,-7.5552859588323424e-06
0.4097644648444324,-4.516180803439009e-05,0.4097644648444324,-1.4268557569703054e-05,0.4097644648444324,-1.7287142430296946e-05,0.4097644648444324,-1.0907937397308231e-05
0.4105585820243635,-3.1059522120770245e-05,0.4105585820243635,-1.4434911667113598e-05,0.4105585820243635,-1.8295069844756288e-05,0.4105585820243635,-1.107801161447183e-05
0.4113526992042945,-2.5682934803391862e-05,0.4113526992042945,-1.695184616696827e-05,0.4113526992042945,-1.4939871752119914e-05,0.4113526992042945,-1.2252554905699824e-05
0.4121468163842256,-1.3598594729212535e-05,0.4121468163842256,-1.4939065792056325e-05,0.4121468163842256,-1.359611052803755e-05,0.4121468163842256,-1.49379789439249e-05
0.4129409335641567,-7.553725596848657e-06,0.4129409335641567,-1.3595912355227132e-05,0.4129409335641567,-1.15817685328407e-05,0.4129409335641567,-1.1917552799261053e-05
0.4137350507440878,2.518104722811264e-06,0.4137350507440878,-1.3595907271978983e-05,0.4137350507440878,-1.2252914182416811e-05,0.4137350507440878,-1.309214636720598e-05
0.4145291679240188,8.220213704829041e-06,0.4145291679240188,-1.527401636682702e-05,0.4145291679240188,-1.0909349104705556e-05,0.4145291679240188,-1.2252432735766288e-05
0.4153232851039499,-1.256998383256698e-05,0.4153232851039499,-1.3932707499894494e-05,0.4153232851039499,-6.885442481698674e-06,0.4153232851039499,-9.569824990796583e-06
0.416117402283881,1.8354734306218596e-06,0.416117402283881,-1.5273289152135294e-05,0.416117402283881,-8.223599159663203e-06,0.416117402283881,-1.292187288786614e-05
0.416911519463812,4.5460688205982696e-05,0.416911519463812,-1.3932312675054386e-05,0.416911519463812,-9.566597324945614e-06,0.416911519463812,-1.8460047745661123e-05
0.4177056366437431,3.474971597218976e-05,0.4177056366437431,-1.1414852214588996e-05,0.4177056366437431,-8.560770876683048e-06,0.4177056366437431,-2.064450141097202e-05
0.4184997538236742,3.198923698282134e-06,0.4184997538236742,-1.1078204051353811e-05,0.4184997538236742,-8.895905917641611e-06,0.4184997538236742,-2.1316691835283225e-05
0.4192938710036052,3.339709149872222e-05,0.4192938710036052,-8.896364511011313e-06,0.4192938710036052,-7.553438154998593e-06,0.4192938710036052,-2.0309963617467424e-05
0.4200879881835363,6.160028034141708e-05,0.4200879881835363,-7.049697477593931e-06,0.4200879881835363,-5.7068974777427535e-06,0.4200879881835363,-2.249176752704813e-05
0.4208821053634674,0.0001008790937339,0.4208821053634674,-1.2253445472493996e-05,0.4208821053634674,-7.553442734920001e-06,0.4208821053634674,-2.031008955048612e-05
0.4216762225433985,0.0001166471064556,0.4216762225433985,-1.560887233480948e-05,0.4216762225433985,-9.233495467085706e-06,0.4216762225433985,-2.2492974637243688e-05
0.4224703397233295,8.848001980586668e-05,0.4224703397233295,-1.1584945734011625e-05,0.4224703397233295,-1.5604702596120296e-05,0.4224703397233295,-2.6684514901931392e-05
0.4232644569032606,6.967025867030547e-05,0.4232644569032606,-8.562376565173372e-06,0.4232644569032606,-1.561e-05,0.4232644569032606,-2.199151459917628e-05
0.4240585740831917,6.563126085727829e-05,0.4240585740831917,-9.902379701724124e-06,0.4240585740831917,-1.4267920303640069e-05,0.4240585740831917,-1.5613421442290328e-05
0.4248526912631227,6.512569581850299e-05,0.4248526912631227,-1.191651680375552e-05,0.4248526912631227,-1.225378319624448e-05,0.4248526912631227,-1.1918735859781548e-05
0.4256468084430538,5.220421808387238e-05,0.4256468084430538,-1.225291901049519e-05,0.4256468084430538,-1.3091997538300755e-05,0.4256468084430538,-1.2924157031485571e-05
0.4264409256229849,2.064845593367477e-05,0.4264409256229849,-1.3595674214791084e-05,0.4264409256229849,-1.3595752825862965e-05,0.4264409256229849,-1.1246057231511146e-05
0.4272350428029159,-6.21166867965691e-06,0.4272350428029159,-1.2252891418597751e-05,0.4272350428029159,-1.35958e-05,0.4272350428029159,-1.2924436193800748e-05
0.428029159982847,-2.937940971168794e-05,0.428029159982847,-1.0238664891970233e-05,0.428029159982847,-1.359607022008426e-05,0.428029159982847,-1.3595056894768288e-05
0.4288232771627781,-5.8217450461787787e-05,0.4288232771627781,-9.568020447399222e-06,0.4288232771627781,-1.493737908701697e-05,0.4288232771627781,-9.90645751070333e-06
0.4296173943427092,-7.031958157566084e-05,0.4296173943427092,-7.890190347308113e-06,0.4296173943427092,-1.628037572215351e-05,0.4296173943427092,-1.0573987861076755e-05
0.4304115115226402,-8.643248673956599e-05,0.4304115115226402,-8.895390421222873e-06,0.4304115115226402,-1.4939426105036167e-05,0.4304115115226402,-1.0239006526259042e-05
0.4312056287025713,-0.0001102658542497,0.4312056287025713,-1.2922516207999314e-05,0.4312056287025713,-1.628077206777434e-05,0.4312056287025713,-8.561094910605784e-06
0.4319997458825024,-8.7456805878056e-05,0.4319997458825024,-1.3931177680438495e-05,0.4319997458825024,-1.913388677724477e-05,0.4319997458825024,-7.55354231636103e-06
0.4327938630624334,-5.052896861439137e-05,0.4327938630624334,-1.3595857896651252e-05,0.4327938630624334,-1.8967028939702356e-05,0.4327938630624334,-9.902694726890532e-06
0.4335879802423645,-8.0734748192112e-05,0.4335879802423645,-9.735356064410369e-06,0.4335879802423645,-1.695285012069176e-05,0.4335879802423645,-9.56741835319979e-06
0.4343820974222956,-9.818854602170744e-05,0.4343820974222956,-1.1581847138523724e-05,0.4343820974222956,-1.6617161778496026e-05,0.4343820974222956,-3.859912157371633e-06
0.4351762146022266,-7.166752217977767e-05,0.4351762146022266,-1.3595981237654058e-05,0.4351762146022266,-1.712073594173754e-05,0.4351762146022266,1.1758461855708949e-06
0.4359703317821577,-5.657789731573811e-05,0.4359703317821577,-1.4266635671120414e-05,0.4359703317821577,-1.762377671131403e-05,0.4359703317821577,4.529108364007329e-06
0.4367644489620888,-0.0001083950050099,0.4367644489620888,-1.6950936187135656e-05,0.4367644489620888,-2.030793618713565e-05,0.4367644489620888,1.8482038059243212e-06
0.4375585661420199,-0.0001780499379781,0.4375585661420199,-1.762383313318912e-05,0.4375585661420199,-1.896773373362176e-05,0.4375585661420199,-2.850871943252262e-06
0.438352683321951,-0.0001290955478898,0.438352683321951,-1.76242e-05,0.438352683321951,-1.997369832939149e-05,0.438352683321951,-7.215779435339916e-06
0.439146800501882,1.7587340536768522e-05,0.439146800501882,-1.6617353041000765e-05,0.439146800501882,-1.829602173500128e-05,0.439146800501882,-1.6279122636018254e-05
0.4399409176818131,0.0001119452202261,0.4399409176818131,-1.5610104411393026e-05,0.4399409176818131,-1.3596287253167445e-05,0.4399409176818131,-2.366593432681869e-05
0.4407350348617442,0.0001764083712891,0.4407350348617442,-1.2588582084760375e-05,0.4407350348617442,-1.4938452605950472e-05,0.4407350348617442,-2.769558640036344e-05
0.4415291520416752,0.0001393006509569,0.4415291520416752,-9.90380621923798e-06,0.4415291520416752,-1.1581214791419027e-05,0.4415291520416752,-3.877493342809576e-05
0.4423232692216063,6.435526773945463e-05,0.4423232692216063,-1.359240560330268e-05,0.4423232692216063,-9.569261479915448e-06,0.4423232692216063,-4.782866839093748e-05
0.4431173864015373,9.274255858672397e-06,0.4431173864015373,-1.1583156561742407e-05,0.4431173864015373,-1.0238281153813803e-05,0.4431173864015373,-4.5824356561742406e-05
0.4439115035814684,2.2651204718595724e-05,0.4439115035814684,-5.542807888823563e-06,0.4439115035814684,-1.3258211046210036e-05,0.4439115035814684,-3.642917668260311e-05
0.4447056207613995,0.000102181999528,0.4447056207613995,-6.8811786425688645e-06,0.4447056207613995,-1.225348102165558e-05,0.4447056207613995,-2.8705887832692785e-05
0.4454997379413306,0.0001346043080722,0.4454997379413306,-5.036089382120551e-06,0.4454997379413306,-7.554771156288942e-06,0.4454997379413306,-2.4339540365540635e-05
0.4462938551212617,0.0001327693368339,0.4462938551212617,-2.853838150128724e-06,0.4462938551212617,-8.560126239384642e-06,0.4462938551212617,-2.786235682233656e-05
0.4470879723011927,0.0001025570539849,0.4470879723011927,-5.036299763294222e-07,0.4470879723011927,-7.217566843427436e-06,0.4470879723011927,-2.769510585721629e-05
0.4478820894811238,6.461938958543258e-05,0.4478820894811238,-4.868348809530763e-06,0.4478820894811238,-6.2102686720929326e-06,0.4478820894811238,-1.6280719019346846e-05
0.4486762066610549,4.145792734445128e-05,0.4486762066610549,-1.1246859921103592e-05,0.4486762066610549,-4.86784816128767e-06,0.4486762066610549,-1.0238101880760045e-05
0.4494703238409859,3.810465517711974e-05,0.4494703238409859,-1.4935459305168292e-05,0.4494703238409859,-5.706156214225211e-06,0.4494703238409859,-7.555504124685498e-06
0.450264441020917,-8.862923359272313e-06,0.450264441020917,-1.7119063863527517e-05,0.450264441020917,-5.035952661166938e-06,0.450264441020917,-8.895064670626083e-06
0.4510585582008481,-5.318354371793494e-05,0.4510585582008481,-1.71206e-05,0.4510585582008481,-1.0906931175927588e-05,0.4510585582008481,-8.89601e-06
0.4518526753807791,-7.434855343589233e-05,0.4518526753807791,-1.762399410801056e-05,0.4518526753807791,-1.426582752301719e-05,0.4518526753807791,-3.191473198605566e-06
0.4526467925607102,-0.0001025486328223,0.4526467925607102,-1.4268077044957004e-05,0.4526467925607102,-1.49384245910086e-05,0.4526467925607102,-4.531579184629784e-06
0.4534409097406413,-0.0001144716453138,0.4534409097406413,-1.3763657247623447e-05,0.4534409097406413,-1.49386e-05,0.4534409097406413,-1.5109834505008903e-06
0.4542350269205724,-8.8118555336813e-05,0.4542350269205724,-1.2924320326633449e-05,0.4542350269205724,-1.2252977236180983e-05,0.4542350269205724,3.524704799707425e-06
0.4550291441005034,-1.8964809458463013e-05,0.4550291441005034,-1.0574560848476726e-05,0.4550291441005034,-1.1582025939337086e-05,0.4550291441005034,-1.6821408922903306e-07
0.4558232612804345,-6.893049633860141e-06,0.4558232612804345,-1.090988806520988e-05,0.4558232612804345,-1.3929316456469168e-05,0.4558232612804345,-2.1801683996221497e-06
0.4566173784603656,-1.761579091317623e-05,0.4566173784603656,-1.158107443109502e-05,0.4566173784603656,-1.8627621017665135e-05,0.4566173784603656,-5.536402163303056e-06
0.4574114956402966,-5.788241117705642e-05,0.4574114956402966,-1.2252573517500229e-05,0.4574114956402966,-1.9637760276250344e-05,0.4574114956402966,-9.06162097958047e-06
0.4582056128202277,-8.290530456862052e-05,0.4582056128202277,-1.443393598707411e-05,0.4582056128202277,-1.796071849023653e-05,0.4582056128202277,-6.211811428525779e-06
0.4589997300001588,-9.013254568784144e-05,0.4589997300001588,-1.3596085370109245e-05,0.4589997300001588,-1.7288728309689404e-05,0.4589997300001588,-4.196914925667709e-06
0.4597938471800898,-9.751897854387384e-05,0.4597938471800898,-1.7287789271936923e-05,0.4597938471800898,-1.9973583106863216e-05,0.4597938471800898,3.34825747065984e-07
0.4605879643600209,-0.0001052406534483,0.4605879643600209,-1.577786781022216e-05,0.4605879643600209,-1.863136027375807e-05,0.4605879643600209,-3.524656713933056e-06
0.461382081539952,-9.14725598668194e-05,0.461382081539952,-1.2924537899052343e-05,0.461382081539952,-1.62814e-05,0.461382081539952,-4.867423152448433e-06
0.4621761987198831,-4.04360923654075e-05,0.4621761987198831,-1.426740976820868e-05,0.4621761987198831,-1.62814e-05,0.4621761987198831,-2.8539434711966664e-06
0.4629703158998141,2.1934570169047996e-05,0.4629703158998141,-1.5105677865564783e-05,0.4629703158998141,-1.62814e-05,0.4629703158998141,-4.865896782700108e-06
0.4637644330797452,4.010305672506062e-05,0.4637644330797452,-1.4938719810099177e-05,0.4637644330797452,-1.5610479383197775e-05,0.4637644330797452,-8.557673406692347e-06
0.4645585502596763,6.565134771659858e-06,0.4645585502596763,-1.4267580296792614e-05,0.4645585502596763,-1.7287549258018464e-05,0.4645585502596763,-9.56683955481108e-06
0.4653526674396073,-4.781422207589202e-05,0.4653526674396073,-1.3596081210387453e-05,0.4653526674396073,-1.577843274431386e-05,0.4653526674396073,-1.2251875162638603e-05
0.4661467846195384,-8.609631896014071e-05,0.4661467846195384,-1.1917755309955496e-05,0.4661467846195384,-1.7623699145485955e-05,0.4661467846195384,-1.661591619411571e-05
0.4669409017994695,-8.24144567066737e-05,0.4669409017994695,-1.1581641518788518e-05,0.4669409017994695,-1.6281566075154073e-05,0.4669409017994695,-1.5945783037577037e-05
0.4677350189794005,-1.3594130929046214e-05,0.4677350189794005,-9.903172219726556e-06,0.4677350189794005,-1.393149197558594e-05,0.4677350189794005,-1.846350832839466e-05
0.4685291361593316,5.623381212321749e-05,0.4685291361593316,-1.2924313748629631e-05,0.4685291361593316,-1.3595857495204593e-05,0.4685291361593316,-2.299575996163674e-05
0.4693232533392627,8.138325348924887e-05,0.4693232533392627,-1.242127297905321e-05,0.4693232533392627,-1.3931184711937724e-05,0.4693232533392627,-2.567837769550179e-05
0.4701173705191938,8.543210629662506e-05,0.4701173705191938,-1.24208e-05,0.4701173705191938,-1.560866929026044e-05,0.4701173705191938,-2.56809e-05
0.4709114876991248,7.369338095608661e-05,0.4709114876991248,-9.904724458329229e-06,0.4709114876991248,-1.3597099592471989e-05,0.4709114876991248,-2.366799959247199e-05
0.4717056048790559,6.563310928326211e-05,0.4717056048790559,-9.064277633880483e-06,0.4717056048790559,-1.35958e-05,0.4717056048790559,-1.8969338727834844e-05
0.472499722058987,3.576235856326586e-05,0.472499722058987,-1.0909553685629834e-05,0.472499722058987,-1.3092376286012768e-05,0.472499722058987,-1.829583502468025e-05
0.473293839238918,-1.4928336700724922e-05,0.473293839238918,-1.1581464061724913e-05,0.473293839238918,-1.3595698036170193e-05,0.473293839238918,-2.1651920308624565e-05
0.4740879564188491,-4.263217986860071e-05,0.4740879564188491,-1.0574555277804818e-05,0.4740879564188491,-1.426716314813012e-05,0.4740879564188491,-2.16526e-05
0.4748820735987802,-1.8627908227096503e-05,0.4748820735987802,-8.896072234535283e-06,0.4748820735987802,-1.2924213296394151e-05,0.4748820735987802,-2.0309675530929435e-05
0.4756761907787112,1.7971419866514374e-05,0.4756761907787112,-9.568537823747742e-06,0.4756761907787112,-1.0909474971304929e-05,0.4756761907787112,-1.896611385088413e-05
0.4764703079586423,6.592291219249847e-05,0.4764703079586423,-1.4263108869116888e-05,0.4764703079586423,-7.891540009601672e-06,0.4764703079586423,-1.5277514466819172e-05
0.4772644251385734,0.0001028652643824,0.4772644251385734,-1.4938113901811334e-05,0.4772644251385734,-1.0572555614485406e-05,0.4772644251385734,-1.4938843049094332e-05
0.4780585423185045,7.974175207945842e-05,0.4780585423185045,-1.628062597643299e-05,0.4780585423185045,-1.5607097411623714e-05,0.4780585423185045,-1.5609612988216497e-05
0.4788526594984356,4.684400830064992e-05,0.4788526594984356,-2.03080724477305e-05,0.4788526594984356,-1.2589995664202123e-05,0.4788526594984356,-1.71199521893411e-05
0.4796467766783666,3.609062139544328e-05,0.4796467766783666,-2.098101116102691e-05,0.4796467766783666,-1.4266727902567276e-05,0.4796467766783666,-1.9637691839787843e-05
0.4804408938582977,9.570955211728403e-06,0.4804408938582977,-1.863161413398775e-05,0.4804408938582977,-1.4938510247432071e-05,0.4804408938582977,-2.299485125052833e-05
0.4812350110382288,2.3504336940752377e-06,0.4812350110382288,-1.8966962664650883e-05,0.4812350110382288,-1.4267218667674558e-05,0.4812350110382288,-2.366668133232544e-05
0.4820291282181598,4.145955797092569e-05,0.4820291282181598,-1.6280966864540704e-05,0.4820291282181598,-1.561e-05,0.4820291282181598,-2.232352102260119e-05
0.4828232453980909,4.615403911623641e-05,0.4828232453980909,-1.3598349130675468e-05,0.4828232453980909,-1.561e-05,0.4828232453980909,-1.9976330394422555e-05
0.483617362578022,-2.143232288887489e-06,0.483617362578022,-1.2589508498330002e-05,0.483617362578022,-1.2926555995546672e-05,0.483617362578022,-1.729065599554667e-05
0.484411479757953,-0.0001014838931099,0.484411479757953,-1.0240339693685277e-05,0.484411479757953,-8.563169424577631e-06,0.484411479757953,-1.7623980043759245e-05
0.4852055969378841,-0.0001324173222035,0.4852055969378841,-5.8769353593435545e-06,0.4852055969378841,-1.0237947939885484e-05,0.4852055969378841,-1.443661894924439e-05
0.4859997141178152,-2.0014591178883843e-05,0.4859997141178152,-2.854527821319061e-06,0.4859997141178152,-1.2252274780986583e-05,0.4859997141178152,-1.091146911527082e-05
0.4867938312977463,-2.769345950868893e-05,0.4867938312977463,1.8453414313879104e-06,0.4867938312977463,-1.0239227959797792e-05,0.4867938312977463,-1.2252714693468138e-05
0.4875879484776773,-0.0001156422927736,0.4875879484776773,5.036351332024233e-07,0.4875879484776773,-1.02388e-05,0.4875879484776773,-1.2588678216569614e-05
0.4883820656576084,-0.0001592860574806,0.4883820656576084,-2.182206557806391e-06,0.4883820656576084,-1.2253083279316656e-05,0.4883820656576084,-9.56718792264917e-06
0.4891761828375395,-0.0001236845405483,0.4891761828375395,-4.196577423522851e-06,0.4891761828375395,-1.326079485164539e-05,0.4891761828375395,-6.881511179346337e-06
0.4899703000174705,-3.482312778089993e-05,0.4899703000174705,-5.705539909926701e-06,0.4899703000174705,-1.627873980224378e-05,0.4899703000174705,-5.540212301309065e-06
0.4907644171974016,-3.2396624846128445e-05,0.4907644171974016,-8.893669144737188e-06,0.4907644171974016,-1.829412156046133e-05,0.4907644171974016,-4.197215626359113e-06
0.4915585343773327,-7.131306396437306e-05,0.4915585343773327,-1.3089739242845912e-05,0.4915585343773327,-1.82956e-05,0.4915585343773327,-1.702113495039889e-07
0.4923526515572637,-2.234540865917836e-05,0.4923526515572637,-1.69511057959352e-05,0.4923526515572637,-1.913443172148081e-05,0.4923526515572637,5.032533609473931e-07
0.4931467687371948,6.560348254722378e-05,0.4931467687371948,-1.7959606669054032e-05,0.4931467687371948,-2.0980662212035908e-05,0.4931467687371948,1.8459488944021436e-06
0.4939408859171259,0.0001183264272966,0.4939408859171259,-1.6617292935117546e-05,0.4939408859171259,-1.5946423506690792e-05,0.4939408859171259,7.888041796281484e-06
0.494735003097057,0.0001124589548235,0.494735003097057,-1.6952797381153567e-05,0.494735003097057,-1.1917309165962525e-05,0.494735003097057,1.0406681013285332e-05
0.495529120276988,0.0001008797934519,0.495529120276988,-1.62814e-05,0.495529120276988,-1.4267174598105294e-05,0.495529120276988,5.538166595953201e-06
0.4963232374569191,0.000119323289817,0.4963232374569191,-1.62814e-05,0.4963232374569191,-1.409946104526198e-05,0.4963232374569191,-1.6237511183060088e-07
0.4971173546368502,7.908974283265354e-05,0.4971173546368502,-2.0977380002857088e-05,0.4971173546368502,-1.7621334961502816e-05,0.4971173546368502,-9.89518718860259e-06
0.4979114718167812,1.598768278284e-05,0.4979114718167812,-2.06457233137362e-05,0.4979114718167812,-1.8966106745055203e-05,0.4979114718167812,-2.0973830646705428e-05
0.4987055889967123,-4.377776894854732e-05,0.4987055889967123,-2.1652078688399213e-05,0.4987055889967123,-1.628279016426876e-05,0.4987055889967123,-2.2994257428562063e-05
0.4994997061766434,-5.119126703572365e-05,0.4994997061766434,-2.2994803127681496e-05,0.4994997061766434,-1.393236959131694e-05,0.4994997061766434,-2.450544095850781e-05
0.5002938233565745,-4.51527443143114e-05,0.5002938233565745,-2.4337801263486355e-05,0.5002938233565745,-1.2924624052385233e-05,0.5002938233565745,-3.138626898649122e-05
0.5010879405365055,-6.797719042453423e-05,0.5010879405365055,-2.299540056370323e-05,0.5010879405365055,-1.393142457722258e-05,0.5010879405365055,-3.340184915444516e-05
0.5018820577164366,-7.21724303524925e-05,0.5018820577164366,-1.8966682770402253e-05,0.5018820577164366,-1.2252804782512908e-05,0.5018820577164366,-3.004531722959775e-05
0.5026761748963677,-3.405918345525168e-05,0.5026761748963677,-1.4602124560104473e-05,0.5026761748963677,-9.56770540766492e-06,0.5026761748963677,-3.4409764672195974e-05
0.5034702920762988,3.0491056043496927e-05,0.5034702920762988,-1.1081238728883071e-05,0.5034702920762988,-1.0909004285702197e-05,0.5034702920762988,-3.742770962279436e-05
0.5042644092562298,6.124214669780777e-05,0.5042644092562298,-6.884942073385006e-06,0.5042644092562298,-7.555717625971573e-06,0.5042644092562298,-2.904414410212942e-05
0.5050585264361609,8.575638393521154e-05,0.5050585264361609,-3.5268322028619195e-06,0.5050585264361609,-8.22420956419904e-06,0.5050585264361609,-1.89730065668358e-05
0.505852643616092,6.966463252864077e-05,0.505852643616092,-5.049040910409127e-07,0.505852643616092,-1.325783983928822e-05,0.505852643616092,-1.8967e-05
0.506646760796023,1.730427688809696e-05,0.506646760796023,5.032445977728212e-07,0.506646760796023,-1.3595698865522588e-05,0.506646760796023,-1.460421474820636e-05
0.507440877975954,-1.651662615453427e-07,0.507440877975954,1.8461336361300408e-06,0.507440877975954,-1.35958e-05,0.507440877975954,-8.225590232685423e-06
0.5082349951558852,1.678478735669986e-06,0.5082349951558852,2.5177359038555917e-06,0.5082349951558852,-9.735283552769342e-06,0.5082349951558852,-6.881828192227808e-06
0.5090291123358163,-4.918701015073017e-05,0.5090291123358163,2.517550258447612e-06,0.5090291123358163,-1.0071687806062263e-05,0.5090291123358163,-1.124623204771668e-05
0.5098232295157473,-0.0001001565473162,0.5098232295157473,1.1762413915151809e-06,0.5098232295157473,-1.4933882504215598e-05,0.5098232295157473,-1.3593522564848432e-05
0.5106173466956784,-0.0001189895321562,0.5106173466956784,-1.5084303009822273e-06,0.5106173466956784,-1.560944757113155e-05,0.5106173466956784,-9.570724564982687e-06
0.5114114638756094,-6.43232471406664e-05,0.5114114638756094,-3.523469979362469e-06,0.5114114638756094,-1.7622839972610274e-05,0.5114114638756094,-1.459949993827788e-05
0.5122055810555405,1.0535000607810031e-05,0.5122055810555405,-4.866921487883743e-06,0.5122055810555405,-2.030838297576749e-05,0.5122055810555405,-2.2990871852037185e-05
0.5129996982354716,2.668187596633777e-05,0.5129996982354716,-4.532057584826413e-06,0.5129996982354716,-1.5611786187569788e-05,0.5129996982354716,-1.9639675810258527e-05
0.5137938154154027,-4.524672168506347e-06,0.5137938154154027,-6.881273710958076e-06,0.5137938154154027,-1.493875608324762e-05,0.5137938154154027,-1.8967156083247618e-05
0.5145879325953338,-3.725972141920852e-05,0.5145879325953338,-1.2923887030115304e-05,0.5145879325953338,-1.359591399368501e-05,0.5145879325953338,-2.030968600631499e-05
0.5153820497752648,-4.061995245966459e-05,0.5153820497752648,-1.829557895521865e-05,0.5153820497752648,-1.7624263134344052e-05,0.5153820497752648,-1.594572104478135e-05
0.5161761669551959,-4.783862148146288e-05,0.5161761669551959,-1.7960181996776154e-05,0.5161761669551959,-1.863101800322385e-05,0.5161761669551959,-1.6281118003223846e-05
0.5169702841351269,-5.555114746632543e-05,0.5169702841351269,-1.9301490863708774e-05,0.5169702841351269,-1.728970913629123e-05,0.5169702841351269,-1.4939809136291228e-05
0.5177644013150581,-4.65010342826768e-05,0.5177644013150581,-2.3663409494853035e-05,0.5177644013150581,-1.42694780942256e-05,0.5177644013150581,-1.091323745896747e-05
0.5185585184949891,-3.743589655556355e-05,0.5185585184949891,-2.299570715675604e-05,0.5185585184949891,-1.6951171372975853e-05,0.5185585184949891,-7.219759350029614e-06
0.5193526356749202,-2.5854114190609425e-05,0.5193526356749202,-2.0311032235518548e-05,0.5193526356749202,-1.5275070175877074e-05,0.5193526356749202,-4.197616311990255e-06
0.5201467528548512,-2.86059767212682e-06,0.5201467528548512,-2.1316586524081423e-05,0.5201467528548512,-1.4938704491972856e-05,0.5201467528548512,-1.847071440697344e-06
0.5209408700347823,1.4935687724997591e-05,0.5209408700347823,-1.963867474385127e-05,0.5209408700347823,-1.2924729692621522e-05,0.5209408700347823,3.020493246105003e-06
0.5217349872147133,2.51772351309918e-05,0.5217349872147133,-1.4435083787103693e-05,0.5217349872147133,-9.231769461083126e-06,0.5217349872147133,1.8463589194867748e-06
0.5225291043946444,2.8701935507304783e-05,0.5225291043946444,-1.7624023671536522e-05,0.5225291043946444,-1.1245767753652393e-05,0.5225291043946444,-3.5250944926952165e-06
0.5233232215745756,2.6689972206905572e-05,0.5233232215745756,-1.6282714804603716e-05,0.5233232215745756,-1.0239786103452787e-05,0.5233232215745756,-5.537057793094425e-06
0.5241173387545066,2.903594299649263e-05,0.5241173387545066,-1.3598036575436989e-05,0.5241173387545066,-1.2251322568422258e-05,0.5241173387545066,-1.0905726874110108e-05
0.5249114559344377,3.071524985636467e-05,0.5249114559344377,-1.4266739942545868e-05,0.5249114559344377,-1.2923939942545866e-05,0.5249114559344377,-2.0974299138188e-05
0.5257055731143687,4.413718057902149e-05,0.5257055731143687,-1.560927805790215e-05,0.5257055731143687,-8.394896549203856e-06,0.5257055731143687,-2.031016097104893e-05
0.5264996902942998,2.333911842395525e-05,0.5264996902942998,-1.5442165490663808e-05,0.5264996902942998,-8.22467547116093e-06,0.5264996902942998,-1.762524753857487e-05
0.5272938074742308,1.0577593142285898e-05,0.5272938074742308,-1.2925010481270974e-05,0.5272938074742308,-1.0909548809470342e-05,0.5272938074742308,-1.561048839471581e-05
0.528087924654162,7.217838557268632e-06,0.528087924654162,-1.4602740720416744e-05,0.528087924654162,-1.09102e-05,0.528087924654162,-1.8295345152666796e-05
0.528882041834093,6.546296871805771e-06,0.528882041834093,-1.762425306185786e-05,0.528882041834093,-1.0238888436429764e-05,0.528882041834093,-1.6281258501712378e-05
0.5296761590140241,9.902562836625492e-06,0.5296761590140241,-1.863015851932842e-05,0.5296761590140241,-1.1917098562234429e-05,0.5296761590140241,-1.35958e-05
0.5304702761939551,7.219965080550946e-06,0.5304702761939551,-1.2929595834864796e-05,0.5304702761939551,-1.0911116912034964e-05,0.5304702761939551,-1.35958e-05
0.5312643933738862,1.0118448399868757e-06,0.5312643933738862,-4.2028984330573845e-06,0.5312643933738862,-1.09102e-05,0.5312643933738862,-1.4937574083695728e-05
0.5320585105538173,-1.1573839935566644e-05,0.5320585105538173,-4.19623e-06,0.5320585105538173,-1.4936116769518433e-05,0.5320585105538173,-1.3596627743493856e-05
0.5328526277337483,-1.5440290007727025e-05,0.5328526277337483,-4.8673152146581856e-06,0.5328526277337483,-1.695185564397456e-05,0.5328526277337483,-1.2589172178012722e-05
0.5336467449136795,-1.6952314661329476e-05,0.5336467449136795,-8.223531511742785e-06,0.5336467449136795,-1.594602354840477e-05,0.5336467449136795,-1.3259884301063488e-05
0.5344408620936105,-2.3665533892054577e-05,0.5344408620936105,-1.0406321002325529e-05,0.5344408620936105,-1.9973400324811607e-05,0.5344408620936105,-9.568051367185837e-06
0.5352349792735416,-3.743004071441309e-05,0.5352349792735416,-1.2588643041395072e-05,0.5352349792735416,-1.8967026289189287e-05,0.5352349792735416,-7.217581341180629e-06
0.5360290964534726,-7.016419719603446e-05,0.5360290964534726,-1.09102e-05,0.5360290964534726,-1.6953125830749884e-05,0.5360290964534726,-8.895765628150838e-06
0.5368232136334037,-9.648723387615693e-05,0.5368232136334037,-1.09102e-05,0.5368232136334037,-1.963574356461512e-05,0.5368232136334037,-6.883812316647256e-06
0.5376173308133347,-0.0001223402146028,0.5376173308133347,-9.56854170927242e-06,0.5376173308133347,-1.729048050597581e-05,0.5376173308133347,-1.012051239655401e-06
0.5384114479932659,-0.0001505413954182,0.5384114479932659,-9.231943386222468e-06,0.5384114479932659,-1.6282100158667395e-05,0.5384114479932659,-3.858546231013497e-06
0.539205565173197,-0.0001472058384301,0.539205565173197,-1.2922377732257932e-05,0.539205565173197,-2.0307593883761664e-05,0.539205565173197,-2.182959209622899e-06
0.539999682353128,-0.0001111304373303,0.539999682353128,-1.3259965700182695e-05,0.539999682353128,-1.963866859963461e-05,0.539999682353128,-5.537687005827547e-06
0.5407937995330591,-5.087351369872399e-05,0.5407937995330591,-1.2588869513229402e-05,0.5407937995330591,-1.577877471369292e-05,0.5407937995330591,-8.55954719551724e-06
0.5415879167129901,1.7281351708813006e-05,0.5415879167129901,-1.359569435976371e-05,0.5415879167129901,-1.644912957317581e-05,0.5415879167129901,-1.4266601373043313e-05
0.5423820338929212,7.419046756298635e-05,0.5423820338929212,-1.42672e-05,0.5423820338929212,-1.6281242372304937e-05,0.5423820338929212,-1.6617171648952302e-05
0.5431761510728523,9.920017587199734e-05,0.5431761510728523,-1.4266817244101658e-05,0.5431761510728523,-1.2588636207350278e-05,0.5431761510728523,-1.829547241470056e-05
0.5439702682527834,0.0001059068200956,0.5439702682527834,-1.2254853943702732e-05,0.5439702682527834,-1.225330899061712e-05,0.5439702682527834,-1.7624817981234243e-05
0.5447643854327144,0.0001240269686703,0.5447643854327144,-1.0911239346286054e-05,0.5447643854327144,-1.0911239346286054e-05,0.5447643854327144,-2.4332903345971156e-05
0.5455585026126455,0.0001636281857583,0.5455585026126455,-1.2587648533155452e-05,0.5455585026126455,-1.1748874297899349e-05,0.5455585026126455,-2.6015548533155453e-05
0.5463526197925765,0.0001706996241028,0.5463526197925765,-1.3595317749501084e-05,0.5463526197925765,-1.1917219600974317e-05,0.5463526197925765,-2.5009982250498915e-05
0.5471467369725076,0.0001381507871086,0.5471467369725076,-1.5609332758217508e-05,0.5471467369725076,-9.064805255879175e-06,0.5471467369725076,-2.534508879303625e-05
0.5479408541524387,0.0001216940214691,0.5479408541524387,-1.5777769177303784e-05,0.5479408541524387,-7.553497485088281e-06,0.5479408541524387,-2.8701583362388552e-05
0.5487349713323698,0.0001156482181844,0.5487349713323698,-1.225312726405892e-05,0.5487349713323698,-8.560273638685573e-06,0.5487349713323698,-2.7023760602792472e-05
0.5495290885123009,7.032102591986163e-05,0.5495290885123009,-9.902763622082731e-06,0.5495290885123009,-1.4938917686791403e-05,0.5495290885123009,-2.702310200198875e-05
0.5503232056922319,5.733124529235022e-07,0.5503232056922319,-6.884838649275031e-06,0.5503232056922319,-1.7789149084546488e-05,0.5503232056922319,-2.1657966423211727e-05
0.551117322872163,-2.632939717598531e-05,0.551117322872163,-6.88182e-06,0.551117322872163,-1.6282688248502024e-05,0.551117322872163,-1.3602670886092353e-05
0.551911440052094,-1.8636221926761232e-06,0.551911440052094,-5.875430231153733e-06,0.551911440052094,-1.4939546974871645e-05,0.551911440052094,-1.1750702125709713e-05
0.5527055572320251,-4.193992964436725e-05,0.5527055572320251,-5.539217194938932e-06,0.5527055572320251,-1.49386e-05,0.5527055572320251,-1.4265795968252731e-05
0.5534996744119562,-5.991483535427341e-05,0.5534996744119562,-8.894633435074179e-06,0.5534996744119562,-1.49386e-05,0.5534996744119562,-1.3931637657312704e-05
0.5542937915918873,-4.079242247802778e-05,0.5542937915918873,-1.3594566405083396e-05,0.5542937915918873,-1.2253704912880792e-05,0.5542937915918873,-1.4602723771779802e-05
0.5550879087718184,-4.716486716424639e-05,0.5550879087718184,-1.5609768574554747e-05,0.5550879087718184,-1.1581677141815084e-05,0.5550879087718184,-1.795951429092458e-05
0.5558820259517494,-4.884417680606544e-05,0.5558820259517494,-1.5610065833770372e-05,0.5558820259517494,-1.0910232916885185e-05,0.5558820259517494,-1.7624057360164198e-05
0.5566761431316805,-5.119478571190806e-05,0.5566761431316805,-1.76242e-05,0.5566761431316805,-1.1917602196887714e-05,0.5566761431316805,-1.3259707153047964e-05
0.5574702603116115,-5.5554039529438456e-05,0.5574702603116115,-1.76242e-05,0.5574702603116115,-1.3594238280553252e-05,0.5574702603116115,-1.108013018875949e-05
0.5582643774915427,-6.159596250679559e-05,0.5582643774915427,-1.4940705552535297e-05,0.5582643774915427,-1.4266673611866175e-05,0.5582643774915427,-1.2252078859966592e-05
0.5590584946714737,-6.394910444394983e-05,0.5590584946714737,-1.5274086349135693e-05,0.5590584946714737,-1.560914539654277e-05,0.5590584946714737,-7.556211099371636e-06
0.5598526118514048,-6.478938975528822e-05,0.5598526118514048,-1.6280907677014747e-05,0.5598526118514048,-1.561e-05,0.5598526118514048,-5.540014641081986e-06
0.5606467290313358,-6.327971552300265e-05,0.5606467290313358,-1.7791484476997355e-05,0.5606467290313358,-1.3932072822295738e-05,0.5606467290313358,-1.512014770097065e-06
0.5614408462112669,-6.395046995748692e-05,0.5614408462112669,-1.6617327564713473e-05,0.5614408462112669,-1.5274039914973826e-05,0.5614408462112669,8.38790853915836e-07
0.5622349633911979,-6.462196904389204e-05,0.5622349633911979,-1.5945730956107973e-05,0.5622349633911979,-1.8295460697514124e-05,0.5622349633911979,-2.8532697420516444e-06
0.563029080571129,-7.771566294873834e-05,0.563029080571129,-1.4938531955401252e-05,0.563029080571129,-1.829515771010814e-05,0.563029080571129,-7.721359187517731e-06
0.5638231977510602,-9.213463337931256e-05,0.5638231977510602,-1.426787752193485e-05,0.5638231977510602,-1.393590389257652e-05,0.5638231977510602,-1.0571620551959252e-05
0.5646173149309912,-7.168926822308998e-05,0.5646173149309912,-1.4434855220932408e-05,0.5646173149309912,-1.4266910355584089e-05,0.5646173149309912,-1.761811746726582e-05
0.5654114321109223,-2.8565252827109903e-05,0.5654114321109223,-1.3093160404853423e-05,0.5654114321109223,-1.3596280202426711e-05,0.5654114321109223,-1.9636959392719863e-05
0.5662055492908533,-2.199201585282749e-05,0.5662055492908533,-1.0911438598687704e-05,0.5662055492908533,-1.5608856651935488e-05,0.5662055492908533,-1.8631871674032256e-05
0.5669996664707844,-5.185284976608717e-05,0.5669996664707844,-7.554630139680245e-06,0.5669996664707844,-1.4938882029616296e-05,0.5669996664707844,-1.6450116617256067e-05
0.5677937836507154,-7.468667995806779e-05,0.5677937836507154,-6.210785886422367e-06,0.5677937836507154,-1.5777571334610032e-05,0.5677937836507154,-2.198679070488373e-05
