X [s].2,L DELTOID ANTERIOR: EMG 3 [V],X [s].3,L BICEPS BRACHII: EMG 4 [V],X [s].4,L DELTOID POSTERIOR: EMG 5 [V],X [s].7,L DELTOID MEDIUS: EMG 8 [V]
0.0,-0.000107591,0.0,-2.13169e-05,0.0,-1.12459e-05,0.0,-1.2253e-05
0.000794117179931,-0.0001211869859596,0.000794117179931,-6.54613525347334e-06,0.000794117179931,-1.49385961866265e-05,0.000794117179931,-1.2253e-05
0.0015882343598621,-0.0001277329535079,0.0015882343598621,3.743008766306013e-05,0.0015882343598621,-1.3931507152783623e-05,0.0015882343598621,-8.224638611063476e-06
0.0023823515397932,-0.0001156479534597,0.0023823515397932,4.213013490821445e-05,0.0023823515397932,-1.3763597070957002e-05,0.0023823515397932,-8.560305443579473e-06
0.0031764687197242,-9.164573869637064e-05,0.0031764687197242,8.560364121184463e-06,0.0031764687197242,-1.2253002435380673e-05,0.0031764687197242,-6.210423788479205e-06
0.0039705858996553,-6.730762566741562e-05,0.0039705858996553,-1.628127173277008e-05,0.0039705858996553,-1.292439653330555e-05,0.0039705858996553,-6.378269133326387e-06
0.0047647030795864,-5.992226435970683e-05,0.0047647030795864,-3.4073244950387404e-05,0.0047647030795864,-1.7791957580963677e-05,0.0047647030795864,-8.224593909942574e-06
0.0055588202595174,-5.052259286911861e-05,0.0055588202595174,-5.3879602962072e-05,0.0055588202595174,-1.4938599780587258e-05,0.0055588202595174,-8.560310987354066e-06
0.0063529374394485,-2.8702270357447903e-05,0.0063529374394485,-6.294347077446463e-05,0.0063529374394485,-1.4267202164854472e-05,0.0063529374394485,-1.1581590258187118e-05
0.0071470546193796,-6.210572394763406e-06,0.0071470546193796,-5.488675458946023e-05,0.0071470546193796,-1.4434998863058358e-05,0.0071470546193796,-1.0238809098243373e-05
0.0079411717993107,4.078691466463592e-05,0.0079411717993107,-3.843766986699534e-05,0.0079411717993107,-1.4938594799441988e-05,0.0079411717993107,-8.224630800063428e-06
0.0087352889792417,0.0001059129162867,0.0087352889792417,-2.836651294538044e-05,0.0087352889792417,-1.3595801726050724e-05,0.0087352889792417,-1.0238797410936763e-05
0.0095294061591728,9.114217144068123e-05,0.0095294061591728,-1.7624251956023678e-05,0.0095294061591728,-1.2588704870922564e-05,0.0095294061591728,-9.903101623640856e-06
0.0103235233391039,3.0715729085554326e-05,0.0103235233391039,-1.0239066393784167e-05,0.0103235233391039,-1.0910239465745802e-05,0.0103235233391039,-9.567469198324795e-06
0.0111176405190349,7.887976582143385e-06,0.0111176405190349,-1.9302306079676343e-05,0.0111176405190349,-1.2253085634852968e-05,0.0111176405190349,-1.158173701576475e-05
0.011911757698966,-1.0405725531075818e-05,0.011911757698966,-1.1582011244665276e-05,0.011911757698966,-1.3931410598985807e-05,0.011911757698966,-1.4267056958377294e-05
0.0127058748788971,-3.843661325448896e-05,0.0127058748788971,5.034954323918807e-06,0.0127058748788971,-1.6281325661655163e-05,0.0127058748788971,-1.4938578760472903e-05
0.0134999920588282,-9.85268990869998e-05,0.0134999920588282,1.9973950610568093e-05,0.0134999920588282,-1.4267220142435762e-05,0.0134999920588282,-1.3595813428290507e-05
0.0142941092387592,-2.920482555230776e-05,0.0142941092387592,5.75728233516879e-05,0.0142941092387592,-1.695274532134389e-05,0.0142941092387592,-1.4267215622473172e-05
0.0150882264186903,5.455038582366249e-05,0.0150882264186903,0.0001025556203219,0.0150882264186903,-1.2252910665108796e-05,0.0150882264186903,-1.5610022333805962e-05
0.0158823435986214,3.6088911207773146e-05,0.0158823435986214,9.114291057629698e-05,0.0158823435986214,-9.56760072145344e-06,0.0158823435986214,-1.6281352319459098e-05
0.0166764607785524,4.0619276164616544e-05,0.0166764607785524,5.1531656498762896e-05,0.0166764607785524,-1.1581500517003684e-05,0.0166764607785524,-1.62814e-05
0.0174705779584835,2.6352696008970443e-05,0.0174705779584835,2.0982047922509924e-05,0.0174705779584835,-1.2252981364218434e-05,0.0174705779584835,-1.561001863578157e-05
0.0182646951384146,-4.397606943777175e-05,0.0182646951384146,-1.29241924254262e-05,0.0182646951384146,-1.2253e-05,0.0182646951384146,-1.3931510275999309e-05
0.0190588123183456,-0.0001200126717616,0.0190588123183456,-5.186568641045698e-05,0.0190588123183456,-1.527433124494635e-05,0.0190588123183456,-1.5274237510107298e-05
0.0198529294982767,-0.0001633161895588,0.0198529294982767,-7.03287438931039e-05,0.0198529294982767,-1.7288549874447294e-05,0.0198529294982767,-1.124578778286501e-05
0.0206470466782078,-0.0001414984649729,0.0206470466782078,-6.88183014201703e-05,0.0206470466782078,-1.863120984575356e-05,0.0206470466782078,-8.224812846383092e-06
0.0214411638581389,-5.925454327003643e-05,0.0214411638581389,-6.12653437686755e-05,0.0214411638581389,-2.0309723606455295e-05,0.0214411638581389,-1.1581447213365728e-05
0.0222352810380699,2.8700099812830526e-05,0.0222352810380699,-5.7908080160180186e-05,0.0222352810380699,-2.1652567935927927e-05,0.0222352810380699,-1.4267135871855853e-05
0.023029398218001,9.181335837517894e-05,0.023029398218001,-4.917981958650453e-05,0.023029398218001,-2.030980301330839e-05,0.023029398218001,-1.3931500753327095e-05
0.0238235153979321,0.0001200112319028,0.0238235153979321,-3.575183490636177e-05,0.0238235153979321,-1.1581665093638227e-05,0.0238235153979321,-1.829561627244004e-05
0.0246176325778631,8.039723873266219e-05,0.0246176325778631,-3.239443181319935e-05,0.0246176325778631,-1.4938634423750676e-05,0.0246176325778631,-1.913480688721132e-05
0.0254117497577942,1.7963850035636068e-05,0.0254117497577942,-2.0981922046667907e-05,0.0254117497577942,-1.5777746911031154e-05,0.0254117497577942,-1.9302689378410547e-05
0.0262058669377253,4.1289928616131016e-05,0.0262058669377253,-7.553779072614335e-06,0.0262058669377253,-1.930255324113841e-05,0.0262058669377253,-2.114892312948278e-05
0.0269999841176564,6.629989979917862e-05,0.0269999841176564,-8.393802823850766e-07,0.0269999841176564,-1.829562014243577e-05,0.0269999841176564,-2.5009422788329595e-05
0.0277941012975874,3.239496747079024e-05,0.0277941012975874,5.03546354369535e-07,0.0277941012975874,-1.443500301708287e-05,0.0277941012975874,-2.568090109709133e-05
0.0285882184775185,7.368651853862764e-05,0.0285882184775185,-5.036182918586857e-07,0.0285882184775185,-1.628143905126526e-05,0.0285882184775185,-2.6352339051265255e-05
0.0293823356574496,0.0001045674978995,0.0293823356574496,-3.5245852291748646e-06,0.0293823356574496,-1.7959764015398102e-05,0.0293823356574496,-2.80306640153981e-05
0.0301764528373806,0.0001032270797624,0.0301764528373806,-5.538910374074011e-06,0.0301764528373806,-1.2253338940123636e-05,0.0301764528373806,-2.500967943888898e-05
0.0309705700173117,7.234416608153113e-05,0.0309705700173117,-9.567257901194195e-06,0.0309705700173117,-8.896136749256547e-06,0.0309705700173117,-2.0813458435154803e-05
0.0317646871972428,4.246638168902703e-05,0.0317646871972428,-8.224631649089954e-06,0.0317646871972428,-6.546157885746197e-06,0.0317646871972428,-1.7959946003510037e-05
0.0325588043771738,1.9973772477040088e-05,0.0325588043771738,-8.896030354547624e-06,0.0325588043771738,-7.049680177246251e-06,0.0325588043771738,-1.594568704707098e-05
0.0333529215571049,-3.944645426931718e-05,0.0333529215571049,-1.2588545097190623e-05,0.0333529215571049,-8.896119343271325e-06,0.0333529215571049,-1.3595727104304828e-05
0.034147038737036,-0.0001077537303668,0.034147038737036,-6.882260217053383e-06,0.034147038737036,-1.2924089258232926e-05,0.034147038737036,-1.0910407161692302e-05
0.0349411559169671,-0.0001156475620563,0.0349411559169671,2.349377518227467e-06,0.0349411559169671,-1.6449004327069222e-05,0.0349411559169671,-9.567484542571133e-06
0.0357352730968981,-7.536566476071388e-05,0.0357352730968981,1.5106684327266146e-06,0.0357352730968981,-1.7288471565579447e-05,0.0357352730968981,-7.88896686545323e-06
0.0365293902768292,-7.267873288319778e-05,0.0365293902768292,-4.867551902772592e-06,0.0365293902768292,-2.030976300640249e-05,0.0365293902768292,-5.203362882952898e-06
0.0373235074567603,-9.987017390929126e-05,0.0373235074567603,-9.567424185685982e-06,0.0373235074567603,-2.333096847802708e-05,0.0373235074567603,-3.860542609164776e-06
0.0381176246366913,-8.644191055747538e-05,0.0381176246366913,-1.1078219755662431e-05,0.0381176246366913,-1.997403751797558e-05,0.0381176246366913,-5.203423722416215e-06
0.0389117418166224,-7.066565589462678e-05,0.0389117418166224,-1.4938317178381997e-05,0.0389117418166224,-1.7960047561016185e-05,0.0389117418166224,-8.224388659940929e-06
0.0397058589965535,-3.407528938573251e-05,0.0397058589965535,-1.4267234667817604e-05,0.0397058589965535,-1.863126533218239e-05,0.0397058589965535,-1.0238695997063531e-05
0.0404999761764846,5.025106691181402e-07,0.0404999761764846,-1.5945649643910583e-05,0.0404999761764846,-1.7624230213653648e-05,0.0404999761764846,-1.3595699287821169e-05
0.0412940933564156,2.316301042525007e-05,0.0412940933564156,-1.7624185957365198e-05,0.0412940933564156,-1.644920983026267e-05,0.0412940933564156,-1.326010280852696e-05
0.0420882105363467,2.8702151010365644e-05,0.0420882105363467,-1.6776438195192397e-07,0.0420882105363467,-1.1917357896840602e-05,0.0420882105363467,-1.493863117522186e-05
0.0428823277162778,2.5009836089273387e-05,0.0428823277162778,6.209839484985597e-06,0.0428823277162778,-1.6281002803585996e-05,0.0428823277162778,-1.7288286125007843e-05
0.0436764448962088,1.8296065887600056e-05,0.0436764448962088,7.888793527059115e-06,0.0436764448962088,-1.829546023163824e-05,0.0436764448962088,-1.4267409652542642e-05
0.0444705620761399,-1.0405329263306662e-05,0.0444705620761399,1.8966470943288335e-05,0.0444705620761399,-1.7288548096108112e-05,0.0444705620761399,-9.903308416468484e-06
0.045264679256071,-8.375488390723477e-05,0.045264679256071,5.455007045464208e-05,0.045264679256071,-1.5274352616070704e-05,0.045264679256071,-1.2924321075893944e-05
0.046058796436002,-0.0001050739043263,0.046058796436002,6.495765329371998e-05,0.046058796436002,-1.896698342680386e-05,0.046058796436002,-1.527428945342064e-05
0.0468529136159331,-4.582240288518894e-05,0.0468529136159331,1.997342087490273e-05,0.0468529136159331,-2.2323819427346933e-05,0.0468529136159331,-1.292436546812822e-05
0.0476470307958642,-2.2661618369727384e-05,0.0476470307958642,-1.963494828906084e-05,0.0476470307958642,-1.7624609517346818e-05,0.0476470307958642,-1.091037551116879e-05
0.0484411479757953,2.8363157105816464e-05,0.0484411479757953,-4.17930484781745e-05,0.0484411479757953,-1.3596063914250332e-05,0.0484411479757953,-9.567497970761645e-06
0.0492352651557263,8.174025791281514e-05,0.0492352651557263,-4.917947594079585e-05,0.0492352651557263,-1.1246003111142922e-05,0.0492352651557263,-1.091014107978569e-05
0.0500293823356574,7.368597921933651e-05,0.0500293823356574,-5.28724178578041e-05,0.0500293823356574,-8.560369739556391e-06,0.0500293823356574,-9.903122402417064e-06
0.0508234995155885,5.555811105813631e-05,0.0508234995155885,-4.6494203890847205e-05,0.0508234995155885,-7.217520819119627e-06,0.0508234995155885,-1.0910199385655703e-05
0.0516176166955195,1.7287836642146078e-05,0.0516176166955195,-2.265913071122739e-05,0.0516176166955195,-9.56741e-06,0.0516176166955195,-1.4267284684249714e-05
0.0524117338754506,-1.4264572693979222e-05,0.0524117338754506,-3.375566728271551e-07,0.0524117338754506,-9.56741e-06,0.0524117338754506,-1.8295264598168507e-05
0.0532058510553817,-1.6281275854111426e-05,0.0532058510553817,-1.2923624091154916e-05,0.0532058510553817,-1.3091982748393118e-05,0.0532058510553817,-1.812771034857248e-05
0.0539999682353128,1.2251858599306836e-05,0.0539999682353128,-3.0380001732893624e-05,0.0539999682353128,-1.3595779855564192e-05,0.0539999682353128,-1.695284699701674e-05
0.0547940854152438,7.80486915479911e-05,0.0547940854152438,-2.970931233119917e-05,0.0547940854152438,-1.2588718496798758e-05,0.0547940854152438,-2.030973834400414e-05
0.0555882025951749,0.000129411811324,0.0555882025951749,-3.172354168389469e-05,0.0555882025951749,-1.158160548476598e-05,0.0555882025951749,-1.7624197806093607e-05
0.056382319775106,7.167743255788044e-05,0.056382319775106,-4.4478711421732414e-05,0.056382319775106,-1.3259930448898824e-05,0.056382319775106,-1.695286782044047e-05
0.057176436955037,2.467753123606369e-05,0.057176436955037,-4.515134669640083e-05,0.057176436955037,-1.1246059910797517e-05,0.057176436955037,-1.5945779955398756e-05
0.0579705541349681,-4.530243157365044e-06,0.0579705541349681,-4.213037449620224e-05,0.0579705541349681,-1.2588622443565347e-05,0.0579705541349681,-1.2924574501977966e-05
0.0587646713148992,-7.871862007359864e-05,0.0587646713148992,-5.052229684316863e-05,0.0587646713148992,-1.3595763620746762e-05,0.0587646713148992,-1.5609902988658035e-05
0.0595587884948302,-9.919860331411262e-05,0.0595587884948302,-4.448008754708282e-05,0.0595587884948302,-1.4938580545092708e-05,0.0595587884948302,-1.460291459118047e-05
0.0603529056747613,-8.509935293852477e-05,0.0603529056747613,-2.9037828040853437e-05,0.0603529056747613,-1.5609964020069456e-05,0.0603529056747613,-1.5609997601337966e-05
0.0611470228546924,-5.052595866696009e-05,0.0611470228546924,-1.8967978245628257e-05,0.0611470228546924,-1.0574989127670924e-05,0.0611470228546924,-1.5274332608511395e-05
0.0619411400346235,-1.225588987655511e-05,0.0619411400346235,-1.3931880248902347e-05,0.0619411400346235,-1.2252873250365884e-05,0.0619411400346235,-1.292457744948776e-05
0.0627352572145545,-1.5274137214876898e-05,0.0627352572145545,-1.56099095638205e-05,0.0627352572145545,-1.3595727651056398e-05,0.0627352572145545,-1.22530361744718e-05
0.0635293743944856,-3.64226180568909e-05,0.0635293743944856,-1.4938621649089954e-05,0.0635293743944856,-8.224783192397191e-06,0.0635293743944856,-1.091024329817991e-05
0.0643234915744167,2.030919804878585e-05,0.0643234915744167,1.0574229300152436e-05,0.0643234915744167,-7.217530685456078e-06,0.0643234915744167,-1.023880712370812e-05
0.0651176087543477,8.778504088405218e-05,0.0651176087543477,3.205931841186815e-05,0.0651176087543477,-4.867600397143192e-06,0.0651176087543477,-7.553236651558729e-06
0.0659117259342788,7.335144619250998e-05,0.0659117259342788,4.280059818231816e-05,0.0659117259342788,-2.1822904534878777e-06,0.0659117259342788,-9.063719120321074e-06
0.0667058431142099,4.683179978910675e-05,0.0667058431142099,4.145889619221622e-05,0.0667058431142099,-3.1890678558378363e-06,0.0667058431142099,-9.903039880581218e-06
0.067499960294141,-8.893223644219488e-06,0.067499960294141,2.3331906409609425e-05,0.067499960294141,-7.5530017912792335e-06,0.067499960294141,-9.567426784863126e-06
0.068294077474072,-5.152849062658574e-05,0.068294077474072,-1.5099353267947771e-06,0.068294077474072,-1.29242476378119e-05,0.068294077474072,-1.04066761921848e-05
0.0690881946540031,-6.059353898050497e-05,0.0690881946540031,-3.508027400281274e-05,0.0690881946540031,-1.4938586440112215e-05,0.0690881946540031,-9.903103390308554e-06
0.0698823118339342,-6.025793726687016e-05,0.0698823118339342,-5.454883853263183e-05,0.0698823118339342,-1.5945588199389512e-05,0.0698823118339342,-8.896121799500362e-06
0.0706764290138652,-6.73068698226227e-05,0.0706764290138652,-5.522233998225557e-05,0.0706764290138652,-1.5610030008872216e-05,0.0706764290138652,-8.89601e-06
0.0714705461937963,-7.569943134546771e-05,0.0714705461937963,-5.5558077253818704e-05,0.0714705461937963,-1.6281354507637417e-05,0.0714705461937963,-8.560332746181292e-06
0.0722646633737274,-7.536431548349037e-05,0.0722646633737274,-4.649461805424012e-05,0.0722646633737274,-1.7959822582548126e-05,0.0722646633737274,-1.1245776132538231e-05
0.0730587805536585,-7.804983423360444e-05,0.0730587805536585,-2.8366943920721228e-05,0.0730587805536585,-1.7624208220799444e-05,0.0730587805536585,-1.3595742454403878e-05
0.0738528977335895,-9.886314059755662e-05,0.0738528977335895,-1.2253045988923982e-05,0.0738528977335895,-1.5274306706759704e-05,0.0738528977335895,-1.35958e-05
0.0746470149135206,-3.743698159238147e-05,0.0746470149135206,4.5301317494333394e-06,0.0746470149135206,-1.8295276313548106e-05,0.0746470149135206,-1.35958e-05
0.0754411320934517,5.202564961457595e-05,0.0754411320934517,2.1315464652592825e-05,0.0754411320934517,-1.8966942586001097e-05,0.0754411320934517,-1.7959526809007125e-05
0.0762352492733827,3.474590437869527e-05,0.0762352492733827,5.454887702623151e-05,0.0762352492733827,-1.8967e-05,0.0762352492733827,-1.863125711138294e-05
0.0770293664533138,8.476178694742569e-05,0.0770293664533138,5.757217236544154e-05,0.0770293664533138,-1.9974057455147182e-05,0.0770293664533138,-1.9638357455147185e-05
0.0778234836332449,0.0001257181558971,0.0778234836332449,2.1317647239960323e-05,0.0778234836332449,-2.2323851569574225e-05,0.0778234836332449,-1.896701383785338e-05
0.078617600813176,7.33500257566279e-05,0.078617600813176,1.1749228140136632e-06,0.078617600813176,-2.0309796562790444e-05,0.078617600813176,-1.7624201374883822e-05
0.079411717993107,8.467332700090417e-07,0.079411717993107,-1.5608266833571352e-05,0.079411717993107,-1.695314663452482e-05,0.079411717993107,-1.8966861346190077e-05
0.0802058351730381,-7.233702571128212e-05,0.0802058351730381,-2.702276823385635e-05,0.0802058351730381,-1.5274437025633418e-05,0.0802058351730381,-1.6281619241013466e-05
0.0809999523529692,-0.0001448496492458,0.0809999523529692,-3.256246764680979e-05,0.0809999523529692,-1.091046185166496e-05,0.0809999523529692,-1.4603000712178831e-05
0.0817940695329002,-0.000109607352354,0.0817940695329002,-3.709452612536304e-05,0.0817940695329002,-7.217661676425874e-06,0.0817940695329002,-1.1246028797448374e-05
0.0825881867128313,0.0001675093631278,0.0825881867128313,-4.078733821240688e-05,0.0825881867128313,-6.88182561705392e-06,0.0825881867128313,-6.8818930213663165e-06
0.0833823038927624,0.0002197086830849,0.0833823038927624,-4.481521252986003e-05,0.0833823038927624,-6.88182e-06,0.0833823038927624,-9.73491470128933e-06
0.0841764210726934,-5.385240684440567e-05,0.0841764210726934,-4.112346701545406e-05,0.0841764210726934,-1.023846634253941e-05,0.0841764210726934,-1.0574416586131814e-05
0.0849705382526245,-0.0001700219683363,0.0849705382526245,-2.7024796336664407e-05,0.0849705382526245,-1.762362572841388e-05,0.0849705382526245,-7.553454927730077e-06
0.0857646554325556,-0.000145862356498,0.0857646554325556,-1.62820028924036e-05,0.0857646554325556,-1.76242e-05,0.0857646554325556,-1.0910011595492487e-05
0.0865587726124866,-0.0001062503661682,0.0865587726124866,-1.2924515778720805e-05,0.0865587726124866,-1.6281446311488322e-05,0.0865587726124866,-1.4267084221279194e-05
0.0873528897924177,-6.193696960648366e-05,0.0873528897924177,-1.158161726072463e-05,0.0873528897924177,-1.359583452144926e-05,0.0873528897924177,-1.3595808630362314e-05
0.0881470069723488,-1.5783206731477072e-05,0.0881470069723488,-7.553691859392348e-06,0.0881470069723488,-1.35958e-05,0.0881470069723488,-1.3260139321811253e-05
0.0889411241522799,3.77609858043826e-05,0.0889411241522799,-4.196550639765606e-06,0.0889411241522799,-1.661681142335133e-05,0.0889411241522799,-1.695244729520718e-05
0.0897352413322109,8.039665023936891e-05,0.0897352413322109,-2.182188807548149e-06,0.0897352413322109,-1.7624125595856526e-05,0.0897352413322109,-2.064522718480727e-05
0.090529358512142,0.0001159821408988,0.090529358512142,3.860214305143129e-06,0.090529358512142,-1.7959882461309767e-05,0.090529358512142,-2.06455e-05
0.0913234756920731,0.0001675124226325,0.0913234756920731,8.560166136621847e-06,0.0913234756920731,-1.7120625691528813e-05,0.0913234756920731,-2.182036403553294e-05
0.0921175928720041,0.0002301204380274,0.0921175928720041,5.203360132904366e-06,0.0921175928720041,-1.594571054613055e-05,0.0921175928720041,-2.333098644056106e-05
0.0929117100519352,0.0002062896993479,0.0929117100519352,-4.866489401457894e-06,0.0929117100519352,-1.2924742180921704e-05,0.0929117100519352,-2.2995338020102413e-05
0.0937058272318663,8.712472055326491e-05,0.0937058272318663,-1.2587992472164908e-05,0.0937058272318663,-1.5945423140206194e-05,0.0937058272318663,-2.165272303963365e-05
0.0944999444117974,-1.7616868181383245e-05,0.0944999444117974,-1.9637906510323832e-05,0.0944999444117974,-1.9302465004916116e-05,0.0944999444117974,-2.198827650049161e-05
0.0952940615917284,-7.603287480826999e-05,0.0952940615917284,-2.249166198946984e-05,0.0952940615917284,-1.8295648710452414e-05,0.0952940615917284,-2.0981248710452415e-05
0.0960881787716595,-4.112403330381458e-05,0.0960881787716595,-3.52479589858644e-05,0.0960881787716595,-1.6952835896506197e-05,0.0960881787716595,-1.8967053844759292e-05
0.0968822959515906,8.889456979558641e-06,0.0968822959515906,-3.910839422149423e-05,0.0968822959515906,-1.2924927762040266e-05,0.0968822959515906,-1.728871990085011e-05
0.0976764131315216,-1.560731922957029e-05,0.0976764131315216,-2.7360685305611316e-05,0.0976764131315216,-1.1581746892069864e-05,0.0976764131315216,-1.5274520338104797e-05
0.0984705303114527,-1.5777785274224622e-05,0.0984705303114527,-5.876605450368192e-06,0.0984705303114527,-1.107814418610193e-05,0.0984705303114527,-1.3595947301632744e-05
0.0992646474913838,4.279772652911408e-05,0.0992646474913838,5.031262470390528e-07,0.0992646474913838,-1.1581566706852731e-05,0.0992646474913838,-1.35958e-05
0.1000587646713148,2.081981451306404e-05,0.1000587646713148,1.9129280085565807e-05,0.1000587646713148,-1.057479837532264e-05,0.1000587646713148,-8.56180187365048e-06
0.1008528818512459,-4.715548460663055e-05,0.1008528818512459,4.8168379103646536e-05,0.1008528818512459,-9.567559856963091e-06,0.1008528818512459,-1.0574200284585794e-05
0.101646999031177,-3.810181105946801e-05,0.101646999031177,3.4073417203684696e-05,0.101646999031177,-9.56741e-06,0.101646999031177,-9.567411228831136e-06
0.1024411162111081,-6.328627523669311e-05,0.1024411162111081,7.551107264491392e-06,0.1024411162111081,-1.0910396534352583e-05,0.1024411162111081,-1.0910593068705173e-05
0.1032352333910391,-0.0001116280913792,0.1032352333910391,-6.884188237099144e-06,0.1032352333910391,-1.2253986767907503e-05,0.1032352333910391,-1.3594615881450428e-05
0.1040293505709702,-0.0001391556597644,0.1040293505709702,-1.49387480335531e-05,0.1040293505709702,-1.561066612894046e-05,0.1040293505709702,-9.567558029143402e-06
0.1048234677509013,-0.000158771852443,0.1048234677509013,-1.5274075250286254e-05,0.1048234677509013,-1.711958865976293e-05,0.1048234677509013,-9.902875256981212e-06
0.1056175849308323,-0.0001673415246761,0.1056175849308323,-2.0978216677288807e-05,0.1056175849308323,-1.628183869779026e-05,0.1056175849308323,-1.4264918635573791e-05
0.1064117021107634,-0.0001232175621163,0.1064117021107634,-3.5746358397296995e-05,0.1064117021107634,-1.359680757094919e-05,0.1064117021107634,-1.2924903785474594e-05
0.1072058192906945,-7.269019855131417e-05,0.1072058192906945,-3.776564158100369e-05,0.1072058192906945,-1.2253305612664205e-05,0.1072058192906945,-9.56817402938457e-06
0.1079999364706256,-7.03289880197442e-05,0.1079999364706256,-2.568186695868451e-05,0.1079999364706256,-1.3595692560146163e-05,0.1079999364706256,-8.224717439853834e-06
0.1087940536505566,-4.64898902048356e-05,0.1087940536505566,1.2588518534086932e-05,0.1087940536505566,-1.4938713416195668e-05,0.1087940536505566,-9.567364633521732e-06
0.1095881708304877,1.7304534184003725e-05,0.1095881708304877,9.899199791510148e-06,0.1095881708304877,-1.6617027773558268e-05,0.1095881708304877,-8.897165620916188e-06
0.1103822880104188,9.184248113907713e-05,0.1103822880104188,-8.228141316058225e-06,0.1103822880104188,-1.6279695224979383e-05,0.1103822880104188,-1.426768707857732e-05
0.1111764051903498,0.0001717046958289,0.1111764051903498,-1.7965203967163646e-05,0.1111764051903498,-1.1581428902640935e-05,0.1111764051903498,-1.5609657805281873e-05
0.1119705223702809,0.0001613092524433,0.1119705223702809,-2.8360247796937984e-05,0.1119705223702809,-1.1246101685907782e-05,0.1119705223702809,-1.4939003371815563e-05
0.112764639550212,5.057289064444817e-05,0.112764639550212,-3.9104023305034826e-05,0.112764639550212,-1.292363801641169e-05,0.112764639550212,-1.49386e-05
0.1135587567301431,-1.391175221702334e-05,0.1135587567301431,-4.917671442518661e-05,0.1135587567301431,-1.4266788585939743e-05,0.1135587567301431,-1.7287780025394552e-05
0.1143528739100741,-4.313266201869532e-05,0.1143528739100741,-5.119368013812517e-05,0.1143528739100741,-1.6448853490909108e-05,0.1143528739100741,-1.762414668968753e-05
0.1151469910900052,-6.562884760476025e-05,0.1151469910900052,-5.5558051027571565e-05,0.1151469910900052,-1.5610009417213616e-05,0.1151469910900052,-1.4938630136879035e-05
0.1159411082699363,-8.476357956735097e-05,0.1159411082699363,-5.253524362648358e-05,0.1159411082699363,-1.4938371119536406e-05,0.1159411082699363,-1.527466620874175e-05
0.1167352254498673,-8.24104731860735e-05,0.1167352254498673,-4.11174285161261e-05,0.1167352254498673,-1.3259432764932823e-05,0.1167352254498673,-1.795885148775158e-05
0.1175293426297984,-6.997284484686593e-05,0.1175293426297984,-2.113301289360433e-05,0.1175293426297984,-1.0911502122528372e-05,0.1175293426297984,-1.4266476598595349e-05
0.1183234598097295,-2.3027234282131196e-05,0.1183234598097295,1.5920494721979074e-05,0.1183234598097295,-1.3929447073126764e-05,0.1183234598097295,-1.2589840514929576e-05
0.1191175769896605,3.471403846435954e-05,0.1191175769896605,1.661674230586665e-05,0.1191175769896605,-1.5273584611733302e-05,0.1191175769896605,-1.3930784611733302e-05
0.1199116941695916,1.5281799585599102e-05,0.1199116941695916,2.5341838138051536e-05,0.1199116941695916,-1.0911880950233072e-05,0.1199116941695916,-1.4267070696135915e-05
0.1207058113495227,-6.728787897231284e-05,0.1207058113495227,6.964687164020307e-05,0.1207058113495227,-1.09102e-05,0.1207058113495227,-1.4938440478677031e-05
0.1214999285294538,-0.0001025528271668,0.1214999285294538,4.4146696508873154e-05,0.1214999285294538,-1.628091652065772e-05,0.1214999285294538,-1.49386e-05
0.1222940457093848,-8.610708650911726e-05,0.1222940457093848,-4.869253354987375e-06,0.1222940457093848,-1.930283528020594e-05,0.1222940457093848,-1.7288557977231115e-05
0.1230881628893159,-9.282473221883798e-05,0.1230881628893159,-3.306561131053702e-05,0.1230881628893159,-2.165198017948332e-05,0.1230881628893159,-1.8294911310537024e-05
0.123882280069247,-0.0001129185954794,0.123882280069247,-2.97093e-05,0.123882280069247,-1.8631181587851108e-05,0.123882280069247,-1.493824476355333e-05
0.124676397249178,1.2991329540891945e-05,0.124676397249178,-2.971433232260685e-05,0.124676397249178,-1.829459353547863e-05,0.124676397249178,-1.393082902365242e-05
0.1254705144291091,0.0001467861897947,0.1254705144291091,-3.977414882460149e-05,0.1254705144291091,-1.6282630235079704e-05,0.1254705144291091,-1.2589520156719805e-05
0.1262646316090402,0.0001287484108203,0.1262646316090402,-2.9210706234513903e-05,0.1262646316090402,-1.527476726263927e-05,0.1262646316090402,-9.56881178327812e-06
0.1270587487889713,8.645578239749067e-05,0.1270587487889713,-8.231248169172891e-06,0.1270587487889713,-1.4267518633031492e-05,0.1270587487889713,-1.3762272381351982e-05
0.1278528659689023,9.718288664702752e-05,0.1278528659689023,-4.196910010318766e-06,0.1278528659689023,-1.292462667123162e-05,0.1278528659689023,-1.6952261647384656e-05
0.1286469831488334,8.577124223445834e-05,0.1286469831488334,-3.860537124605314e-06,0.1286469831488334,-1.1581628498421252e-05,0.1286469831488334,-1.5945721373815938e-05
0.1294411003287645,5.707703515959864e-05,0.1294411003287645,6.044160694871231e-06,0.1294411003287645,-9.903227255791872e-06,0.1294411003287645,-1.4267496930181036e-05
0.1302352175086955,0.0001230513923599,0.1302352175086955,1.863221961799883e-05,0.1302352175086955,-1.0911395503398475e-05,0.1302352175086955,-1.6616640191000585e-05
0.1310293346886266,0.0001901212746094,0.1310293346886266,2.1982293610547486e-05,0.1310293346886266,-1.5275006635043808e-05,0.1310293346886266,-1.49386e-05
0.1318234518685577,6.739221250782736e-05,0.1318234518685577,7.73090687717911e-06,0.1318234518685577,-1.695164271870958e-05,0.1318234518685577,-1.49386e-05
0.1326175690484888,-7.058961430490305e-05,0.1326175690484888,-1.2242158871975004e-05,0.1326175690484888,-1.6617282204562114e-05,0.1326175690484888,-1.6951706772627315e-05
0.1334116862284198,-8.492606191197973e-05,0.1334116862284198,-2.4668891569215945e-05,0.1334116862284198,-1.2254724597673636e-05,0.1334116862284198,-1.8966204031842936e-05
0.1342058034083509,-8.243602409721074e-06,0.1342058034083509,-3.910532591925252e-05,0.1342058034083509,-1.3259850645529243e-05,0.1342058034083509,-1.3597129890510693e-05
0.134999920588282,6.427904783886984e-05,0.134999920588282,-4.53186788683457e-05,0.134999920588282,-1.2588767149908652e-05,0.134999920588282,-8.896480048360418e-06
0.135794037768213,7.334810397847868e-05,0.135794037768213,-4.179363771459301e-05,0.135794037768213,-1.1078052095255167e-05,0.135794037768213,-8.560294031751723e-06
0.1365881549481441,3.1377842298497526e-05,0.1365881549481441,-2.366296587266976e-05,0.1365881549481441,-1.0071491326124084e-05,0.1365881549481441,-8.225199601106341e-06
0.1373822721280752,-1.961527411747329e-05,0.1373822721280752,-4.528938592719208e-06,0.1373822721280752,-1.258864245553674e-05,0.1373822721280752,-1.1247395710495009e-05
0.1381763893080062,4.788861832406744e-05,0.1381763893080062,4.194257319527506e-06,0.1381763893080062,-1.2420882219892142e-05,0.1381763893080062,-1.5609753389293133e-05
0.1389705064879373,0.0001531805652666,0.1389705064879373,1.703496976308075e-07,0.1389705064879373,-1.2588595772735444e-05,0.1389705064879373,-1.5106712619716674e-05
0.1397646236678684,3.1277836655776824e-05,0.1397646236678684,-1.4931439997288914e-05,0.1397646236678684,-1.2253159111708522e-05,0.1397646236678684,-1.1583270649241e-05
0.1405587408477994,-0.0001642601767532,0.1405587408477994,-2.6012984271943085e-05,0.1405587408477994,-1.0239457411035589e-05,0.1405587408477994,-1.2923961725976274e-05
0.1413528580277305,-0.0002395075542962,0.1413528580277305,-3.239375951923655e-05,0.1413528580277305,-1.1581359898786644e-05,0.1413528580277305,-1.3595679949393322e-05
0.1421469752076616,-0.0002197156184345,0.1421469752076616,-3.860510608269763e-05,0.1421469752076616,-1.3595737107395587e-05,0.1421469752076616,-1.1917352410503677e-05
0.1429410923875927,-0.0001728802150441,0.1429410923875927,-4.448e-05,0.1429410923875927,-9.567605304345657e-06,0.1429410923875927,-9.567390469449077e-06
0.1437352095675237,-0.0001317538482456,0.1437352095675237,-4.447663306282483e-05,0.1437352095675237,-1.1245811395695551e-05,0.1437352095675237,-9.399958716730632e-06
0.1445293267474548,-0.000100859477582,0.1445293267474548,-3.1717843117900035e-05,0.1445293267474548,-1.090964810916366e-05,0.1445293267474548,-1.091157973736592e-05
0.1453234439273859,-5.8273520390664726e-05,0.1453234439273859,-1.7969527120794147e-05,0.1453234439273859,-9.568349231126387e-06,0.1453234439273859,-1.4264851904697469e-05
0.146117561107317,-1.630459514663974e-05,0.146117561107317,-9.907553489380874e-06,0.146117561107317,-9.90291444347008e-06,0.146117561107317,-1.158308449646029e-05
0.146911678287248,4.210653280027567e-05,0.146911678287248,-5.540798232958881e-06,0.146911678287248,-1.1580919905725278e-05,0.146911678287248,-1.1078304008023426e-05
0.1477057954671791,0.0001119370132703,0.1477057954671791,-2.1829047539475403e-06,0.1477057954671791,-1.4266508194781182e-05,0.1477057954671791,-1.2923924396791965e-05
0.1484999126471102,0.0001440114728795,0.1484999126471102,-2.517703067550252e-06,0.1484999126471102,-1.8966482945703523e-05,0.1484999126471102,-1.5609704540402018e-05
0.1492940298270412,0.0001361249533112,0.1492940298270412,1.1753435425880105e-06,0.1492940298270412,-1.62814e-05,0.1492940298270412,-1.8966974778494337e-05
0.1500881470069723,0.0001082585870506,0.1500881470069723,1.1915746156668516e-05,0.1500881470069723,-1.6282145847465233e-05,0.1500881470069723,-1.8295879683542095e-05
0.1508822641869034,8.44230619307307e-05,0.1508822641869034,3.52002704549582e-06,0.1508822641869034,-2.03098e-05,0.1508822641869034,-1.980580907658336e-05
0.1516763813668344,6.89559666518193e-05,0.1516763813668344,-1.0912937638223466e-05,0.1516763813668344,-2.030939738215827e-05,0.1516763813668344,-1.862993115690293e-05
0.1524704985467655,6.417760375734846e-06,0.1524704985467655,-1.661350032268729e-05,0.1524704985467655,-1.947102939584863e-05,0.1524704985467655,-1.5779599870194295e-05
0.1532646157266966,-3.271167242485247e-05,0.1532646157266966,-1.628156246920397e-05,0.1532646157266966,-1.8967243679607383e-05,0.1532646157266966,-2.064314417234388e-05
0.1540587329066277,-3.7093231961982254e-05,0.1540587329066277,-1.225435511201638e-05,0.1540587329066277,-1.426878096401911e-05,0.1540587329066277,-2.0309912926001364e-05
0.1548528500865587,-4.212924925801858e-05,0.1548528500865587,-3.526477947103552e-06,0.1548528500865587,-1.6448788021248446e-05,0.1548528500865587,-1.6282160593585133e-05
0.1556469672664898,-4.414431696242291e-05,0.1556469672664898,1.0070439497179208e-05,0.1556469672664898,-1.7791944641615276e-05,0.1556469672664898,-1.2924538395961806e-05
0.1564410844464209,-5.421779924181405e-05,0.1564410844464209,1.0573678821306497e-05,0.1564410844464209,-2.0645107260329345e-05,0.1564410844464209,-1.023937125770277e-05
0.157235201626352,-7.771518032560679e-05,0.157235201626352,2.8543777098204192e-06,0.157235201626352,-1.6952203272336893e-05,0.157235201626352,-1.561034098723606e-05
0.158029318806283,-8.157086333681464e-05,0.158029318806283,6.554466420672528e-06,0.158029318806283,-1.4602496138606732e-05,0.158029318806283,-1.6951184554426924e-05
0.1588234359862141,-7.201408760439614e-05,0.1588234359862141,2.734463399138469e-05,0.1588234359862141,-1.3596514488407232e-05,0.1588234359862141,-1.2927257953628926e-05
0.1596175531661451,-5.72449124040549e-05,0.1596175531661451,5.554223081382582e-05,0.1596175531661451,-1.6950910804470183e-05,0.1596175531661451,-1.2253377839105965e-05
0.1604116703460762,-4.414983563614661e-05,0.1604116703460762,5.455141812905113e-05,0.1604116703460762,-1.5946118129051133e-05,0.1604116703460762,-1.2924121247299244e-05
0.1612057875260073,-4.515113052731663e-05,0.1612057875260073,3.709937129692431e-05,0.1612057875260073,-1.4938869499443322e-05,0.1612057875260073,-1.124634916573887e-05
0.1619999047059384,-5.152893449104133e-05,0.1619999047059384,2.131879361542233e-05,0.1619999047059384,-1.3595961159780777e-05,0.1619999047059384,-1.3595517970383644e-05
0.1627940218858694,-4.985057078125252e-05,0.1627940218858694,-8.398335791993977e-07,0.1627940218858694,-1.1581609253257407e-05,0.1627940218858694,-1.22530046252505e-05
0.1635881390658005,-2.701864353246313e-05,0.1635881390658005,-2.2158481247872804e-05,0.1635881390658005,-1.1917476389380007e-05,0.1635881390658005,-1.2421711353887328e-05
0.1643822562457316,1.843956537104749e-06,0.1643822562457316,-3.5753850113926704e-05,0.1643822562457316,-1.2923424943036649e-05,0.1643822562457316,-1.76242e-05
0.1651763734256627,-5.567097692096001e-06,0.1651763734256627,-4.179607679573221e-05,0.1651763734256627,-9.90262695188598e-06,0.1651763734256627,-1.7623253894377602e-05
0.1659704906055937,-6.525511252600248e-05,0.1659704906055937,-4.514924907411019e-05,0.1659704906055937,-8.896655290581896e-06,0.1659704906055937,-1.5611290593978747e-05
0.1667646077855248,-0.0001144487066108,0.1667646077855248,-4.5822468346601216e-05,0.1667646077855248,-8.560475826699392e-06,0.1667646077855248,-1.6281068346601218e-05
0.1675587249654559,-7.336434460712097e-05,0.1675587249654559,-3.776889076928405e-05,0.1675587249654559,-8.56031e-06,0.1675587249654559,-1.4435639576551949e-05
0.1683528421453869,0.0001797166779573,0.1683528421453869,-3.508103392235365e-05,0.1683528421453869,-9.56720977911738e-06,0.1683528421453869,-1.460286661991243e-05
0.169146959325318,0.0003153820524159,0.169146959325318,-3.50805e-05,0.169146959325318,-1.1749288221978236e-05,0.169146959325318,-1.3595851591274809e-05
0.1699410765052491,0.000136449258458,0.1699410765052491,-3.978109247490153e-05,0.1699410765052491,-1.326016469222198e-05,0.1699410765052491,-1.225287061555604e-05
0.1707351936851801,1.4603718893135815e-05,0.1707351936851801,-4.800485904314641e-05,0.1707351936851801,-1.3932237003822234e-05,0.1707351936851801,-1.0910363778627165e-05
0.1715293108651112,1.7945985716722366e-05,0.1715293108651112,-4.783306202333456e-05,0.1715293108651112,-1.6953325068769064e-05,0.1715293108651112,-1.1581928148429398e-05
0.1723234280450423,-1.759859936803732e-05,0.1723234280450423,-3.777334541029372e-05,0.1723234280450423,-1.829463393570164e-05,0.1723234280450423,-1.2420196245785532e-05
0.1731175452249733,-6.828556633752035e-05,0.1731175452249733,-2.837188375735531e-05,0.1731175452249733,-1.6282553662290423e-05,0.1731175452249733,-1.460165017054715e-05
0.1739116624049044,-3.610130236416139e-05,0.1739116624049044,-4.542064047778882e-06,0.1739116624049044,-1.62814e-05,0.1739116624049044,-1.3931785467691624e-05
0.1747057795848355,9.219129315909536e-06,0.1747057795848355,5.4870205331102376e-05,0.1747057795848355,-1.493897276257288e-05,0.1747057795848355,-1.0911038715788977e-05
0.1754998967647666,-2.7690298806235916e-05,0.1754998967647666,9.516526233312997e-05,0.1754998967647666,-1.2924661884643694e-05,0.1754998967647666,-1.09102e-05
0.1762940139446976,-6.764322947880989e-05,0.1762940139446976,7.469241065351222e-05,0.1762940139446976,-1.5609941042380236e-05,0.1762940139446976,-7.049622834079815e-06
0.1770881311246287,-6.931970421378997e-05,0.1770881311246287,4.6820863496667184e-05,0.1770881311246287,-1.2253055438964567e-05,0.1770881311246287,-4.3646066685119575e-06
0.1778822483045598,-5.723103597641309e-05,0.1778822483045598,-7.90591704540755e-06,0.1778822483045598,-1.2588280071331358e-05,0.1778822483045598,-7.553849889875703e-06
0.1786763654844909,-3.943101891812862e-05,0.1786763654844909,-6.228460071891087e-05,0.1786763654844909,-1.1246362992994692e-05,0.1786763654844909,-9.567718657399171e-06
0.1794704826644219,-9.922323734564476e-06,0.1794704826644219,-8.944590549638948e-05,0.1794704826644219,-1.2252344643194152e-05,0.1794704826644219,-1.0238363101970136e-05
0.180264599844353,3.85359348329039e-06,0.180264599844353,-8.828929211948317e-05,0.180264599844353,-1.426618489483105e-05,0.180264599844353,-1.15809232632207e-05
0.181058717024284,-1.1731453958082882e-06,0.181058717024284,-8.342283477656775e-05,0.181058717024284,-1.560952143603107e-05,0.181058717024284,-1.2756081274346815e-05
0.1818528342042151,-2.651490763567601e-05,0.1818528342042151,-8.610613921768297e-05,0.1818528342042151,-1.561e-05,0.1818528342042151,-1.3595624745085388e-05
0.1826469513841462,-4.8842733129146425e-05,0.1826469513841462,-8.274990554587036e-05,0.1826469513841462,-1.829543556330371e-05,0.1826469513841462,-1.5609876672477782e-05
0.1834410685640773,-4.078284880462832e-05,0.1834410685640773,-8.140559551229999e-05,0.1834410685640773,-1.829536809107556e-05,0.1834410685640773,-2.1652715945826948e-05
0.1842351857440083,1.1930768148328712e-05,0.1842351857440083,-6.629215420588139e-05,0.1842351857440083,-1.5609842936363707e-05,0.1842351857440083,-2.299608531818148e-05
0.1850293029239394,6.94748259993843e-05,0.1850293029239394,-3.104033197612553e-05,0.1850293029239394,-1.4939879139200966e-05,0.1850293029239394,-2.635140460255932e-05
0.1858234201038705,3.0744682300135135e-05,0.1858234201038705,-1.903768712159599e-07,0.1858234201038705,-1.829315130653251e-05,0.1858234201038705,-2.400411408542724e-05
0.1866175372838016,-3.973921692062388e-05,0.1866175372838016,2.4659323131753677e-05,0.1866175372838016,-1.6282573807263028e-05,0.1866175372838016,-2.333139126908768e-05
0.1874116544637326,-5.588678765913863e-05,0.1874116544637326,3.0378216447198824e-05,0.1874116544637326,-1.7120234793406098e-05,0.1874116544637326,-2.2324338274023737e-05
0.1882057716436637,-1.427917191167253e-05,0.1882057716436637,2.467544131835711e-05,0.1882057716436637,-1.6952848259689205e-05,0.1882057716436637,-1.82967585489036e-05
0.1889998888235948,0.0001619503224505,0.1889998888235948,2.635206497531975e-05,0.1889998888235948,-1.1918005074040744e-05,0.1889998888235948,-1.7624294009872098e-05
0.1897940060035258,0.0002140067257939,0.1897940060035258,1.7959793393032044e-05,0.1897940060035258,-9.903092385275984e-06,0.1897940060035258,-1.4938574617334571e-05
0.1905881231834569,4.547074649626312e-05,0.1905881231834569,3.858316540664629e-06,0.1905881231834569,-8.89611416293827e-06,0.1905881231834569,-1.1582016651753078e-05
0.191382240363388,-5.992931369674924e-05,0.191382240363388,-1.0407868668588762e-05,0.191382240363388,-9.56786732313181e-06,0.191382240363388,-1.4265777257622904e-05
0.192176357543319,-8.344706794401051e-05,0.192176357543319,-1.4258443323370928e-05,0.192176357543319,-1.1077722533197876e-05,0.192176357543319,-9.564994365378008e-06
0.1929704747232501,-0.0001411228497773,0.1929704747232501,5.190465324885294e-06,0.1929704747232501,-1.0239354546888232e-05,0.1929704747232501,-4.199778875438039e-06
0.1937645919031812,-0.0001740430907087,0.1937645919031812,3.808489098117153e-05,0.1937645919031812,-1.1245382374929224e-05,0.1937645919031812,-7.719258317392042e-06
0.1945587090831123,-0.0001062738455479,0.1945587090831123,3.4074875981852e-05,0.1945587090831123,-1.560840101966034e-05,0.1945587090831123,-1.258691652925672e-05
0.1953528262630433,-2.267789038786179e-05,0.1953528262630433,4.9512121078768346e-05,0.1953528262630433,-1.9973145081294187e-05,0.1953528262630433,-1.1581820365855186e-05
0.1961469434429744,0.0001055678656414,0.1961469434429744,8.409003706262862e-05,0.1961469434429744,-2.0309776087917528e-05,0.1961469434429744,-9.567553471782516e-06
0.1969410606229055,0.0002635272035189,0.1969410606229055,4.061538622430826e-05,0.1969410606229055,-1.963793863983781e-05,0.1969410606229055,-1.292468194232134e-05
0.1977351778028366,0.0003185515763487,0.1977351778028366,-1.3264835959938415e-05,0.1977351778028366,-1.3595574477031822e-05,0.1977351778028366,-1.6616573779740922e-05
0.1985292949827676,0.000200517595338,0.1985292949827676,-3.4414331510107715e-05,0.1985292949827676,-1.2589696485183328e-05,0.1985292949827676,-1.4266950878704169e-05
0.1993234121626987,3.2519259088427096e-05,0.1993234121626987,-4.849797472394725e-05,0.1993234121626987,-1.5272314219048657e-05,0.1993234121626987,-1.3596296445237835e-05
0.2001175293426297,-2.8330482618722087e-05,0.2001175293426297,-7.467737868021357e-05,0.2001175293426297,-1.5945302015921455e-05,0.2001175293426297,-1.1918294960196355e-05
0.2009116465225608,4.243436642901637e-05,0.2009116465225608,-9.14703276026846e-05,0.2009116465225608,-1.091244173255019e-05,0.2009116465225608,-1.5943906613959846e-05
0.2017057637024919,-1.4975524095527418e-06,0.2017057637024919,-8.359124776752058e-05,0.2017057637024919,-8.896609430828415e-06,0.2017057637024919,-1.292529915070668e-05
0.202499880882423,-8.13949137923117e-05,0.202499880882423,-7.570118350963903e-05,0.202499880882423,-6.882122173088748e-06,0.202499880882423,-1.426699855027402e-05
0.203293998062354,-9.584186477340172e-05,0.203293998062354,-6.814681843252803e-05,0.203293998062354,-5.874722457686674e-06,0.203293998062354,-1.5609996723084438e-05
0.2040881152422851,-0.000104903125271,0.2040881152422851,-5.337354199863715e-05,0.2040881152422851,-9.567799790338288e-06,0.2040881152422851,-1.4267297447947424e-05
0.2048822324222162,-8.508535131798213e-05,0.2048822324222162,-3.574728147198654e-05,0.2048822324222162,-1.225442485942009e-05,0.2048822324222162,-1.493830519847112e-05
0.2056763496021472,-3.640248503995143e-05,0.2056763496021472,-1.996730928831349e-05,0.2056763496021472,-1.711993571194504e-05,0.2056763496021472,-1.3931352375546108e-05
0.2064704667820783,1.0878452741518103e-05,0.2064704667820783,-4.542287285273887e-06,0.2064704667820783,-1.561101318112252e-05,0.2064704667820783,-1.359602515881294e-05
0.2072645839620094,5.877358477305839e-06,0.2072645839620094,1.425734968227964e-05,0.2072645839620094,-1.561e-05,0.2072645839620094,-1.527342050407154e-05
0.2080587011419405,-5.654169789253631e-05,0.2080587011419405,5.118010091713938e-05,0.2080587011419405,-1.6281147288033822e-05,0.2080587011419405,-1.695216822008456e-05
0.2088528183218715,-8.358271660549116e-05,0.2088528183218715,7.300940719214836e-05,0.2088528183218715,-1.8295139123316952e-05,0.2088528183218715,-1.1582829004488127e-05
0.2096469355018026,-6.949074531414878e-05,0.2096469355018026,8.576996375603964e-05,0.2096469355018026,-1.5610218156623234e-05,0.2096469355018026,-1.0910254539155807e-05
0.2104410526817337,-2.6350785402145887e-05,0.2104410526817337,5.4883737621184885e-05,0.2104410526817337,-1.09100440852906e-05,0.2104410526817337,-1.225287749838164e-05
0.2112351698616647,-3.5382596761039804e-06,0.2112351698616647,1.0232121056456097e-05,0.2112351698616647,-8.561099982960767e-06,0.2112351698616647,-1.0406233182065416e-05
0.2120292870415958,-6.63140962529314e-05,0.2120292870415958,-2.098895723594268e-05,0.2120292870415958,-1.225287879262424e-05,0.2120292870415958,-8.224852414751517e-06
0.2128234042215269,-0.000104205572299,0.2128234042215269,-4.244979921791112e-05,0.2128234042215269,-1.1917551575891087e-05,0.2128234042215269,-8.895506848217826e-06
0.2136175214014579,-0.0001015506184346,0.2136175214014579,-5.320172487516633e-05,0.2136175214014579,-1.258829530093059e-05,0.2136175214014579,-1.1076784703913658e-05
0.214411638581389,-6.279324915411708e-05,0.214411638581389,-6.210015065495867e-05,0.214411638581389,-1.6279719130346883e-05,0.214411638581389,-1.493684274994019e-05
0.2152057557613201,-2.6531352356467185e-05,0.2152057557613201,-5.6566903826256825e-05,0.2152057557613201,-2.030856084244575e-05,0.2152057557613201,-1.2421574488851676e-05
0.2159998729412512,-5.038918062520802e-06,0.2159998729412512,-4.313944878107432e-05,0.2159998729412512,-1.661769091919609e-05,0.2159998729412512,-1.460255081247386e-05
0.2167939901211822,3.709417582321381e-05,0.2167939901211822,-3.575199188793489e-05,0.2167939901211822,-1.9302666586205497e-05,0.2167939901211822,-1.930264152585961e-05
0.2175881073011133,9.24898903261234e-05,0.2175881073011133,-3.642221120452159e-05,0.2175881073011133,-2.232317414986172e-05,0.2175881073011133,-1.9639307316051356e-05
0.2183822244810444,0.0001294081086182,0.2183822244810444,-2.8363178189441683e-05,0.2183822244810444,-1.695185090319129e-05,0.2183822244810444,-2.635177801089129e-05
0.2191763416609755,0.0001156063058863,0.2191763416609755,-1.6616162215830688e-05,0.2191763416609755,-1.3595511457636554e-05,0.2191763416609755,-2.4503331004626238e-05
0.2199704588409065,1.869733958417842e-05,0.2199704588409065,-1.443648536258846e-05,0.2199704588409065,-1.2924857024170244e-05,0.2199704588409065,-1.8299827439539604e-05
0.2207645760208376,-5.048567328388408e-05,0.2207645760208376,-1.5609372574917162e-05,0.2207645760208376,-9.569202561471356e-06,0.2207645760208376,-1.6282475540086686e-05
0.2215586932007686,-5.824071658999372e-05,0.2215586932007686,-1.5274429713478535e-05,0.2215586932007686,-1.2251962296035698e-05,0.2215586932007686,-1.6952540573042932e-05
0.2223528103806997,-2.065447902314112e-05,0.2223528103806997,-1.661677931889628e-05,0.2223528103806997,-1.527357846751663e-05,0.2223528103806997,-1.5610320681103723e-05
0.2231469275606308,-1.2253765676833447e-05,0.2231469275606308,-1.4603083762440029e-05,0.2231469275606308,-1.1581936897806716e-05,0.2231469275606308,-1.393165313536669e-05
0.2239410447405619,-2.2995243257247068e-05,0.2239410447405619,-1.3595497342495416e-05,0.2239410447405619,-8.896085663953533e-06,0.2239410447405619,-1.0910124336046466e-05
0.2247351619204929,-2.1990696056222027e-05,0.2247351619204929,-8.223685803098517e-06,0.2247351619204929,-1.0239210755991148e-05,0.2247351619204929,-9.566896557050365e-06
0.225529279100424,-3.3745714043937106e-05,0.225529279100424,-3.691678245736606e-06,0.225529279100424,-1.2252823201291127e-05,0.225529279100424,-7.049021805940955e-06
0.2263233962803551,-5.654786489283816e-05,0.2263233962803551,-8.414128857373445e-07,0.2263233962803551,-1.1749782431714671e-05,0.2263233962803551,-5.204732102803951e-06
0.2271175134602862,-7.266882612383094e-05,0.2271175134602862,1.5599920388613364e-05,0.2271175134602862,-1.2923679994756032e-05,0.2271175134602862,-7.048538617462003e-06
0.2279116306402172,-7.167206849148264e-05,0.2279116306402172,2.601175896786491e-05,0.2279116306402172,-1.1246680819137735e-05,0.2279116306402172,-9.566238775945284e-06
0.2287057478201483,-7.905465434625125e-05,0.2287057478201483,1.3096304878179964e-05,0.2287057478201483,-1.3595053655625398e-05,0.2287057478201483,-5.540309441147179e-06
0.2294998650000794,-0.0001003703755751,0.2294998650000794,5.20467130582324e-06,0.2294998650000794,-1.35958e-05,0.2294998650000794,-4.532101232267053e-06
0.2302939821800104,-9.684907911267397e-05,0.2302939821800104,6.546089863345398e-06,0.2302939821800104,-9.903182876417346e-06,0.2302939821800104,-5.203314931560482e-06
0.2310880993599415,-7.301074524352017e-05,0.2310880993599415,9.231752008982846e-06,0.2310880993599415,-1.091036803593138e-05,0.2310880993599415,-6.211008123257064e-06
0.2318822165398726,-4.380696050847669e-05,0.2318822165398726,9.56928680343825e-06,0.2318822165398726,-1.225263379125825e-05,0.2318822165398726,-1.0911481730596122e-05
0.2326763337198036,-3.743899595050546e-05,0.2326763337198036,1.645011598740077e-05,0.2326763337198036,-1.0909706791514294e-05,0.2326763337198036,-1.5611550097005094e-05
0.2334704508997347,-5.789385628227444e-05,0.2334704508997347,1.8629792840643e-05,0.2334704508997347,-9.7360715218436e-06,0.2334704508997347,-1.9300149481069797e-05
0.2342645680796658,-4.515833933870884e-05,0.2342645680796658,1.0914400126060608e-05,0.2342645680796658,-1.3090373890873337e-05,0.2342645680796658,-1.963821738582345e-05
0.2350586852595969,3.169302690552347e-05,0.2350586852595969,7.89010763480162e-06,0.2350586852595969,-1.5609001947875406e-05,0.2350586852595969,-2.23228354718482e-05
0.2358528024395279,0.0001097535799797,0.2358528024395279,4.868381744965941e-06,0.2358528024395279,-1.963739766674364e-05,0.2358528024395279,-2.3666365888914547e-05
0.236646919619459,0.0001364582982419,0.236646919619459,2.182311875537824e-06,0.236646919619459,-1.96384e-05,0.236646919619459,-2.4673698046293686e-05
0.2374410367993901,0.0001435107510711,0.2374410367993901,-1.6786222479240056e-06,0.2374410367993901,-1.49386e-05,0.2374410367993901,-2.5009422206830892e-05
0.2382351539793211,0.0001381463474775,0.2382351539793211,-4.528609819917361e-06,0.2382351539793211,-1.4939316120200668e-05,0.2382351539793211,-2.3330934898163576e-05
0.2390292711592522,0.0001708754081285,0.2390292711592522,1.2592363992497366e-05,0.2390292711592522,-1.863061299501148e-05,0.2390292711592522,-2.2993811523299615e-05
0.2398233883391833,0.0001837850564724,0.2398233883391833,2.332273503900486e-05,0.2398233883391833,-1.661864969461255e-05,0.2398233883391833,-1.8634657594722055e-05
0.2406175055191144,0.0001421939241257,0.2406175055191144,-4.514577750249651e-06,0.2406175055191144,-1.4939645322627806e-05,0.2406175055191144,-1.896679093547444e-05
0.2414116226990454,5.9625741912817286e-05,0.2414116226990454,-3.372382170667642e-05,0.2414116226990454,-1.695184287206219e-05,0.2414116226990454,-1.9638080957354065e-05
0.2422057398789765,-2.2968245513430645e-05,0.2422057398789765,-4.279863059074983e-05,0.2422057398789765,-1.5274849890601885e-05,0.2422057398789765,-1.6953679824963015e-05
0.2429998570589076,-0.0001186517761924,0.2429998570589076,-4.179468130475336e-05,0.2429998570589076,-1.2589183479342275e-05,0.2429998570589076,-1.5274602174588923e-05
0.2437939742388386,-9.1814371320993e-05,0.2437939742388386,-3.910898713372154e-05,0.2437939742388386,-1.4938523757993653e-05,0.2437939742388386,-1.443502723091022e-05
0.2445880914187697,8.241137171036973e-05,0.2445880914187697,-3.994846719488725e-05,0.2445880914187697,-1.5274415954462236e-05,0.2445880914187697,-1.3595490788100708e-05
0.2453822085987008,5.955669032613819e-05,0.2453822085987008,-4.313853469938817e-05,0.2453822085987008,-1.628069444247997e-05,0.2453822085987008,-1.09102e-05
0.2461763257786318,-5.388757870798988e-05,0.2461763257786318,-4.783521170069244e-05,0.2461763257786318,-1.3594424353626153e-05,0.2461763257786318,-1.09102e-05
0.2469704429585629,-7.333645738956007e-05,0.2469704429585629,-4.347605777211473e-05,0.2469704429585629,-1.0241152186294488e-05,0.2469704429585629,-1.09102e-05
0.247764560138494,-7.670524028328007e-05,0.247764560138494,-3.4749635263471834e-05,0.247764560138494,-8.896753881148157e-06,0.247764560138494,-1.09102e-05
0.2485586773184251,-6.462691138425805e-05,0.2485586773184251,-2.4677892854081696e-05,0.2485586773184251,-1.1580508576308882e-05,0.2485586773184251,-1.225245428612244e-05
0.2493527944983561,-1.730075077085482e-05,0.2493527944983561,-1.4269893417388908e-05,0.2493527944983561,-1.15816e-05,0.2493527944983561,-1.4266678688399214e-05
0.2501469116782872,1.6613328462638885e-05,0.2501469116782872,-8.225282156043335e-06,0.2501469116782872,-1.1078156007534488e-05,0.2501469116782872,-1.6952501263486356e-05
0.2509410288582183,-1.829709463036459e-05,0.2509410288582183,-3.1888837771844867e-06,0.2509410288582183,-1.1581770815937247e-05,0.2509410288582183,-1.712066710807833e-05
0.2517351460381494,-5.941523496100445e-05,0.2517351460381494,3.860283024475262e-06,0.2517351460381494,-1.628164697736401e-05,0.2517351460381494,-1.896690737429214e-05
0.2525292632180804,-4.110642792901978e-05,0.2525292632180804,2.513294117495468e-06,0.2525292632180804,-1.76242e-05,0.2525292632180804,-1.846401132813048e-05
0.2533233803980115,9.192464791941842e-06,0.2533233803980115,-1.089973461845864e-05,0.2533233803980115,-1.76242e-05,0.2533233803980115,-2.0308360964639556e-05
0.2541174975779426,-1.0897454735689903e-05,0.2541174975779426,-2.6007041072332567e-05,0.2541174975779426,-1.494029937616796e-05,0.2541174975779426,-1.510969257296409e-05
0.2549116147578736,-4.110844095486186e-05,0.2549116147578736,-3.205626818126854e-05,0.2549116147578736,-1.3596451515273656e-05,0.2549116147578736,-1.2925458688060117e-05
0.2557057319378047,-4.917707997898153e-05,0.2557057319378047,-3.977769328083636e-05,0.2557057319378047,-1.2253453342463242e-05,0.2557057319378047,-1.29244e-05
0.2564998491177358,-8.056163543786939e-05,0.2564998491177358,-4.649292417073867e-05,0.2564998491177358,-1.124609137723962e-05,0.2564998491177358,-1.0239310339305652e-05
0.2572939662976669,-9.634483028710056e-05,0.2572939662976669,-3.440961296733792e-05,0.2572939662976669,-1.0238842747631878e-05,0.2572939662976669,-1.124585725236812e-05
0.2580880834775979,-1.0227364799167012e-05,0.2580880834775979,-2.70237e-05,0.2580880834775979,-1.040664705375526e-05,0.2580880834775979,-9.5674805869326e-06
0.258882200657529,9.854005587952632e-05,0.258882200657529,-2.701309540122077e-05,0.258882200657529,-9.903863534751231e-06,0.258882200657529,-1.0238333397956972e-05
0.2596763178374601,0.0001481973106006,0.2596763178374601,1.4960275035533467e-05,0.2596763178374601,-1.2925473690921724e-05,0.2596763178374601,-8.390782365930714e-06
0.2604704350173911,0.0001139943340496,0.2604704350173911,6.91153708155543e-05,0.2604704350173911,-1.5608091424786965e-05,0.2604704350173911,-4.199212134556972e-06
0.2612645521973222,-7.744955115892015e-07,0.2612645521973222,6.294700256139847e-05,0.2612645521973222,-1.6952042683330245e-05,0.2612645521973222,-3.0219526464462047e-06
0.2620586693772533,-0.0001132511720124,0.2620586693772533,1.5294149523722993e-05,0.2620586693772533,-1.6281679571929622e-05,0.2620586693772533,-5.537981609427926e-06
0.2628527865571843,-0.0001787414027957,0.2628527865571843,-2.3824086758522984e-05,0.2628527865571843,-1.5610180485524463e-05,0.2628527865571843,-8.895107577754078e-06
0.2636469037371154,-0.0002220597496719,0.2636469037371154,-4.850540860055133e-05,0.2636469037371154,-1.7623955802642095e-05,0.2636469037371154,-8.224691399119302e-06
0.2644410209170465,-0.0002472418231271,0.2644410209170465,-5.857952381100166e-05,0.2644410209170465,-1.7624222107790245e-05,0.2644410209170465,-6.881837687285952e-06
0.2652351380969776,-0.0002405153884761,0.2652351380969776,-6.327289423807244e-05,0.2652351380969776,-1.846290372050905e-05,0.2652351380969776,-7.553628704440384e-06
0.2660292552769086,-0.0001679516769831,0.2660292552769086,-2.701378298017704e-05,0.2660292552769086,-1.560870646855516e-05,0.2660292552769086,-9.90520197254272e-06
0.2668233724568397,3.5255617467632946e-05,0.2668233724568397,3.836151148054466e-06,0.2668233724568397,-1.1584779867757018e-05,0.2668233724568397,-1.6444032754362967e-05
0.2676174896367708,0.0001608862991036,0.2676174896367708,1.176666229703775e-06,0.2676174896367708,-1.225256844096712e-05,0.2676174896367708,-1.8629897401004392e-05
0.2684116068167018,0.0002515611161952,0.2684116068167018,-8.891022935344557e-06,0.2684116068167018,-1.2924067527372329e-05,0.2684116068167018,-2.0980036345803143e-05
0.2692057239966329,0.0002891909305105,0.2692057239966329,-8.224843386222466e-06,0.2692057239966329,-1.661581637577644e-05,0.2692057239966329,-1.89677001586674e-05
0.269999841176564,0.0002381882067061,0.269999841176564,9.563851070843794e-06,0.269999841176564,-1.8966529950639437e-05,0.269999841176564,-1.6953202899451914e-05
0.270793958356495,0.0002462345774285,0.270793958356495,2.0980601372518835e-05,0.270793958356495,-1.82956352134121e-05,0.270793958356495,-2.1652353506115323e-05
0.2715880755364261,0.00026167620154,0.2715880755364261,3.01958140314232e-06,0.2715880755364261,-1.5609712571531002e-05,0.2715880755364261,-2.4505952090498465e-05
0.2723821927163572,0.0002532664412097,0.2723821927163572,-1.4943651717074849e-05,0.2723821927163572,-1.258764076633839e-05,0.2723821927163572,-2.400182966637763e-05
0.2731763098962882,0.0001808923866277,0.2731763098962882,-3.575608741999721e-05,0.2731763098962882,-8.224086571525833e-06,0.2731763098962882,-2.165207656762777e-05
0.2739704270762193,5.631937444537877e-05,0.2739704270762193,-4.648645846650395e-05,0.2739704270762193,-6.882787693488653e-06,0.2739704270762193,-2.031076770069524e-05
0.2747645442561504,-9.508359871684942e-05,0.2747645442561504,-5.068809138801529e-05,0.2747645442561504,-8.223839259088496e-06,0.2747645442561504,-1.980648905869349e-05
0.2755586614360815,-0.0001230211193486,0.2755586614360815,-5.052267159305028e-05,0.2755586614360815,-7.553506282656485e-06,0.2755586614360815,-1.8631800980790752e-05
0.2763527786160125,-6.866546304656886e-05,0.2763527786160125,-4.213253997855981e-05,0.2763527786160125,-1.15804768024843e-05,0.2763527786160125,-1.829569360025768e-05
0.2771468957959436,-0.0001062440655704,0.2771468957959436,-3.709536085582575e-05,0.2771468957959436,-1.258856782883485e-05,0.2771468957959436,-1.5274696513495446e-05
0.2779410129758747,-0.0001240405556171,0.2779410129758747,-3.508044513852469e-05,0.2779410129758747,-1.3763608230038416e-05,0.2779410129758747,-1.42672e-05
0.2787351301558057,-9.684459766838352e-05,0.2787351301558057,-3.172283964779867e-05,0.2787351301558057,-1.4267585205450778e-05,0.2787351301558057,-1.4266979882599554e-05
0.2795292473357368,-6.999163785690263e-05,0.2795292473357368,-2.7692384564723675e-05,0.2795292473357368,-1.66171e-05,0.2795292473357368,-1.29244e-05
0.2803233645156679,-6.529715671159191e-05,0.2803233645156679,-1.8973976818615103e-05,0.2803233645156679,-1.66171e-05,0.2803233645156679,-1.29244e-05
0.2811174816955989,-8.408022839261333e-05,0.2811174816955989,-6.218747193395249e-06,0.2811174816955989,-1.628161913701186e-05,0.2811174816955989,-1.02405530960949e-05
0.2819115988755301,-9.617149467338614e-05,0.2819115988755301,5.533094241935676e-06,0.2819115988755301,-1.4268217562855552e-05,0.2819115988755301,-9.903269593809258e-06
0.2827057160554611,-8.879494107758564e-05,0.2827057160554611,1.0237119302234889e-05,0.2827057160554611,-1.6280679696359932e-05,0.2827057160554611,-5.540590647158434e-06
0.2834998332353922,-7.939467420731407e-05,0.2834998332353922,1.1581317970383704e-05,0.2834998332353922,-1.3764128816032106e-05,0.2834998332353922,-6.881537972484013e-06
0.2842939504153233,-7.133640314083529e-05,0.2842939504153233,1.3259995178992647e-05,0.2842939504153233,-1.2253094335784157e-05,0.2842939504153233,-8.22452614381861e-06
0.2850880675952543,-5.992300020351783e-05,0.2850880675952543,6.544576740750663e-06,0.2850880675952543,-1.225305715800222e-05,0.2850880675952543,-6.210648631157555e-06
0.2858821847751854,-6.932544986577715e-05,0.2858821847751854,-1.1580350049395238e-05,0.2858821847751854,-1.2925337466444286e-05,0.2858821847751854,-8.895619391308692e-06
0.2866763019551165,-8.543376994214919e-05,0.2866763019551165,-6.203534770056763e-06,0.2866763019551165,-1.695107866592695e-05,0.2866763019551165,-7.216882479693672e-06
0.2874704191350475,-8.140984334135132e-05,0.2874704191350475,1.190405502237082e-05,0.2874704191350475,-1.2424111295552637e-05,0.2874704191350475,-5.540256384923245e-06
0.2882645363149786,-8.207790791168344e-05,0.2882645363149786,3.204743740890162e-05,0.2882645363149786,-1.4937129639613566e-05,0.2882645363149786,-8.558545614255174e-06
0.2890586534949096,-9.147369801688076e-05,0.2890586534949096,4.682345400158951e-05,0.2890586534949096,-1.1750791780899396e-05,0.2890586534949096,-6.546999001370173e-06
0.2898527706748408,-9.68474486759504e-05,0.2898527706748408,5.0857136506962815e-05,0.2898527706748408,-1.0239236295447811e-05,0.2898527706748408,-8.22412521412273e-06
0.2906468878547718,-0.0001008764310818,0.2906468878547718,5.354352068359604e-05,0.2906468878547718,-1.560924136719208e-05,0.2906468878547718,-1.3595041368604486e-05
0.2914410050347029,-8.644223609442352e-05,0.2914410050347029,6.294350638595626e-05,0.2914410050347029,-1.6952785099435404e-05,0.2914410050347029,-1.7288497871347913e-05
0.292235122214634,-6.058600426814523e-05,0.292235122214634,6.394680212637647e-05,0.292235122214634,-1.4603468390401582e-05,0.292235122214634,-1.6953213374837515e-05
0.293029239394565,-1.1218555901090956e-05,0.293029239394565,3.926709671562951e-05,0.293029239394565,-1.8294993473543467e-05,0.293029239394565,-1.9638298912257245e-05
0.2938233565744961,7.94870067249368e-05,0.2938233565744961,7.411180937200688e-06,0.2938233565744961,-1.6283030173144538e-05,0.2938233565744961,-1.930297169552409e-05
0.2946174737544272,0.0001340758444768,0.2946174737544272,-8.885219062791148e-06,0.2946174737544272,-1.3765268741943524e-05,0.2946174737544272,-1.913491128039253e-05
0.2954115909343582,0.0001025722575256,0.2954115909343582,-9.231537048695296e-06,0.2954115909343582,-1.359588644989255e-05,0.2954115909343582,-2.0309194644673736e-05
0.2962057081142893,9.98712873015784e-05,0.2962057081142893,-1.6278808433531543e-05,0.2962057081142893,-1.628041273518301e-05,0.2962057081142893,-2.299431277194444e-05
0.2969998252942204,0.0001220211250266,0.2969998252942204,-3.3398232912128936e-05,0.2969998252942204,-1.62814e-05,0.2969998252942204,-2.0310390897192724e-05
0.2977939424741515,0.0001005435565306,0.2977939424741515,-5.522081909694553e-05,0.2977939424741515,-1.695275135660617e-05,0.2977939424741515,-1.8295745930181498e-05
0.2985880596540825,5.857624732681815e-05,0.2985880596540825,-6.697205132152088e-05,0.2985880596540825,-1.896705044301133e-05,0.2985880596540825,-1.963845044301133e-05
0.2993821768340136,1.6613586068955073e-05,0.2993821768340136,-6.898712147062438e-05,0.2993821768340136,-1.963795141175025e-05,0.2993821768340136,-2.031032333068676e-05
0.3001762940139447,8.526543132667751e-07,0.3001762940139447,-7.402348642477952e-05,0.3001762940139447,-1.762370339380512e-05,0.3001762940139447,-2.265823436994696e-05
0.3009704111938757,3.706784788257543e-05,0.3009704111938757,-7.938872189251e-05,0.3009704111938757,-1.62823945268725e-05,0.3009704111938757,-1.8969734874835715e-05
0.3017645283738068,0.0001003364128773,0.3017645283738068,-7.805069760661492e-05,0.3017645283738068,-1.410059614044862e-05,0.3017645283738068,-1.628299521322983e-05
0.3025586455537379,0.0001018833259271,0.3025586455537379,-7.5365498867609e-05,0.3025586455537379,-1.2253824199160894e-05,0.3025586455537379,-1.49391994338045e-05
0.3033527627336689,7.604342409484166e-05,0.3033527627336689,-6.730990756596451e-05,0.3033527627336689,-7.554624407502812e-06,0.3033527627336689,-1.3596201260994083e-05
0.3041468799136,3.508669415935629e-05,0.3041468799136,-5.153208627103498e-05,0.3041468799136,-8.560157685374602e-06,0.3041468799136,-1.0910606176367525e-05
0.3049409970935311,-9.567246564531716e-06,0.3049409970935311,-3.474486144180078e-05,0.3049409970935311,-1.1245890169289912e-05,0.3049409970935311,-7.888921059553425e-06
0.3057351142734621,-2.249303200896525e-05,0.3057351142734621,-1.9301395512299788e-05,0.3057351142734621,-8.392435842820366e-06,0.3057351142734621,-7.553896398151315e-06
0.3065292314533932,-3.10521e-05,0.3065292314533932,-1.0237871528352266e-05,0.3065292314533932,-8.22548960732381e-06,0.3065292314533932,-1.2253e-05
0.3073233486333243,-3.10521e-05,0.3073233486333243,-7.052282947177765e-06,0.3073233486333243,-1.1243424569027066e-05,0.3073233486333243,-1.2253e-05
0.3081174658132554,-3.44068414799727e-05,0.3081174658132554,-1.4933292491391427e-05,0.3081174658132554,-1.10782128923624e-05,0.3081174658132554,-9.904680964019113e-06
0.3089115829931864,-3.273148154400075e-05,0.3089115829931864,-2.584306999025501e-05,0.3089115829931864,-1.174904743491945e-05,0.3089115829931864,-1.090967107359955e-05
0.3097057001731175,-3.3066173234402475e-05,0.3097057001731175,-3.0714561917716714e-05,0.3097057001731175,-1.1581663363917977e-05,0.3097057001731175,-6.2121947108129976e-06
0.3104998173530486,-3.30663e-05,0.3104998173530486,-3.105202277760506e-05,0.3104998173530486,-1.0910354444789885e-05,0.3104998173530486,-5.539184442489545e-06
0.3112939345329796,-4.380781426584443e-05,0.3112939345329796,-3.239478928323055e-05,0.3112939345329796,-9.064012234733466e-06,0.3112939345329796,-4.867685358384723e-06
0.3120880517129107,-6.781209480921062e-05,0.3120880517129107,-2.9708731542246048e-05,0.3120880517129107,-1.1246184232133456e-05,0.3120880517129107,-3.021541434815466e-06
0.3128821688928418,-8.308375763410453e-05,0.3128821688928418,-2.0976915577013945e-05,0.3128821688928418,-1.561042844327708e-05,0.3128821688928418,-6.882248441149964e-06
0.3136762860727728,-7.536864873795542e-05,0.3136762860727728,-8.199787482993095e-07,0.3136762860727728,-1.762383760517038e-05,0.3136762860727728,-8.89601e-06
0.314470403252704,-8.744042854034983e-05,0.314470403252704,5.266450854717753e-05,0.314470403252704,-1.661785595497085e-05,0.314470403252704,-8.89601e-06
0.315264520432635,-0.0001303930468893,0.315264520432635,8.608652555525784e-05,0.315264520432635,-1.4939613795745752e-05,0.315264520432635,-9.23150724085085e-06
0.3160586376125661,-0.0001317613870449,0.3160586376125661,5.490094903738814e-05,0.3160586376125661,-1.5777416982954e-05,0.3160586376125661,-1.225162106104515e-05
0.3168527547924971,-2.0679815616487824e-05,0.3168527547924971,2.33407452070503e-05,0.3168527547924971,-1.728803345721087e-05,0.3168527547924971,-1.4937770618048268e-05
0.3176468719724282,1.7282383377950396e-05,0.3176468719724282,8.227045811624501e-06,0.3176468719724282,-2.0477085777419243e-05,0.3176468719724282,-1.4435081202374231e-05
0.3184409891523593,-8.22426143948391e-06,0.3184409891523593,-1.510506996859096e-06,0.3184409891523593,-1.795993439685759e-05,0.3184409891523593,-1.6281374774453725e-05
0.3192351063322903,-2.3664811826450668e-05,0.3192351063322903,-5.536242683817441e-06,0.3192351063322903,-1.4938689913727644e-05,0.3192351063322903,-1.829595965491057e-05
0.3200292235122214,-9.564248243910386e-06,0.3200292235122214,1.527892465060771e-05,0.3200292235122214,-1.5610660668388925e-05,0.3200292235122214,-2.0980633712809495e-05
0.3208233406921525,1.6691635721735645e-06,0.3208233406921525,3.1709858381578833e-05,0.3208233406921525,-1.7957951185521004e-05,0.3208233406921525,-1.896867041241057e-05
0.3216174578720835,4.2102580351059145e-05,0.3216174578720835,2.333673023745439e-05,0.3216174578720835,-1.259236735197081e-05,0.3216174578720835,-1.9973412371505476e-05
0.3224115750520147,0.0001300359277516,0.3224115750520147,1.1867979005783302e-06,0.3224115750520147,-1.25887e-05,0.3224115750520147,-2.5006805059086677e-05
0.3232056922319457,0.0001314254794301,0.3232056922319457,-1.694577337623677e-05,0.3232056922319457,-1.527325901525626e-05,0.3232056922319457,-2.2324940984743743e-05
0.3239998094118768,6.967222665182419e-05,0.3239998094118768,-2.6014424366963084e-05,0.3239998094118768,-1.5609919420109615e-05,0.3239998094118768,-2.467323594076729e-05
0.3247939265918079,8.006313786267872e-05,0.3247939265918079,-3.642233786267871e-05,0.3247939265918079,-1.6952675853248867e-05,0.3247939265918079,-2.1652879320944687e-05
0.3255880437717389,6.126327889963452e-05,0.3255880437717389,-3.843724090879251e-05,0.3255880437717389,-1.5106251947881436e-05,0.3255880437717389,-1.896718505963539e-05
0.32638216095167,3.005003565881667e-05,0.32638216095167,-3.373593070734758e-05,0.32638216095167,-1.24211742835812e-05,0.32638216095167,-2.2323287572814384e-05
0.3271762781316011,5.488781571004907e-05,0.3271762781316011,-2.5008795329973706e-05,0.3271762781316011,-1.4265790659947414e-05,0.3271762781316011,-1.9301173214943037e-05
0.3279703953115321,5.8073374324537314e-05,0.3279703953115321,-2.299683202957478e-05,0.3279703953115321,-1.024186405914956e-05,0.3279703953115321,-1.4941919397412025e-05
0.3287645124914632,1.5971567485396253e-05,0.3287645124914632,-1.4272558971359836e-05,0.3287645124914632,-1.02388e-05,0.3287645124914632,-1.628057553342171e-05
0.3295586296713942,-2.264159414745262e-05,0.3295586296713942,8.322002202964122e-07,0.3295586296713942,-1.3090869149063505e-05,0.3295586296713942,-1.2925965734419924e-05
0.3303527468513254,-5.386964621961956e-05,0.3303527468513254,-8.387108513536734e-07,0.3303527468513254,-1.3931232408460176e-05,0.3303527468513254,-1.0910842181436331e-05
0.3311468640312564,-8.878632136529648e-05,0.3311468640312564,-8.558987804318241e-06,0.3311468640312564,-1.3595857487036808e-05,0.3311468640312564,-1.09102e-05
0.3319409812111875,-0.0001186682930129,0.3319409812111875,1.1245431315911662e-05,0.3319409812111875,-1.4267184112331593e-05,0.3319409812111875,-1.0238815887668408e-05
0.3327350983911186,-0.0001263885024475,0.3327350983911186,1.170738483618566e-06,0.3327350983911186,-1.3596174394315596e-05,0.3327350983911186,-1.09101168012632e-05
0.3335292155710496,-0.000114281241901,0.3335292155710496,-3.273678987186824e-05,0.3335292155710496,-1.6617555139631184e-05,0.3335292155710496,-1.0238617946859113e-05
0.3343233327509807,-2.676153755638405e-05,0.3343233327509807,-5.553894072076929e-05,0.3343233327509807,-1.829419122329696e-05,0.3343233327509807,-9.567973502288147e-06
0.3351174499309118,4.812083783754062e-05,0.3351174499309118,-6.495118812417928e-05,0.3351174499309118,-1.6282795401961585e-05,0.3351174499309118,-1.225113947097904e-05
0.3359115671108428,-1.7923844476734368e-05,0.3359115671108428,-6.177023875327446e-05,0.3359115671108428,-1.426829814274596e-05,0.3359115671108428,-1.695023766692609e-05
0.3367056842907739,-1.7624333480588412e-05,0.3367056842907739,-5.35471702545352e-05,0.3367056842907739,-1.42672e-05,0.3367056842907739,-1.5610533922353654e-05
0.337499801470705,4.664602605312673e-05,0.337499801470705,-4.045497353304288e-05,0.337499801470705,-1.5945280313070953e-05,0.337499801470705,-1.577775804380894e-05
0.338293918650636,0.0001186616225245,0.338293918650636,-2.769640697896181e-05,0.338293918650636,-1.4603037576732825e-05,0.338293918650636,-2.0309335673403968e-05
0.3390880358305671,0.0001629804699355,0.3390880358305671,-1.963819548598211e-05,0.3390880358305671,-1.5609871231078982e-05,0.3390880358305671,-1.947044698068852e-05
0.3398821530104982,0.0001290653258411,0.3398821530104982,-1.5106108894636517e-05,0.3398821530104982,-1.2755270861271994e-05,0.3398821530104982,-1.829508246222417e-05
0.3406762701904293,7.368192091509058e-05,0.3406762701904293,-1.3594430902611924e-05,0.3406762701904293,-6.378441137598337e-06,0.3406762701904293,-1.560748998528968e-05
0.3414703873703603,6.228089543511757e-05,0.3414703873703603,-9.570514290709698e-06,0.3414703873703603,-6.8814319626980335e-06,0.3414703873703603,-8.23030120605614e-06
0.3422645045502914,4.818149791387979e-05,0.3422645045502914,-2.857629464080137e-06,0.3422645045502914,-6.88182e-06,0.3422645045502914,-8.89559105172001e-06
0.3430586217302225,5.152810069062586e-05,0.3430586217302225,5.19949167179436e-06,0.3430586217302225,-8.223970281014445e-06,0.3430586217302225,-1.2586940764452543e-05
0.3438527389101535,6.52888741028718e-05,0.3438527389101535,1.8291294888206327e-05,0.3438527389101535,-1.1748240948513952e-05,0.3438527389101535,-1.3595468836795497e-05
0.3446468560900846,3.441469767884051e-05,0.3446468560900846,1.9973795777338847e-05,0.3446468560900846,-1.4266743656945936e-05,0.3446468560900846,-8.561222666170988e-06
0.3454409732700157,-5.521938255845575e-05,0.3454409732700157,1.7624279109307385e-05,0.3454409732700157,-1.326013390398888e-05,0.3454409732700157,-7.553253903652229e-06
0.3462350904499467,-0.0001512443521135,0.3462350904499467,1.4601733626292404e-05,0.3462350904499467,-1.2589063292097225e-05,0.3462350904499467,-7.217328791774398e-06
0.3470292076298778,-0.0002596720304632,0.3470292076298778,4.360704541488127e-06,0.3470292076298778,-1.577885209584895e-05,0.3470292076298778,-5.538591626729604e-06
0.3478233248098089,-0.0002942106338978,0.3478233248098089,-8.549333369366254e-06,0.3478233248098089,-1.9802778696646807e-05,0.3478233248098089,-3.861955543063831e-06
0.34861744198974,-0.0002164127342003,0.34861744198974,-2.0301542649912148e-05,0.34861744198974,-2.1651302380171205e-05,0.34861744198974,-4.53145815102196e-06
0.349411559169671,-0.0001069807601883,0.349411559169671,-2.7019972429791408e-05,0.349411559169671,-1.8968491050291512e-05,0.349411559169671,-4.53193e-06
0.3502056763496021,-2.97407726369961e-05,0.3502056763496021,-2.165478936857935e-05,0.3502056763496021,-1.963812632383233e-05,0.3502056763496021,-3.860803676167671e-06
0.3509997935295332,3.707732839664645e-05,0.3509997935295332,1.0566119717405616e-05,0.3509997935295332,-1.6617885653931083e-05,0.3509997935295332,-6.8810343486693e-06
0.3517939107094642,4.582181846760073e-05,0.3517939107094642,2.903582366891985e-05,0.3517939107094642,-1.66171e-05,0.3517939107094642,-8.895783491052659e-06
0.3525880278893953,6.428639433219162e-05,0.3525880278893953,1.3595186843213217e-05,0.3525880278893953,-1.963835283390419e-05,0.3525880278893953,-1.191746508133534e-05
0.3533821450693264,6.696214781501888e-05,0.3533821450693264,-3.861327347791098e-06,0.3533821450693264,-1.829504798746099e-05,0.3533821450693264,-1.6618449345713554e-05
0.3541762622492574,1.357752822006741e-05,0.3541762622492574,-8.22527442746153e-06,0.3541762622492574,-1.527463221538013e-05,0.3541762622492574,-2.4002621476920085e-05
0.3549703794291886,-4.175126276300005e-05,0.3549703794291886,-1.0237227738965251e-05,0.3549703794291886,-1.6280613865579666e-05,0.3549703794291886,-2.467327591038645e-05
0.3557644966091196,3.7044684755869547e-05,0.3557644966091196,-1.4264646020374717e-05,0.3557644966091196,-1.561042566327088e-05,0.3557644966091196,-2.601574867345824e-05
0.3565586137890507,0.0001971451117093,0.3565586137890507,-1.25895164421643e-05,0.3565586137890507,-1.493892657686572e-05,0.3565586137890507,-2.76942835578357e-05
0.3573527309689818,0.0001562818767825,0.3573527309689818,-1.2924286254769766e-05,0.3573527309689818,-1.628094501907907e-05,0.3573527309689818,-2.501040996184186e-05
0.3581468481489128,6.900269252718961e-05,0.3581468481489128,-9.232416220391692e-06,0.3581468481489128,-1.5274492606082956e-05,0.3581468481489128,-2.4338228404055306e-05
0.3589409653288439,4.38097994031471e-05,0.3589409653288439,8.223847744589575e-06,0.3589409653288439,-1.2253131929425646e-05,0.3589409653288439,-2.7023582729399425e-05
0.3597350825087749,-1.010989592504905e-06,0.3597350825087749,2.6519798824462885e-05,0.3597350825087749,-9.06419140054718e-06,0.3597350825087749,-2.4337890693734948e-05
0.360529199688706,-3.844188468674186e-05,0.360529199688706,2.2656058529589163e-05,0.360529199688706,-1.225270488772231e-05,0.360529199688706,-2.2322888168535016e-05
0.3613233168686371,-5.587880006791244e-05,0.3613233168686371,8.57242530464547e-06,0.3613233168686371,-1.1079109573632996e-05,0.3613233168686371,-1.829906145669061e-05
0.3621174340485681,-3.509533541175832e-05,0.3621174340485681,1.7383102181300733e-07,0.3621174340485681,-9.5684867974415e-06,0.3621174340485681,-1.3599149947782513e-05
0.3629115512284993,-9.246319824030946e-06,0.3629115512284993,-7.213345764320357e-06,0.3629115512284993,-1.292250261783342e-05,0.3629115512284993,-1.4266820522436276e-05
0.3637056684084303,2.096858243545278e-05,0.3637056684084303,-1.8290973554236935e-05,0.3637056684084303,-1.1917720586737772e-05,0.3637056684084303,-1.0240482346951087e-05
0.3644997855883614,1.6618278480896803e-05,0.3644997855883614,4.861375004912075e-06,0.3644997855883614,-7.5543984754960036e-06,0.3644997855883614,-9.567591302052955e-06
0.3652939027682925,-3.641680477498807e-05,0.3652939027682925,5.203288890825927e-06,0.3652939027682925,-1.3595060037315844e-05,0.3652939027682925,-1.2252671127831996e-05
0.3660880199482235,-6.395201691176448e-05,0.3660880199482235,-1.796001807388673e-05,0.3660880199482235,-1.4602891565971494e-05,0.3660880199482235,-1.1581549396080192e-05
0.3668821371281546,-0.0001203564646412,0.3668821371281546,-2.2658498449879437e-05,0.3668821371281546,-1.4267431908924443e-05,0.3668821371281546,-9.56741e-06
0.3676762543080857,-0.0001693632752962,0.3676762543080857,-1.6281185229624227e-05,0.3676762543080857,-1.5609785229624228e-05,0.3676762543080857,-9.56762476717693e-06
0.3684703714880167,-0.00017959090524,0.3684703714880167,-1.561053079615792e-05,0.3684703714880167,-1.4939130796157917e-05,0.3684703714880167,-1.0238269211747891e-05
0.3692644886679478,-0.0001702050535532,0.3692644886679478,-2.1313224784774935e-05,0.3692644886679478,-1.6280535243476456e-05,0.3692644886679478,-8.896874750083594e-06
0.3700586058478789,-0.0001435242482768,0.3700586058478789,-1.76260331052111e-05,0.3700586058478789,-1.3597133167426256e-05,0.3700586058478789,-1.1244733483466158e-05
0.3708527230278099,-8.61267244265584e-05,0.3708527230278099,-1.76242e-05,0.3708527230278099,-1.8629543459114825e-05,0.3708527230278099,-1.2923814486371609e-05
0.371646840207741,6.527473648099895e-06,0.371646840207741,-3.541261936540079e-05,0.371646840207741,-1.6281872916661686e-05,0.371646840207741,-1.2253135119046197e-05
0.3724409573876721,9.516574371392394e-05,0.3724409573876721,-4.615792348311024e-05,0.3724409573876721,-1.5106463059805207e-05,0.3724409573876721,-1.2253e-05
0.3732350745676032,0.0001569417744031,0.3732350745676032,-5.119500886022752e-05,0.3732350745676032,-1.42672e-05,0.3732350745676032,-1.292433694623578e-05
0.3740291917475342,0.0001864748462307,0.3740291917475342,-6.193907192350227e-05,0.3740291917475342,-1.4266147414573363e-05,0.3740291917475342,-1.2252676127561036e-05
0.3748233089274653,0.0001609891786473,0.3748233089274653,-7.300477018674292e-05,0.3748233089274653,-9.906893597042356e-06,0.3748233089274653,-1.0911367260628418e-05
0.3756174261073964,0.0001069590644503,0.3756174261073964,-7.485946544672128e-05,0.3756174261073964,-6.884003740863252e-06,0.3756174261073964,-1.5271145686761466e-05
0.3764115432873274,8.544765810422716e-05,0.3764115432873274,-5.808545481386534e-05,0.3764115432873274,-1.124338975989911e-05,0.3764115432873274,-1.225473786649576e-05
0.3772056604672585,0.000103219391858,0.3772056604672585,-4.733809365562818e-05,0.3772056604672585,-1.5608133810028864e-05,0.3772056604672585,-1.1581887106149406e-05
0.3779997776471896,4.483205757772457e-05,0.3779997776471896,-3.139226545492264e-05,0.3779997776471896,-1.7623635940767406e-05,0.3779997776471896,-1.15816e-05
0.3787938948271206,-7.534838101178805e-05,0.3787938948271206,-6.8850660509797146e-06,0.3787938948271206,-1.0575433800059892e-05,0.3787938948271206,-1.2588566599991443e-05
0.3795880120070517,-0.000120347852785,0.3795880120070517,8.560188163780599e-06,0.3795880120070517,-8.89608107131197e-06,0.3795880120070517,-1.191724923482037e-05
0.3803821291869828,-0.0001106084119096,0.3803821291869828,5.010355006189066e-07,0.3803821291869828,-1.35958e-05,0.3803821291869828,-8.56036461973569e-06
0.3811762463669139,-8.239714689163476e-05,0.3811762463669139,-1.4942553181807268e-05,0.3811762463669139,-1.359600806383141e-05,0.3811762463669139,-8.895593875436131e-06
0.3819703635468449,-2.807433755877064e-05,0.3819703635468449,-2.768488752871369e-05,0.3819703635468449,-1.426666249729772e-05,0.3819703635468449,-7.554294997398859e-06
0.382764480726776,2.849740655696621e-05,0.382764480726776,-3.474018952084753e-05,0.382764480726776,-1.258979773313154e-05,0.382764480726776,-8.224170913287349e-06
0.3835585979067071,4.396867989315108e-05,0.3835585979067071,-3.642244998288148e-05,0.3835585979067071,-1.0575520020542225e-05,0.3835585979067071,-1.3928609946861176e-05
0.3843527150866381,3.51357757697162e-07,0.3843527150866381,-3.944351585800988e-05,0.3843527150866381,-1.4433614725398725e-05,0.3843527150866381,-1.4938238619336628e-05
0.3851468322665692,-7.534830828668418e-05,0.3851468322665692,-3.642393825316668e-05,0.3851468322665692,-1.4267235447946702e-05,0.3851468322665692,-1.460297091701852e-05
0.3859409494465003,-5.320961066548352e-05,0.3859409494465003,-2.668861984066156e-05,0.3859409494465003,-1.091041373815916e-05,0.3859409494465003,-1.4938578626184085e-05
0.3867350666264313,9.097525775075537e-05,0.3867350666264313,-1.5273159143196584e-05,0.3867350666264313,-1.0910256338773329e-05,0.3867350666264313,-1.7791985919502285e-05
0.3875291838063624,0.0001023666948311,0.3875291838063624,-1.677209362116344e-06,0.3875291838063624,-1.1582531378050724e-05,0.3875291838063624,-1.7624665689025363e-05
0.3883233009862935,1.03198233381642e-05,0.3883233009862935,3.855659747295056e-06,0.3883233009862935,-1.560645797884886e-05,0.3883233009862935,-1.963662898942443e-05
0.3891174181662246,-1.827469033037553e-05,0.3891174181662246,1.4595028118772994e-05,0.3891174181662246,-2.030635604234534e-05,0.3891174181662246,-1.8296583987901334e-05
0.3899115353461556,-3.5406180916111464e-05,0.3899115353461556,3.775254474820234e-05,0.3899115353461556,-2.265822488211153e-05,0.3899115353461556,-1.6282578722636373e-05
0.3907056525260867,-4.883822362095746e-05,0.3907056525260867,0.0001139366513005,0.3907056525260867,-2.1149661075684334e-05,0.3907056525260867,-1.22547629268415e-05
0.3914997697060178,-6.495302636635787e-05,0.3914997697060178,0.0001562557317696,0.3914997697060178,-2.031004340391672e-05,0.3914997697060178,-1.2253e-05
0.3922938868859488,-9.013141321612166e-05,0.3922938868859488,9.215833442974976e-05,0.3922938868859488,-1.527501736247411e-05,0.3922938868859488,-1.3931260879175295e-05
0.3930880040658799,-0.0001129630893879,0.3930880040658799,2.6687805749768207e-05,0.3930880040658799,-1.5274289685774022e-05,0.3930880040658799,-1.15815862477499e-05
0.393882121245811,-0.0001304183336061,0.393882121245811,-1.1249847177228507e-05,0.393882121245811,-1.3260356311201218e-05,0.393882121245811,-8.896112524480487e-06
0.394676238425742,-0.0001260502680737,0.394676238425742,-3.709963322354207e-05,0.394676238425742,-1.4940311536939925e-05,0.394676238425742,-9.56791339021856e-06
0.3954703556056732,-0.0001102897889983,0.3954703556056732,-5.353056695451433e-05,0.3954703556056732,-2.064087422140395e-05,0.3954703556056732,-1.1244539484989104e-05
0.3962644727856042,-8.209702387982554e-05,0.3962644727856042,-5.8240579342295774e-05,0.3962644727856042,-2.2490574060530384e-05,0.3962644727856042,-1.2252331287634807e-05
0.3970585899655353,-5.02033692356776e-05,0.3970585899655353,-5.992133319540425e-05,0.3970585899655353,-2.1653033376477062e-05,0.3970585899655353,-1.4433873179846335e-05
0.3978527071454664,-1.5287176968753878e-05,0.3978527071454664,-6.931823314082017e-05,0.3978527071454664,-1.6954533448031642e-05,0.3978527071454664,-1.7623023713251093e-05
0.3986468243253974,2.634309000452173e-05,0.3986468243253974,-7.33492087058327e-05,0.3986468243253974,-1.5945922823541823e-05,0.3986468243253974,-1.863107717645817e-05
0.3994409415053285,6.294080429442868e-05,0.3994409415053285,-7.402145053737728e-05,0.3994409415053285,-1.124624623835906e-05,0.3994409415053285,-1.896697526868864e-05
0.4002350586852595,0.0001018886646651,0.4002350586852595,-5.857815941283014e-05,0.4002350586852595,-1.1581699247564874e-05,0.4002350586852595,-1.896712405945609e-05
0.4010291758651906,0.000165000975547,0.4010291758651906,-4.179234641460332e-05,0.4010291758651906,-1.2924288596591192e-05,0.4010291758651906,-2.064590842754901e-05
0.4018232930451217,0.000187467998957,0.4018232930451217,-3.206785712934183e-05,0.4018232930451217,-1.2421247827014734e-05,0.4018232930451217,-2.249015817510464e-05
0.4026174102250527,0.0001200621204714,0.4026174102250527,-2.9040144190236797e-05,0.4026174102250527,-1.2253124640095895e-05,0.4026174102250527,-2.433672858755033e-05
0.4034115274049838,7.471987428311726e-05,0.4034115274049838,-2.534739792394966e-05,0.4034115274049838,-1.0910999245072603e-05,0.4034115274049838,-2.1989698619356276e-05
0.4042056445849149,7.01630285965039e-05,0.4042056445849149,-2.165425290395867e-05,0.4042056445849149,-1.1581299463868858e-05,0.4042056445849149,-1.661950428904913e-05
0.404999761764846,0.0001104329130164,0.404999761764846,-2.182034965257072e-05,0.404999761764846,-9.90360362431495e-06,0.404999761764846,-1.863069565082206e-05
0.4057938789447771,0.0001760639940387,0.4057938789447771,-1.5610946853093586e-05,0.4057938789447771,-1.0238748818339635e-05,0.4057938789447771,-1.9973895273358547e-05
0.4065879961247081,0.000160296077008,0.4065879961247081,-5.874767515178074e-06,0.4065879961247081,-1.2252990169253306e-05,0.4065879961247081,-1.644921720405075e-05
0.4073821133046392,0.0001414903891594,0.4073821133046392,-8.22609504566173e-06,0.4073821133046392,-1.0910008382447818e-05,0.4073821133046392,-1.426672095255202e-05
0.4081762304845703,9.513716621975331e-05,0.4081762304845703,-1.8631008023885825e-05,0.4081762304845703,-9.567847975767968e-06,0.4081762304845703,-1.0908350826641102e-05
0.4089703476645013,-1.971185612210812e-05,0.4089703476645013,-1.7625026373686365e-05,0.4089703476645013,-1.1076860406648542e-05,0.4089703476645013,-4.537163675397202e-06
0.4097644648444324,-0.000168923427284,0.4097644648444324,-1.0914725232343512e-05,0.4097644648444324,-9.568428204237268e-06,0.4097644648444324,-3.190045039728708e-06
0.4105585820243635,-0.0002217012551562,0.4105585820243635,-2.857681220893014e-06,0.4105585820243635,-8.896363436829144e-06,0.4105585820243635,-5.7055446224190654e-06
0.4113526992042945,-0.0001482388512577,0.4113526992042945,1.82875879843747e-05,0.4113526992042945,-1.0909436952516413e-05,0.4113526992042945,-7.552520536334048e-06
0.4121468163842256,-8.276483819557971e-05,0.4121468163842256,5.48782381572276e-05,0.4121468163842256,-9.903332896028162e-06,0.4121468163842256,-3.190149211496953e-06
0.4129409335641567,-7.737894942090854e-05,0.4129409335641567,5.555804382238643e-05,0.4129409335641567,-1.0910115733579649e-05,0.4129409335641567,-1.5107804440339175e-06
0.4137350507440878,-5.824342109285464e-05,0.4137350507440878,4.330451000731106e-05,0.4137350507440878,-1.3596057452749562e-05,0.4137350507440878,-6.882013088283984e-06
0.4145291679240188,-5.387768547608237e-05,0.4145291679240188,3.4072761825360786e-05,0.4145291679240188,-1.7624483633172982e-05,0.4145291679240188,-9.90359635805272e-06
0.4153232851039499,-4.482385062428783e-05,0.4153232851039499,3.105481687476261e-05,0.4153232851039499,-1.8965792500105503e-05,0.4153232851039499,-1.2250886875184636e-05
0.416117402283881,-6.910376286563947e-06,0.416117402283881,2.602039067949265e-05,0.416117402283881,-1.762521084786471e-05,0.416117402283881,-1.3930236440169115e-05
0.416911519463812,2.465470224515961e-05,0.416911519463812,2.048095225433888e-05,0.416911519463812,-1.4940225350108771e-05,0.416911519463812,-1.6279977818654823e-05
0.4177056366437431,6.2188693509405774e-06,0.4177056366437431,2.265860145673477e-05,0.4177056366437431,-1.6448508707856807e-05,0.4177056366437431,-1.527476087668305e-05
0.4184997538236742,-2.2315053055345205e-05,0.4184997538236742,1.89681448749377e-05,0.4184997538236742,-1.5274664272752073e-05,0.4184997538236742,-1.4938704082358388e-05
0.4192938710036052,-4.850414596209335e-05,0.4192938710036052,1.0575863478895203e-05,0.4192938710036052,-1.5945590921688383e-05,0.4192938710036052,-1.5609890921688385e-05
0.4200879881835363,-9.349133054524392e-05,0.4200879881835363,3.86062991861809e-06,0.4200879881835363,-1.6952785012140317e-05,0.4200879881835363,-2.0645425060701585e-05
0.4208821053634674,-0.0001327600460161,0.4208821053634674,-8.398919316661044e-07,0.4208821053634674,-1.7289034566992792e-05,0.4208821053634674,-1.8966777263753e-05
0.4216762225433985,-6.52718804732595e-05,0.4216762225433985,-5.7085145061376026e-06,0.4216762225433985,-2.1316430139503948e-05,0.4216762225433985,-1.728859397209921e-05
0.4224703397233295,1.1517752491772523e-05,0.4224703397233295,-1.1576720821177116e-05,0.4224703397233295,-1.963979405583818e-05,0.4224703397233295,-1.7623921188832365e-05
0.4232644569032606,-7.540131765302009e-06,0.4232644569032606,-1.91296336041666e-05,0.4232644569032606,-1.829651847645039e-05,0.4232644569032606,-2.0643433427986625e-05
0.4240585740831917,1.1235815791952566e-05,0.4240585740831917,-2.2322189305675798e-05,0.4240585740831917,-2.3328298914991657e-05,0.4240585740831917,-2.2322999674091832e-05
0.4248526912631227,6.762127062180578e-05,0.4248526912631227,-2.500845573834069e-05,0.4248526912631227,-2.098211369006816e-05,0.4248526912631227,-2.534402520563328e-05
0.4256468084430538,8.375291250376915e-05,0.4256468084430538,-3.339997526237976e-05,0.4256468084430538,-1.561129583207695e-05,0.4256468084430538,-2.1989109870922536e-05
0.4264409256229849,5.253972449673992e-05,0.4264409256229849,-4.649297360358045e-05,0.4264409256229849,-1.0910640248231206e-05,0.4264409256229849,-1.7624608801928977e-05
0.4272350428029159,1.6951895157622747e-05,0.4272350428029159,-5.4550755694540335e-05,0.4272350428029159,-1.0238944775202998e-05,0.4272350428029159,-1.829590764191558e-05
0.428029159982847,1.7176718136117797e-07,0.428029159982847,-5.001825555217488e-05,0.428029159982847,-1.2924602665063194e-05,0.428029159982847,-2.4001015132129984e-05
0.4288232771627781,1.962069680629831e-05,0.4288232771627781,-4.582661539853343e-05,0.4288232771627781,-1.3930584315262728e-05,0.4288232771627781,-1.7126857133576563e-05
0.4296173943427092,8.169522737843762e-05,0.4296173943427092,-4.0120353104568326e-05,0.4296173943427092,-1.359605606946162e-05,0.4296173943427092,-1.2256712969053897e-05
0.4304115115226402,0.0001038853691438,0.4304115115226402,-2.938020884028934e-05,0.4304115115226402,-1.3260306526259045e-05,0.4304115115226402,-1.6949908632373413e-05
0.4312056287025713,4.484332906469187e-05,0.4312056287025713,-2.0985124529647468e-05,0.4312056287025713,-1.1246841898338488e-05,0.4312056287025713,-1.4268455864451317e-05
0.4319997458825024,-2.700070799929837e-05,0.4319997458825024,-1.3598163676784351e-05,0.4319997458825024,-1.2923862800730827e-05,0.4319997458825024,-7.219776230529573e-06
0.4327938630624334,-6.797183664304013e-05,0.4327938630624334,-6.211693722878274e-06,0.4327938630624334,-1.2253115793302507e-05,0.4327938630624334,-7.553162103348746e-06
0.4335879802423645,-7.30142746982706e-05,0.4335879802423645,1.6769028524749238e-07,0.4335879802423645,-1.2924383293102747e-05,0.4335879802423645,-8.224593293351584e-06
0.4343820974222956,-6.529125813279439e-05,0.4343820974222956,5.874308104914423e-06,0.4343820974222956,-1.5274423569261862e-05,0.4343820974222956,-1.0239129518031631e-05
0.4351762146022266,-4.783283156095064e-05,0.4351762146022266,2.514840211032055e-06,0.4351762146022266,-1.62814e-05,0.4351762146022266,-1.2924037524691882e-05
0.4359703317821577,-3.24078794801779e-05,0.4359703317821577,-8.215580779952913e-06,0.4359703317821577,-1.62814e-05,0.4359703317821577,-1.158272865775917e-05
0.4367644489620888,-2.736289464912065e-05,0.4367644489620888,-1.8624077732090685e-05,0.4367644489620888,-1.3597663812864344e-05,0.4367644489620888,-9.904264883040215e-06
0.4375585661420199,-3.272766506551297e-05,0.4375585661420199,-3.7084611217342905e-05,0.4375585661420199,-1.1247184033838076e-05,0.4375585661420199,-1.2587232532756485e-05
0.438352683321951,-4.111975274492912e-05,0.438352683321951,-4.078592720776881e-05,0.438352683321951,-1.0910333890202837e-05,0.438352683321951,-9.56861500783713e-06
0.439146800501882,-5.119146961511806e-05,0.439146800501882,-4.548591916712214e-05,0.439146800501882,-1.023896869400051e-05,0.439146800501882,-1.225232522651053e-05
0.4399409176818131,-7.032681619390007e-05,0.4399409176818131,-4.313754361621619e-05,0.4399409176818131,-9.231814410356272e-06,0.4399409176818131,-1.0910339215190698e-05
0.4407350348617442,-7.167074511890338e-05,0.4407350348617442,-3.23941335553331e-05,0.4407350348617442,-1.2253140022151728e-05,0.4407350348617442,-1.2924414739404953e-05
0.4415291520416752,-5.2198852957912977e-05,0.4415291520416752,-1.4930318012640424e-05,0.4415291520416752,-1.5442003706939007e-05,0.4415291520416752,-1.3260164201748908e-05
0.4423232692216063,-4.046250026120602e-05,0.4423232692216063,2.8326693168029607e-05,0.4423232692216063,-1.4939062826316002e-05,0.4423232692216063,-1.359549141848206e-05
0.4431173864015373,-1.5293756944500692e-05,0.4431173864015373,4.480298815638308e-05,0.4431173864015373,-1.49386e-05,0.4431173864015373,-1.2589478280871204e-05
0.4439115035814684,1.861010180332273e-05,0.4439115035814684,5.72288343010857e-05,0.4439115035814684,-1.4603109883754442e-05,0.4439115035814684,-1.158222965126332e-05
0.4447056207613995,3.0375088128447942e-05,0.4447056207613995,6.495401216730722e-05,0.4447056207613995,-1.661613795668884e-05,0.4447056207613995,-8.561753060190437e-06
0.4454997379413306,1.158780461855479e-05,0.4454997379413306,2.9385344486018776e-05,0.4454997379413306,-1.561033239204784e-05,0.4454997379413306,-8.56031e-06
0.4462938551212617,-6.878451036530183e-06,0.4462938551212617,-4.861382108058444e-06,0.4462938551212617,-1.3596167524880054e-05,0.4462938551212617,-1.2252326206211236e-05
0.4470879723011927,-2.769437392565376e-05,0.4470879723011927,-2.568017392600261e-05,0.4470879723011927,-1.35958e-05,0.4470879723011927,-9.231815398147796e-06
0.4478820894811238,-4.515232689596829e-05,0.4478820894811238,-3.94432758709522e-05,0.4478820894811238,-1.3931651329034036e-05,0.4478820894811238,-1.124616482580956e-05
0.4486762066610549,-5.3375707292005525e-05,0.4486762066610549,-2.769082401380637e-05,0.4486762066610549,-1.527386367222564e-05,0.4486762066610549,-1.359566908867014e-05
0.4494703238409859,-5.18666848722296e-05,0.4494703238409859,-1.1259890282835256e-05,0.4494703238409859,-1.3597227588559867e-05,0.4494703238409859,-1.3092628319093683e-05
0.450264441020917,-3.576324396656707e-05,0.450264441020917,-1.5606927656654647e-05,0.450264441020917,-1.35958e-05,0.450264441020917,-1.527276379312713e-05
0.4510585582008481,-6.460593603816814e-05,0.4510585582008481,-2.8694915210508616e-05,0.4510585582008481,-1.4266826418198275e-05,0.4510585582008481,-1.829391888189225e-05
0.4518526753807791,-7.535990811453905e-05,0.4518526753807791,-5.051367894049578e-05,0.4518526753807791,-1.6951702018413752e-05,0.4518526753807791,-1.82956e-05
0.4526467925607102,-2.8378778577146363e-05,0.4526467925607102,-6.864556398335803e-05,0.4526467925607102,-1.4939126226974205e-05,0.4526467925607102,-1.96380491820172e-05
0.4534409097406413,-5.052008136602485e-05,0.4534409097406413,-8.543339193534634e-05,0.4534409097406413,-1.7959556548362343e-05,0.4534409097406413,-2.2994918398436944e-05
0.4542350269205724,-6.495495696998026e-05,0.4542350269205724,-8.644250812644506e-05,0.4542350269205724,-1.695276585427148e-05,0.4542350269205724,-2.5009369109735917e-05
0.4550291441005034,1.594886410266393e-05,0.4550291441005034,-8.96311044939642e-05,0.4550291441005034,-1.594582169695345e-05,0.4550291441005034,-2.114866534244093e-05
0.4558232612804345,3.338577948383452e-05,0.4558232612804345,-8.745152752967543e-05,0.4558232612804345,-1.6616476130419764e-05,0.4558232612804345,-1.9304415594885305e-05
0.4566173784603656,0.0001105525595759,0.4566173784603656,-7.805725796466973e-05,0.4566173784603656,-1.561078835335747e-05,0.4566173784603656,-1.762551392226245e-05
0.4574114956402966,0.0002501742924023,0.4574114956402966,-6.228212227522327e-05,0.4574114956402966,-1.1584158894998633e-05,0.4574114956402966,-1.76242e-05
0.4582056128202277,0.0003475685275662,0.4582056128202277,-4.1133412928217065e-05,0.4582056128202277,-6.88411176290964e-06,0.4582056128202277,-1.76242e-05
0.4589997300001588,0.0003798320412029,0.4589997300001588,-4.879958679021264e-06,0.4589997300001588,-6.210648309689404e-06,0.4589997300001588,-1.376491279771658e-05
0.4597938471800898,0.0004402573699044,0.4597938471800898,2.6010655761646624e-05,0.4597938471800898,-7.217326165073706e-06,0.4597938471800898,-1.3595832296197629e-05
0.4605879643600209,0.0003687682095731,0.4605879643600209,2.8534286984459287e-05,0.4605879643600209,-6.378307671098794e-06,0.4605879643600209,-1.4267169863120964e-05
0.461382081539952,0.00011160486562,0.461382081539952,1.997389315142148e-05,0.461382081539952,-6.882061322314653e-06,0.461382081539952,-1.5274058676658394e-05
0.4621761987198831,-3.576658457448642e-05,0.4621761987198831,1.7962752992616087e-05,0.4621761987198831,-9.23313650630653e-06,0.4621761987198831,-1.292389652630371e-05
0.4629703158998141,-9.444854783592402e-05,0.4629703158998141,2.936377847258909e-05,0.4629703158998141,-1.4933689201874412e-05,0.4629703158998141,-1.0911933225904924e-05
0.4637644330797452,-0.0001354247579819,0.4637644330797452,4.782381703346174e-05,0.4637644330797452,-1.2590377841192212e-05,0.4637644330797452,-6.2137756681043154e-06
0.4645585502596763,-0.0001378026689045,0.4645585502596763,4.481741133556676e-05,0.4645585502596763,-1.158217044518892e-05,0.4645585502596763,-6.21042e-06
0.4653526674396073,-0.0001310928121038,0.4653526674396073,2.5353355059351955e-05,0.4653526674396073,-1.2252718789612546e-05,0.4653526674396073,-6.881538789612546e-06
0.4661467846195384,-0.0001243778212398,0.4661467846195384,-2.5101818981403774e-06,0.4661467846195384,-1.3595435752035605e-05,0.4661467846195384,-7.553037876017801e-06
0.4669409017994695,-0.0001270616678002,0.4669409017994695,-1.0909162035234162e-05,0.4669409017994695,-1.4267116962422965e-05,0.4669409017994695,-1.158110177701134e-05
0.4677350189794005,-0.0001515685215749,0.4677350189794005,-1.158153580492654e-05,0.4677350189794005,-1.258877623073841e-05,0.4677350189794005,-1.3931443829101568e-05
0.4685291361593316,-0.0001733900697931,0.4685291361593316,-8.895032586660013e-06,0.4685291361593316,-1.5777656270552e-05,0.4685291361593316,-1.1581485009590812e-05
0.4693232533392627,-0.0001854616498175,0.4693232533392627,-3.194499868882819e-06,0.4693232533392627,-1.4939388173195897e-05,0.4693232533392627,-1.0910830576124553e-05
0.4701173705191938,-0.0002015742248693,0.4701173705191938,-1.702442703960357e-07,0.4701173705191938,-1.49386e-05,0.4701173705191938,-1.1245633858052088e-05
0.4709114876991248,-0.0002046060508048,0.4709114876991248,-1.006558502491456e-06,0.4709114876991248,-1.3596666394981326e-05,0.4709114876991248,-1.0239449796235996e-05
0.4717056048790559,-0.0001559562228048,0.4717056048790559,-5.2012418156685724e-06,0.4717056048790559,-1.2924734111085455e-05,0.4717056048790559,-1.158093177782909e-05
0.472499722058987,-5.08950812224381e-05,0.472499722058987,-1.4264027177318206e-05,0.472499722058987,-1.829371980255802e-05,0.472499722058987,-1.426625990127901e-05
0.473293839238918,3.51381905438484e-06,0.473293839238918,-1.8488548499903096e-06,0.473293839238918,-2.047715821072946e-05,0.473293839238918,-1.6280992185174738e-05
0.4740879564188491,-1.0238044540509646e-05,0.4740879564188491,2.500802593398693e-05,0.4740879564188491,-1.762435661770258e-05,0.4740879564188491,-1.695276314813012e-05
0.4748820735987802,-4.866883188357428e-06,0.4748820735987802,1.4434766625127376e-05,0.4748820735987802,-1.930273111726764e-05,0.4748820735987802,-1.6281244413661794e-05
0.4756761907787112,3.188173295233219e-06,0.4756761907787112,1.1924308609919122e-05,0.4756761907787112,-1.9637836086926264e-05,0.4756761907787112,-1.46026583229684e-05
0.4764703079586423,-8.357393211114332e-07,0.4764703079586423,4.109767657675215e-05,0.4764703079586423,-1.7290545569794015e-05,0.4764703079586423,-1.3596676672768864e-05
0.4772644251385734,3.572540776021477e-05,0.4772644251385734,3.0053020620112983e-05,0.4772644251385734,-1.3766152051690835e-05,0.4772644251385734,-1.5608541705434006e-05
0.4780585423185045,9.614276911241208e-05,0.4780585423185045,2.198100908315942e-06,0.4780585423185045,-1.1750561035350514e-05,0.4780585423185045,-1.6281012988216495e-05
0.4788526594984356,0.0001163113620671,0.4788526594984356,-1.2582365667409092e-05,0.4788526594984356,-1.4601676295700271e-05,0.4788526594984356,-1.426806377613475e-05
0.4796467766783666,0.0001320925625372,0.4796467766783666,-2.0978839512836382e-05,0.4796467766783666,-1.577746954586017e-05,0.4796467766783666,-1.8965678127188374e-05
0.4804408938582977,0.0001122936476606,0.4804408938582977,-3.188994152745515e-05,0.4804408938582977,-1.3931746812877816e-05,0.4804408938582977,-2.0980930742296212e-05
0.4812350110382288,-1.847446054990912e-06,0.4812350110382288,-4.515154000755919e-05,0.4812350110382288,-1.326011400075592e-05,0.4812350110382288,-2.03097766654068e-05
0.4820291282181598,-8.139693793282043e-05,0.4820291282181598,-5.5223320412851006e-05,0.4820291282181598,-1.4267957987053763e-05,0.4820291282181598,-1.8630108877486934e-05
0.4828232453980909,-1.969702972078036e-05,0.4828232453980909,-6.092388309731463e-05,0.4828232453980909,-1.896253902131793e-05,0.4828232453980909,-1.125291010935754e-05
0.483617362578022,-1.6284094994433342e-05,0.483617362578022,-6.93149625941965e-05,0.483617362578022,-1.728984749721667e-05,0.483617362578022,-1.2252191501669998e-05
0.484411479757953,-2.634570137829906e-05,0.484411479757953,-6.26121990592934e-05,0.484411479757953,-1.2256299343611304e-05,0.484411479757953,-1.3594920175036986e-05
0.4852055969378841,-3.5364180206032377e-06,0.4852055969378841,-5.321297156506885e-05,0.4852055969378841,-1.3091773992786313e-05,0.4852055969378841,-8.227336603534421e-06
0.4859997141178152,2.869059655699438e-05,0.4859997141178152,-3.642934345577315e-05,0.4859997141178152,-1.4434516520657725e-05,0.4859997141178152,-9.063557825411078e-06
0.4867938312977463,3.530179469851132e-06,0.4867938312977463,-2.4676296432153796e-05,0.4867938312977463,-1.3595978305958846e-05,0.4867938312977463,-1.0238550358909334e-05
0.4875879484776773,-3.793120976062316e-05,0.4875879484776773,-1.5946266362701053e-05,0.4875879484776773,-1.3931478216569616e-05,0.4875879484776773,-9.567453566211877e-06
0.4883820656576084,-4.8507706013963744e-05,0.4883820656576084,-4.195758086353045e-06,0.4883820656576084,-1.4267311039088876e-05,0.4883820656576084,-8.89620431757861e-06
0.4891761828375395,-4.011268015324981e-05,0.4891761828375395,1.5127245457367915e-06,0.4891761828375395,-1.5609459559831368e-05,0.4891761828375395,-1.124555257647715e-05
0.4899703000174705,-2.5693609833724168e-05,0.4899703000174705,1.0566519441950582e-05,0.4899703000174705,-1.3262169042699283e-05,0.4899703000174705,-9.7365900900733e-06
0.4907644171974016,-1.4275577750651633e-05,0.4907644171974016,1.6948118274794212e-05,0.4907644171974016,-1.0241017659308004e-05,0.4907644171974016,-1.0909337584275858e-05
0.4915585343773327,-5.544148430473739e-06,0.4915585343773327,1.0242737267743488e-05,0.4915585343773327,-9.903296863387174e-06,0.4915585343773327,-1.4936237639353908e-05
0.4923526515572637,1.84309896910479e-06,0.4923526515572637,-8.216507429344642e-06,0.4923526515572637,-1.2251968758708004e-05,0.4923526515572637,-1.426749464036914e-05
0.4931467687371948,5.039391055978566e-07,0.4931467687371948,-1.6279053355344866e-05,0.4931467687371948,-1.258860222301801e-05,0.4931467687371948,-1.42672e-05
0.4939408859171259,1.4600874188162476e-05,0.4939408859171259,-1.1582275272911408e-05,0.4939408859171259,-1.527391412976491e-05,0.4939408859171259,-1.5777582955176822e-05
0.494735003097057,2.735943928269653e-05,0.494735003097057,-1.158163404500366e-05,0.494735003097057,-1.527430589220945e-05,0.494735003097057,-1.4267189524614258e-05
0.495529120276988,3.743420913438815e-05,0.495529120276988,-2.0310206294152663e-05,0.495529120276988,-1.6784417515292393e-05,0.495529120276988,-1.1581447634019309e-05
0.4963232374569191,6.258365050042304e-05,0.4963232374569191,-2.299272413906464e-05,0.4963232374569191,-1.359885890080393e-05,0.4963232374569191,-1.0575465983819773e-05
0.4971173546368502,6.830996151332074e-05,0.4971173546368502,-2.098283706035269e-05,0.4971173546368502,-1.35958e-05,0.4971173546368502,-1.090992714306122e-05
0.4979114718167812,3.6109037985631495e-05,0.4979114718167812,-2.16521533725276e-05,0.4979114718167812,-1.1582939882417194e-05,0.4979114718167812,-1.3594013490110408e-05
0.4987055889967123,-1.8435162417699856e-05,0.4987055889967123,-1.6955232787470337e-05,0.4987055889967123,-1.2252652458932807e-05,0.4987055889967123,-1.426685245893281e-05
0.4994997061766434,-5.151746366340555e-05,0.4994997061766434,-3.5297990821380167e-06,0.4994997061766434,-1.3091889450175252e-05,0.4994997061766434,-1.3260472681992977e-05
0.5002938233565745,-7.53589974491301e-05,0.5002938233565745,3.187646324105966e-06,0.5002938233565745,-1.5777202526972713e-05,0.5002938233565745,-1.1246348104770466e-05
0.5010879405365055,-8.912686922953102e-05,0.5010879405365055,-1.6759759156573136e-07,0.5010879405365055,-1.527433770764416e-05,0.5010879405365055,-1.359562401351935e-05
0.5018820577164366,-9.5506492827321e-05,0.5018820577164366,1.3261710542996422e-05,0.5018820577164366,-1.35956535863395e-05,0.5018820577164366,-1.460297320683025e-05
0.5026761748963677,-9.953777572204604e-05,0.5026761748963677,3.541634770493244e-05,0.5026761748963677,-1.158222773496309e-05,0.5026761748963677,-1.560948303273647e-05
0.5034702920762988,-0.0001139571457084,0.5034702920762988,3.6087002138398754e-05,0.5034702920762988,-1.443245913271818e-05,0.5034702920762988,-1.3262192515604386e-05
0.5042644092562298,-0.0001294005110008,0.5042644092562298,2.4682291978896012e-05,0.5042644092562298,-1.5609125788501393e-05,0.5042644092562298,-1.3595550235914824e-05
0.5050585264361609,-0.0001119654118437,0.5050585264361609,1.0247409438309856e-05,0.5050585264361609,-1.930049757029118e-05,0.5050585264361609,-1.560879867470428e-05
0.505852643616092,-7.135413172997421e-05,0.505852643616092,5.079176311758474e-07,0.505852643616092,-2.1651545256239888e-05,0.505852643616092,-1.6952197289279938e-05
0.506646760796023,-2.166756781227768e-05,0.506646760796023,1.5103365989778792e-06,0.506646760796023,-1.997460567238706e-05,0.506646760796023,-1.8295195462090354e-05
0.507440877975954,2.3156312587859222e-05,0.507440877975954,-3.6918803398502247e-06,0.507440877975954,-2.2323538876444284e-05,0.507440877975954,-1.8631248408725144e-05
0.5082349951558852,7.637107538208083e-05,0.5082349951558852,-1.1078054942289484e-05,0.5082349951558852,-1.6952832768545183e-05,0.5082349951558852,-2.2323877471815843e-05
0.5090291123358163,0.0001817954677227,0.5090291123358163,-2.2325133320090526e-05,0.5090291123358163,-1.2420871160147292e-05,0.5090291123358163,-2.333057309563742e-05
0.5098232295157473,0.0002840697693815,0.5098232295157473,-3.104364095515132e-05,0.5098232295157473,-1.2923911929723678e-05,0.5098232295157473,-2.03127280339929e-05
0.5106173466956784,0.0002734348393555,0.5106173466956784,-3.675430435461817e-05,0.5106173466956784,-1.42660951422631e-05,0.5106173466956784,-2.098064757113155e-05
0.5114114638756094,0.0002086807468049,0.5114114638756094,-4.212657326029406e-05,0.5114114638756094,-1.4938146657536757e-05,0.5114114638756094,-2.3664886697669e-05
0.5122055810555405,0.000105295555644,0.5122055810555405,-4.313676861591281e-05,0.5122055810555405,-1.49386e-05,0.5122055810555405,-2.0311571227526857e-05
0.5129996982354716,-2.0262083654977422e-05,0.5129996982354716,-4.347287241517359e-05,0.5129996982354716,-9.569451353422054e-06,0.5129996982354716,-1.5611786187569788e-05
0.5137938154154027,-7.63583671185661e-05,0.5137938154154027,-3.3068719290338096e-05,0.5137938154154027,-9.903021960700934e-06,0.5137938154154027,-1.561e-05
0.5145879325953338,-6.19376254236246e-05,0.5145879325953338,-1.7625510918888368e-05,0.5145879325953338,-8.896095494414833e-06,0.5145879325953338,-1.3595970990527514e-05
0.5153820497752648,-2.8491679256848877e-06,0.5153820497752648,5.043266539009147e-07,0.5153820497752648,-6.881851567172027e-06,0.5153820497752648,-1.2588636865655946e-05
0.5161761669551959,6.529135552337289e-05,0.5161761669551959,1.2925457487910574e-05,0.5161761669551959,-7.385193752014905e-06,0.5161761669551959,-1.15816e-05
0.5169702841351269,5.556686623811141e-05,0.5169702841351269,1.7955365738907892e-05,0.5169702841351269,-6.546875710182017e-06,0.5169702841351269,-1.15816e-05
0.5177644013150581,1.8868392719368889e-06,0.5177644013150581,1.2257303066870582e-05,0.5177644013150581,-9.900568799274e-06,0.5177644013150581,-1.0575259364741868e-05
0.5185585184949891,-3.371612078895875e-05,0.5185585184949891,1.0575517891890091e-05,0.5185585184949891,-1.225157495135387e-05,0.5185585184949891,-1.292297495135387e-05
0.5193526356749202,-5.689027161878116e-05,0.5193526356749202,3.137824986500906e-05,0.5193526356749202,-1.4266275788947511e-05,0.5193526356749202,-1.1246670175877074e-05
0.5201467528548512,-7.703653051275513e-05,0.5201467528548512,3.994543547025542e-05,0.5201467528548512,-1.5106138785631153e-05,0.5201467528548512,-6.883178389421831e-06
0.5209408700347823,-9.097201963421869e-05,0.5209408700347823,4.347242302972813e-05,0.5209408700347823,-1.6616852722349652e-05,0.5209408700347823,-9.063502834630192e-06
0.5217349872147133,-0.0001055767648618,0.5217349872147133,3.2059383789300097e-05,0.5217349872147133,-1.628140540556765e-05,0.5217349872147133,-1.0238781080674248e-05
0.5225291043946444,-0.0001305890056903,0.5225291043946444,-3.743736493491316e-05,0.5225291043946444,-1.6281135507304784e-05,0.5225291043946444,-7.72126836820827e-06
0.5233232215745756,-0.0001458460444403,0.5233232215745756,-9.041876551189864e-05,0.5233232215745756,-1.4269172206905574e-05,0.5233232215745756,-9.230230854612334e-06
0.5241173387545066,-0.0001461967201782,0.5241173387545066,-0.0001102605052561,0.5241173387545066,-1.4938040856140751e-05,0.5241173387545066,-1.2418144116636748e-05
0.5249114559344377,-0.0001277456519225,0.5249114559344377,-0.0001069223002872,0.5249114559344377,-1.3596720114908264e-05,0.5249114559344377,-1.2924054922648344e-05
0.5257055731143687,-8.310940430593389e-05,0.5257055731143687,-0.0001008802489544,0.5257055731143687,-1.5273397572377686e-05,0.5257055731143687,-1.3595439028951071e-05
0.5264996902942998,-3.006568880884221e-05,0.5264996902942998,-9.081032811363276e-05,0.5264996902942998,-1.7287714346068845e-05,0.5264996902942998,-1.4266938115356282e-05
0.5272938074742308,1.0229032154178923e-05,0.5272938074742308,-7.620714082531827e-05,0.5272938074742308,-1.72885e-05,0.5272938074742308,-1.6784289518729022e-05
0.528087924654162,2.232275319648996e-05,0.528087924654162,-7.16720300596195e-05,0.528087924654162,-1.8966840720416743e-05,0.528087924654162,-1.4267438914630184e-05
0.528882041834093,1.7794768047079657e-05,0.528882041834093,-6.394925577153636e-05,0.528882041834093,-2.198822925085619e-05,0.528882041834093,-1.1245988436429765e-05
0.5296761590140241,7.033222444201473e-05,0.5296761590140241,-3.84328669513936e-05,0.5296761590140241,-2.0645164270390716e-05,0.5296761590140241,-1.2924534291843714e-05
0.5304702761939551,8.743391249540561e-05,0.5304702761939551,-1.5295388885759388e-05,0.5304702761939551,-1.896852818672494e-05,0.5304702761939551,-1.3595188725310024e-05
0.5312643933738862,8.443050831168462e-05,0.5312643933738862,-2.192042653406142e-06,0.5312643933738862,-1.561256479076068e-05,0.5312643933738862,-1.4937574083695728e-05
0.5320585105538173,0.0001357583389962,0.5320585105538173,9.89565034554115e-06,0.5320585105538173,-1.0913097102228495e-05,0.5320585105538173,-1.49386e-05
0.5328526277337483,6.163548359273079e-05,0.5328526277337483,2.3324704340048635e-05,0.5328526277337483,-1.1245742607329092e-05,0.5328526277337483,-1.644849175642338e-05
0.5336467449136795,-5.417809209408528e-05,0.5336467449136795,3.474113311807929e-05,0.5336467449136795,-1.0910307849468255e-05,0.5336467449136795,-1.5106831397873026e-05
0.5344408620936105,-7.16685680915522e-05,0.5344408620936105,3.67586501624058e-05,0.5344408620936105,-1.15814833874686e-05,0.5344408620936105,-1.57776833874686e-05
0.5352349792735416,-4.985176959649082e-05,0.5352349792735416,3.2730705156757144e-05,0.5352349792735416,-1.2252982473873807e-05,0.5352349792735416,-1.3595856958604928e-05
0.5360290964534726,-4.750166655959362e-05,0.5360290964534726,3.608788510190615e-05,0.5360290964534726,-1.124573708462506e-05,0.5360290964534726,-1.2253081457687473e-05
0.5368232136334037,-5.051961151019201e-05,0.5368232136334037,3.843517561903823e-05,0.5368232136334037,-9.90442821769244e-06,0.5368232136334037,-1.292373589115378e-05
0.5376173308133347,-3.2410178104675834e-05,0.5376173308133347,3.776666585885023e-05,0.5376173308133347,-1.2251019494024186e-05,0.5376173308133347,-1.2421224436277892e-05
0.5384114479932659,2.094409172967253e-05,0.5384114479932659,5.5378047258081695e-05,0.5384114479932659,-9.569277082827497e-06,0.5384114479932659,-1.4265916341015313e-05
0.539205565173197,6.895971061245206e-05,0.539205565173197,6.830752212588145e-05,0.539205565173197,-9.56741e-06,0.539205565173197,-1.42672e-05
0.539999682353128,8.274419370749052e-05,0.539999682353128,5.958999175524402e-05,0.539999682353128,-1.0574097104548676e-05,0.539999682353128,-1.7958422702009652e-05
0.5407937995330591,3.475692014540673e-05,0.5407937995330591,2.7703151853148825e-05,0.5407937995330591,-1.02388847566147e-05,0.5407937995330591,-1.9637976216926495e-05
0.5415879167129901,-1.6276047582340396e-05,0.5415879167129901,-3.521555170507238e-06,0.5415879167129901,-1.426677743905484e-05,0.5415879167129901,-1.6281752134120965e-05
0.5423820338929212,-1.930463451317488e-05,0.5423820338929212,-2.1988428963845517e-05,0.5423820338929212,-1.5610057319161842e-05,0.5423820338929212,-1.2252978503179994e-05
0.5431761510728523,-6.463577917433454e-05,0.5431761510728523,-2.500528971172227e-05,0.5431761510728523,-1.6952417244101662e-05,0.5431761510728523,-1.174911294257768e-05
0.5439702682527834,-0.0001370662582107,0.5439702682527834,-2.873833251868899e-06,0.5439702682527834,-1.4940453943702732e-05,0.5439702682527834,-1.0240190411755213e-05
0.5447643854327144,-0.0001720179776157,0.5447643854327144,5.009496435730359e-07,0.5447643854327144,-1.2255078692572107e-05,0.5447643854327144,-9.567929665402884e-06
0.5455585026126455,-0.0001748972121618,0.5455585026126455,-1.0232070644769378e-05,0.5455585026126455,-9.569092340686952e-06,0.5455585026126455,-1.0909358832788683e-05
0.5463526197925765,-0.0001535922076595,0.5463526197925765,-2.7686741039237167e-05,0.5463526197925765,-1.1412815902816358e-05,0.5463526197925765,-1.2252356999334776e-05
0.5471467369725076,-0.0001210297871086,0.5471467369725076,-4.128639613453162e-05,0.5471467369725076,-1.0574778000845927e-05,0.5471467369725076,-1.258858879303625e-05
0.5479408541524387,-6.66461894190932e-05,0.5479408541524387,-4.179440749517393e-05,0.5479408541524387,-1.0910138336238854e-05,0.5479408541524387,-1.594508336238855e-05
0.5487349713323698,3.4069763846893914e-05,0.5487349713323698,-4.850815759244065e-05,0.5487349713323698,-1.762395758883012e-05,0.5487349713323698,-1.6617075758883013e-05
0.5495290885123009,0.0001498956901939,0.5495290885123009,-4.716500200198875e-05,0.5495290885123009,-2.31631065555043e-05,0.5495290885123009,-1.4602937375571554e-05
0.5503232056922319,0.0002099189623222,0.5503232056922319,-4.179986642321173e-05,0.5503232056922319,-2.2324738569194693e-05,0.5503232056922319,-1.493826459230471e-05
0.551117322872163,0.0002254088301194,0.551117322872163,-4.078825886076154e-05,0.551117322872163,-2.098234506240148e-05,0.551117322872163,-1.9634391983112797e-05
0.551911440052094,0.000307777879664,0.551911440052094,-4.414203256282089e-05,0.551911440052094,-1.8968420462307463e-05,0.551911440052094,-2.064478976884627e-05
0.5527055572320251,0.0002781425675523,0.5527055572320251,-5.454519683978826e-05,0.5527055572320251,-1.8295974401030708e-05,0.5527055572320251,-1.896793600257677e-05
0.5534996744119562,0.0001334993300147,0.5534996744119562,-5.723549874149837e-05,0.5534996744119562,-1.8631162342687296e-05,0.5534996744119562,-1.7624750629250813e-05
0.5542937915918873,4.081171933690013e-05,0.5542937915918873,-5.388048114110099e-05,0.5542937915918873,-1.8295688114110102e-05,0.5542937915918873,-1.980562727140829e-05
0.5550879087718184,5.689904860792767e-05,0.5550879087718184,-4.1124565682996906e-05,0.5550879087718184,-1.51067664293665e-05,0.5550879087718184,-1.8967096421524007e-05
0.5558820259517494,9.85254536751422e-05,0.5558820259517494,-2.970917382024103e-05,0.5558820259517494,-1.1581578055409876e-05,0.5558820259517494,-1.4602867083114817e-05
0.5566761431316805,3.590534571084755e-05,0.5566761431316805,-2.584913240757449e-05,0.5566761431316805,-1.0910381318132628e-05,0.5566761431316805,-1.3595316484979658e-05
0.5574702603116115,-4.373451865192844e-05,0.5574702603116115,-2.7693382155129855e-05,0.5574702603116115,-1.191636296833195e-05,0.5574702603116115,-1.0912698751114797e-05
0.5582643774915427,-7.567499672044649e-05,0.5582643774915427,-2.132190060886976e-05,0.5582643774915427,-1.3929920835598528e-05,0.5582643774915427,-1.0574763194066911e-05
0.5590584946714737,-6.462905041487878e-05,0.5590584946714737,-9.574887773886448e-06,0.5590584946714737,-1.3092734158982466e-05,0.5590584946714737,-1.6613254284442452e-05
0.5598526118514048,-4.583199002905807e-05,0.5598526118514048,-5.540999282163972e-06,0.5598526118514048,-1.3595553814064764e-05,0.5598526118514048,-1.2255133399602766e-05
0.5606467290313358,-6.360882808366519e-05,0.5606467290313358,8.370692834666894e-07,0.5606467290313358,-1.225345825783659e-05,0.5606467290313358,-7.219238460061802e-06
0.5614408462112669,-0.0001263778411799,0.5614408462112669,7.048467111789849e-06,0.5614408462112669,-1.2253e-05,0.5614408462112669,-8.392232427538984e-06
0.5622349633911979,-0.0002049403781261,0.5622349633911979,1.2924129134977371e-05,0.5622349633911979,-1.4602791653622095e-05,0.5622349633911979,-9.903030349218129e-06
0.563029080571129,-0.0001703475393258,0.563029080571129,2.064532988850313e-05,0.563029080571129,-1.2252591733420986e-05,0.563029080571129,-8.22440586721723e-06
0.5638231977510602,2.1458829533927572e-05,0.5638231977510602,1.8968693804837125e-05,0.5638231977510602,-8.228675121517914e-06,0.5638231977510602,-6.212452555713367e-06
0.5646173149309912,1.4273572177150092e-05,0.5646173149309912,2.433346577562612e-05,0.5646173149309912,-7.553799280203753e-06,0.5646173149309912,-3.527147146699233e-06
0.5654114321109223,-9.87822862487117e-05,0.5654114321109223,5.352301126596055e-05,0.5654114321109223,-1.2249638597317522e-05,0.5654114321109223,-8.221248597317522e-06
0.5662055492908533,-0.0001203358042873,0.5662055492908533,4.2136678915601205e-05,0.5662055492908533,-1.2924018883978494e-05,0.5662055492908533,-8.22461e-06
0.5669996664707844,-0.0001260526027062,0.5669996664707844,-4.856391832145488e-07,0.5669996664707844,-9.568820143880866e-06,0.5669996664707844,-6.882384055031975e-06
0.5677937836507154,-9.35008727729904e-05,0.5677937836507154,-2.1646837301926777e-05,0.5677937836507154,-1.2252268229880068e-05,0.5677937836507154,-1.0237885289393688e-05
0.5685879008306466,-5.354888945497026e-05,0.5685879008306466,-2.064562578520882e-05,0.5685879008306466,-1.3931290357985296e-05,0.5685879008306466,-1.3091843614819923e-05
0.5693820180105776,-2.7694490819342474e-05,0.5693820180105776,-1.4938531466803456e-05,0.5693820180105776,-1.661712665066449e-05,0.5693820180105776,-1.35958e-05
