X [s],R BICEPS BRACHII: EMG 1 [V],X [s].1,R DELTOID ANTERIOR: EMG 2 [V],X [s].5,R DELTOID MEDIUS: EMG 6 [V],X [s].6,R DELTOID POSTERIOR: EMG 7 [V]
0.0,-0.00011162,0.0,1.46029e-05,0.0,-1.69528e-05,0.0,-1.49386e-05
0.000794117179931,-0.0001179389998402,0.000794117179931,7.967900104214186e-06,0.000794117179931,-1.485961200425084e-05,0.000794117179931,-1.3161364665958192e-05
0.0015882343598621,-0.0001126068857215,0.0015882343598621,-7.513754057153607e-06,0.0015882343598621,-5.924095364770147e-06,0.0015882343598621,-1.5076829162239476e-05
0.0023823515397932,-0.0001038792108355,0.0023823515397932,-2.2363468313949444e-05,0.0023823515397932,5.084801451718204e-06,0.0023823515397932,-1.49386e-05
0.0031764687197242,-8.843684926738186e-05,0.0031764687197242,-2.634246575593661e-05,0.0031764687197242,1.089045171159446e-05,0.0031764687197242,-1.5629704634801122e-05
0.0039705858996553,-7.039809132161295e-05,0.0039705858996553,-2.50095e-05,0.0039705858996553,1.6301079119468883e-05,0.0039705858996553,-1.5688966819981594e-05
0.0047647030795864,-5.030542384794651e-05,0.0047647030795864,-2.698425044622624e-05,0.0047647030795864,2.083305545482731e-05,0.0047647030795864,-1.3408168074361464e-05
0.0055588202595174,-3.972112152929988e-05,0.0055588202595174,-1.0870873418046935e-05,0.0055588202595174,2.5147690505615812e-05,0.0055588202595174,-1.2253e-05
0.0063529374394485,-3.119032424081872e-05,0.0063529374394485,1.8532556316600837e-05,0.0063529374394485,3.284906638332646e-05,0.0063529374394485,-1.2687433297915806e-05
0.0071470546193796,-3.0400432873297025e-05,0.0071470546193796,5.4404215357252494e-06,0.0071470546193796,4.098480911762044e-05,0.0071470546193796,-1.087073778267686e-05
0.0079411717993107,-3.253312067838165e-05,0.0079411717993107,-1.768337230210265e-05,0.0079411717993107,4.758028324478952e-05,0.0079411717993107,-7.86916477700075e-06
0.0087352889792417,-3.397467963998455e-05,0.0087352889792417,-2.54241740294564e-05,0.0087352889792417,4.858739321332818e-05,0.0087352889792417,-8.066625926433101e-06
0.0095294061591728,-1.0199429935067813e-05,0.0095294061591728,-3.724274894378266e-05,0.0095294061591728,4.461829743026158e-05,0.0095294061591728,-9.25146005312629e-06
0.0103235233391039,3.004381916948377e-05,0.0103235233391039,-3.857566699424864e-05,0.0103235233391039,3.367876672638166e-05,0.0103235233391039,-8.135775658061466e-06
0.0111176405190349,6.365458251772775e-05,0.0111176405190349,-3.513984888041726e-05,0.0111176405190349,2.307421664326345e-05,0.0111176405190349,-8.905899777776565e-06
0.011911757698966,6.570755423181908e-05,0.011911757698966,-4.378893985318242e-05,0.011911757698966,1.337826201061702e-05,0.011911757698966,-1.1956727739636289e-05
0.0127058748788971,5.034567729100036e-05,0.0127058748788971,-4.763952632493221e-05,0.0127058748788971,6.90182894530594e-06,0.0127058748788971,-8.777743392014304e-06
0.0134999920588282,3.910897444912535e-05,0.0134999920588282,-4.649422567268272e-05,0.0134999920588282,8.393089951408098e-07,0.0134999920588282,-6.88182e-06
0.0142941092387592,4.0116e-05,0.0142941092387592,-2.4417852511379497e-05,0.0142941092387592,-4.749271762662749e-06,0.0142941092387592,-9.745202204436194e-06
0.0150882264186903,2.584054193060415e-05,0.0150882264186903,1.2272737516861224e-05,0.0150882264186903,-6.48680663267174e-06,0.0150882264186903,-1.185798663267174e-05
0.0158823435986214,-1.628306265138794e-06,0.0158823435986214,-8.380547612753528e-07,0.0158823435986214,-8.343046687801557e-06,0.0158823435986214,-1.2292478895933853e-05
0.0166764607785524,-3.2138461433484084e-05,0.0166764607785524,-2.866271983174101e-05,0.0166764607785524,-1.061402414219669e-05,0.0166764607785524,-1.2865164475531832e-05
0.0174705779584835,-5.068039005714534e-05,0.0174705779584835,-2.456494046089497e-05,0.0174705779584835,-1.2509682408138722e-05,0.0174705779584835,-1.3418088121428416e-05
0.0182646951384146,-4.677290683693404e-05,0.0182646951384146,-4.497192386283792e-05,0.0182646951384146,-1.3161290556170502e-05,0.0182646951384146,-1.3161290556170502e-05
0.0190588123183456,9.95531659958706e-05,0.0190588123183456,-8.774640021423424e-05,0.0190588123183456,-1.3615550901678518e-05,0.0190588123183456,-1.4879347294964443e-05
0.0198529294982767,0.0002719466379663,0.0198529294982767,-7.445875957660905e-05,0.0198529294982767,-1.2707165322080536e-05,0.0198529294982767,-1.4504130644161071e-05
0.0206470466782078,0.0001018242567258,0.0206470466782078,-4.629568850628988e-06,0.0206470466782078,-1.1798851858486853e-05,0.0206470466782078,-1.2786307433947406e-05
0.0214411638581389,-0.0002137458909562,0.0214411638581389,4.204079368598441e-05,0.0214411638581389,-1.17494e-05,0.0214411638581389,-1.2351668605555646e-05
0.0222352810380699,-0.0003380780073,0.0222352810380699,4.569444260452192e-05,0.0222352810380699,-1.2134517187480211e-05,0.0222352810380699,-1.572853510496377e-05
0.023029398218001,-0.0002142071193052,0.023029398218001,3.691890279514632e-05,0.023029398218001,-1.1621116221795943e-05,0.023029398218001,-1.4889225222660154e-05
0.0238235153979321,-5.4281881465236215e-05,0.0238235153979321,-9.211815052861266e-06,0.0238235153979321,-1.0594110063404666e-05,0.0238235153979321,-1.5866636335979837e-05
0.0246176325778631,0.0001437474909087,0.0246176325778631,-5.506450924868072e-05,0.0246176325778631,-1.4770689232384144e-05,0.0246176325778631,-1.5688992153002485e-05
0.0254117497577942,0.000186132121922,0.0254117497577942,-7.804970070399095e-05,0.0254117497577942,-1.3437746827676216e-05,0.0254117497577942,-1.5007684663033562e-05
0.0262058669377253,3.355075343415082e-05,0.0262058669377253,-7.588774005584645e-05,0.0262058669377253,-1.1897779233167016e-05,0.0262058669377253,-1.6478805933380854e-05
0.0269999841176564,-0.000127059148036,0.0269999841176564,-5.153029560318002e-05,0.0269999841176564,-7.553311629010366e-06,0.0269999841176564,-1.6281422907423184e-05
0.0277941012975874,-0.0001429771429631,0.0277941012975874,-2.451635073238208e-05,0.0277941012975874,-4.59113349645445e-06,0.0277941012975874,-1.5037325874113611e-05
0.0285882184775185,-6.219961836913344e-05,0.0285882184775185,-2.279747717579236e-05,0.0285882184775185,-3.6434837584809454e-06,0.0285882184775185,-1.3655124821039856e-05
0.0293823356574496,9.17479972407876e-07,0.0293823356574496,-3.334242010993168e-05,0.0293823356574496,-6.813540291957152e-07,0.0293823356574496,-1.2944130705306218e-05
0.0301764528373806,1.448437568463894e-05,0.0301764528373806,-3.150687395460414e-05,0.0301764528373806,-4.936702676450582e-08,0.0301764528373806,-1.295401180212142e-05
0.0309705700173117,2.129683935818641e-05,0.0309705700173117,-1.7544933573088437e-05,0.0309705700173117,-1.51064e-06,0.0309705700173117,-1.395121230589156e-05
0.0317646871972428,3.460544764299963e-05,0.0317646871972428,-2.179022448794429e-05,0.0317646871972428,1.4907711674708155e-06,0.0317646871972428,-1.320101104066148e-05
0.0325588043771738,5.298083902937375e-05,0.0325588043771738,-3.083494205461381e-05,0.0325588043771738,3.465560702917408e-06,0.0325588043771738,-1.2549186742931363e-05
0.0333529215571049,5.251689468510864e-05,0.0333529215571049,-3.898925027613624e-05,0.0333529215571049,5.282368284393378e-06,0.0333529215571049,-1.5264411071970678e-05
0.034147038737036,4.57239848293147e-05,0.034147038737036,-6.170937632734108e-05,0.034147038737036,6.506869040277964e-06,0.034147038737036,-1.2312560682741202e-05
0.0349411559169671,4.6988053928375896e-05,0.0349411559169671,-7.06656278130056e-05,0.0349411559169671,3.0510443928131023e-06,0.0349411559169671,-1.0001739971276664e-05
0.0357352730968981,4.1063837113760265e-05,0.0357352730968981,-2.5839231292372924e-05,0.0357352730968981,-1.214451884868688e-06,0.0357352730968981,-1.3121881443119867e-05
0.0365293902768292,6.059259655317132e-05,0.0365293902768292,6.479429277341119e-05,0.0365293902768292,-6.418369425679453e-07,0.0365293902768292,-1.446470434322436e-05
0.0373235074567603,0.0001100295304273,0.0373235074567603,0.0001095459806848,0.0373235074567603,1.3525778511349368e-06,0.0373235074567603,-1.1403962148865062e-05
0.0381176246366913,8.685785163808546e-05,0.0381176246366913,8.302639738172831e-05,0.0381176246366913,3.959220356557307e-06,0.0381176246366913,-1.1463094589928884e-05
0.0389117418166224,-2.460697926104205e-06,0.0389117418166224,3.914934490001508e-05,0.0389117418166224,4.294861555564062e-06,0.0389117418166224,-9.52781944905921e-06
0.0397058589965535,-8.98935981805845e-05,0.0397058589965535,-1.4976967581453145e-05,0.0397058589965535,-2.665459458303409e-07,0.0397058589965535,-6.21042e-06
0.0404999761764846,-0.0001388099520212,0.0404999761764846,-4.112269950614957e-05,0.0404999761764846,-1.6786618051621358e-07,0.0404999761764846,-7.720992687446735e-06
0.0412940933564156,-0.0001519035333728,0.0412940933564156,-2.427969196877717e-05,0.0412940933564156,8.590020103325955e-07,0.0412940933564156,-7.276743462811178e-06
0.0420882105363467,-0.0001511543627475,0.0420882105363467,-6.7240026053400815e-06,0.0420882105363467,3.623190784763565e-06,0.0420882105363467,-7.158183725248551e-06
0.0428823277162778,-0.0001311211008178,0.0428823277162778,-5.775767108720447e-06,0.0428823277162778,6.21042e-06,0.0428823277162778,-7.06940372111113e-06
0.0436764448962088,-0.0001011541842065,0.0436764448962088,-1.16401872780194e-05,0.0436764448962088,6.348646510910118e-06,0.0436764448962088,-8.323323852159657e-06
0.0444705620761399,-7.171240568518321e-05,0.0444705620761399,-2.724115966371101e-05,0.0444705620761399,5.1639235841495545e-06,0.0444705620761399,-1.0594200854639958e-05
0.045264679256071,-3.7472028164297605e-05,0.045264679256071,-3.995765315097801e-05,0.045264679256071,5.696931778160092e-06,0.045264679256071,-1.1374235726812635e-05
0.046058796436002,-9.370560095394072e-06,0.046058796436002,-4.5032959050238095e-05,0.046058796436002,5.8944823553901126e-06,0.046058796436002,-1.0614024710780224e-05
0.0468529136159331,1.1759666061982644e-05,0.0468529136159331,-2.524920401296537e-05,0.0468529136159331,7.849452874492827e-06,0.0468529136159331,-1.1453225706747814e-05
0.0476470307958642,6.70072033094269e-05,0.0476470307958642,6.457141653071382e-06,0.0476470307958642,1.3792676941420226e-05,0.0476470307958642,-1.2608310063404668e-05
0.0484411479757953,8.956348157458938e-05,0.0484411479757953,-1.558668079029048e-05,0.0484411479757953,1.876935587179674e-05,0.0484411479757953,-1.316148866300233e-05
0.0492352651557263,6.4503654742523e-05,0.0492352651557263,-5.994138675441957e-05,0.0492352651557263,2.380490984755148e-05,0.0492352651557263,-1.055476861200993e-05
0.0500293823356574,4.995039368091603e-05,0.0500293823356574,-7.964920252388487e-05,0.0500293823356574,2.6924962766832232e-05,0.0500293823356574,-1.1897518986598812e-05
0.0508234995155885,1.4547790814143257e-05,0.0508234995155885,-7.184967522825127e-05,0.0508234995155885,2.73594e-05,0.0508234995155885,-1.0001974202927806e-05
0.0516176166955195,-5.387802744207557e-05,0.0516176166955195,-5.729599736369611e-05,0.0516176166955195,2.7655592469787168e-05,0.0516176166955195,-8.89601e-06
0.0524117338754506,-7.880026585184456e-05,0.0524117338754506,-5.070046870589545e-05,0.0524117338754506,2.2708953795561662e-05,0.0524117338754506,-9.034231950614852e-06
0.0532058510553817,-6.776210578191344e-05,0.0532058510553817,-6.473979454509666e-05,0.0532058510553817,1.5827567896169312e-05,0.0532058510553817,-9.764790086085376e-06
0.0539999682353128,-7.267821895093687e-05,0.0539999682353128,-7.704247138966123e-05,0.0539999682353128,1.225311453711593e-05,0.0539999682353128,-9.567455814163994e-06
0.0547940854152438,-1.993497532827276e-05,0.0547940854152438,-5.3328486852638345e-05,0.0547940854152438,7.484121673102374e-06,0.0547940854152438,-1.1087913360873986e-05
0.0555882025951749,8.861330996207462e-05,0.0555882025951749,-1.8671168301226103e-05,0.0555882025951749,3.04121764087036e-06,0.0555882025951749,-1.4365509086147856e-05
0.056382319775106,-1.5677742911455368e-07,0.056382319775106,-1.8176382008141083e-05,0.056382319775106,6.024773535087319e-07,0.056382319775106,-1.687387656926707e-05
0.057176436955037,-0.0001865756614389,0.057176436955037,-2.4693781882805092e-05,0.057176436955037,-1.4513872949644432e-06,0.057176436955037,-1.5175610820142228e-05
0.0579705541349681,-0.0002471646420719,0.0579705541349681,-1.4504101624607743e-05,0.0579705541349681,-3.919602916906167e-06,0.0579705541349681,-1.252963178983492e-05
0.0587646713148992,-0.000146700741065,0.0587646713148992,1.0513282674354489e-05,0.0587646713148992,-4.166714154609722e-06,0.0587646713148992,-1.3141324367092776e-05
0.0595587884948302,-1.571311152354782e-05,0.0595587884948302,3.237506568788274e-05,0.0595587884948302,-4.1566938355081886e-06,0.0595587884948302,-1.6202327671016377e-05
0.0603529056747613,5.5597615039961184e-05,0.0603529056747613,1.4961111606597056e-05,0.0603529056747613,-4.650412502647928e-06,0.0603529056747613,-1.3694518620130408e-05
0.0611470228546924,9.03122096094576e-05,0.0611470228546924,-1.8413546451470385e-05,0.0611470228546924,-2.18204e-06,0.0611470228546924,-1.09102e-05
0.0619411400346235,7.976939538661874e-05,0.0619411400346235,-1.820120287755383e-05,0.0619411400346235,-1.43177436641862e-06,0.0619411400346235,-1.0791901344063758e-05
0.0627352572145545,5.0681087632489134e-05,0.0627352572145545,5.0718104904648815e-05,0.0627352572145545,3.455529462519708e-07,0.0627352572145545,-6.9707517457086684e-06
0.0635293743944856,2.4694411415810624e-05,0.0635293743944856,6.413261649812473e-05,0.0635293743944856,5.62733889704638e-07,0.0635293743944856,-5.361283767673613e-06
0.0643234915744167,1.1601788966846696e-05,0.0643234915744167,7.417084481684432e-06,0.0643234915744167,3.959085235000241e-06,0.0643234915744167,-5.71663172648621e-06
0.0651176087543477,5.598460216604906e-06,0.0651176087543477,-3.531662229770406e-05,0.0651176087543477,5.20333e-06,0.0651176087543477,-8.027044891697547e-06
0.0659117259342788,2.51774e-06,0.0659117259342788,-6.959665487897316e-05,0.0659117259342788,5.20333e-06,0.0659117259342788,-9.636523838735327e-06
0.0667058431142099,9.862622782759069e-06,0.0667058431142099,-0.0001043122257584,0.0667058431142099,4.374204009086509e-06,0.0667058431142099,-9.370038427753924e-06
0.067499960294141,2.4001598248718145e-05,0.067499960294141,-0.0001017177829518,0.067499960294141,5.037770735495015e-07,0.067499960294141,-9.56735273144203e-06
0.068294077474072,3.8615052797017886e-05,0.068294077474072,-5.5541455129427285e-05,0.068294077474072,-5.22299533600524e-06,0.068294077474072,-1.2805855562551955e-05
0.0690881946540031,4.536838163565072e-05,0.0690881946540031,-7.475368332863717e-06,0.0690881946540031,-8.63912122673804e-06,0.0690881946540031,-1.478097754652392e-05
0.0698823118339342,4.519085598851067e-05,0.0698823118339342,3.248623937766566e-06,0.0698823118339342,-8.678677965532e-06,0.0698823118339342,-1.163071381348256e-05
0.0706764290138652,4.6316424704325936e-05,0.0706764290138652,-9.546213289295232e-06,0.0706764290138652,-1.2884700582523635e-05,0.0706764290138652,-1.547163254486916e-05
0.0714705461937963,4.860678976068375e-05,0.0714705461937963,-1.9598953871664555e-05,0.0714705461937963,-1.62814e-05,0.0714705461937963,-1.6419733071794873e-05
0.0722646633737274,5.796619344860678e-05,0.0722646633737274,2.4785639513401816e-05,0.0722646633737274,-1.5254362445201232e-05,0.0722646633737274,-1.5432181222600617e-05
0.0730587805536585,6.930147732649077e-05,0.0730587805536585,0.0001048060337891,0.0730587805536585,-1.817695714538977e-05,0.0730587805536585,-1.6261626190898293e-05
0.0738528977335895,7.57591941639702e-05,0.0738528977335895,0.0001101833877826,0.0738528977335895,-1.6004994065533523e-05,0.0738528977335895,-1.69528e-05
0.0746470149135206,8.087350093635984e-05,0.0746470149135206,3.804468604702976e-05,0.0746470149135206,-9.785167331565942e-06,0.0746470149135206,-1.4445323361370285e-05
0.0754411320934517,9.891678106376202e-05,0.0754411320934517,-3.586510487612023e-05,0.0754411320934517,-4.729654891340051e-06,0.0754411320934517,-1.1640732441063807e-05
0.0762352492733827,0.0001846615819825,0.0762352492733827,-8.515729934593905e-05,0.0762352492733827,-1.4909544268562985e-06,0.0762352492733827,-1.36154855731437e-05
0.0770293664533138,0.0001644372441378,0.0770293664533138,-0.0001094874639285,0.0770293664533138,4.639379926521729e-07,0.0770293664533138,-1.4987841672344877e-05
0.0778234836332449,5.747254579543992e-05,0.0778234836332449,-8.764857603108009e-05,0.0778234836332449,2.359626309432764e-06,0.0778234836332449,-1.62814e-05
0.078617600813176,-3.170080143362371e-05,0.078617600813176,-5.60324529404057e-05,0.078617600813176,4.966217273664772e-06,0.078617600813176,-1.6873762032151152e-05
0.079411717993107,-1.908577045501611e-05,0.079411717993107,-4.740288150340425e-05,0.079411717993107,1.1680299361061998e-05,0.079411717993107,-1.62814e-05
0.0802058351730381,1.7996713449516423e-05,0.0802058351730381,-3.934625497903607e-05,0.0802058351730381,1.001240513822172e-05,0.0802058351730381,-1.497825982219828e-05
0.0809999523529692,0.0001119465472427,0.0809999523529692,-3.642331539902113e-05,0.0809999523529692,3.860856429756881e-06,0.0809999523529692,-1.3260203083404351e-05
0.0817940695329002,0.0005581081355457,0.0817940695329002,-5.704696938708678e-05,0.0817940695329002,-3.129725819788729e-06,0.0817940695329002,-1.2450497563073589e-05
0.0825881867128313,0.0003718919400849,0.0825881867128313,-7.714316103965153e-05,0.0825881867128313,-7.019984682056891e-06,0.0825881867128313,-1.3753388092341343e-05
0.0833823038927624,-0.0005146045540033,0.0833823038927624,-4.08908367655528e-05,0.0833823038927624,-6.88182e-06,0.0833823038927624,-1.624194973834513e-05
0.0841764210726934,-0.0008843957923301,0.0841764210726934,1.3731521468401806e-05,0.0841764210726934,-7.434691682505692e-06,0.0841764210726934,-1.59457e-05
0.0849705382526245,-0.0005297421609073,0.0849705382526245,3.3915357049003166e-05,0.0849705382526245,-8.540643499114837e-06,0.0849705382526245,-1.5037617246901928e-05
0.0857646554325556,-0.0002659702159036,0.0857646554325556,3.667951953767464e-06,0.0857646554325556,-6.131485115555482e-06,0.0857646554325556,-1.1088030231110964e-05
0.0865587726124866,-0.0002052622348011,0.0865587726124866,-3.839733846025733e-05,0.0865587726124866,-4.453087322606026e-06,0.0865587726124866,-1.0890420464042495e-05
0.0873528897924177,-0.0002094062881662,0.0873528897924177,-3.2495427460243085e-05,0.0873528897924177,2.0042043191379155e-06,0.0873528897924177,-9.685900426602111e-06
0.0881470069723488,-0.0002056975781456,0.0881470069723488,-1.99150550332958e-05,0.0881470069723488,4.926839753617085e-06,0.0881470069723488,-9.113290492765827e-06
0.0889411241522799,-0.0001667963157498,0.0889411241522799,-2.7939994718577884e-05,0.0889411241522799,4.176524913167853e-06,0.0889411241522799,-9.962215260496442e-06
0.0897352413322109,-0.0001218108221612,0.0897352413322109,-4.364017948021108e-05,0.0897352413322109,3.732184666784937e-06,0.0897352413322109,-1.1166890666430126e-05
0.090529358512142,-7.351152013867709e-05,0.090529358512142,-3.140148368796668e-05,0.090529358512142,5.183514632843999e-06,0.090529358512142,-1.2391126949265996e-05
0.0913234756920731,-2.9399376586725946e-06,0.0913234756920731,1.710766864938336e-05,0.0913234756920731,2.715623733563818e-06,0.0913234756920731,-1.33784794192436e-05
0.0921175928720041,7.6229186435429e-05,0.0921175928720041,5.691029233473264e-05,0.0921175928720041,1.6882420987846367e-06,0.0921175928720041,-1.482002586765933e-05
0.0929117100519352,0.000110158085166,0.0929117100519352,4.101645323447862e-05,0.0929117100519352,6.052389330843124e-06,0.0929117100519352,-1.5215078262364489e-05
0.0937058272318663,0.000110573794495,0.0937058272318663,-2.09173766024419e-05,0.0937058272318663,1.036644718656849e-05,0.0937058272318663,-1.2944203198185403e-05
0.0944999444117974,9.768944253758536e-05,0.0944999444117974,-7.603250119444025e-05,0.0944999444117974,1.628101915811875e-05,0.0944999444117974,-1.3931339648037708e-05
0.0952940615917284,7.194896189445189e-05,0.0952940615917284,-5.5916876190696574e-05,0.0952940615917284,2.0961318441251847e-05,0.0952940615917284,-1.187786352517778e-05
0.0960881787716595,5.482851567198368e-05,0.0960881787716595,-1.312352778114285e-05,0.0960881787716595,2.1613182144939683e-05,0.0960881787716595,-1.2055458955201088e-05
0.0968822959515906,4.735407105078331e-05,0.0968822959515906,-2.9317505805169966e-06,0.0968822959515906,2.210662185446131e-05,0.0968822959515906,-1.1611350003171209e-05
0.0976764131315216,3.831944828404415e-05,0.0976764131315216,-1.5411992332476775e-05,0.0976764131315216,2.161323177240387e-05,0.0976764131315216,-9.745217891247745e-06
0.0984705303114527,4.398512794390827e-05,0.0984705303114527,-1.8967e-05,0.0984705303114527,1.2925182078114873e-05,0.0984705303114527,-1.0475447380970166e-05
0.0992646474913838,6.272466374308199e-05,0.0992646474913838,-2.054656804974999e-05,0.0992646474913838,3.94995535408852e-06,0.0992646474913838,-1.3832587472766154e-05
0.1000587646713148,7.787471369905575e-05,0.1000587646713148,-1.857526986321856e-05,0.1000587646713148,1.036573624341499e-06,0.1000587646713148,-1.428684947311324e-05
0.1008528818512459,0.0001101780405266,0.1008528818512459,6.716380771534126e-06,0.1008528818512459,3.060779781661837e-07,0.1008528818512459,-1.501758642433626e-05
0.101646999031177,0.0002450410724671,0.101646999031177,1.711997025922222e-05,0.101646999031177,-1.3128307635921153e-06,0.101646999031177,-1.729821271419517e-05
0.1024411162111081,0.0003577911704012,0.1024411162111081,-5.170903554810137e-06,0.1024411162111081,-2.931744036803961e-06,0.1024411162111081,-1.750674307007757e-05
0.1032352333910391,0.0002349848177081,0.1032352333910391,-3.821268523160542e-05,0.1032352333910391,-5.992601852508701e-06,0.1032352333910391,-1.458349743028453e-05
0.1040293505709702,6.0088866893827215e-05,0.1040293505709702,-6.466596325998357e-05,0.1040293505709702,-9.705756709267022e-06,0.1040293505709702,-1.49386e-05
0.1048234677509013,-2.0500156790546285e-05,0.1048234677509013,-7.882561561576443e-05,0.1048234677509013,-9.745634135740787e-06,0.1048234677509013,-1.4286487260608616e-05
0.1056175849308323,1.8077751126613832e-05,0.1056175849308323,-8.517765912133237e-05,0.1056175849308323,-1.205657915355302e-05,0.1056175849308323,-1.3002968338578793e-05
0.1064117021107634,3.565204260806526e-05,0.1064117021107634,-8.681729461046899e-05,0.1064117021107634,-1.2005455468596593e-05,0.1064117021107634,-1.1462618936917892e-05
0.1072058192906945,1.951819493097525e-05,0.1072058192906945,-7.762192261798126e-05,0.1072058192906945,-7.631964737367699e-06,0.1072058192906945,-9.666181758480102e-06
0.1079999364706256,-1.359264217974164e-05,0.1079999364706256,-5.858120804109913e-05,0.1079999364706256,-6.881728468622377e-06,0.1079999364706256,-9.56745576432552e-06
0.1087940536505566,-7.25458222553567e-05,0.1087940536505566,-2.776292750645991e-05,0.1087940536505566,-4.354862145248689e-06,0.1087940536505566,-1.09102e-05
0.1095881708304877,-0.0001318218978568,0.1095881708304877,-3.6693240585266897e-06,0.1095881708304877,-3.3868211051904678e-06,0.1095881708304877,-1.0850526012020377e-05
0.1103822880104188,-0.0001704573183009,0.1103822880104188,7.632151166871181e-06,0.1103822880104188,-2.735862676789697e-06,0.1103822880104188,-1.3517415117859798e-05
0.1111764051903498,-0.000175031083868,0.1111764051903498,1.3222968381552413e-05,0.1111764051903498,-1.84634e-06,0.1111764051903498,-1.2372000333045252e-05
0.1119705223702809,-0.0001513774914032,0.1119705223702809,2.870243415598936e-05,0.1119705223702809,-1.5604756357555885e-06,0.1119705223702809,-1.187833468065825e-05
0.112764639550212,-0.0001214148370506,0.112764639550212,5.176679747210928e-05,0.112764639550212,-5.627610134655187e-07,0.112764639550212,-1.0041304604381026e-05
0.1135587567301431,-8.906362998471758e-05,0.1135587567301431,4.3401783275598976e-05,0.1135587567301431,-1.84634e-06,0.1135587567301431,-1.3477792700761744e-05
0.1143528739100741,-4.42928832907979e-05,0.1143528739100741,2.515216721051621e-05,0.1143528739100741,-3.159842292935136e-07,0.1143528739100741,-1.0120352183538436e-05
0.1151469910900052,-9.08874803298108e-06,0.1151469910900052,9.999670257156765e-06,0.1151469910900052,1.3922490130865469e-06,0.1151469910900052,-7.789998447136798e-06
0.1159411082699363,2.107304062722608e-05,0.1159411082699363,-1.787767627979309e-05,0.1159411082699363,1.2532216878934924e-06,0.1159411082699363,-8.165899317053427e-06
0.1167352254498673,4.084397772981514e-05,0.1167352254498673,-3.684600266530815e-05,0.1167352254498673,3.544212042548096e-06,0.1167352254498673,-6.44766023484671e-06
0.1175293426297984,5.3425837016909977e-05,0.1175293426297984,-2.0997550652677335e-05,0.1175293426297984,3.347146711152445e-06,0.1175293426297984,-6.013059547304108e-06
0.1183234598097295,4.801870247078169e-05,0.1183234598097295,-1.7522881806515685e-05,0.1183234598097295,6.349941545947392e-06,0.1183234598097295,-8.2840129144339e-06
0.1191175769896605,2.8004205875217063e-05,0.1191175769896605,-3.23147445780479e-05,0.1191175769896605,1.1227992049659468e-05,0.1191175769896605,-8.856720097696906e-06
0.1199116941695916,2.09812e-05,0.1199116941695916,-3.270981539348567e-05,0.1199116941695916,1.7033453458595456e-05,0.1199116941695916,-9.56741e-06
0.1207058113495227,2.469378277471712e-05,0.1207058113495227,-3.5630127052827246e-05,0.1207058113495227,2.725122680860694e-05,0.1207058113495227,-5.558436206191807e-06
0.1214999285294538,2.836619108160051e-05,0.1214999285294538,-3.910871508545387e-05,0.1214999285294538,3.0045025750868476e-05,0.1214999285294538,-4.196075542333957e-06
0.1222940457093848,8.72596929453817e-06,0.1222940457093848,-4.410721575290097e-05,0.1222940457093848,2.3155159461588574e-05,0.1222940457093848,-8.589043891841229e-06
0.1230881628893159,-3.749913765103149e-05,0.1230881628893159,-4.6902218115431775e-05,0.1230881628893159,1.689497328067231e-05,0.1230881628893159,-1.2211950910975316e-05
0.123882280069247,-8.163679428529703e-05,0.123882280069247,-3.26619235878022e-05,0.123882280069247,1.4348180561066863e-05,0.123882280069247,-1.4071266459718036e-05
0.124676397249178,-5.779913575703197e-05,0.124676397249178,3.1263868735131266e-07,0.124676397249178,1.0901773516829424e-05,0.124676397249178,-1.231250588723373e-05
0.1254705144291091,0.000241811787909,0.1254705144291091,1.1218785032745691e-05,0.1254705144291091,2.915367021104041e-06,0.1254705144291091,-1.3684566354516124e-05
0.1262646316090402,0.0007309999583736,0.1262646316090402,-2.552593399794276e-05,0.1262646316090402,-5.933913174802432e-06,0.1262646316090402,-1.2568908421929652e-05
0.1270587487889713,0.0005485614955925,0.1270587487889713,-7.408396997199872e-05,0.1270587487889713,-7.21752e-06,0.1270587487889713,-1.73881166053591e-05
0.1278528659689023,-0.0002264031344888,0.1278528659689023,-0.0001007958540758,0.1278528659689023,-1.0752144261642952e-05,0.1278528659689023,-2.03098e-05
0.1286469831488334,-0.000576992341475,0.1286469831488334,-0.0001041357456052,0.1286469831488334,-1.2943855761699236e-05,0.1286469831488334,-1.6242488476601532e-05
0.1294411003287645,-0.0003156024070833,0.1294411003287645,-8.64335961132721e-05,0.1294411003287645,-1.2865705933120976e-05,0.1294411003287645,-1.4544205933120976e-05
0.1302352175086955,-2.4550470800853788e-05,0.1302352175086955,-3.286425049237033e-05,0.1302352175086955,-1.2430528402013337e-05,0.1302352175086955,-1.2825957396979998e-05
0.1310293346886266,4.904197976310624e-05,0.1310293346886266,-2.360783384147973e-06,0.1310293346886266,-1.402032068508251e-05,0.1310293346886266,-1.4810349171906169e-05
0.1318234518685577,9.10181433604272e-06,0.1318234518685577,-2.0809942454561997e-05,0.1318234518685577,-1.3477005612554404e-05,0.1318234518685577,-1.738661122510881e-05
0.1326175690484888,-0.0001229265240975,0.1326175690484888,-2.347369591140769e-05,0.1326175690484888,-1.1738782541267246e-05,0.1326175690484888,-1.5095782541267246e-05
0.1334116862284198,-0.0002395957997935,0.1334116862284198,1.422023895349781e-05,0.1334116862284198,-5.063286861286173e-06,0.1334116862284198,-1.3872032400513769e-05
0.1342058034083509,-0.0002707012558725,0.1342058034083509,4.591488385368192e-05,0.1342058034083509,3.505366464012694e-06,0.1342058034083509,-1.1857947060787896e-05
0.134999920588282,-0.0002559719450758,0.134999920588282,3.944624366955365e-05,0.134999920588282,7.888566759037999e-06,0.134999920588282,-1.09102e-05
0.135794037768213,-0.0002188396147879,0.135794037768213,3.7597154596685625e-05,0.135794037768213,6.270231580308538e-06,0.135794037768213,-1.2055244209845733e-05
0.1365881549481441,-0.0001509791687105,0.1365881549481441,5.309225979775036e-05,0.1365881549481441,4.966479230008616e-06,0.1365881549481441,-1.2726701539982768e-05
0.1373822721280752,-0.0001109146957635,0.1373822721280752,1.49249203740398e-06,0.1373822721280752,6.3671439001707415e-06,0.1373822721280752,-1.3822377298276724e-05
0.1381763893080062,-0.000104472081887,0.1381763893080062,-2.658775327370233e-05,0.1381763893080062,5.89609787490738e-06,0.1381763893080062,-1.371482321588967e-05
0.1389705064879373,-9.174908007576372e-05,0.1389705064879373,-1.660367472568631e-05,0.1389705064879373,-3.3447847183493824e-07,0.1389705064879373,-1.3121439665239717e-05
0.1397646236678684,-7.795155560484154e-05,0.1397646236678684,-1.3083458905969276e-05,0.1397646236678684,-2.9324113847713144e-06,0.1397646236678684,-1.4306673930189534e-05
0.1405587408477994,-5.779630745904552e-05,0.1405587408477994,-4.576650257621269e-05,0.1405587408477994,-2.8731193492337835e-06,0.1405587408477994,-1.5541119346590125e-05
0.1413528580277305,-1.7921764390452248e-05,0.1413528580277305,-8.100279505230724e-05,0.1413528580277305,-3.0706400858261264e-06,0.1413528580277305,-1.6518399828347748e-05
0.1421469752076616,3.757191755131246e-05,0.1421469752076616,-0.0001131046929808,0.1421469752076616,-3.761589041772113e-06,0.1421469752076616,-1.35958e-05
0.1429410923875927,0.000322539298737,0.1429410923875927,-0.0001418341889538,0.1429410923875927,-4.43413580290226e-06,0.1429410923875927,-1.387282313216216e-05
0.1437352095675237,0.0005859016602023,0.1437352095675237,-0.0001328734998913,0.1437352095675237,-8.005790372194159e-07,0.1437352095675237,-1.1897966078817746e-05
0.1445293267474548,0.0001890486773418,0.1445293267474548,-6.094955405038115e-05,0.1445293267474548,5.302225129992833e-06,0.1445293267474548,-1.09102e-05
0.1453234439273859,-5.270089823018666e-05,0.1453234439273859,4.034411706200495e-05,0.1453234439273859,9.273005906957324e-06,0.1453234439273859,-9.437018652708128e-06
0.146117561107317,1.676442987229087e-05,0.146117561107317,9.427810076079784e-05,0.146117561107317,1.822027400172045e-05,0.146117561107317,-2.1501040785082805e-06
0.146911678287248,-7.646369141937998e-05,0.146911678287248,0.0001082057457043,0.146911678287248,2.850644906767033e-05,0.146911678287248,-1.51064e-06
0.1477057954671791,-0.0001513476157149,0.1477057954671791,0.0001072242405588,0.1477057954671791,3.355012154349396e-05,0.1477057954671791,-3.248467065319265e-06
0.1484999126471102,-5.993327522170913e-05,0.1484999126471102,6.664213255720324e-05,0.1484999126471102,3.138827194929314e-05,0.1484999126471102,-5.874405362764011e-06
0.1492940298270412,-5.841311682691201e-05,0.1492940298270412,1.0029138701718912e-05,0.1492940298270412,1.7470495758683682e-05,0.1492940298270412,-9.961711891210674e-06
0.1500881470069723,-7.664934780814267e-05,0.1500881470069723,-5.65602768781047e-06,0.1500881470069723,4.545189020325172e-06,0.1500881470069723,-1.09102e-05
0.1508822641869034,-6.761487819870352e-05,0.1508822641869034,-1.1502232804596672e-05,0.1508822641869034,-1.4491655272310604e-06,0.1508822641869034,-1.1363425726086924e-05
0.1516763813668344,-3.956099130465968e-05,0.1516763813668344,-1.4344204090971111e-05,0.1516763813668344,-4.077195342688122e-06,0.1516763813668344,-1.280536534268812e-05
0.1524704985467655,-6.021026682094445e-06,0.1524704985467655,-1.250718929824732e-05,0.1524704985467655,-5.0646525031064375e-06,0.1524704985467655,-1.3912051664595707e-05
0.1532646157266966,2.4159640383478728e-05,0.1532646157266966,-2.544446875445388e-05,0.1532646157266966,-5.894559696028052e-06,0.1532646157266966,-1.059433969602805e-05
0.1540587329066277,3.150591049348495e-05,0.1540587329066277,-4.5101835944125954e-05,0.1540587329066277,-3.7615777878662217e-06,0.1540587329066277,-1.0831460257399135e-05
0.1548528500865587,2.459492823593781e-05,0.1548528500865587,-8.107984750421806e-05,0.1548528500865587,-3.761841294375124e-06,0.1548528500865587,-1.1028705647187562e-05
0.1556469672664898,3.2016666060425184e-05,0.1556469672664898,-9.649333324577544e-05,0.1556469672664898,-2.912626893936164e-06,0.1556469672664898,-1.0929621363616984e-05
0.1564410844464209,5.1523109579696765e-05,0.1564410844464209,-7.231791785761898e-05,0.1564410844464209,-3.603042891729032e-06,0.1564410844464209,-1.2963506445864517e-05
0.157235201626352,6.47097879969938e-05,0.157235201626352,-4.531598303232593e-05,0.157235201626352,-5.1242327595844645e-06,0.157235201626352,-1.308259448083107e-05
0.158029318806283,6.002075744057476e-05,0.158029318806283,-2.287519578619398e-05,0.158029318806283,-1.6092026176281256e-06,0.158029318806283,-1.2657814915974544e-05
0.1588234359862141,5.235618495398782e-05,0.1588234359862141,-2.7253671254653185e-05,0.1588234359862141,4.098073009202436e-06,0.1588234359862141,-1.2291771238496957e-05
0.1596175531661451,3.971655872326496e-05,0.1596175531661451,-4.347127959259596e-05,0.1596175531661451,2.832195639854176e-06,0.1596175531661451,-1.1502985797311544e-05
0.1604116703460762,2.4789288842366897e-05,0.1604116703460762,-4.398525481779272e-05,0.1604116703460762,-3.654207451773203e-07,0.1604116703460762,-1.4781234002294195e-05
0.1612057875260073,2.151686881155358e-06,0.1612057875260073,-2.857473371284797e-05,0.1612057875260073,1.4711953063268689e-06,0.1612057875260073,-1.6083896462448753e-05
0.1619999047059384,-2.181765407094054e-05,0.1619999047059384,-1.091223406000764e-05,0.1619999047059384,4.195818110845575e-06,0.1619999047059384,-1.5106502983024525e-05
0.1627940218858694,-3.689430213901352e-05,0.1627940218858694,-1.103068324627698e-05,0.1627940218858694,3.3088519430705155e-06,0.1627940218858694,-1.5885842555581793e-05
0.1635881390658005,-3.719558933440167e-05,0.1635881390658005,-2.119563451710037e-05,0.1635881390658005,-1.864890369776852e-06,0.1635881390658005,-1.5966255293743925e-05
0.1643822562457316,-2.936230443361285e-05,0.1643822562457316,-2.0527490886494104e-05,0.1643822562457316,-2.103700981969463e-06,0.1643822562457316,-1.2846060981969464e-05
0.1651763734256627,-1.3091114530377712e-05,0.1651763734256627,-8.814609462112545e-06,0.1651763734256627,-1.786816950632977e-06,0.1651763734256627,-1.3081530851898932e-05
0.1659704906055937,5.336745880282007e-06,0.1659704906055937,2.4529005376206604e-06,0.1659704906055937,-2.023908446991022e-06,0.1659704906055937,-1.1858989318053868e-05
0.1667646077855248,1.6419459660094638e-05,0.1667646077855248,5.163466223297776e-06,0.1667646077855248,-2.577080198278127e-06,0.1667646077855248,-1.1541879546792852e-05
0.1675587249654559,1.9855955108432805e-05,0.1675587249654559,-1.279687713259672e-05,0.1675587249654559,-5.724653841662908e-07,0.1675587249654559,-1.35958e-05
0.1683528421453869,3.2137549635571615e-05,0.1683528421453869,-3.542754817242073e-05,0.1683528421453869,3.0309538688674103e-06,0.1683528421453869,-1.3358777239597418e-05
0.169146959325318,4.378731750795099e-05,0.169146959325318,-5.5974431217351984e-05,0.169146959325318,5.519619361431078e-06,0.169146959325318,-1.450393610971728e-05
0.1699410765052491,4.886364748991855e-05,0.1699410765052491,-5.869561085939345e-05,0.1699410765052491,2.824118765122176e-06,0.1699410765052491,-1.5531810040325805e-05
0.1707351936851801,5.251556150535362e-05,0.1707351936851801,-3.927362958352483e-05,0.1707351936851801,2.478188519436677e-06,0.1707351936851801,-1.3240811844506575e-05
0.1715293108651112,7.250153068894113e-05,0.1715293108651112,-7.094522054012407e-06,0.1715293108651112,2.270153773498518e-07,0.1715293108651112,-1.4227754140925724e-05
0.1723234280450423,9.46293392706689e-05,0.1723234280450423,-3.202498905568589e-06,0.1723234280450423,-1.3325013203052796e-06,0.1723234280450423,-1.562935876523713e-05
0.1731175452249733,8.90235484269223e-05,0.1731175452249733,-3.851083559682091e-05,0.1731175452249733,8.30192479603449e-07,0.1731175452249733,-1.4345825668715838e-05
0.1739116624049044,4.442207751536624e-05,0.1739116624049044,-4.096189183767522e-05,0.1739116624049044,-2.2029378494766666e-06,0.1739116624049044,-1.4879166798596004e-05
0.1747057795848355,2.270315911227672e-06,0.1747057795848355,-9.068737598719668e-06,0.1747057795848355,-6.506658107285701e-06,0.1747057795848355,-1.3200815856952398e-05
0.1754998967647666,-2.433501370959132e-05,0.1754998967647666,7.551684188130574e-06,0.1754998967647666,-8.224386894482415e-06,0.1754998967647666,-1.0910497476977244e-05
0.1762940139446976,-4.285597663581894e-05,0.1762940139446976,-9.062060148491725e-06,0.1762940139446976,-8.81662226470435e-06,0.1762940139446976,-1.0751427475345377e-05
0.1770881311246287,-5.195293442691291e-05,0.1770881311246287,-2.8342631014654883e-05,0.1770881311246287,-9.15345697717505e-06,0.1770881311246287,-1.3575165745029604e-05
0.1778822483045598,-5.238014489599376e-05,0.1778822483045598,-3.6166173375279735e-05,0.1778822483045598,-7.72107e-06,0.1778822483045598,-1.418887244799688e-05
0.1786763654844909,-5.395571229921873e-05,0.1786763654844909,-3.989707403074936e-05,0.1786763654844909,-7.30681315511719e-06,0.1786763654844909,-1.35958e-05
0.1794704826644219,-6.352335853698116e-05,0.1794704826644219,-2.6638083563613943e-05,0.1794704826644219,-5.53903e-06,0.1794704826644219,-1.1859023642320372e-05
0.180264599844353,-7.088147955846602e-05,0.180264599844353,-1.354650237259261e-05,0.180264599844353,-6.940888761262023e-06,0.180264599844353,-1.0969271113190011e-05
0.181058717024284,-7.410076259910962e-05,0.181058717024284,-2.2959626063621757e-05,0.181058717024284,-7.11860733223152e-06,0.181058717024284,-1.2569003451725093e-05
0.1818528342042151,-7.325174734099351e-05,0.1818528342042151,-2.49779128365205e-05,0.1818528342042151,8.585074758845574e-07,0.1818528342042151,-1.3457431547140032e-05
0.1826469513841462,-6.067522891941152e-05,0.1826469513841462,7.035621462491192e-07,0.1826469513841462,4.86763e-06,0.1826469513841462,-1.3675388390775343e-05
0.1834410685640773,-4.942128716929008e-05,0.1834410685640773,3.837411768093932e-06,0.1834410685640773,4.848088243095159e-06,0.1834410685640773,-1.0396926210949291e-05
0.1842351857440083,-3.784725627307939e-05,0.1842351857440083,-1.637458342640173e-05,0.1842351857440083,2.992389734497364e-06,0.1842351857440083,-1.1265165272649024e-05
0.1850293029239394,-2.828742427625076e-05,0.1850293029239394,-2.4179550980799e-05,0.1850293029239394,2.6165149955710253e-06,0.1850293029239394,-1.2272734370959328e-05
0.1858234201038705,1.704835398704218e-05,0.1858234201038705,-5.198942452930625e-06,0.1858234201038705,6.486745689121602e-06,0.1858234201038705,-1.0455751378243205e-05
0.1866175372838016,0.0002190390654316,0.1866175372838016,1.6586422835783582e-05,0.1866175372838016,4.72852166561693e-06,0.1866175372838016,-1.094047915799326e-05
0.1874116544637326,0.0003429128127977,0.1874116544637326,3.4500706432309373e-06,0.1874116544637326,3.919951735376564e-06,0.1874116544637326,-1.3517082603064848e-05
0.1882057716436637,0.0001438635842046,0.1882057716436637,-2.839195190635369e-05,0.1882057716436637,7.2372991779117725e-06,0.1882057716436637,-1.3714244555254248e-05
0.1889998888235948,-0.0001558927560864,0.1889998888235948,-4.179342133181436e-05,0.1889998888235948,1.02384796425641e-05,0.1889998888235948,-1.2588940269866244e-05
0.1897940060035258,-0.0002289430438749,0.1897940060035258,-4.674233684599045e-05,0.1897940060035258,1.19173e-05,0.1897940060035258,-1.0436601654263936e-05
0.1905881231834569,-0.000104523178944,0.1905881231834569,-4.513111018456385e-05,0.1905881231834569,1.211502139207206e-05,0.1905881231834569,-1.035828967846422e-05
0.191382240363388,2.448296488362286e-05,0.191382240363388,-2.6699180831296327e-05,0.191382240363388,9.824785080483683e-06,0.191382240363388,-8.107137037495813e-06
0.192176357543319,5.906721018421505e-05,0.192176357543319,-2.185263050898908e-05,0.192176357543319,9.093627245394624e-06,0.192176357543319,-6.527106226973118e-06
0.1929704747232501,3.513060453516614e-05,0.1929704747232501,-2.6630563744199164e-05,0.1929704747232501,7.691944272450648e-06,0.1929704747232501,-6.565534011137668e-06
0.1937645919031812,5.736981570571077e-05,0.1937645919031812,-7.474090044684806e-06,0.1937645919031812,5.914534336342388e-06,0.1937645919031812,-6.960768501926898e-06
0.1945587090831123,7.461180135155057e-05,0.1945587090831123,1.9450222817764434e-05,0.1945587090831123,2.2805508195416414e-06,0.1945587090831123,-8.481501461746975e-06
0.1953528262630433,-7.58155231103917e-05,0.1953528262630433,2.436662280133496e-05,0.1953528262630433,2.280694307542625e-06,0.1953528262630433,-9.9031e-06
0.1961469434429744,-0.0002348167518779,0.1961469434429744,-9.531319631869977e-06,0.1961469434429744,3.515148642418617e-06,0.1961469434429744,-8.915379766493646e-06
0.1969410606229055,-0.0002793222474383,0.1969410606229055,-5.817107934121225e-05,0.1969410606229055,8.605804027653861e-07,0.1969410606229055,-1.266684409556453e-05
0.1977351778028366,-0.0001803654692246,0.1977351778028366,-8.821380239284175e-05,0.1977351778028366,-3.050145941406516e-06,0.1977351778028366,-1.4829511374576635e-05
0.1985292949827676,-8.010339510274549e-05,0.1985292949827676,-8.199578558209137e-05,0.1985292949827676,-4.19623e-06,0.1985292949827676,-1.4425177093809223e-05
0.1993234121626987,-1.3842969885463475e-05,0.1993234121626987,-4.833216307649911e-05,0.1993234121626987,-4.276108362669735e-06,0.1993234121626987,-1.6311075452576922e-05
0.2001175293426297,2.199687473729169e-05,0.2001175293426297,-3.4010047999131804e-05,0.2001175293426297,-7.988665369099968e-06,0.2001175293426297,-1.5263697201541345e-05
0.2009116465225608,4.36139605955464e-05,0.2009116465225608,-6.198341063296797e-05,0.2009116465225608,-7.88891e-06,0.2009116465225608,-1.4148379461301705e-05
0.2017057637024919,6.468118423836221e-05,0.2017057637024919,-4.096100743981013e-05,0.2017057637024919,-6.625115522747871e-06,0.2017057637024919,-1.1779069139469008e-05
0.202499880882423,0.0001428223230026,0.202499880882423,3.1375934695857467e-05,0.202499880882423,-3.357451958665964e-06,0.202499880882423,-1.3595456757333844e-05
0.203293998062354,0.000386066510215,0.203293998062354,6.981783852159912e-05,0.203293998062354,-6.090570465112815e-06,0.203293998062354,-1.254971968043703e-05
0.2040881152422851,0.0002603163510289,0.2040881152422851,4.995645339731384e-05,0.2040881152422851,-7.948668360176703e-06,0.2040881152422851,-1.2193245749828509e-05
0.2048822324222162,-0.0001039498847131,0.2048822324222162,-2.552885564156875e-06,0.2048822324222162,-6.053811926392078e-06,0.2048822324222162,-1.345876108364725e-05
0.2056763496021472,-0.00019171742021,0.2056763496021472,-5.510273857543306e-05,0.2056763496021472,-2.65835991838899e-06,0.2056763496021472,-1.1730441660682396e-05
0.2064704667820783,-1.7676871282868707e-05,0.2064704667820783,-7.761592620908013e-05,0.2064704667820783,3.897870482748264e-06,0.2064704667820783,-1.276625128485774e-05
0.2072645839620094,7.22640572187842e-05,0.2072645839620094,-5.928052200701005e-05,0.2072645839620094,5.894651226723988e-06,0.2072645839620094,-1.525437112486318e-05
0.2080587011419405,5.083593108753231e-05,0.2080587011419405,-4.27987545151916e-05,0.2080587011419405,4.551638014302306e-06,0.2080587011419405,-1.5017432057209222e-05
0.2088528183218715,-1.2879098210474451e-05,0.2088528183218715,-3.015296945350075e-05,0.2088528183218715,4.946776496559653e-06,0.2088528183218715,-1.270722857924241e-05
0.2096469355018026,-7.894468900502148e-05,0.2096469355018026,-3.3106069139963656e-05,0.2096469355018026,2.2810382883649715e-06,0.2096469355018026,-1.3161101711635028e-05
0.2104410526817337,-0.0001285337593793,0.2104410526817337,-3.259193796767089e-05,0.2104410526817337,3.3258514543639985e-06,0.2104410526817337,-1.4276962236548211e-05
0.2112351698616647,-0.000144319607938,0.2112351698616647,-2.0276390437596107e-05,0.2112351698616647,6.308761987090052e-06,0.2112351698616647,-1.3793588523800284e-05
0.2120292870415958,-0.000134625237228,0.2120292870415958,-1.5711614181365684e-05,0.2120292870415958,6.230177253803743e-06,0.2120292870415958,-1.0870752349710954e-05
0.2128234042215269,-0.0001112413530026,0.2128234042215269,-4.5813245299177966e-05,0.2128234042215269,4.739698274765742e-06,0.2128234042215269,-1.0387216015295152e-05
0.2136175214014579,-9.878171535350274e-05,0.2136175214014579,-8.865558924357617e-05,0.2136175214014579,6.447794916502388e-06,0.2136175214014579,-1.0929870874613344e-05
0.214411638581389,-8.746747201046727e-05,0.214411638581389,-9.906940024724432e-05,0.214411638581389,6.94121880332177e-06,0.214411638581389,-9.666184700830445e-06
0.2152057557613201,4.7219951930023465e-05,0.2152057557613201,-3.620143943467462e-05,0.2152057557613201,7.168155581639612e-06,0.2152057557613201,-1.083126320327749e-05
0.2159998729412512,0.0004871957043382,0.2159998729412512,6.393375229634214e-05,0.2159998729412512,5.53944188847272e-06,0.2159998729412512,-8.392963419850342e-06
0.2167939901211822,0.0002032875355894,0.2167939901211822,0.0001276832165362,0.2167939901211822,-7.193475476229799e-07,0.2167939901211822,-9.369585413681242e-06
0.2175881073011133,-0.0003916155232843,0.2175881073011133,0.0001195333591107,0.2175881073011133,7.381513453034038e-07,0.2175881073011133,-9.666276429049735e-06
0.2183822244810444,-0.0003737420366039,0.2183822244810444,5.408275666746874e-05,0.2183822244810444,3.840956711519773e-06,0.2183822244810444,-9.052595141723948e-06
0.2191763416609755,6.879834614296291e-05,0.2191763416609755,-4.482498766055615e-06,0.2191763416609755,3.830757033894282e-06,0.2191763416609755,-1.079110813557713e-05
0.2199704588409065,0.0002053223745911,0.2199704588409065,-3.779898925045328e-05,0.2199704588409065,5.1242527820733135e-06,0.2199704588409065,-1.0416345564146628e-05
0.2207645760208376,6.264857215706641e-05,0.2207645760208376,-2.29167911711012e-05,0.2207645760208376,6.111531181514119e-06,0.2207645760208376,-1.067338881848588e-05
0.2215586932007686,-0.0001733229772128,0.2215586932007686,-3.567632747867972e-06,0.2215586932007686,7.829769345294893e-06,0.2215586932007686,-1.0219086252683964e-05
0.2223528103806997,-0.0002707203137548,0.2223528103806997,-2.335526718426153e-05,0.2223528103806997,1.162052609614241e-05,0.2223528103806997,-1.2450262750975584e-05
0.2231469275606308,-0.0002066048787015,0.2231469275606308,-5.237989973599196e-05,0.2231469275606308,1.7426180491215275e-05,0.2231469275606308,-1.1306242542893337e-05
0.2239410447405619,-0.0001321163835012,0.2239410447405619,-4.988935694589882e-05,0.2239410447405619,1.584807721068142e-05,0.2239410447405619,-8.380805881302401e-06
0.2247351619204929,-7.984061713071301e-05,0.2247351619204929,-4.349369899024103e-05,0.2247351619204929,1.1958032595739362e-05,0.2247351619204929,-1.2962793248231675e-05
0.225529279100424,-1.2629325547057106e-05,0.225529279100424,-5.3170564609529846e-05,0.225529279100424,5.420693103895358e-06,0.225529279100424,-1.29639373904519e-05
0.2263233962803551,1.3215279644896398e-05,0.2263233962803551,-5.510777915689821e-05,0.2263233962803551,5.629047951129848e-07,0.2263233962803551,-1.298375714874509e-05
0.2271175134602862,-1.0758246969433893e-05,0.2271175134602862,-4.163727030499333e-05,0.2271175134602862,2.7656082213692453e-06,0.2271175134602862,-1.2371007299238253e-05
0.2279116306402172,-3.799902064763816e-06,0.2279116306402172,-4.819503634591659e-05,0.2279116306402172,5.20333e-06,0.2279116306402172,-1.09102e-05
0.2287057478201483,-1.6517725777220967e-05,0.2287057478201483,-5.715508929824732e-05,0.2287057478201483,4.768906896292913e-06,0.2287057478201483,-1.0041356733399162e-05
0.2294998650000794,-3.8434582437338205e-05,0.2294998650000794,-5.656572392454736e-05,0.2294998650000794,5.203135495822547e-06,0.2294998650000794,-7.889396260443634e-06
0.2302939821800104,-1.1399294919689778e-05,0.2302939821800104,-4.5106613527353634e-05,0.2302939821800104,5.549540144986043e-06,0.2302939821800104,-6.88182e-06
0.2310880993599415,3.760987329878094e-05,0.2310880993599415,-2.2255487889992115e-05,0.2310880993599415,5.102178570317798e-06,0.2310880993599415,-6.88182e-06
0.2318822165398726,6.624933619077168e-05,0.2318822165398726,-7.474931912144225e-06,0.2318822165398726,1.1855585907627224e-05,0.2318822165398726,-7.334941365893144e-06
0.2326763337198036,7.852103512369711e-05,0.2326763337198036,-6.794021799183879e-06,0.2326763337198036,1.3379203305845083e-05,0.2326763337198036,-9.605343509341798e-06
0.2334704508997347,6.732348516662746e-05,0.2334704508997347,-9.25217659611971e-06,0.2334704508997347,1.0377580469693404e-05,0.2334704508997347,-1.2608079686871065e-05
0.2342645680796658,4.856931465844884e-05,0.2342645680796658,-8.106049377405112e-06,0.2342645680796658,1.0060962679587214e-05,0.2342645680796658,-1.3397988038761642e-05
0.2350586852595969,3.069574285088084e-05,0.2350586852595969,-9.66638351001139e-06,0.2350586852595969,1.0258519480329722e-05,0.2350586852595969,-1.5886541559010832e-05
0.2358528024395279,1.705240067904719e-05,0.2358528024395279,1.2855764399634988e-05,0.2358528024395279,5.717323390437461e-06,0.2358528024395279,-1.4820059954730186e-05
0.236646919619459,1.3023421220419806e-05,0.236646919619459,2.210651778311756e-05,0.236646919619459,-8.446847594759428e-09,0.236646919619459,-1.6102675728530682e-05
0.2374410367993901,1.4837125898200313e-05,0.2374410367993901,1.3300774019885491e-06,0.2374410367993901,-3.62242412425013e-06,0.2374410367993901,-1.756564352544992e-05
0.2382351539793211,2.0170710611907132e-05,0.2382351539793211,-2.0204605797300248e-05,0.2382351539793211,-7.127585622094663e-06,0.2382351539793211,-1.7386805305953567e-05
0.2390292711592522,3.367779726703683e-05,0.2390292711592522,-3.443007199078907e-05,0.2390292711592522,-1.1186559590055525e-05,0.2390292711592522,-2.0704676302241382e-05
0.2398233883391833,8.02275886202771e-05,0.2398233883391833,-4.054874960150589e-05,0.2398233883391833,-1.2865048571966014e-05,0.2398233883391833,-2.0348742859830072e-05
0.2406175055191144,0.0002306396929225,0.2406175055191144,-3.263730786859052e-05,0.2406175055191144,-1.4070492502867792e-05,0.2406175055191144,-1.7781565997705767e-05
0.2414116226990454,0.000240762995979,0.2414116226990454,-7.271441177201456e-06,0.2414116226990454,-1.561e-05,0.2414116226990454,-1.7071551742533825e-05
0.2422057398789765,8.277465846640367e-05,0.2422057398789765,-1.0660112967385085e-05,0.2422057398789765,-1.5353208129946237e-05,0.2422057398789765,-1.8967e-05
0.2429998570589076,-6.72838163787352e-05,0.2429998570589076,-3.239092436479981e-05,0.2429998570589076,-1.7623685136000848e-05,0.2429998570589076,-1.6282223782398642e-05
0.2437939742388386,-7.721450495273049e-05,0.2437939742388386,-4.149883623875251e-05,0.2437939742388386,-1.8019895036747182e-05,0.2437939742388386,-1.4030423759186796e-05
0.2445880914187697,-6.20160539713844e-06,0.2445880914187697,-4.005760873247974e-05,0.2445880914187697,-1.1664424647269084e-05,0.2445880914187697,-1.4129244324126872e-05
0.2453822085987008,3.081118622026339e-05,0.2453822085987008,-3.871406945439746e-05,0.2453822085987008,-1.200614166933863e-06,0.2453822085987008,-1.2432159556267858e-05
0.2461763257786318,3.904396727459437e-05,0.2461763257786318,-3.780569050747446e-05,0.2461763257786318,5.763741471872574e-06,0.2461763257786318,-1.0141329494534586e-05
0.2469704429585629,4.994804122724439e-05,0.2469704429585629,-3.745088554225673e-05,0.2469704429585629,1.082951181604444e-05,0.2469704429585629,-9.212341754551124e-06
0.247764560138494,4.375128037336346e-05,0.247764560138494,-2.9670350558252557e-05,0.247764560138494,1.2944397523670006e-05,0.247764560138494,-1.0040961363419057e-05
0.2485586773184251,2.4702642135769045e-05,0.2485586773184251,-1.5261202795243606e-05,0.2485586773184251,1.0021451280060583e-05,0.2485586773184251,-1.189757478665657e-05
0.2493527944983561,1.93027e-05,0.2493527944983561,-9.211124517240167e-06,0.2493527944983561,4.473192694967058e-06,0.2493527944983561,-1.0041589581832971e-05
0.2501469116782872,4.957251070325897e-05,0.2501469116782872,-1.15224536647497e-05,0.2501469116782872,-4.431170242323162e-07,0.2501469116782872,-1.0514075729228782e-05
0.2509410288582183,0.0001253525403192,0.2509410288582183,-1.1305367597722138e-05,0.2509410288582183,-3.8000020050995327e-06,0.2509410288582183,-1.4306226183672555e-05
0.2517351460381494,6.624925865695285e-05,0.2517351460381494,-1.446329556850476e-05,0.2517351460381494,-5.795585071987923e-06,0.2517351460381494,-1.49386e-05
0.2525292632180804,-5.964129261445764e-05,0.2525292632180804,-1.819697692604856e-05,0.2525292632180804,-9.685776349604864e-06,0.2525292632180804,-1.3121937367105518e-05
0.2533233803980115,-0.0001266648833373,0.2533233803980115,-9.161874992702904e-06,0.2533233803980115,-8.856150024369927e-06,0.2533233803980115,-1.2371691414645756e-05
0.2541174975779426,-9.383366329127606e-05,0.2541174975779426,1.2112614818198953e-05,0.2541174975779426,-8.77796830267955e-06,0.2541174975779426,-1.41098110702394e-05
0.2549116147578736,-3.9736143645401685e-05,0.2549116147578736,3.738651610070288e-06,0.2549116147578736,-8.036803175019193e-06,0.2549116147578736,-1.4662264405239512e-05
0.2557057319378047,-1.3063081824558056e-05,0.2557057319378047,-2.9371911728698696e-05,0.2557057319378047,-6.091925818839835e-06,0.2557057319378047,-1.3437941811601652e-05
0.2564998491177358,-8.895901306489085e-06,0.2564998491177358,-4.716384334088377e-05,0.2564998491177358,-5.539247383784013e-06,0.2564998491177358,-1.0910634774043656e-05
0.2572939662976669,-2.5889990797191967e-05,0.2572939662976669,-3.1007650919427045e-05,0.2572939662976669,-2.340984514041212e-06,0.2572939662976669,-1.3002223046796936e-05
0.2580880834775979,-5.2168497371533295e-05,0.2580880834775979,-1.69722586193249e-05,0.2580880834775979,-2.8744869415558145e-07,0.2580880834775979,-1.351765017142174e-05
0.258882200657529,-7.714778698301593e-05,0.258882200657529,-2.064441351134245e-05,0.258882200657529,3.6813475116773975e-06,0.258882200657529,-1.21747412441613e-05
0.2596763178374601,-9.47481034786794e-05,0.2596763178374601,-2.9740196745356623e-05,0.2596763178374601,4.315356188689493e-06,0.2596763178374601,-1.241001071696576e-05
0.2604704350173911,-0.0001044781921916,0.2604704350173911,-3.4171632698798486e-05,0.2604704350173911,1.8076263919467e-06,0.2604704350173911,-1.29244e-05
0.2612645521973222,-0.0001130214819465,0.2612645521973222,-2.141683851831416e-05,0.2612645521973222,3.4058769376940253e-06,0.2612645521973222,-1.4168259695114092e-05
0.2620586693772533,-0.0001111453094635,0.2620586693772533,-5.73700047462673e-06,0.2620586693772533,6.1512277486839706e-06,0.2620586693772533,-1.399069283907136e-05
0.2628527865571843,-9.1747324494335e-05,0.2628527865571843,-3.1671347223323785e-05,0.2628527865571843,8.737552952391282e-06,0.2628527865571843,-9.607315536311489e-06
0.2636469037371154,-7.047169753523569e-05,0.2636469037371154,-4.195219014244766e-05,0.2636469037371154,1.181825584752532e-05,0.2636469037371154,-9.13266584752532e-06
0.2644410209170465,-5.635469395296636e-05,0.2644410209170465,-1.774087399489102e-05,0.2644410209170465,1.0457456428159208e-05,0.2644410209170465,-1.033633679411315e-05
0.2652351380969776,-3.723909666865822e-05,0.2652351380969776,-1.3435347103649946e-05,0.2652351380969776,8.047196012208695e-06,0.2652351380969776,-1.2173856993895652e-05
0.2660292552769086,-1.7032487743657415e-05,0.2660292552769086,-3.1705333121781816e-05,0.2660292552769086,7.55322e-06,0.2660292552769086,-1.3279903019492593e-05
0.2668233724568397,-6.544443762897957e-06,0.2668233724568397,-3.42946944756626e-05,0.2668233724568397,7.770231794425686e-06,0.2668233724568397,-1.15816e-05
0.2676174896367708,3.191533104081774e-06,0.2676174896367708,-1.5455240588687895e-05,0.2676174896367708,7.069346482726937e-06,0.2676174896367708,-1.0988905930907748e-05
0.2684116068167018,5.993429994406642e-06,0.2684116068167018,-1.4228584022178424e-05,0.2684116068167018,6.486767060787897e-06,0.2684116068167018,-9.646226475199407e-06
0.2692057239966329,1.1916800379321683e-05,0.2692057239966329,-2.5675277796502084e-05,0.2692057239966329,6.605243618663926e-06,0.2692057239966329,-5.183781607639133e-06
0.269999841176564,2.114722659659955e-05,0.269999841176564,-2.769540819091023e-05,0.269999841176564,9.566723518076e-06,0.269999841176564,-3.18925441081381e-06
0.270793958356495,2.9882625045287625e-05,0.270793958356495,-1.35325950073731e-05,0.270793958356495,8.758180450428398e-06,0.270793958356495,-5.143289099143205e-06
0.2715880755364261,0.0001338215363494,0.2715880755364261,2.4299421663318773e-06,0.2715880755364261,6.251914640231204e-06,0.2715880755364261,-7.829104310540141e-06
0.2723821927163572,0.0002638730634173,0.2723821927163572,1.3101729998625612e-05,0.2723821927163572,1.3850642948165075e-06,0.2723821927163572,-6.053926585812277e-06
0.2731763098962882,0.0001736506478164,0.2731763098962882,3.740328453110433e-06,0.2731763098962882,-2.869860977719523e-07,0.2731763098962882,-5.972146514242394e-06
0.2739704270762193,-2.876186357882153e-06,0.2739704270762193,6.384428415937972e-07,0.2739704270762193,5.97434119983705e-08,0.2739704270762193,-1.102800294388429e-05
0.2747645442561504,-8.058147209135465e-05,0.2747645442561504,-3.522890818829917e-06,0.2747645442561504,-1.954689621811087e-06,0.2747645442561504,-9.88306435990613e-06
0.2755586614360815,-2.8740432324611527e-05,0.2755586614360815,-4.3745953379431217e-05,0.2755586614360815,-1.9055500381125436e-06,0.2755586614360815,-1.3437906565033218e-05
0.2763527786160125,2.0137468684996667e-05,0.2763527786160125,-7.126561745422726e-05,0.2763527786160125,-8.39246e-07,0.2763527786160125,-1.6044285511378084e-05
0.2771468957959436,4.258284318891175e-05,0.2771468957959436,-6.703092635494662e-05,0.2771468957959436,-2.10225095374506e-06,0.2771468957959436,-1.582737780925099e-05
0.2779410129758747,3.0494903383281307e-05,0.2779410129758747,-5.1527365471614096e-05,0.2779410129758747,-4.19623e-06,0.2779410129758747,-1.6359406503235607e-05
0.2787351301558057,-2.0059997780406009e-07,0.2787351301558057,-2.8807989237579985e-05,0.2787351301558057,-3.6831274536309433e-06,0.2787351301558057,-1.8265539971571212e-05
0.2795292473357368,1.0256606904794576e-05,0.2795292473357368,-2.6608868988907006e-05,0.2795292473357368,-3.1495063732920284e-06,0.2795292473357368,-1.6676543382744285e-05
0.2803233645156679,0.0001318501125704,0.2803233645156679,-1.2976778488755536e-05,0.2803233645156679,-7.237823827925186e-06,0.2803233645156679,-1.5175937063602707e-05
0.2811174816955989,0.0005903827538052,0.2811174816955989,8.724449372611045e-06,0.2811174816955989,-8.89601e-06,0.2811174816955989,-1.687408260306487e-05
0.2819115988755301,0.000852301694262,0.2819115988755301,2.087445527271901e-05,0.2819115988755301,-1.0732631260714836e-05,0.2819115988755301,-1.8256151685654616e-05
0.2827057160554611,0.000555802325398,0.2827057160554611,3.644371876755951e-05,0.2827057160554611,-1.0001800171652251e-05,0.2827057160554611,-1.7663799485043242e-05
0.2834998332353922,-0.0004296390307092,0.2834998332353922,1.0582697846078991e-05,0.2834998332353922,-1.2252279190401264e-05,0.2834998332353922,-1.69528e-05
0.2842939504153233,-0.0008466861623013,0.2842939504153233,-4.664436838716151e-05,0.2842939504153233,-1.39315e-05,0.2842939504153233,-1.600576383291155e-05
0.2850880675952543,-0.0004951783016063,0.2850880675952543,-7.924684029947607e-05,0.2850880675952543,-1.2648523046335994e-05,0.2850880675952543,-1.3991323046335994e-05
0.2858821847751854,-0.000209190149544,0.2858821847751854,-7.203867394900349e-05,0.2858821847751854,-9.925859035392823e-06,0.2858821847751854,-1.2510464176216216e-05
0.2866763019551165,-0.0002116648519334,0.2866763019551165,-6.717859243769843e-05,0.2866763019551165,-4.9300363151496e-06,0.2866763019551165,-1.1088923607300764e-05
0.2874704191350475,-0.0003024897085272,0.2874704191350475,-5.649641302161246e-05,0.2874704191350475,6.195529511650887e-07,0.2874704191350475,-1.0200137445599727e-05
0.2882645363149786,-0.0004075091005904,0.2882645363149786,-3.800293037332036e-05,0.2882645363149786,4.887696172203254e-06,0.2882645363149786,-8.639218456949187e-06
0.2890586534949096,-0.0004443361091781,0.2890586534949096,-5.094398124367109e-05,0.2890586534949096,3.86053e-06,0.2890586534949096,-9.527925175230848e-06
0.2898527706748408,-0.0004074169837096,0.2898527706748408,-6.759273501127125e-05,0.2898527706748408,8.144661335731302e-06,0.2898527706748408,-8.688867443311582e-06
0.2906468878547718,-0.0003335748658646,0.2906468878547718,-2.188902299007996e-05,0.2906468878547718,1.6022697492823403e-05,0.2906468878547718,-6.753878855661791e-06
0.2914410050347029,-0.0002200469664741,0.2914410050347029,5.173149918186143e-05,0.2914410050347029,2.1000695892795176e-05,0.2914410050347029,-4.984604776017606e-06
0.292235122214634,-8.918656998444218e-05,0.292235122214634,8.880353684614036e-05,0.292235122214634,2.029071779010622e-05,0.292235122214634,-8.934176777679949e-06
0.293029239394565,1.943543451225189e-05,0.293029239394565,7.308976049315134e-05,0.293029239394565,1.7051929511684856e-05,0.293029239394565,-1.1226074097663027e-05
0.2938233565744961,8.712260557082986e-05,0.2938233565744961,1.9515067181934625e-05,0.2938233565744961,1.0080385932223411e-05,0.2938233565744961,-1.2490314180758343e-05
0.2946174737544272,0.0001366486905769,0.2946174737544272,-2.957304093020432e-05,0.2946174737544272,8.412142215740628e-06,0.2946174737544272,-1.374392364729653e-05
0.2954115909343582,0.0001560318607871,0.2954115909343582,-4.421446850754966e-05,0.2954115909343582,1.1799399162846245e-05,0.2954115909343582,-1.2874811902276185e-05
0.2962057081142893,0.0001682734018285,0.2962057081142893,-6.996996566269615e-05,0.2962057081142893,1.7920283315915573e-05,0.2962057081142893,-1.0426473041839449e-05
0.2969998252942204,0.0001609702725466,0.2969998252942204,-8.74476919466605e-05,0.2969998252942204,2.1651467299202145e-05,0.2969998252942204,-8.393089293217235e-06
0.2977939424741515,0.0001356612309218,0.2977939424741515,-3.763451539732729e-05,0.2977939424741515,3.600269264523476e-05,0.2977939424741515,-3.881763891217636e-06
0.2985880596540825,0.0001197961868485,0.2985880596540825,-1.1610149760217484e-05,0.2985880596540825,4.579955183772164e-05,0.2985880596540825,-2.913274512363452e-06
0.2993821768340136,0.0001214953808509,0.2993821768340136,-2.9311931255700058e-05,0.2993821768340136,4.995222692673053e-05,0.2993821768340136,-1.9245643577564885e-06
0.3001762940139447,0.0001136613281509,0.3001762940139447,-4.0433199121614505e-05,0.3001762940139447,4.265038738149509e-05,0.3001762940139447,-3.898330492416375e-06
0.3009704111938757,8.998769088393801e-05,0.3009704111938757,-4.824810537480841e-05,0.3009704111938757,3.1549597682159785e-05,0.3009704111938757,-5.577669671726188e-06
0.3017645283738068,6.334237413304868e-05,0.3017645283738068,-4.81935488447076e-05,0.3017645283738068,2.297668793284794e-05,0.3017645283738068,-8.619121330796072e-06
0.3025586455537379,3.52582265466722e-05,0.3025586455537379,-3.145717947920566e-05,0.3025586455537379,1.426721847177046e-05,0.3025586455537379,-1.1008978549767774e-05
0.3033527627336689,1.8731330655075024e-05,0.3033527627336689,-4.643060592705748e-06,0.3033527627336689,1.3349949201831464e-06,0.3033527627336689,-1.268726257932333e-05
0.3041468799136,1.9379628696658663e-05,0.3041468799136,7.1780361518978525e-06,0.3041468799136,-9.880956621802554e-06,0.3041468799136,-1.4286432174164663e-05
0.3049409970935311,2.368619015978149e-05,0.3049409970935311,-2.359045365071492e-05,0.3049409970935311,-1.7897056431114225e-05,0.3049409970935311,-1.371487750345957e-05
0.3057351142734621,2.5028559327049406e-05,0.3057351142734621,-4.899665125225784e-05,0.3057351142734621,-2.4889298317623515e-05,0.3057351142734621,-1.29244e-05
0.3065292314533932,3.066644940693714e-05,0.3065292314533932,-4.032201368318472e-05,0.3065292314533932,-2.8869692766335187e-05,0.3065292314533932,-1.505685664060195e-05
0.3073233486333243,4.260615294058202e-05,0.3073233486333243,-2.2038512630037064e-05,0.3073233486333243,-3.0933454351043e-05,0.3073233486333243,-1.837515977134952e-05
0.3081174658132554,5.425677736808026e-05,0.3081174658132554,-1.582659652030698e-05,0.3081174658132554,-2.9788040328989968e-05,0.3081174658132554,-2.03098e-05
0.3089115829931864,5.537034697054898e-05,0.3089115829931864,-1.8197228235189688e-05,0.3089115829931864,-2.718144437661056e-05,0.3089115829931864,-1.8641056241113885e-05
0.3097057001731175,5.1944667766250745e-05,0.3097057001731175,-1.9686529679023327e-05,0.3097057001731175,-2.2837585869762316e-05,0.3097057001731175,-1.9361754822499504e-05
0.3104998173530486,4.884475788177665e-05,0.3104998173530486,-1.4604908377431456e-05,0.3104998173530486,-1.997475788177665e-05,0.3104998173530486,-2.03098e-05
0.3112939345329796,3.5699172727660325e-05,0.3112939345329796,1.5083930646230416e-05,0.3112939345329796,-1.3005776666808786e-05,0.3112939345329796,-2.2401614930912456e-05
0.3120880517129107,2.869191836735728e-05,0.3120880517129107,3.836342172637295e-05,0.3120880517129107,-6.569494087622466e-06,0.3120880517129107,-1.9206383913562997e-05
0.3128821688928418,0.0001250689586606,0.3128821688928418,6.93350084186336e-05,0.3128821688928418,-1.0576217108366371e-06,0.3128821688928418,-1.5570893554135484e-05
0.3136762860727728,0.0002930359077522,0.3136762860727728,7.952337023694682e-05,0.3136762860727728,-4.4396220030853546e-07,0.3136762860727728,-1.5826528045621674e-05
0.314470403252704,0.0004088167617874,0.314470403252704,1.4644466576437044e-05,0.314470403252704,-3.761715088879617e-07,0.314470403252704,-1.7110994480831073e-05
0.315264520432635,0.0001584920662251,0.315264520432635,-5.630369027868153e-05,0.315264520432635,2.576522727411065e-06,0.315264520432635,-1.4643123875784097e-05
0.3160586376125661,-0.0002394574177361,0.3160586376125661,-9.993367704116778e-05,0.3160586376125661,3.228647168385467e-06,0.3160586376125661,-1.164086163523586e-05
0.3168527547924971,-0.0002637717687554,0.3168527547924971,-9.469327612059462e-05,0.3168527547924971,1.6091911132958735e-06,0.3168527547924971,-1.324007666994381e-05
0.3176468719724282,-3.9954715229731686e-05,0.3176468719724282,-5.2063491632674505e-05,0.3176468719724282,1.3731228524712848e-06,0.3176468719724282,-1.018115859875764e-05
0.3184409891523593,0.0001134999831353,0.3184409891523593,-3.4174242949863096e-05,0.3184409891523593,7.042750461409526e-08,0.3184409891523593,-8.341515980194887e-06
0.3192351063322903,1.25197810456122e-05,0.3192351063322903,-8.864648977305377e-05,0.3192351063322903,-3.819439357694262e-06,0.3192351063322903,-1.229107288840982e-05
0.3200292235122214,-0.0001833825396731,0.3200292235122214,-0.0001031256866519,0.3200292235122214,-9.488010154907408e-06,0.3200292235122214,-1.3526735110722085e-05
0.3208233406921525,-0.000313197474792,0.3208233406921525,-1.8677599590036947e-05,0.3208233406921525,-1.3063236830139028e-05,0.3208233406921525,-1.42672e-05
0.3216174578720835,-0.0002797303396271,0.3216174578720835,6.858661323073256e-05,0.3216174578720835,-1.7348568717439015e-05,0.3216174578720835,-1.4859848204982576e-05
0.3224115750520147,-0.0001834144339917,0.3224115750520147,8.074418813473877e-05,0.3224115750520147,-1.750558584979497e-05,0.3224115750520147,-1.647890353755126e-05
0.3232056922319457,-0.0001074402232076,0.3232056922319457,4.263288000686119e-05,0.3232056922319457,-1.3438085136944262e-05,0.3232056922319457,-1.6084034054777706e-05
0.3239998094118768,-4.3822704218980826e-05,0.3239998094118768,3.0304740377143484e-06,0.3239998094118768,-1.2253e-05,0.3239998094118768,-1.4938874594132908e-05
0.3247939265918079,-2.5932098805822053e-05,0.3247939265918079,-4.302818868137323e-05,0.3247939265918079,-1.11575806540964e-05,0.3247939265918079,-1.0694765258152168e-05
0.3255880437717389,-3.930864541868744e-06,0.3255880437717389,-7.709575873498109e-05,0.3255880437717389,-8.464043886141031e-06,0.3255880437717389,-7.613071552886415e-06
0.32638216095167,9.765731404569648e-06,0.32638216095167,-8.618448235194345e-05,0.32638216095167,-3.6488225825426073e-06,0.32638216095167,-7.030119643574606e-06
0.3271762781316011,5.409812268034704e-05,0.3271762781316011,-8.685610378523575e-05,0.3271762781316011,5.473474408208257e-06,0.3271762781316011,-5.915440942650863e-06
0.3279703953115321,0.000115374407679,0.3279703953115321,-7.623122330722016e-05,0.3279703953115321,1.5390097581493904e-05,0.3279703953115321,-4.354430201542175e-06
0.3287645124914632,0.0001257626596198,0.3287645124914632,-5.7001497016185503e-05,0.3287645124914632,1.8552408705184104e-05,0.3287645124914632,-4.35401258963179e-06
0.3295586296713942,9.760009040059684e-05,0.3295586296713942,-4.034039147135328e-05,0.3295586296713942,1.7979659611425682e-05,0.3295586296713942,-7.7110746743873e-06
0.3303527468513254,2.81860576532159e-05,0.3303527468513254,-2.8291828855840585e-05,0.3303527468513254,1.9855519823634247e-05,0.3303527468513254,-9.56741e-06
0.3311468640312564,-0.0001036951342395,0.3311468640312564,-1.9559577845315048e-05,0.3311468640312564,2.0447297034776552e-05,0.3311468640312564,-1.0711997034776552e-05
0.3319409812111875,-0.0002178018341324,0.3319409812111875,-1.0001427650181002e-05,0.3319409812111875,2.1949342612491864e-05,0.3319409812111875,-1.1187463918737796e-05
0.3327350983911186,-0.0002305613906515,0.3327350983911186,1.5247186381941823e-06,0.3327350983911186,1.9136370474126817e-05,0.3327350983911186,-9.725750860916069e-06
0.3335292155710496,-0.0001989838678107,0.3335292155710496,1.6933407015065787e-05,0.3335292155710496,1.59457e-05,0.3335292155710496,-9.211849773396409e-06
0.3343233327509807,-0.0001574861359359,0.3343233327509807,1.5683664746252366e-05,0.3343233327509807,1.5471208935549907e-05,0.3343233327509807,-1.1542456915281309e-05
0.3351174499309118,-0.0001159365809761,0.3351174499309118,9.08135328111867e-06,0.3351174499309118,1.029691630522396e-05,0.3351174499309118,-1.5294946955820835e-05
0.3359115671108428,-7.856159495030992e-05,0.3359115671108428,2.454797557918508e-05,0.3359115671108428,6.358427684118647e-06,0.3359115671108428,-1.908559121815012e-05
0.3367056842907739,-4.786031777902857e-05,0.3367056842907739,1.643668828026431e-05,0.3367056842907739,6.230254140603871e-06,0.3367056842907739,-1.7802213802012905e-05
0.337499801470705,-3.2020115403344204e-06,0.337499801470705,-1.0903008913188837e-05,0.337499801470705,3.861388102404942e-06,0.337499801470705,-1.5610429053332614e-05
0.338293918650636,6.111942322128768e-05,0.338293918650636,-3.148922381021234e-05,0.338293918650636,-9.556708834275265e-07,0.338293918650636,-1.4740672219434555e-05
0.3390880358305671,0.0001224736546848,0.3390880358305671,-3.473079959579045e-05,0.3390880358305671,-2.1039933656684933e-06,0.3390880358305671,-1.658711554477717e-05
0.3398821530104982,0.0001534647267062,0.3398821530104982,-2.321523954091536e-05,0.3398821530104982,-2.643101184197369e-06,0.3398821530104982,-1.5828415060488703e-05
0.3406762701904293,0.0001495376248642,0.3406762701904293,-1.0041028073204523e-05,0.3406762701904293,-5.972032100872453e-06,0.3406762701904293,-1.4386394837222676e-05
0.3414703873703603,0.0001482130095386,0.3414703873703603,-8.77724553030821e-06,0.3414703873703603,-2.3827229573831687e-06,0.3414703873703603,-1.37540059222533e-05
0.3422645045502914,0.0001295365427065,0.3422645045502914,-5.845126476365281e-06,0.3422645045502914,3.879815083471649e-06,0.3422645045502914,-1.300328557410481e-05
0.3430586217302225,9.363148657351816e-05,0.3430586217302225,-9.375435091381906e-06,0.3430586217302225,7.720905749825345e-06,0.3430586217302225,-1.294416534443937e-05
0.3438527389101535,5.611792060345961e-05,0.3438527389101535,-2.271145771344922e-05,0.3438527389101535,1.089014227186156e-05,0.3438527389101535,-1.08317295468974e-05
0.3446468560900846,1.437910746868652e-05,0.3446468560900846,-4.0174615917626544e-05,0.3446468560900846,1.0318735895384636e-05,0.3446468560900846,-9.250887053254468e-06
0.3454409732700157,-2.118607743261386e-05,0.3454409732700157,-5.5498775948120925e-05,0.3454409732700157,5.6020997097753306e-06,0.3454409732700157,-1.09102e-05
0.3462350904499467,-4.182926674072573e-05,0.3462350904499467,-4.294854069184099e-05,0.3462350904499467,1.4885772705244408e-07,0.3462350904499467,-1.09102e-05
0.3470292076298778,-1.0501618707039529e-06,0.3470292076298778,-2.0269435003397644e-05,0.3470292076298778,-4.836759207662798e-07,0.3470292076298778,-1.03967141659871e-05
0.3478233248098089,0.0001400908302804,0.3478233248098089,8.45471776791337e-07,0.3478233248098089,-4.236496181515312e-06,0.3478233248098089,-1.2095216987035533e-05
0.34861744198974,0.0001157885676,0.34861744198974,2.119189025456313e-05,0.34861744198974,-1.0516328711220196e-05,0.34861744198974,-1.3813337909391731e-05
0.349411559169671,-3.579683422653215e-05,0.349411559169671,2.3962046437613424e-05,0.349411559169671,-1.4385768286095205e-05,0.349411559169671,-1.567908337920258e-05
0.3502056763496021,-0.0001245929553809,0.3502056763496021,-2.1930922062552344e-05,0.3502056763496021,-1.3053092017407805e-05,0.3502056763496021,-1.4168528493416268e-05
0.3509997935295332,-8.948010983931613e-05,0.3509997935295332,-6.461238448338499e-05,0.3509997935295332,-1.0575020562556692e-05,0.3509997935295332,-1.4602602523022755e-05
0.3517939107094642,-2.966875661442362e-06,0.3517939107094642,-9.134544351895947e-05,0.3517939107094642,-9.666376675139664e-06,0.3517939107094642,-1.4861017739778697e-05
0.3525880278893953,6.09020929186293e-05,0.3525880278893953,-0.0001181591555264,0.3525880278893953,-8.739955237545772e-06,0.3525880278893953,-1.333812943529044e-05
0.3533821450693264,9.496817096188089e-05,0.3533821450693264,-9.814079904971354e-05,0.3533821450693264,-4.859578389294675e-06,0.3533821450693264,-1.4040671951815358e-05
0.3541762622492574,9.631872511457968e-05,0.3541762622492574,-2.1365333434583437e-05,0.3541762622492574,-3.38678156966123e-06,0.3541762622492574,-1.3043606278644922e-05
0.3549703794291886,8.707919737337379e-05,0.3549703794291886,6.0600605257988825e-05,0.3549703794291886,-1.2946024445115895e-06,0.3549703794291886,-1.35958e-05
0.3557644966091196,6.78863235289463e-05,0.3557644966091196,6.0914881380172405e-05,0.3557644966091196,-8.39246e-07,0.3557644966091196,-1.3753559706787374e-05
0.3565586137890507,3.3946518318611694e-05,0.3565586137890507,1.847452016446843e-05,0.3565586137890507,2.3200300500000976e-06,0.3565586137890507,-1.3003484309812392e-05
0.3573527309689818,-9.74510935343188e-06,0.3573527309689818,-4.413043263291977e-07,0.3573527309689818,8.282980393522306e-06,0.3573527309689818,-1.0713166569572512e-05
0.3581468481489128,-6.290776376251338e-05,0.3581468481489128,-6.220063582300439e-06,0.3581468481489128,9.82479624928244e-06,0.3581468481489128,-7.988037938282584e-06
0.3589409653288439,-9.649882955397382e-05,0.3589409653288439,-1.5136366840317345e-05,0.3589409653288439,5.69951611025923e-06,0.3589409653288439,-7.592153875553757e-06
0.3597350825087749,-0.0001005624062859,0.3597350825087749,-2.2400776249916375e-05,0.3597350825087749,2.083889153246284e-06,0.3597350825087749,-8.22461e-06
0.360529199688706,1.0350799903264944e-05,0.360529199688706,-3.0222873709029384e-05,0.360529199688706,2.8733231094479703e-06,0.360529199688706,-7.23740310944797e-06
0.3613233168686371,0.0001941415303923,0.3613233168686371,-3.1507263618453024e-05,0.3613233168686371,1.17494e-06,0.3613233168686371,-7.098920116731827e-06
0.3621174340485681,7.953306358114e-05,0.3621174340485681,-4.010998073245177e-05,0.3621174340485681,1.767553806900365e-06,0.3621174340485681,-5.953506193099635e-06
0.3629115512284993,-0.0002024239908175,0.3629115512284993,-5.694206323127309e-05,0.3629115512284993,5.824862790095693e-07,0.3629115512284993,-7.099108523295505e-06
0.3637056684084303,-0.0003489018769506,0.3637056684084303,-6.386867837703367e-05,0.3637056684084303,-1.3915346717402717e-06,0.3637056684084303,-1.1067828867850152e-05
0.3644997855883614,-0.0002583575335395,0.3644997855883614,-6.059554160273438e-05,0.3644997855883614,-5.538103244801526e-06,0.3644997855883614,-1.1246363377599238e-05
0.3652939027682925,-0.0001141990410967,0.3652939027682925,-1.24385941089116e-05,0.3652939027682925,-4.691103833223126e-06,0.3652939027682925,-1.0948973931069586e-05
0.3660880199482235,-2.893322507628775e-05,0.3660880199482235,4.60363927992391e-05,0.3660880199482235,-1.2557212640365223e-06,0.3660880199482235,-1.387160815749955e-05
0.3668821371281546,1.3526704331432366e-05,0.3668821371281546,3.88576304083846e-05,0.3668821371281546,4.3099892445720265e-06,0.3668821371281546,-1.2096665944761272e-05
0.3676762543080857,1.5675859480603687e-05,0.3676762543080857,1.4225950663031755e-05,0.3676762543080857,1.0343919380998636e-05,0.3676762543080857,-1.09102e-05
0.3684703714880167,-1.2317794395379026e-05,0.3684703714880167,4.511305771833702e-06,0.3684703714880167,1.6180978454271586e-05,0.3684703714880167,-1.3831078454271586e-05
0.3692644886679478,-3.7764160255603736e-05,0.3692644886679478,3.862718489808237e-06,0.3692644886679478,1.6716177601952283e-05,0.3692644886679478,-1.3418806389852126e-05
0.3700586058478789,-3.675950577793534e-05,0.3700586058478789,-1.9265930313367557e-05,0.3700586058478789,1.9104931895332157e-05,0.3700586058478789,-1.0959639080559206e-05
0.3708527230278099,8.307267156774275e-05,0.3708527230278099,-5.3004409516801264e-05,0.3708527230278099,2.728910989403744e-05,0.3708527230278099,-8.817593344196172e-06
0.371646840207741,0.0004985567249467,0.371646840207741,-7.843396167189191e-05,0.371646840207741,3.0518128238612134e-05,0.371646840207741,-6.229566178959099e-06
0.3724409573876721,0.0003497264038506,0.3724409573876721,-8.883169213579657e-05,0.3724409573876721,3.046340056873201e-05,0.3724409573876721,-8.302455978851692e-06
0.3732350745676032,-0.0003505700945529,0.3732350745676032,-7.099397551955313e-05,0.3732350745676032,2.250470798774864e-05,0.3732350745676032,-1.0080424815328562e-05
0.3740291917475342,-0.0004555082336581,0.3740291917475342,-4.838960709349e-05,0.3740291917475342,1.3843828563106798e-05,0.3740291917475342,-9.883210745444255e-06
0.3748233089274653,-0.0001520047140494,0.3748233089274653,-2.362681543805275e-05,0.3748233089274653,7.35526554426533e-06,0.3748233089274653,-1.231229422092296e-05
0.3756174261073964,-3.305656887915661e-05,0.3756174261073964,-2.4815960580025326e-06,0.3756174261073964,-1.694687141374375e-07,0.3756174261073964,-1.3181302340872988e-05
0.3764115432873274,-3.816168355823463e-05,0.3764115432873274,3.3869303380691982e-06,0.3764115432873274,-7.000342421985602e-06,0.3764115432873274,-1.46621612109928e-05
0.3772056604672585,-0.0001034846991413,0.3772056604672585,-1.3022029961898088e-05,0.3772056604672585,-7.197660060834471e-06,0.3772056604672585,-1.4069879918887372e-05
0.3779997776471896,-0.0001539075079056,0.3779997776471896,-3.440421003755841e-05,0.3779997776471896,-7.217680179910829e-06,0.3779997776471896,-1.3931339820089171e-05
0.3787938948271206,-0.0001348986067083,0.3787938948271206,-2.234100674108193e-05,0.3787938948271206,-6.931310544661933e-06,0.3787938948271206,-1.63589134640568e-05
0.3795880120070517,-8.130275254488741e-05,0.3795880120070517,-1.5152136297572012e-05,0.3795880120070517,-8.24270762089522e-06,0.3795880120070517,-1.744727467458533e-05
0.3803821291869828,-2.299162947664116e-05,0.3803821291869828,-1.9618119538247964e-05,0.3803821291869828,-9.25478891770059e-06,0.3803821291869828,-1.691372221920401e-05
0.3811762463669139,2.018709169394813e-05,0.3811762463669139,-1.7328039241101915e-05,0.3811762463669139,-4.811187579755929e-06,0.3811762463669139,-1.5788843742233987e-05
0.3819703635468449,3.942322638534412e-05,0.3819703635468449,-2.109485731494964e-05,0.3819703635468449,-3.169881455544572e-06,0.3819703635468449,-1.373476925315977e-05
0.382764480726776,3.450819476408553e-05,0.382764480726776,-2.9747959652687263e-05,0.382764480726776,-1.4520000545771943e-06,0.382764480726776,-1.2095263176057024e-05
0.3835585979067071,3.847646184779287e-05,0.3835585979067071,-3.661630722927624e-05,0.3835585979067071,7.798986642047387e-07,0.3835585979067071,-1.1897517456519526e-05
0.3843527150866381,5.018484715685005e-05,0.3843527150866381,-4.661007850837056e-05,0.3843527150866381,1.984029545116255e-06,0.3843527150866381,-1.0041818900673452e-05
0.3851468322665692,0.0001472376610766,0.3851468322665692,-4.045277795579601e-05,0.3851468322665692,1.5715332624872488e-06,0.3851468322665692,-8.89601e-06
0.3859409494465003,0.0007035001469361,0.3859409494465003,-2.117868126611597e-05,0.3859409494465003,-3.344784934478217e-06,0.3859409494465003,-8.205154238300726e-06
0.3867350666264313,0.0009029209016526,0.3867350666264313,-3.7259786891833374e-05,0.3867350666264313,-8.183261926546907e-06,0.3867350666264313,-1.071046294153838e-05
0.3875291838063624,0.0001700060585951,0.3875291838063624,-3.7291799544238e-05,0.3875291838063624,-1.371388501926894e-05,0.3875291838063624,-1.5452102996146212e-05
0.3883233009862935,-0.0005274241993782,0.3883233009862935,1.8289476707948165e-05,0.3883233009862935,-1.4504354000847514e-05,0.3883233009862935,-1.35958e-05
0.3891174181662246,-0.0004744718804051,0.3891174181662246,6.939386138543736e-05,0.3891174181662246,-1.827665893680489e-05,0.3891174181662246,-1.507727718711383e-05
0.3899115353461556,-0.000151348507261,0.3899115353461556,5.837949410920409e-05,0.3899115353461556,-2.0112325127517302e-05,0.3899115353461556,-1.8789257768803927e-05
0.3907056525260867,-1.584842246423274e-05,0.3907056525260867,1.372711627990546e-05,0.3907056525260867,-1.5571639694403243e-05,0.3907056525260867,-1.8138028462286877e-05
0.3914997697060178,-4.077296669530935e-05,0.3914997697060178,-2.46635963747356e-05,0.3914997697060178,-7.555542598823488e-06,0.3914997697060178,-1.527512950310977e-05
0.3922938868859488,-0.0001130705650104,0.3922938868859488,-5.064476470425956e-05,0.3922938868859488,-2.539244807693764e-06,0.3922938868859488,-1.5412026355324892e-05
0.3930880040658799,-0.0001837220158921,0.3930880040658799,-6.464718393322864e-05,0.3930880040658799,-1.0969654479243306e-06,0.3930880040658799,-1.4249136936388124e-05
0.393882121245811,-0.0002432775704422,0.393882121245811,-4.892918514896303e-05,0.393882121245811,1.932457146686963e-06,0.393882121245811,-1.308068819112906e-05
0.394676238425742,-0.0002511952030145,0.394676238425742,-1.1697491981094685e-05,0.394676238425742,6.069159364353159e-06,0.394676238425742,-1.5371518794176857e-05
0.3954703556056732,-0.0002161058710213,0.3954703556056732,1.0806931840568612e-05,0.3954703556056732,1.0277289493008324e-05,0.3954703556056732,-1.235350163568372e-05
0.3962644727856042,-0.0001522362187216,0.3962644727856042,-4.7442093475486855e-06,0.3962644727856042,1.108817461747921e-05,0.3962644727856042,-1.15816e-05
0.3970585899655353,-7.789720528588915e-05,0.3970585899655353,-3.62483732309438e-05,0.3970585899655353,1.0100679467425773e-05,0.3970585899655353,-1.0949776552988406e-05
0.3978527071454664,-1.2937296241872784e-05,0.3978527071454664,-5.498171800050662e-05,0.3978527071454664,1.000158585031112e-05,0.3978527071454664,-9.56741e-06
0.3986468243253974,2.95802296812821e-05,0.3986468243253974,-5.472928653075359e-05,0.3986468243253974,8.502978180472993e-06,0.3986468243253974,-1.0711882374502567e-05
0.3994409415053285,6.213519598463174e-05,0.3994409415053285,-4.188334291888171e-05,0.3994409415053285,3.821630522016119e-06,0.3994409415053285,-1.2253e-05
0.4002350586852595,9.200251506394136e-05,0.4002350586852595,-3.450019555603789e-05,0.4002350586852595,3.702131932824908e-06,0.4002350586852595,-1.1740000426430771e-05
0.4010291758651906,0.0001002656993345,0.4010291758651906,-2.810979685013661e-05,0.4010291758651906,9.516892915737016e-06,0.4010291758651906,-1.3417991283142704e-05
0.4018232930451217,9.633545166149772e-05,0.4018232930451217,-1.5046912543035488e-05,0.4018232930451217,1.6419962236006095e-05,0.4018232930451217,-1.1778739529939078e-05
0.4026174102250527,9.609877940881817e-05,0.4026174102250527,-7.741480501303437e-06,0.4026174102250527,2.0853428652936356e-05,0.4026174102250527,-8.382251182363692e-06
0.4034115274049838,0.0001077393087574,0.4034115274049838,-8.787603890015192e-06,0.4034115274049838,2.412087655787603e-05,0.4034115274049838,-1.0179582935787684e-05
0.4042056445849149,0.0001285399307005,0.4042056445849149,-2.087210151975345e-05,0.4042056445849149,2.761559144717338e-05,0.4042056445849149,-1.0564932927742084e-05
0.404999761764846,0.0001364608287365,0.404999761764846,-2.6351991809089734e-05,0.404999761764846,3.0044485136000768e-05,0.404999761764846,-8.896439053332694e-06
0.4057938789447771,0.0001290589255535,0.4057938789447771,8.243768562144518e-07,0.4057938789447771,2.720451066421492e-05,0.4057938789447771,-9.65562156046179e-06
0.4065879961247081,0.0001227632725088,0.4065879961247081,1.4362403475463535e-05,0.4065879961247081,1.7767909924661654e-05,0.4065879961247081,-1.0772313120291353e-05
0.4073821133046392,0.0001072854221818,0.4073821133046392,-1.0963262416246732e-05,0.4073821133046392,8.388150235462988e-06,0.4073821133046392,-1.1066465259074143e-05
0.4081762304845703,7.375283394238097e-05,0.4081762304845703,-2.22047320185452e-05,0.4081762304845703,2.3233464011648376e-06,0.4081762304845703,-1.2805147955666326e-05
0.4089703476645013,3.493542629043897e-05,0.4089703476645013,-7.171212240918055e-06,0.4089703476645013,-1.5875680357422535e-06,0.4089703476645013,-1.241123452580878e-05
0.4097644648444324,1.3757983989516304e-05,0.4097644648444324,9.96226136469356e-06,0.4097644648444324,-7.728969860177078e-06,0.4097644648444324,-1.3525925083175974e-05
0.4105585820243635,-5.2017266249010894e-06,0.4105585820243635,1.482537170201639e-06,0.4105585820243635,-1.5688377876397402e-05,0.4105585820243635,-1.588631797147632e-05
0.4113526992042945,-2.170847097230475e-05,0.4113526992042945,-4.455901946220596e-05,0.4113526992042945,-2.082229797886408e-05,0.4113526992042945,-1.69528e-05
0.4121468163842256,-3.160153776979084e-05,0.4121468163842256,-0.0001180117438938,0.4121468163842256,-2.1416070278776145e-05,0.4121468163842256,-1.5373470278776147e-05
0.4129409335641567,-4.439202307799139e-05,0.4129409335641567,-0.0001562083137632,0.4129409335641567,-2.0606611408656287e-05,0.4129409335641567,-1.4247755704328144e-05
0.4137350507440878,-6.26003982465e-05,0.4137350507440878,-0.0001337150968517,0.4137350507440878,-1.9717605933926472e-05,0.4137350507440878,-1.2649029669632352e-05
0.4145291679240188,-6.876992028256416e-05,0.4145291679240188,-7.386416138466572e-05,0.4145291679240188,-2.06255711248632e-05,0.4145291679240188,-1.14037855624316e-05
0.4153232851039499,-4.904915619468979e-05,0.4153232851039499,-3.391478233025312e-05,0.4153232851039499,-2.0191245882420724e-05,0.4153232851039499,-1.2253e-05
0.416117402283881,-1.122088488594466e-05,0.416117402283881,-2.4774302658401376e-05,0.416117402283881,-2.052725191418617e-05,0.416117402283881,-1.3141851914186166e-05
0.416911519463812,1.9262831062642192e-05,0.416911519463812,-8.144138871397214e-06,0.416911519463812,-1.912501956126833e-05,0.416911519463812,-1.3477346374178884e-05
0.4177056366437431,3.426993514379704e-05,0.4177056366437431,3.920642441871798e-05,0.4177056366437431,-1.5116785792424158e-05,0.4177056366437431,-1.12459e-05
0.4184997538236742,3.843661328977939e-05,0.4184997538236742,8.491888189754397e-05,0.4184997538236742,-1.2924932026132364e-05,0.4184997538236742,-1.3259035947735272e-05
0.4192938710036052,2.5552208891032227e-05,0.4192938710036052,7.720658552386902e-05,0.4192938710036052,-8.069793562358309e-06,0.4192938710036052,-1.2500480975859052e-05
0.4200879881835363,-3.896796930955251e-06,0.4200879881835363,4.3884650683212486e-05,0.4200879881835363,9.712083186902349e-07,0.4200879881835363,-1.2253e-05
0.4208821053634674,-3.775134814410416e-05,0.4208821053634674,1.3506447948011216e-05,0.4208821053634674,1.0730742327019552e-05,0.4208821053634674,-1.1386297091225558e-05
0.4216762225433985,-5.114981908546456e-05,0.4216762225433985,-3.381875850974285e-05,0.4216762225433985,1.1365163485755909e-05,0.4216762225433985,-9.627039966537684e-06
0.4224703397233295,-5.0819860986079614e-05,0.4224703397233295,-6.344402854724222e-05,0.4224703397233295,1.3475998767400484e-05,0.4224703397233295,-1.0723180493039806e-05
0.4232644569032606,-4.217537099540198e-05,0.4232644569032606,-5.084030128627889e-05,0.4232644569032606,1.5195448750161812e-05,0.4232644569032606,-1.0168939525249446e-05
0.4240585740831917,-7.063602506704176e-06,0.4240585740831917,1.8500634884797444e-05,0.4240585740831917,1.3359098712608104e-05,0.4240585740831917,-1.3477001544870277e-05
0.4248526912631227,3.4569899654666005e-05,0.4248526912631227,5.422910576413927e-05,0.4248526912631227,9.538355363931657e-06,0.4248526912631227,-1.604415938507662e-05
0.4256468084430538,5.010300080716126e-05,0.4256468084430538,5.474939104224509e-05,0.4256468084430538,9.666585267565738e-06,0.4256468084430538,-1.2886245234410564e-05
0.4264409256229849,6.223322287468374e-05,0.4264409256229849,1.3735032490340725e-05,0.4264409256229849,8.56031e-06,0.4264409256229849,-1.09102e-05
0.4272350428029159,4.557021661686521e-05,0.4272350428029159,-3.797969451200468e-05,0.4272350428029159,7.534364258953751e-06,0.4272350428029159,-1.1936153381449744e-05
0.428029159982847,-1.952718115568088e-05,0.428029159982847,-7.942172576574055e-05,0.428029159982847,4.492870712257862e-06,0.428029159982847,-1.290445968344095e-05
0.4288232771627781,-6.525346159910048e-05,0.4288232771627781,-9.206950632132544e-05,0.4288232771627781,2.7348973238428257e-06,0.4288232771627781,-1.3872228661921414e-05
0.4296173943427092,-5.127038341826023e-05,0.4296173943427092,-6.842546703003094e-05,0.4296173943427092,1.88576176161834e-06,0.4296173943427092,-1.2706965284855018e-05
0.4304115115226402,-5.664378787668806e-05,0.4304115115226402,-4.0450343787062587e-05,0.4304115115226402,2.71519767344155e-06,0.4304115115226402,-1.5550645467528932e-05
0.4312056287025713,-7.737516168905168e-05,0.4312056287025713,-2.611925885446634e-05,0.4312056287025713,2.5964827712538e-06,0.4312056287025713,-1.675552578299696e-05
0.4319997458825024,-9.147450492493724e-05,0.4319997458825024,-2.0982843635891512e-05,0.4319997458825024,3.860163879942675e-06,0.4319997458825024,-1.695243387448951e-05
0.4327938630624334,-0.0001025298445032,0.4327938630624334,-6.582106473630892e-07,0.4327938630624334,4.2617188417260246e-07,0.4327938630624334,-1.50979201068935e-05
0.4335879802423645,-6.814102416411523e-05,0.4335879802423645,1.609352135035978e-05,0.4335879802423645,1.1689054014524305e-07,0.4335879802423645,-1.1623572104231226e-05
0.4343820974222956,3.153702525457216e-05,0.4343820974222956,-9.325092769445612e-07,0.4343820974222956,4.016749394964639e-06,0.4343820974222956,-8.89601e-06
0.4351762146022266,1.9850979030732025e-05,0.4351762146022266,-1.76250252027591e-05,0.4351762146022266,4.651204927178156e-06,0.4351762146022266,-1.0552376994976217e-05
0.4359703317821577,-3.983417218662074e-05,0.4359703317821577,-3.5937283838678166e-05,0.4359703317821577,4.886838065538026e-06,0.4359703317821577,-1.2607908065538026e-05
0.4367644489620888,-6.713556781380441e-05,0.4367644489620888,-4.497549578695905e-05,0.4367644489620888,4.552247883491708e-06,0.4367644489620888,-1.1680763412618782e-05
0.4375585661420199,-2.6881108588455097e-05,0.4375585661420199,-3.281849402205761e-05,0.4375585661420199,1.9453667877011048e-06,0.4375585661420199,-9.646631312165797e-06
0.438352683321951,5.8508826879581e-06,0.438352683321951,-2.450031387408073e-05,0.438352683321951,2.2603097976231046e-06,0.438352683321951,-8.57039906071307e-06
0.439146800501882,2.119082679537447e-05,0.439146800501882,-3.962722459948498e-06,0.439146800501882,3.624026733422417e-06,0.439146800501882,-6.645313210830978e-06
0.4399409176818131,3.4311935851778e-05,0.4399409176818131,6.152280298602015e-06,0.4399409176818131,1.729743658895962e-06,0.4399409176818131,-5.1644643407112e-06
0.4407350348617442,2.7600947506972957e-05,0.4407350348617442,-3.742676106534882e-05,0.4407350348617442,-1.3220139347213097e-06,0.4407350348617442,-5.044895249302705e-06
0.4415291520416752,1.4664495216783512e-05,0.4415291520416752,-4.95360408024393e-05,0.4415291520416752,-9.281610583618888e-07,0.4415291520416752,-7.27650530252353e-06
0.4423232692216063,2.635851035789873e-06,0.4423232692216063,-1.1595129777197238e-05,0.4423232692216063,-1.7477024694698523e-06,0.4423232692216063,-5.5783936785966246e-06
0.4431173864015373,-2.3994575161037955e-06,0.4431173864015373,1.0734753697316115e-05,0.4431173864015373,-3.594112437905818e-06,0.4431173864015373,-5.677583701325648e-06
0.4439115035814684,2.185802766783745e-05,0.4439115035814684,-5.974441079964625e-06,0.4439115035814684,-3.011524239230181e-06,0.4439115035814684,-7.809869939486183e-06
0.4447056207613995,0.0001450100838657,0.4447056207613995,-1.986798762349802e-05,0.4447056207613995,2.161250816797027e-06,0.4447056207613995,-9.872796312185304e-06
0.4454997379413306,0.0001737355159601,0.4454997379413306,-2.4673037252743658e-05,0.4454997379413306,5.202952433067262e-06,0.4454997379413306,-1.3594572879350715e-05
0.4462938551212617,-9.826212198110778e-07,0.4462938551212617,-2.674759207176357e-05,0.4462938551212617,2.3908906998058414e-06,0.4462938551212617,-1.5461470621650283e-05
0.4470879723011927,-0.0001374919680667,0.4470879723011927,-2.600334502898448e-05,0.4470879723011927,1.17494e-06,0.4470879723011927,-1.6695009042002622e-05
0.4478820894811238,-0.0001231794599167,0.4478820894811238,-1.6757711948673158e-05,0.4478820894811238,2.2991873471822937e-06,0.4478820894811238,-1.7780396462909725e-05
0.4486762066610549,-9.865837034924243e-06,0.4486762066610549,-1.5176172764086838e-05,0.4486762066610549,2.360969552900485e-06,0.4486762066610549,-1.9795170447099515e-05
0.4494703238409859,3.820246181559463e-05,0.4494703238409859,-3.0036775868963466e-05,0.4494703238409859,-3.2659212105439468e-06,0.4494703238409859,-2.1513544936173733e-05
0.450264441020917,9.086660153010054e-06,0.450264441020917,-2.6000679412771453e-05,0.450264441020917,-5.124490191584052e-06,0.450264441020917,-2.252228463470193e-05
0.4510585582008481,-4.2321774714954416e-05,0.4510585582008481,-8.312658715488562e-06,0.4510585582008481,-4.235852417097995e-06,0.4510585582008481,-1.845408966839198e-05
0.4518526753807791,-8.246436070277044e-05,0.4518526753807791,-4.369665490659182e-06,0.4518526753807791,1.073970465388944e-06,0.4518526753807791,-1.7190063546978216e-05
0.4526467925607102,-3.727672461114443e-05,0.4526467925607102,-1.3870983429564184e-05,0.4526467925607102,6.427872338429218e-06,0.4526467925607102,-1.561e-05
0.4534409097406413,9.75561509555034e-05,0.4534409097406413,-2.3133295592356304e-05,0.4534409097406413,5.2616107111881575e-06,0.4534409097406413,-1.5522575171641118e-05
0.4542350269205724,1.3520033874278309e-05,0.4542350269205724,-3.276461776338228e-05,0.4542350269205724,7.492796879638517e-06,0.4542350269205724,-1.1662807612881106e-05
0.4550291441005034,-0.0001485208673775,0.4550291441005034,-5.170685821301192e-05,0.4550291441005034,8.89601e-06,0.4550291441005034,-9.725273697635188e-06
0.4558232612804345,-0.0002238511856691,0.4558232612804345,-4.721779824141316e-05,0.4558232612804345,1.0100747304643589e-05,0.4558232612804345,-9.843841868607182e-06
0.4566173784603656,-0.0001739035001249,0.4566173784603656,-1.5797973801488832e-05,0.4566173784603656,1.614390126825098e-05,0.4566173784603656,-1.0159934719365262e-05
0.4574114956402966,-0.000107356620343,0.4574114956402966,-5.262521976134224e-06,0.4574114956402966,2.124775251184045e-05,0.4574114956402966,-1.008089036309124e-05
0.4582056128202277,-6.889299597044983e-05,0.4582056128202277,-3.532711733381596e-05,0.4582056128202277,1.918509486020749e-05,0.4582056128202277,-6.19144344059167e-06
0.4589997300001588,-3.945451965511024e-05,0.4589997300001588,-6.830429620259169e-05,0.4589997300001588,1.3597939545951983e-05,0.4589997300001588,-5.538446487467641e-06
0.4597938471800898,-1.6409204080488533e-05,0.4597938471800898,-8.532834509799655e-05,0.4597938471800898,5.345756412045137e-06,0.4597938471800898,-7.8285509998987e-06
0.4605879643600209,-2.2303075765897823e-06,0.4605879643600209,-9.484723233917052e-05,0.4605879643600209,-7.19301094530864e-07,0.4605879643600209,-1.0178827895307624e-05
0.461382081539952,1.7226457505248442e-05,0.461382081539952,-7.027924258347118e-05,0.461382081539952,-5.03548e-07,0.461382081539952,-9.7235823678111e-06
0.4621761987198831,4.351527932629054e-05,0.4621761987198831,-3.5909213148901433e-05,0.4621761987198831,-2.711950181391182e-06,0.4621761987198831,-1.09102e-05
0.4629703158998141,5.565402591346786e-05,0.4629703158998141,-1.374651299728361e-05,0.4629703158998141,-4.60146611297982e-06,0.4629703158998141,-1.2547918089805154e-05
0.4637644330797452,5.496815459672167e-05,0.4637644330797452,-4.471079574693731e-06,0.4637644330797452,-6.012032177880024e-06,0.4637644330797452,-1.35958e-05
0.4645585502596763,8.497357621439558e-05,0.4645585502596763,-9.605912117341138e-06,0.4645585502596763,-8.184976707191545e-06,0.4645585502596763,-1.4859332233749095e-05
0.4653526674396073,0.000484386721412,0.4653526674396073,3.294808441065016e-06,0.4653526674396073,-4.138232983955576e-06,0.4653526674396073,-1.5057237506502836e-05
0.4661467846195384,0.0003915480224321,0.4661467846195384,2.1788982912045875e-05,0.4661467846195384,7.97108987428614e-07,0.4661467846195384,-1.3359316142885732e-05
0.4669409017994695,-0.0002581286268687,0.4669409017994695,2.19886615592064e-05,0.4669409017994695,5.952405454468096e-06,0.4669409017994695,-1.2291842727234048e-05
0.4677350189794005,-0.0003669413454112,0.4677350189794005,1.0778584420396436e-05,0.4677350189794005,7.730454726565967e-06,0.4677350189794005,-1.3052597392153249e-05
0.4685291361593316,-2.135770717703184e-05,0.4685291361593316,-1.3554666940838302e-05,0.4685291361593316,6.2703486249694615e-06,0.4685291361593316,-1.525432535917441e-05
0.4693232533392627,0.0001396208615869,0.4693232533392627,-3.5307157861026855e-05,0.4693232533392627,4.53193e-06,0.4693232533392627,-1.6123462527835786e-05
0.4701173705191938,0.0001240368963179,0.4701173705191938,-3.184653767021101e-05,0.4701173705191938,3.93940792131889e-06,0.4701173705191938,-1.754532207868111e-05
0.4709114876991248,4.434636552025028e-05,0.4709114876991248,-2.2323805970394133e-05,0.4709114876991248,2.675893035053226e-06,0.4709114876991248,-1.403047620479644e-05
0.4717056048790559,-2.050112582400652e-05,0.4717056048790559,-1.8062712949921333e-05,0.4717056048790559,-3.650879375989493e-07,0.4717056048790559,-1.2450239818920749e-05
0.472499722058987,-3.30663e-05,0.472499722058987,-3.442374307641623e-07,0.472499722058987,-1.682494479877544e-07,0.472499722058987,-1.1582400899554148e-05
0.473293839238918,-2.6995952681197668e-05,0.473293839238918,1.892731304427914e-05,0.473293839238918,-4.4316288813705035e-07,0.473293839238918,-8.620694881679221e-06
0.4740879564188491,-3.9012053236829447e-05,0.4740879564188491,-5.236249387302353e-06,0.4740879564188491,-3.0091851812510943e-06,0.4740879564188491,-6.606103570719751e-06
0.4748820735987802,-7.036795658680219e-05,0.4748820735987802,-3.756143882112822e-05,0.4748820735987802,-6.819382385027256e-06,0.4748820735987802,-6.366570598800199e-06
0.4756761907787112,-9.777504831353222e-05,0.4756761907787112,-5.16480530350247e-05,0.4756761907787112,-9.724137899854786e-06,0.4756761907787112,-8.657393274132408e-06
0.4764703079586423,-0.0001381203900685,0.4764703079586423,-4.251302880794279e-05,0.4764703079586423,-9.05427312936428e-06,0.4764703079586423,-8.89601e-06
0.4772644251385734,-0.0001642808265837,0.4772644251385734,-4.445823699347861e-05,0.4772644251385734,-7.474391633006228e-06,0.4772644251385734,-9.803892752802376e-06
0.4780585423185045,-0.0001737036934488,0.4780585423185045,-4.843141242705448e-05,0.4780585423185045,-7.059581337288227e-06,0.4780585423185045,-1.2469763952541276e-05
0.4788526594984356,-0.0001650596535433,0.4788526594984356,-3.57988026192283e-05,0.4788526594984356,-7.33616323951651e-06,0.4788526594984356,-1.3003933667286111e-05
0.4796467766783666,-0.0001444125065069,0.4796467766783666,-2.6037235641503216e-05,0.4796467766783666,-1.6330614375428268e-06,0.4796467766783666,-1.0555491413369782e-05
0.4804408938582977,-0.000105408545061,0.4804408938582977,-2.3015381936693222e-05,0.4804408938582977,5.9912132052572285e-06,0.4804408938582977,-1.098786252241318e-05
0.4812350110382288,-5.522455023311383e-05,0.4812350110382288,-6.868550777253208e-08,0.4812350110382288,7.37598671468579e-06,0.4812350110382288,-1.174006907496394e-05
0.4820291282181598,-1.0872068066216238e-06,0.4820291282181598,6.151780635621386e-05,0.4820291282181598,6.861833917752199e-06,0.4820291282181598,-1.14237430411239e-05
0.4828232453980909,4.727483189633935e-05,0.4828232453980909,0.0001026563911492,0.4828232453980909,9.330476283631064e-06,0.4828232453980909,-1.0179551544765827e-05
0.483617362578022,0.0001014754778367,0.483617362578022,5.131201190669566e-05,0.483617362578022,1.05745e-05,0.483617362578022,-9.60685351867481e-06
0.484411479757953,0.0003789276527264,0.484411479757953,-5.5421240535449736e-05,0.484411479757953,7.375707432964578e-06,0.484411479757953,-1.0357143084261908e-05
0.4852055969378841,0.0006184175544254,0.4852055969378841,-0.0001633845070064,0.4852055969378841,7.33503047400484e-06,0.4852055969378841,-1.09102e-05
0.4859997141178152,0.0002712520525327,0.4859997141178152,-0.0001500765082918,0.4859997141178152,1.4264110822139894e-05,0.4859997141178152,-1.2252176217601357e-05
0.4867938312977463,-0.0001969067943947,0.4867938312977463,-3.378805016790747e-05,0.4867938312977463,1.6845307813733977e-05,0.4867938312977463,-1.3359126953433494e-05
0.4875879484776773,-0.000228030665173,0.4875879484776773,3.163962688137129e-05,0.4875879484776773,1.3862553227092428e-05,0.4875879484776773,-1.1198031137683164e-05
0.4883820656576084,-4.434783911792295e-05,0.4883820656576084,3.338402621366143e-05,0.4883820656576084,1.385343616662735e-05,0.4883820656576084,-1.211245958343163e-05
0.4891761828375395,9.933377710041009e-06,0.4891761828375395,7.730511363452248e-06,0.4891761828375395,1.2708020692866909e-05,0.4891761828375395,-1.4147879307133093e-05
0.4899703000174705,-9.74910519742856e-06,0.4899703000174705,-3.7221606987579e-05,0.4899703000174705,1.1898137700150804e-05,0.4899703000174705,-1.369658195052782e-05
0.4907644171974016,-5.319128644074576e-05,0.4907644171974016,-2.991519790972206e-05,0.4907644171974016,8.128197648059854e-06,0.4907644171974016,-1.135396752194666e-05
0.4915585343773327,-0.0001090841592194,0.4915585343773327,2.935240386114436e-06,0.4915585343773327,-1.153730435353128e-06,0.4915585343773327,-1.4148229554459157e-05
0.4923526515572637,-0.0001400901974017,0.4923526515572637,1.625653781037052e-06,0.4923526515572637,-2.6363889725302126e-06,0.4923526515572637,-1.760395308240936e-05
0.4931467687371948,-0.0001353254537383,0.4931467687371948,-3.175743250274515e-05,0.4931467687371948,-6.049927581480116e-06,0.4931467687371948,-1.4919608612410967e-05
0.4939408859171259,-0.0001050894610132,0.4939408859171259,-6.616095691742002e-05,0.4939408859171259,-1.0987839590358429e-05,0.4939408859171259,-1.4150740614462358e-05
0.494735003097057,-6.150109575999414e-05,0.494735003097057,-7.35881220448399e-05,0.494735003097057,-1.3278838967227744e-05,0.494735003097057,-1.302237922542081e-05
0.495529120276988,-2.3684223601777023e-05,0.495529120276988,-4.582592479443704e-05,0.495529120276988,-1.49386e-05,0.495529120276988,-1.6734956190824984e-05
0.4963232374569191,3.603858569544921e-06,0.4963232374569191,-4.728717519675209e-06,0.4963232374569191,-1.3911743592861474e-05,0.4963232374569191,-1.6834314530953825e-05
0.4971173546368502,1.7052540186202178e-05,0.4971173546368502,6.035199703371265e-06,0.4971173546368502,-1.047550256012117e-05,0.4971173546368502,-1.657764957331314e-05
0.4979114718167812,3.5453282485635626e-05,0.4979114718167812,-3.0904145410088373e-06,0.4979114718167812,-9.23171e-06,0.4979114718167812,-1.6222241983253942e-05
0.4987055889967123,0.0001186098584275,0.4987055889967123,-8.142282762390282e-06,0.4987055889967123,-7.090618775316542e-06,0.4987055889967123,-1.478125778283521e-05
0.4994997061766434,0.0001502283865348,0.4994997061766434,-2.047142337447624e-05,0.4994997061766434,-2.18341582471462e-06,0.4994997061766434,-1.225384666524298e-05
0.5002938233565745,2.9290004260632217e-05,0.5002938233565745,-4.05309917271991e-05,0.5002938233565745,-6.630097772041621e-07,0.5002938233565745,-1.2825367313552804e-05
0.5010879405365055,-8.048402240711376e-05,0.5010879405365055,-2.626842544886813e-05,0.5010879405365055,4.54976374306342e-06,0.5010879405365055,-1.2450853251387316e-05
0.5018820577164366,-3.231261515309429e-05,0.5018820577164366,-1.4918088395065048e-05,0.5018820577164366,5.952772367345125e-06,0.5018820577164366,-1.2557397455511649e-05
0.5026761748963677,0.0001847957485713,0.5026761748963677,-2.0803506959001648e-05,0.5026761748963677,4.889924625504288e-06,0.5026761748963677,-1.35958e-05
0.5034702920762988,0.0001606450895671,0.5034702920762988,4.998798982359935e-06,0.5034702920762988,2.251601856179698e-06,0.5034702920762988,-9.2942308491265e-06
0.5042644092562298,9.762887213350097e-06,0.5042644092562298,3.05600442727764e-05,0.5042644092562298,3.3073630405192435e-06,0.5042644092562298,-6.032353851143147e-06
0.5050585264361609,-8.534560661401742e-05,0.5050585264361609,9.65138604061141e-06,0.5050585264361609,2.9030247606803424e-06,0.5050585264361609,-8.125439887809986e-06
0.505852643616092,-5.419824102979793e-05,0.505852643616092,-2.3362598739136573e-05,0.505852643616092,1.3239954063096966e-06,0.505852643616092,-1.043558471237002e-05
0.506646760796023,1.8136474351679932e-05,0.506646760796023,-2.5682236634251303e-05,0.506646760796023,-1.5697523647579814e-06,0.506646760796023,-9.439698176210094e-06
0.507440877975954,4.324015002508991e-05,0.507440877975954,-1.84144495600961e-05,0.507440877975954,-2.417803997994454e-06,0.507440877975954,-7.078776246863761e-06
0.5082349951558852,2.8545342300332293e-05,0.5082349951558852,-1.0205242477219206e-05,0.5082349951558852,-3.011929597189364e-06,0.5082349951558852,-9.091936487193965e-06
0.5090291123358163,-7.26752255672472e-06,0.5090291123358163,-3.2669217423244296e-06,0.5090291123358163,-2.478852643314573e-07,0.5090291123358163,-1.1897291034907863e-05
0.5098232295157473,-4.645455512765152e-05,0.5098232295157473,-2.9683236323896748e-05,0.5098232295157473,3.7617780552478823e-06,0.5098232295157473,-1.3319337013811973e-05
0.5106173466956784,-7.334174372822685e-05,0.5106173466956784,-4.56662175059048e-05,0.5106173466956784,5.015751920149707e-06,0.5106173466956784,-1.4188287680598827e-05
0.5114114638756094,-8.815919979918797e-05,0.5114114638756094,-3.200017150176954e-05,0.5114114638756094,6.940966550718631e-06,0.5114114638756094,-1.586656982607795e-05
0.5122055810555405,-0.0001001052314835,0.5122055810555405,-1.4647660340338088e-05,0.5122055810555405,3.6445085434540416e-06,0.5122055810555405,-1.4879889158323127e-05
0.5129996982354716,-0.0001012147393551,0.5129996982354716,-1.4937136064104976e-05,0.5129996982354716,-1.5086835297548073e-06,0.5129996982354716,-1.426698261297817e-05
0.5137938154154027,-7.834057621260104e-05,0.5137938154154027,-1.6992425317539078e-05,0.5137938154154027,-3.425794530745221e-06,0.5137938154154027,-1.5549546322156405e-05
0.5145879325953338,-5.089595434321907e-05,0.5145879325953338,-2.5293352817174768e-05,0.5145879325953338,-1.4928382068668417e-06,0.5145879325953338,-1.6479258984401e-05
0.5153820497752648,-2.9678331888139556e-05,0.5153820497752648,-4.034901356244622e-05,0.5153820497752648,-4.722686474175913e-07,0.5153820497752648,-1.673416135197674e-05
0.5161761669551959,-1.9093646193926688e-05,0.5161761669551959,-4.9416727848376014e-05,0.5161761669551959,-9.585885091914982e-07,0.5161761669551959,-1.6244058939278468e-05
0.5169702841351269,-2.863766336255867e-06,0.5169702841351269,-4.8808443688279e-05,0.5169702841351269,1.2827921002155542e-06,0.5169702841351269,-1.2648677154080464e-05
0.5177644013150581,1.95535462837198e-05,0.5177644013150581,-3.619092964225557e-05,0.5177644013150581,1.5894512048605107e-06,0.5177644013150581,-1.29244e-05
0.5185585184949891,3.0873541137442304e-05,0.5185585184949891,-1.692618284122797e-05,0.5185585184949891,2.478060252764956e-06,0.5185585184949891,-1.2292679747235044e-05
0.5193526356749202,2.8919239561442385e-05,0.5193526356749202,-1.930320916343478e-06,0.5193526356749202,8.055249806976936e-06,0.5193526356749202,-1.2746391668580237e-05
0.5201467528548512,4.452798163393059e-05,0.5201467528548512,1.4121559920603416e-06,0.5201467528548512,1.0139537993004572e-05,0.5201467528548512,-1.1543686020986282e-05
0.5209408700347823,6.570076128430384e-05,0.5209408700347823,3.968152564311019e-06,0.5209408700347823,1.2685692157810938e-05,0.5209408700347823,-8.905709215781094e-06
0.5217349872147133,7.362524150192344e-05,0.5217349872147133,1.1687601822602702e-05,0.5217349872147133,1.4010751699615312e-05,0.5217349872147133,-9.192084150192346e-06
0.5225291043946444,6.657840925394044e-05,0.5225291043946444,-1.3506175435566362e-06,0.5225291043946444,1.0338906734383767e-05,0.5225291043946444,-9.36952468841714e-06
0.5233232215745756,0.0001113382571641,0.5233232215745756,-2.155953375173686e-05,0.5233232215745756,7.55322e-06,0.5233232215745756,-1.0791737413798177e-05
0.5241173387545066,0.0005174685373432,0.5241173387545066,-4.131269310679024e-05,0.5241173387545066,6.072029463571217e-06,0.5241173387545066,-9.79445166356071e-06
0.5249114559344377,0.0004932302433869,0.5249114559344377,-5.004860423956653e-05,0.5249114559344377,3.0117306266989752e-06,0.5249114559344377,-1.1305035084691269e-05
0.5257055731143687,-0.0001224723052047,0.5257055731143687,-4.590521472842272e-05,0.5257055731143687,-1.628017119954598e-06,0.5257055731143687,-1.211449395481114e-05
0.5264996902942998,-0.0003519719682545,0.5264996902942998,-4.380910058850972e-05,0.5264996902942998,-4.363522230667618e-06,0.5264996902942998,-1.2924176892267046e-05
0.5272938074742308,-4.13411693072716e-05,0.5272938074742308,-4.6928911928695455e-05,0.5272938074742308,-2.2425166098986043e-06,0.5272938074742308,-1.235204415247465e-05
0.528087924654162,3.53919819446731e-05,0.528087924654162,-4.93477e-05,0.528087924654162,-2.7333770244348765e-06,0.528087924654162,-1.2627573453410737e-05
0.528882041834093,-8.984767259057638e-05,0.528882041834093,-4.747325025570413e-05,0.528882041834093,-6.147821861326813e-06,0.528882041834093,-1.35958e-05
0.5296761590140241,-0.0002580225962589,0.5296761590140241,-3.900052340713792e-05,0.5296761590140241,-8.776654982866496e-06,0.5296761590140241,-1.3043755017133504e-05
0.5304702761939551,-0.000323781,0.5304702761939551,-2.7987854856274583e-05,0.5304702761939551,-8.262870666268281e-06,0.5304702761939551,-1.312094196337386e-05
0.5312643933738862,-0.000283361465993,0.5312643933738862,-2.7120796768741247e-05,0.5312643933738862,-1.1620991004588194e-05,0.5312643933738862,-1.35958e-05
0.5320585105538173,-0.0002140592770204,0.5320585105538173,-3.284589680047689e-05,0.5320585105538173,-8.432985322602816e-06,0.5320585105538173,-1.35958e-05
0.5328526277337483,-0.0001460015870998,0.5328526277337483,-3.57519e-05,0.5328526277337483,-4.255563085785686e-06,0.5328526277337483,-1.3004013926062571e-05
0.5336467449136795,-7.47059522823124e-05,0.5336467449136795,-3.4212162803211725e-05,0.5336467449136795,-4.808523368255707e-06,0.5336467449136795,-1.0082710676975892e-05
0.5344408620936105,-1.8507601092548183e-05,0.5344408620936105,-3.65219842400482e-05,0.5344408620936105,-4.906415397097079e-06,0.5344408620936105,-8.39914370925742e-06
0.5352349792735416,6.770160351053521e-06,0.5352349792735416,-3.178777657359845e-05,0.5352349792735416,-5.667243650796618e-06,0.5352349792735416,-1.329744063738916e-05
0.5360290964534726,0.0001382822334346,0.5360290964534726,-2.4555369403794308e-05,0.5360290964534726,-3.940662093387162e-06,0.5360290964534726,-1.3300163695873264e-05
0.5368232136334037,0.0002989997213805,0.5368232136334037,-2.315485140974128e-05,0.5368232136334037,2.260917242487e-06,0.5368232136334037,-1.235179771044111e-05
0.5376173308133347,0.000192159740424,0.5376173308133347,-1.617019572043542e-05,0.5376173308133347,7.158544918401007e-06,0.5376173308133347,-1.006097050291217e-05
0.5384114479932659,-2.548255104541037e-05,0.5384114479932659,2.0827382569476446e-06,0.5384114479932659,1.3220018093319391e-05,0.5384114479932659,-8.43204228600209e-06
0.539205565173197,-0.0001297107704233,0.539205565173197,3.744964303108785e-06,0.539205565173197,1.9025664977567455e-05,0.539205565173197,-7.5132907962901475e-06
0.539999682353128,-8.747467078802561e-05,0.539999682353128,-1.794983245474726e-05,0.539999682353128,1.796127297066446e-05,0.539999682353128,-8.560081171555925e-06
0.5407937995330591,-5.222839725172054e-05,0.5407937995330591,-9.565899936633702e-06,0.5407937995330591,1.3262738779389406e-05,0.5407937995330591,-8.22461e-06
0.5415879167129901,-4.932442720685474e-05,0.5415879167129901,3.6939027345979336e-05,0.5415879167129901,1.12459e-05,0.5415879167129901,-7.948955006592606e-06
0.5423820338929212,-3.35118933534765e-05,0.5423820338929212,4.513659295883197e-05,0.5423820338929212,1.1167882030737089e-05,0.5423820338929212,-7.334545791875168e-06
0.5431761510728523,-2.8896134165777103e-05,0.5431761510728523,2.700382177163883e-05,0.5431761510728523,8.9184075977932e-06,0.5431761510728523,-1.0432735943651077e-05
0.5439702682527834,-4.790279437010565e-05,0.5439702682527834,4.6613752466826006e-05,0.5439702682527834,7.88891e-06,0.5439702682527834,-9.737935014544392e-06
0.5447643854327144,-6.801349384939532e-05,0.5447643854327144,7.669484763409485e-05,0.5447643854327144,8.510659645157422e-06,0.5447643854327144,-8.618606469864526e-06
0.5455585026126455,-7.279780803786985e-05,0.5455585026126455,1.905027282712503e-05,0.5455585026126455,9.211858660355026e-06,0.5455585026126455,-1.211404062248518e-05
0.5463526197925765,-4.5320435115351965e-05,0.5463526197925765,-6.917591241142307e-05,0.5463526197925765,6.478233844744747e-06,0.5463526197925765,-1.480973791382844e-05
0.5471467369725076,-9.860369298861548e-06,0.5471467369725076,-0.0001132334870882,0.5471467369725076,1.4633373947865183e-06,0.5471467369725076,-1.3122969878100682e-05
0.5479408541524387,2.425544698467125e-05,0.5479408541524387,-0.0001285034733482,0.5479408541524387,-8.78019584564278e-07,0.5479408541524387,-1.1678534827673675e-05
0.5487349713323698,5.712466923020191e-05,0.5487349713323698,-0.0001190743233448,0.5487349713323698,-3.562127232830526e-06,0.5487349713323698,-1.556803173066286e-05
0.5495290885123009,6.930165671064121e-05,0.5495290885123009,-8.836252212285438e-05,0.5495290885123009,-7.059691644679398e-06,0.5495290885123009,-1.87402526190496e-05
0.5503232056922319,6.432626326306907e-05,0.5503232056922319,-3.631116882630714e-05,0.5503232056922319,-5.3021505932852846e-06,0.5503232056922319,-1.6399839703357357e-05
0.551117322872163,4.817199419721749e-05,0.551117322872163,7.600329060151824e-06,0.551117322872163,-4.788683282516619e-06,0.551117322872163,-1.636034671748338e-05
0.551911440052094,1.739100618196907e-05,0.551911440052094,1.4761034481881295e-05,0.551911440052094,-6.684413923681789e-06,0.551911440052094,-1.513600607631821e-05
0.5527055572320251,-1.149663458169516e-05,0.5527055572320251,-6.9007082354388784e-06,0.5527055572320251,-3.407548845689768e-06,0.5527055572320251,-1.43177159089751e-05
0.5534996744119562,-3.473518355450873e-05,0.5534996744119562,-2.785510263929416e-05,0.5534996744119562,8.376041656957704e-07,0.5534996744119562,-9.904859083729066e-06
0.5542937915918873,-3.493181293655812e-05,0.5542937915918873,-3.729222275951771e-05,0.5542937915918873,6.936892860910854e-06,0.5542937915918873,-8.39246e-06
0.5550879087718184,-1.5805548138075437e-06,0.5550879087718184,-2.694745184354194e-05,0.5550879087718184,9.549685022775498e-06,0.5550879087718184,-9.5851249772245e-06
0.5558820259517494,3.870915096240571e-05,0.5558820259517494,4.121410845866459e-08,0.5558820259517494,7.592222089769374e-06,0.5558820259517494,-1.1659606503235597e-05
0.5566761431316805,6.1548220450319e-05,0.5566761431316805,1.9697048301779814e-05,0.5566761431316805,7.060885071922616e-06,0.5566761431316805,-1.2529011050011e-05
0.5574702603116115,6.151742901576161e-05,0.5574702603116115,2.465915315508334e-05,0.5574702603116115,9.466422540027228e-06,0.5574702603116115,-1.2056492360892884e-05
0.5582643774915427,6.24509046302483e-05,0.5582643774915427,-4.936386669453645e-06,0.5582643774915427,1.2074888085454436e-05,0.5582643774915427,-1.195504638454497e-05
0.5590584946714737,0.0001423860300301,0.5590584946714737,-3.396191758169292e-05,0.5590584946714737,1.0693642435951765e-05,0.5590584946714737,-1.647810049138961e-05
0.5598526118514048,0.0002319291356151,0.5598526118514048,-3.795997183753848e-05,0.5598526118514048,1.0316815347235257e-05,0.5598526118514048,-1.8176922362401253e-05
0.5606467290313358,0.0001884769677721,0.5606467290313358,-4.771586357268195e-05,0.5606467290313358,1.1643085620310556e-05,0.5606467290313358,-1.5335785620310554e-05
0.5614408462112669,-5.463977220124856e-05,0.5614408462112669,-5.500621992821234e-05,0.5614408462112669,3.5891941303157506e-06,0.5614408462112669,-1.15816e-05
0.5622349633911979,-0.0002074651991479,0.5622349633911979,-4.036396763041166e-05,0.5622349633911979,-8.39246e-07,0.5622349633911979,-1.2222639652131585e-05
0.563029080571129,-0.000194657989373,0.563029080571129,-9.710685570871816e-06,0.563029080571129,1.4779485882892918e-07,0.563029080571129,-1.2608754730781127e-05
0.5638231977510602,2.4459584809860325e-05,0.5638231977510602,2.6524332413835186e-05,0.5638231977510602,-2.221207807710422e-06,0.5638231977510602,-1.3102042392902664e-05
0.5646173149309912,0.0002484594318128,0.5646173149309912,2.425002657702409e-05,0.5646173149309912,-8.797442342737145e-06,0.5646173149309912,-1.4227720908244651e-05
0.5654114321109223,3.923214513518612e-06,0.5654114321109223,2.992687460854818e-06,0.5654114321109223,-1.1897201716522647e-05,0.5654114321109223,-1.4523701029913587e-05
0.5662055492908533,-0.0002248062634419,0.5662055492908533,-6.849848374564627e-06,0.5662055492908533,-1.185868088654237e-05,0.5662055492908533,-1.701141911345763e-05
0.5669996664707844,-0.0001371993143399,0.5669996664707844,-3.1878455981772254e-05,0.5669996664707844,-9.568371072307698e-06,0.5669996664707844,-1.6953520809598734e-05
0.5677937836507154,-5.919437095788135e-07,0.5677937836507154,-6.762418106871712e-05,0.5677937836507154,-5.5115258339631845e-06,0.5677937836507154,-1.05195046188156e-05
0.5685879008306466,1.066440607637058e-05,0.5685879008306466,-7.973531184890763e-05,0.5685879008306466,-2.263290540506889e-06,0.5685879008306466,-7.55322e-06
0.5693820180105776,-2.9534048082927544e-05,0.5693820180105776,-7.139782005344198e-05,0.5693820180105776,1.3699275930207538e-06,0.5693820180105776,-7.709208912738956e-06
0.5701761351905087,-8.268870274844394e-05,0.5701761351905087,-7.00720349363606e-05,0.5701761351905087,2.0254240121001324e-06,0.5701761351905087,-1.000002309541462e-05
0.5709702523704397,-0.0001229978143642,0.5709702523704397,-6.415911830932313e-05,0.5709702523704397,1.84634e-06,0.5709702523704397,-1.1264993651315989e-05
0.5717643695503708,-9.453284704900592e-05,0.5717643695503708,-3.0749749141293975e-05,0.5717643695503708,-3.7988951702202864e-06,0.5717643695503708,-1.1561053288064137e-05
0.5725584867303019,7.03331366597419e-05,0.5725584867303019,1.2838587715416428e-05,0.5725584867303019,-7.513494388655137e-06,0.5725584867303019,-1.4167885971637844e-05
0.573352603910233,6.573776814264691e-05,0.573352603910233,2.211468087943335e-05,0.573352603910233,-1.0632136570500185e-05,0.573352603910233,-1.5599792621080225e-05
0.5741467210901641,-4.450211119853884e-05,0.5741467210901641,1.1839980694625911e-05,0.5741467210901641,-1.316079212889496e-05,0.5741467210901641,-1.572819606444748e-05
0.5749408382700951,-0.0001259250341851,0.5749408382700951,1.1659857461500584e-05,0.5749408382700951,-1.6594519132140684e-05,0.5749408382700951,-1.6713977497536792e-05
