X [s],L DELTOID POSTERIOR: EMG 5 [V],L DELTOID POSTERIOR: EMG 5->filter (FilterSlidingRMS57) [V]
0.000000e+000,0.000000e+000,0.000000e+000
7.941176e-004,0.000000e+000,0.000000e+000
1.588235e-003,0.000000e+000,0.000000e+000
2.382353e-003,0.000000e+000,0.000000e+000
3.176471e-003,0.000000e+000,0.000000e+000
3.970588e-003,0.000000e+000,0.000000e+000
4.764706e-003,0.000000e+000,0.000000e+000
5.558824e-003,0.000000e+000,0.000000e+000
6.352941e-003,0.000000e+000,0.000000e+000
7.147059e-003,0.000000e+000,0.000000e+000
7.941176e-003,0.000000e+000,0.000000e+000
8.735294e-003,0.000000e+000,0.000000e+000
9.529412e-003,0.000000e+000,0.000000e+000
1.032353e-002,0.000000e+000,0.000000e+000
1.111765e-002,0.000000e+000,0.000000e+000
1.191176e-002,0.000000e+000,0.000000e+000
1.270588e-002,0.000000e+000,0.000000e+000
1.350000e-002,0.000000e+000,0.000000e+000
1.429412e-002,0.000000e+000,0.000000e+000
1.508824e-002,0.000000e+000,0.000000e+000
1.588235e-002,0.000000e+000,0.000000e+000
1.667647e-002,0.000000e+000,0.000000e+000
1.747059e-002,0.000000e+000,0.000000e+000
1.826471e-002,0.000000e+000,0.000000e+000
1.905882e-002,0.000000e+000,0.000000e+000
1.985294e-002,0.000000e+000,0.000000e+000
2.064706e-002,0.000000e+000,0.000000e+000
2.144118e-002,0.000000e+000,0.000000e+000
2.223529e-002,0.000000e+000,0.000000e+000
2.302941e-002,0.000000e+000,0.000000e+000
2.382353e-002,0.000000e+000,0.000000e+000
2.461765e-002,0.000000e+000,0.000000e+000
2.541176e-002,0.000000e+000,0.000000e+000
2.620588e-002,0.000000e+000,0.000000e+000
2.700000e-002,0.000000e+000,0.000000e+000
2.779412e-002,0.000000e+000,0.000000e+000
2.858824e-002,0.000000e+000,0.000000e+000
2.938235e-002,0.000000e+000,0.000000e+000
3.017647e-002,0.000000e+000,0.000000e+000
3.097059e-002,0.000000e+000,0.000000e+000
3.176471e-002,0.000000e+000,0.000000e+000
3.255882e-002,0.000000e+000,0.000000e+000
3.335294e-002,0.000000e+000,0.000000e+000
3.414706e-002,0.000000e+000,0.000000e+000
3.494118e-002,0.000000e+000,0.000000e+000
3.573529e-002,0.000000e+000,0.000000e+000
3.652941e-002,0.000000e+000,0.000000e+000
3.732353e-002,0.000000e+000,0.000000e+000
3.811765e-002,0.000000e+000,0.000000e+000
3.891176e-002,0.000000e+000,0.000000e+000
3.970588e-002,0.000000e+000,0.000000e+000
4.050000e-002,0.000000e+000,0.000000e+000
4.129412e-002,0.000000e+000,0.000000e+000
4.208824e-002,0.000000e+000,0.000000e+000
4.288235e-002,0.000000e+000,0.000000e+000
4.367647e-002,0.000000e+000,0.000000e+000
4.447059e-002,0.000000e+000,0.000000e+000
4.526471e-002,0.000000e+000,0.000000e+000
4.605882e-002,0.000000e+000,0.000000e+000
4.685294e-002,0.000000e+000,0.000000e+000
4.764706e-002,0.000000e+000,0.000000e+000
4.844118e-002,0.000000e+000,0.000000e+000
4.923529e-002,0.000000e+000,0.000000e+000
5.002941e-002,0.000000e+000,0.000000e+000
5.082353e-002,0.000000e+000,0.000000e+000
5.161765e-002,0.000000e+000,0.000000e+000
5.241176e-002,0.000000e+000,0.000000e+000
5.320588e-002,0.000000e+000,0.000000e+000
5.400000e-002,0.000000e+000,0.000000e+000
5.479412e-002,0.000000e+000,0.000000e+000
5.558824e-002,0.000000e+000,0.000000e+000
5.638235e-002,0.000000e+000,0.000000e+000
5.717647e-002,0.000000e+000,0.000000e+000
5.797059e-002,0.000000e+000,0.000000e+000
5.876471e-002,0.000000e+000,0.000000e+000
5.955882e-002,0.000000e+000,0.000000e+000
6.035294e-002,0.000000e+000,0.000000e+000
6.114706e-002,0.000000e+000,0.000000e+000
6.194118e-002,0.000000e+000,0.000000e+000
6.273529e-002,0.000000e+000,0.000000e+000
6.352941e-002,0.000000e+000,0.000000e+000
6.432353e-002,0.000000e+000,0.000000e+000
6.511765e-002,0.000000e+000,0.000000e+000
6.591176e-002,0.000000e+000,0.000000e+000
6.670588e-002,0.000000e+000,0.000000e+000
6.750000e-002,0.000000e+000,0.000000e+000
6.829412e-002,0.000000e+000,0.000000e+000
6.908824e-002,0.000000e+000,0.000000e+000
6.988235e-002,0.000000e+000,0.000000e+000
7.067647e-002,0.000000e+000,0.000000e+000
7.147059e-002,0.000000e+000,0.000000e+000
7.226471e-002,0.000000e+000,0.000000e+000
7.305882e-002,0.000000e+000,0.000000e+000
7.385294e-002,0.000000e+000,0.000000e+000
7.464706e-002,0.000000e+000,0.000000e+000
7.544118e-002,0.000000e+000,0.000000e+000
7.623529e-002,0.000000e+000,0.000000e+000
7.702941e-002,0.000000e+000,0.000000e+000
7.782353e-002,0.000000e+000,0.000000e+000
7.861765e-002,0.000000e+000,0.000000e+000
7.941176e-002,0.000000e+000,0.000000e+000
8.020588e-002,0.000000e+000,0.000000e+000
8.100000e-002,0.000000e+000,0.000000e+000
8.179412e-002,0.000000e+000,0.000000e+000
8.258824e-002,0.000000e+000,0.000000e+000
8.338235e-002,0.000000e+000,0.000000e+000
8.417647e-002,0.000000e+000,0.000000e+000
8.497059e-002,0.000000e+000,0.000000e+000
8.576471e-002,0.000000e+000,0.000000e+000
8.655882e-002,0.000000e+000,0.000000e+000
8.735294e-002,0.000000e+000,0.000000e+000
8.814706e-002,0.000000e+000,0.000000e+000
8.894118e-002,0.000000e+000,0.000000e+000
8.973529e-002,0.000000e+000,0.000000e+000
9.052941e-002,0.000000e+000,0.000000e+000
9.132353e-002,0.000000e+000,0.000000e+000
9.211765e-002,0.000000e+000,0.000000e+000
9.291176e-002,0.000000e+000,0.000000e+000
9.370588e-002,0.000000e+000,0.000000e+000
9.450000e-002,-1.560998e-005,0.000000e+000
9.529412e-002,-1.225299e-005,0.000000e+000
9.608824e-002,-1.225299e-005,0.000000e+000
9.688235e-002,-1.292439e-005,0.000000e+000
9.767647e-002,-1.426719e-005,0.000000e+000
9.847059e-002,-1.158160e-005,0.000000e+000
9.926471e-002,-1.107805e-005,0.000000e+000
1.000588e-001,-1.560998e-005,0.000000e+000
1.008529e-001,-1.426719e-005,0.000000e+000
1.016471e-001,-1.393149e-005,0.000000e+000
1.024412e-001,-1.393149e-005,0.000000e+000
1.032353e-001,-1.292439e-005,0.000000e+000
1.040294e-001,-1.359579e-005,0.000000e+000
1.048235e-001,-1.174945e-005,0.000000e+000
1.056176e-001,-1.225299e-005,0.000000e+000
1.064118e-001,-1.292439e-005,0.000000e+000
1.072059e-001,-1.091020e-005,0.000000e+000
1.080000e-001,-1.426719e-005,0.000000e+000
1.087941e-001,-1.191730e-005,0.000000e+000
1.095882e-001,-1.426719e-005,0.000000e+000
1.103824e-001,-1.493858e-005,0.000000e+000
1.111765e-001,-1.292439e-005,0.000000e+000
1.119706e-001,-1.393149e-005,0.000000e+000
1.127647e-001,-1.628138e-005,0.000000e+000
1.135588e-001,-1.359579e-005,0.000000e+000
1.143529e-001,-1.359579e-005,0.000000e+000
1.151471e-001,-1.393149e-005,0.000000e+000
1.159412e-001,-1.560998e-005,0.000000e+000
1.167353e-001,-1.628138e-005,0.000000e+000
1.175294e-001,-1.661708e-005,0.000000e+000
1.183235e-001,-1.510643e-005,0.000000e+000
1.191176e-001,-1.393149e-005,0.000000e+000
1.199118e-001,-1.393149e-005,0.000000e+000
1.207059e-001,-1.174945e-005,0.000000e+000
1.215000e-001,-1.527428e-005,0.000000e+000
1.222941e-001,-1.359579e-005,0.000000e+000
1.230882e-001,-1.292439e-005,0.000000e+000
1.238824e-001,-1.292439e-005,0.000000e+000
1.246765e-001,-1.359579e-005,0.000000e+000
1.254706e-001,-1.359579e-005,0.000000e+000
1.262647e-001,-1.359579e-005,0.000000e+000
1.270588e-001,-1.426719e-005,0.000000e+000
1.278529e-001,-1.393149e-005,0.000000e+000
1.286471e-001,-1.292439e-005,0.000000e+000
1.294412e-001,-1.292439e-005,0.000000e+000
1.302353e-001,-1.426719e-005,0.000000e+000
1.310294e-001,-1.091020e-005,0.000000e+000
1.318235e-001,-1.023880e-005,0.000000e+000
1.326176e-001,-9.903105e-006,0.000000e+000
1.334118e-001,-1.359579e-005,0.000000e+000
1.342059e-001,-1.460288e-005,0.000000e+000
1.350000e-001,-1.393149e-005,0.000000e+000
1.357941e-001,-1.594568e-005,0.000000e+000
1.365882e-001,-1.292439e-005,0.000000e+000
1.373824e-001,-1.326009e-005,0.000000e+000
1.381765e-001,-1.091020e-005,0.000000e+000
1.389706e-001,-1.124590e-005,0.000000e+000
1.397647e-001,-1.258869e-005,0.000000e+000
1.405588e-001,-1.393149e-005,0.000000e+000
1.413529e-001,-1.292439e-005,0.000000e+000
1.421471e-001,-1.359579e-005,0.000000e+000
1.429412e-001,-1.326009e-005,0.000000e+000
1.437353e-001,-1.225299e-005,0.000000e+000
1.445294e-001,-1.091020e-005,0.000000e+000
1.453235e-001,-1.107805e-005,0.000000e+000
1.461176e-001,-1.158160e-005,0.000000e+000
1.469118e-001,-1.258869e-005,0.000000e+000
1.477059e-001,-1.695277e-005,0.000000e+000
1.485000e-001,-1.493858e-005,0.000000e+000
1.492941e-001,-1.359579e-005,0.000000e+000
1.500882e-001,-1.258869e-005,0.000000e+000
1.508824e-001,-1.292439e-005,0.000000e+000
1.516765e-001,-1.359579e-005,0.000000e+000
1.524706e-001,-1.124590e-005,0.000000e+000
1.532647e-001,-9.567407e-006,0.000000e+000
1.540588e-001,-9.567407e-006,0.000000e+000
1.548529e-001,-1.527428e-005,0.000000e+000
1.556471e-001,-1.560998e-005,0.000000e+000
1.564412e-001,-1.292439e-005,0.000000e+000
1.572353e-001,-1.359579e-005,0.000000e+000
1.580294e-001,-1.695277e-005,0.000000e+000
1.588235e-001,-1.829557e-005,0.000000e+000
1.596176e-001,-1.829557e-005,0.000000e+000
1.604118e-001,-1.393149e-005,0.000000e+000
1.612059e-001,-1.359579e-005,0.000000e+000
1.620000e-001,-1.527428e-005,0.000000e+000
1.627941e-001,-1.258869e-005,0.000000e+000
1.635882e-001,-1.174945e-005,0.000000e+000
1.643824e-001,-1.292439e-005,0.000000e+000
1.651765e-001,-1.091020e-005,0.000000e+000
1.659706e-001,-9.903105e-006,0.000000e+000
1.667647e-001,-1.225299e-005,0.000000e+000
1.675588e-001,-1.359579e-005,0.000000e+000
1.683529e-001,-1.376364e-005,0.000000e+000
1.691471e-001,-1.393149e-005,0.000000e+000
1.699412e-001,-1.107805e-005,0.000000e+000
1.707353e-001,-1.040665e-005,0.000000e+000
1.715294e-001,-9.567407e-006,0.000000e+000
1.723235e-001,-1.174945e-005,0.000000e+000
1.731176e-001,-1.393149e-005,0.000000e+000
1.739118e-001,-1.326009e-005,0.000000e+000
1.747059e-001,-1.493858e-005,0.000000e+000
1.755000e-001,-1.560998e-005,0.000000e+000
1.762941e-001,-1.225299e-005,0.000000e+000
1.770882e-001,-1.191730e-005,0.000000e+000
1.778824e-001,-1.460288e-005,0.000000e+000
1.786765e-001,-1.628138e-005,0.000000e+000
1.794706e-001,-1.309224e-005,0.000000e+000
1.802647e-001,-1.359579e-005,0.000000e+000
1.810588e-001,-1.493858e-005,0.000000e+000
1.818529e-001,-1.091020e-005,0.000000e+000
1.826471e-001,-9.735256e-006,0.000000e+000
1.834412e-001,-9.567407e-006,0.000000e+000
1.842353e-001,-1.292439e-005,0.000000e+000
1.850294e-001,-1.493858e-005,0.000000e+000
1.858235e-001,-1.560998e-005,0.000000e+000
1.866176e-001,-1.577783e-005,0.000000e+000
1.874118e-001,-1.326009e-005,0.000000e+000
1.882059e-001,-1.426719e-005,0.000000e+000
1.890000e-001,-1.510643e-005,0.000000e+000
1.897941e-001,-1.493858e-005,0.000000e+000
1.905882e-001,-1.426719e-005,0.000000e+000
1.913824e-001,-1.628138e-005,0.000000e+000
1.921765e-001,-1.460288e-005,0.000000e+000
1.929706e-001,-1.309224e-005,0.000000e+000
1.937647e-001,-1.275654e-005,0.000000e+000
1.945588e-001,-1.242084e-005,0.000000e+000
1.953529e-001,-1.191730e-005,0.000000e+000
1.961471e-001,-1.326009e-005,0.000000e+000
1.969412e-001,-1.628138e-005,0.000000e+000
1.977353e-001,-1.493858e-005,0.000000e+000
1.985294e-001,-1.560998e-005,0.000000e+000
1.993235e-001,-1.326009e-005,0.000000e+000
2.001176e-001,-1.225299e-005,0.000000e+000
2.009118e-001,-1.040665e-005,0.000000e+000
2.017059e-001,-1.158160e-005,0.000000e+000
2.025000e-001,-1.292439e-005,0.000000e+000
2.032941e-001,-1.426719e-005,0.000000e+000
2.040882e-001,-1.225299e-005,0.000000e+000
2.048824e-001,-1.258869e-005,0.000000e+000
2.056765e-001,-1.040665e-005,0.000000e+000
2.064706e-001,-1.158160e-005,0.000000e+000
2.072647e-001,-1.191730e-005,0.000000e+000
2.080588e-001,-1.242084e-005,0.000000e+000
2.088529e-001,-1.191730e-005,0.000000e+000
2.096471e-001,-1.309224e-005,0.000000e+000
2.104412e-001,-1.292439e-005,0.000000e+000
2.112353e-001,-1.158160e-005,0.000000e+000
2.120294e-001,-1.124590e-005,0.000000e+000
2.128235e-001,-9.567407e-006,0.000000e+000
2.136176e-001,-1.292439e-005,0.000000e+000
2.144118e-001,-1.393149e-005,0.000000e+000
2.152059e-001,-1.124590e-005,0.000000e+000
2.160000e-001,-1.426719e-005,0.000000e+000
2.167941e-001,-1.225299e-005,0.000000e+000
2.175882e-001,-8.896010e-006,0.000000e+000
2.183824e-001,-1.023880e-005,0.000000e+000
2.191765e-001,-1.527428e-005,0.000000e+000
2.199706e-001,-1.560998e-005,0.000000e+000
2.207647e-001,-1.544213e-005,0.000000e+000
2.215588e-001,-1.258869e-005,0.000000e+000
2.223529e-001,-1.309224e-005,0.000000e+000
2.231471e-001,-1.091020e-005,0.000000e+000
2.239412e-001,-1.091020e-005,0.000000e+000
2.247353e-001,-1.426719e-005,0.000000e+000
2.255294e-001,-1.359579e-005,0.000000e+000
2.263235e-001,-1.292439e-005,0.000000e+000
2.271176e-001,-1.124590e-005,0.000000e+000
2.279118e-001,-1.023880e-005,0.000000e+000
2.287059e-001,-1.225299e-005,0.000000e+000
2.295000e-001,-1.359579e-005,0.000000e+000
2.302941e-001,-1.158160e-005,0.000000e+000
2.310882e-001,-1.057450e-005,0.000000e+000
2.318824e-001,-1.158160e-005,0.000000e+000
2.326765e-001,-1.057450e-005,0.000000e+000
2.334706e-001,-1.426719e-005,0.000000e+000
2.342647e-001,-1.695277e-005,0.000000e+000
2.350588e-001,-1.560998e-005,0.000000e+000
2.358529e-001,-1.326009e-005,0.000000e+000
2.366471e-001,-1.225299e-005,0.000000e+000
2.374412e-001,-1.560998e-005,0.000000e+000
2.382353e-001,-1.258869e-005,0.000000e+000
2.390294e-001,-1.225299e-005,0.000000e+000
2.398235e-001,-1.258869e-005,0.000000e+000
2.406176e-001,-1.359579e-005,0.000000e+000
2.414118e-001,-1.493858e-005,0.000000e+000
2.422059e-001,-1.510643e-005,0.000000e+000
2.430000e-001,-1.376364e-005,0.000000e+000
2.437941e-001,-1.376364e-005,0.000000e+000
2.445882e-001,-1.292439e-005,0.000000e+000
2.453824e-001,-1.426719e-005,0.000000e+000
2.461765e-001,-1.460288e-005,0.000000e+000
2.469706e-001,-1.628138e-005,0.000000e+000
2.477647e-001,-1.359579e-005,0.000000e+000
2.485588e-001,-1.393149e-005,0.000000e+000
2.493529e-001,-1.527428e-005,1.052026e-005
2.501471e-001,-1.225299e-005,1.055551e-005
2.509412e-001,-1.393149e-005,1.057814e-005
2.517353e-001,-1.359579e-005,1.060731e-005
2.525294e-001,-1.493858e-005,1.063503e-005
2.533235e-001,-1.527428e-005,1.066839e-005
2.541176e-001,-1.527428e-005,1.070315e-005
2.549118e-001,-1.577783e-005,1.073781e-005
2.557059e-001,-1.493858e-005,1.077466e-005
2.565000e-001,-1.628138e-005,1.080759e-005
2.572941e-001,-1.695277e-005,1.084657e-005
2.580882e-001,-1.762417e-005,1.088869e-005
2.588824e-001,-1.560998e-005,1.093401e-005
2.596765e-001,-1.493858e-005,1.096944e-005
2.604706e-001,-1.695277e-005,1.100179e-005
2.612647e-001,-1.460288e-005,1.104331e-005
2.620588e-001,-1.628138e-005,1.107401e-005
2.628529e-001,-1.493858e-005,1.111207e-005
2.636471e-001,-1.326009e-005,1.114400e-005
2.644412e-001,-1.258869e-005,1.116909e-005
2.652353e-001,-1.493858e-005,1.119167e-005
2.660294e-001,-1.544213e-005,1.122337e-005
2.668235e-001,-1.527428e-005,1.125715e-005
2.676176e-001,-1.426719e-005,1.129011e-005
2.684118e-001,-1.393149e-005,1.131878e-005
2.692059e-001,-1.124590e-005,1.134605e-005
2.700000e-001,-1.023880e-005,1.136379e-005
2.707941e-001,-1.023880e-005,1.137847e-005
2.715882e-001,-6.881819e-006,1.139313e-005
2.723824e-001,-1.191730e-005,1.139974e-005
2.731765e-001,-1.158160e-005,1.141957e-005
2.739706e-001,-1.023880e-005,1.143825e-005
2.747647e-001,-6.210422e-006,1.145284e-005
2.755588e-001,-9.231709e-006,1.145820e-005
2.763529e-001,-8.560311e-006,1.147004e-005
2.771471e-001,-8.392462e-006,1.148021e-005
2.779412e-001,-7.553216e-006,1.148997e-005
2.787353e-001,-8.224612e-006,1.149787e-005
2.795294e-001,-1.023880e-005,1.150724e-005
2.803235e-001,-9.231709e-006,1.152174e-005
2.811176e-001,-7.888914e-006,1.153351e-005
2.819118e-001,-1.023880e-005,1.154210e-005
2.827059e-001,-1.158160e-005,1.155655e-005
2.835000e-001,-1.225299e-005,1.157502e-005
2.842941e-001,-1.359579e-005,1.159566e-005
2.850882e-001,-1.091020e-005,1.162101e-005
2.858824e-001,-1.191730e-005,1.163731e-005
2.866765e-001,-1.191730e-005,1.165673e-005
2.874706e-001,-1.292439e-005,1.167611e-005
2.882647e-001,-1.359579e-005,1.169887e-005
2.890588e-001,-1.359579e-005,1.172400e-005
2.898529e-001,-1.292439e-005,1.174908e-005
2.906471e-001,-1.292439e-005,1.177170e-005
2.914412e-001,-1.460288e-005,1.179427e-005
2.922353e-001,-1.493858e-005,1.182303e-005
2.930294e-001,-1.493858e-005,1.185305e-005
2.938235e-001,-1.695277e-005,1.188299e-005
2.946176e-001,-1.560998e-005,1.192144e-005
2.954118e-001,-1.493858e-005,1.195394e-005
2.962059e-001,-1.493858e-005,1.198363e-005
2.970000e-001,-1.258869e-005,1.201325e-005
2.977941e-001,-1.225299e-005,1.203423e-005
2.985882e-001,-1.258869e-005,1.205408e-005
2.993824e-001,-1.292439e-005,1.207500e-005
3.001765e-001,-1.426719e-005,1.209701e-005
3.009706e-001,-1.292439e-005,1.212377e-005
3.017647e-001,-1.158160e-005,1.214569e-005
3.025588e-001,-1.292439e-005,1.216327e-005
3.033529e-001,-1.426719e-005,1.218511e-005
3.041471e-001,-1.359579e-005,1.221169e-005
3.049412e-001,-1.359579e-005,1.223577e-005
3.057353e-001,-1.393149e-005,1.225980e-005
3.065294e-001,-1.661708e-005,1.228498e-005
3.073235e-001,-1.493858e-005,1.232072e-005
3.081176e-001,-1.359579e-005,1.234953e-005
3.089118e-001,-1.426719e-005,1.237334e-005
3.097059e-001,-1.326009e-005,1.239951e-005
3.105000e-001,-1.023880e-005,1.242207e-005
3.112941e-001,-1.023880e-005,1.243550e-005
3.120882e-001,-1.091020e-005,1.244891e-005
3.128824e-001,-1.292439e-005,1.246413e-005
3.136765e-001,-1.359579e-005,1.248545e-005
3.144706e-001,-1.359579e-005,1.250900e-005
3.152647e-001,-1.426719e-005,1.253251e-005
3.160588e-001,-1.292439e-005,1.255835e-005
3.168529e-001,-1.359579e-005,1.257951e-005
3.176471e-001,-1.460288e-005,1.260289e-005
3.184412e-001,-1.258869e-005,1.262980e-005
3.192353e-001,-1.493858e-005,1.264977e-005
3.200294e-001,-1.460288e-005,1.267783e-005
3.208235e-001,-1.359579e-005,1.270458e-005
3.216176e-001,-1.376364e-005,1.272773e-005
3.224118e-001,-1.560998e-005,1.275141e-005
3.232059e-001,-1.695277e-005,1.278180e-005
3.240000e-001,-1.560998e-005,1.281756e-005
3.247941e-001,-1.326009e-005,1.284779e-005
3.255882e-001,-1.359579e-005,1.286957e-005
3.263824e-001,-1.359579e-005,1.289242e-005
3.271765e-001,-1.460288e-005,1.291523e-005
3.279706e-001,-1.242084e-005,1.294149e-005
3.287647e-001,-1.158160e-005,1.296046e-005
3.295588e-001,-1.359579e-005,1.297693e-005
3.303529e-001,-1.191730e-005,1.299959e-005
3.311471e-001,-1.359579e-005,1.301698e-005
3.319412e-001,-1.258869e-005,1.303957e-005
3.327353e-001,-1.091020e-005,1.305891e-005
3.335294e-001,-1.158160e-005,1.307341e-005
3.343235e-001,-1.258869e-005,1.308974e-005
3.351176e-001,-1.493858e-005,1.310901e-005
3.359118e-001,-1.258869e-005,1.313609e-005
3.367059e-001,-7.721065e-006,1.315528e-005
3.375000e-001,-1.023880e-005,1.316250e-005
3.382941e-001,-1.359579e-005,1.317517e-005
3.390882e-001,-1.191730e-005,1.319749e-005
3.398824e-001,-1.158160e-005,1.321462e-005
3.406765e-001,-1.107805e-005,1.323077e-005
3.414706e-001,-1.292439e-005,1.324553e-005
3.422647e-001,-1.191730e-005,1.326560e-005
3.430588e-001,-1.091020e-005,1.328264e-005
3.438529e-001,-1.376364e-005,1.329690e-005
3.446471e-001,-1.225299e-005,1.329040e-005
3.454412e-001,-1.107805e-005,1.329040e-005
3.462353e-001,-1.393149e-005,1.328712e-005
3.470294e-001,-1.426719e-005,1.329036e-005
3.478235e-001,-1.242084e-005,1.329036e-005
3.486176e-001,-1.225299e-005,1.329277e-005
3.494118e-001,-1.426719e-005,1.329606e-005
3.502059e-001,-1.577783e-005,1.329125e-005
3.510000e-001,-1.527428e-005,1.329669e-005
3.517941e-001,-1.762417e-005,1.330138e-005
3.525882e-001,-1.644922e-005,1.331533e-005
3.533824e-001,-1.695277e-005,1.332770e-005
3.541765e-001,-1.829557e-005,1.333995e-005
3.549706e-001,-1.628138e-005,1.336340e-005
3.557647e-001,-1.359579e-005,1.337709e-005
3.565588e-001,-1.426719e-005,1.337921e-005
3.573529e-001,-1.695277e-005,1.338927e-005
3.581471e-001,-1.426719e-005,1.339924e-005
3.589412e-001,-1.493858e-005,1.340655e-005
3.597353e-001,-1.493858e-005,1.340888e-005
3.605294e-001,-1.359579e-005,1.340888e-005
3.613235e-001,-1.376364e-005,1.341099e-005
3.621176e-001,-1.426719e-005,1.341044e-005
3.629118e-001,-1.359579e-005,1.340313e-005
3.637059e-001,-1.225299e-005,1.340313e-005
3.645000e-001,-1.326009e-005,1.339901e-005
3.652941e-001,-1.628138e-005,1.339684e-005
3.660882e-001,-1.393149e-005,1.339938e-005
3.668824e-001,-1.023880e-005,1.339094e-005
3.676765e-001,-9.567407e-006,1.337056e-005
3.684706e-001,-1.225299e-005,1.335427e-005
3.692647e-001,-1.426719e-005,1.334903e-005
3.700588e-001,-1.426719e-005,1.335016e-005
3.708529e-001,-1.326009e-005,1.335797e-005
3.716471e-001,-1.326009e-005,1.335112e-005
3.724412e-001,-1.023880e-005,1.335004e-005
3.732353e-001,-1.158160e-005,1.334262e-005
3.740294e-001,-1.292439e-005,1.333869e-005
3.748235e-001,-1.158160e-005,1.333656e-005
3.756176e-001,-8.560311e-006,1.333051e-005
3.764118e-001,-8.896010e-006,1.331718e-005
3.772059e-001,-9.567407e-006,1.330229e-005
3.780000e-001,-1.023880e-005,1.329001e-005
3.787941e-001,-1.359579e-005,1.328255e-005
3.795882e-001,-1.359579e-005,1.328469e-005
3.803824e-001,-1.326009e-005,1.328245e-005
3.811765e-001,-1.359579e-005,1.328925e-005
3.819706e-001,-1.393149e-005,1.329884e-005
3.827647e-001,-1.359579e-005,1.331033e-005
3.835588e-001,-1.443504e-005,1.331033e-005
3.843529e-001,-1.628138e-005,1.330974e-005
3.851471e-001,-1.544213e-005,1.331824e-005
3.859412e-001,-1.225299e-005,1.331635e-005
3.867353e-001,-1.091020e-005,1.331432e-005
3.875294e-001,-1.326009e-005,1.330753e-005
3.883235e-001,-1.124590e-005,1.331432e-005
3.891176e-001,-1.158160e-005,1.331432e-005
3.899118e-001,-1.292439e-005,1.331141e-005
3.907059e-001,-1.124590e-005,1.330818e-005
3.915000e-001,-1.359579e-005,1.330332e-005
3.922941e-001,-1.225299e-005,1.330332e-005
3.930882e-001,-1.560998e-005,1.330025e-005
3.938824e-001,-1.560998e-005,1.331144e-005
3.946765e-001,-1.426719e-005,1.332634e-005
3.954706e-001,-1.594568e-005,1.333600e-005
3.962647e-001,-1.493858e-005,1.335033e-005
3.970588e-001,-1.628138e-005,1.335805e-005
3.978529e-001,-1.292439e-005,1.335539e-005
3.986471e-001,-1.191730e-005,1.334869e-005
3.994412e-001,-1.393149e-005,1.334358e-005
4.002353e-001,-1.393149e-005,1.334783e-005
4.010294e-001,-1.393149e-005,1.335106e-005
4.018235e-001,-1.292439e-005,1.335216e-005
4.026176e-001,-1.225299e-005,1.335700e-005
4.034118e-001,-1.292439e-005,1.336398e-005
4.042059e-001,-1.359579e-005,1.337298e-005
4.050000e-001,-1.359579e-005,1.336720e-005
4.057941e-001,-1.309224e-005,1.336020e-005
4.065882e-001,-9.903105e-006,1.336072e-005
4.073824e-001,-1.225299e-005,1.335037e-005
4.081765e-001,-1.091020e-005,1.333399e-005
4.089706e-001,-8.896010e-006,1.330820e-005
4.097647e-001,-1.091020e-005,1.327759e-005
4.105588e-001,-9.567407e-006,1.326858e-005
4.113529e-001,-1.023880e-005,1.325738e-005
4.121471e-001,-1.091020e-005,1.324194e-005
4.129412e-001,-1.057450e-005,1.323720e-005
4.137353e-001,-1.191730e-005,1.323404e-005
4.145294e-001,-1.225299e-005,1.323103e-005
4.153235e-001,-1.292439e-005,1.323477e-005
4.161176e-001,-1.191730e-005,1.324307e-005
4.169118e-001,-1.225299e-005,1.324209e-005
4.177059e-001,-1.493858e-005,1.323792e-005
4.185000e-001,-1.493858e-005,1.324197e-005
4.192941e-001,-1.527428e-005,1.324547e-005
4.200882e-001,-1.628138e-005,1.325876e-005
4.208824e-001,-1.309224e-005,1.327757e-005
4.216765e-001,-1.124590e-005,1.328715e-005
4.224706e-001,-1.225299e-005,1.328576e-005
4.232647e-001,-1.292439e-005,1.328049e-005
4.240588e-001,-1.158160e-005,1.327944e-005
4.248529e-001,-1.292439e-005,1.326876e-005
4.256471e-001,-1.560998e-005,1.325956e-005
4.264412e-001,-1.728847e-005,1.327079e-005
4.272353e-001,-1.426719e-005,1.328960e-005
4.280294e-001,-1.426719e-005,1.328844e-005
4.288235e-001,-1.091020e-005,1.328106e-005
4.296176e-001,-9.231709e-006,1.327478e-005
4.304118e-001,-1.158160e-005,1.326282e-005
4.312059e-001,-1.292439e-005,1.325213e-005
4.320000e-001,-1.158160e-005,1.325790e-005
4.327941e-001,-1.359579e-005,1.326262e-005
4.335882e-001,-1.443504e-005,1.327382e-005
4.343824e-001,-1.393149e-005,1.327878e-005
4.351765e-001,-1.443504e-005,1.327529e-005
4.359706e-001,-1.292439e-005,1.327106e-005
4.367647e-001,-1.023880e-005,1.326123e-005
4.375588e-001,-1.091020e-005,1.325270e-005
4.383529e-001,-1.057450e-005,1.324254e-005
4.391471e-001,-1.359579e-005,1.322854e-005
4.399412e-001,-1.359579e-005,1.322393e-005
4.407353e-001,-1.292439e-005,1.322167e-005
4.415294e-001,-1.493858e-005,1.320986e-005
4.423235e-001,-1.426719e-005,1.321105e-005
4.431176e-001,-1.225299e-005,1.321493e-005
4.439118e-001,-1.393149e-005,1.321341e-005
4.447059e-001,-1.174945e-005,1.321821e-005
4.455000e-001,-1.426719e-005,1.321773e-005
4.462941e-001,-1.258869e-005,1.322107e-005
4.470882e-001,-1.426719e-005,1.320822e-005
4.478824e-001,-1.493858e-005,1.320586e-005
4.486765e-001,-1.527428e-005,1.320338e-005
4.494706e-001,-1.359579e-005,1.321031e-005
4.502647e-001,-1.426719e-005,1.321450e-005
4.510588e-001,-1.225299e-005,1.322597e-005
4.518529e-001,-1.191730e-005,1.322790e-005
4.526471e-001,-1.376364e-005,1.322489e-005
4.534412e-001,-1.091020e-005,1.322319e-005
4.542353e-001,-9.567407e-006,1.321944e-005
4.550294e-001,-1.258869e-005,1.321137e-005
4.558235e-001,-1.326009e-005,1.321742e-005
4.566176e-001,-1.258869e-005,1.322244e-005
4.574118e-001,-1.359579e-005,1.322442e-005
4.582059e-001,-1.225299e-005,1.322810e-005
4.590000e-001,-1.158160e-005,1.322908e-005
4.597941e-001,-1.023880e-005,1.322459e-005
4.605882e-001,-9.063859e-006,1.321710e-005
4.613824e-001,-9.567407e-006,1.321084e-005
4.621765e-001,-1.158160e-005,1.320663e-005
4.629706e-001,-9.063859e-006,1.321176e-005
4.637647e-001,-1.023880e-005,1.320153e-005
4.645588e-001,-1.258869e-005,1.319076e-005
4.653529e-001,-1.292439e-005,1.319462e-005
4.661471e-001,-1.560998e-005,1.319021e-005
4.669412e-001,-1.560998e-005,1.320150e-005
4.677353e-001,-1.091020e-005,1.322133e-005
4.685294e-001,-1.225299e-005,1.322304e-005
4.693235e-001,-1.023880e-005,1.321302e-005
4.701176e-001,-1.460288e-005,1.319628e-005
4.709118e-001,-1.359579e-005,1.319323e-005
4.717059e-001,-1.174945e-005,1.319642e-005
4.725000e-001,-1.426719e-005,1.319239e-005
4.732941e-001,-1.493858e-005,1.320259e-005
4.740882e-001,-1.326009e-005,1.321514e-005
4.748824e-001,-1.359579e-005,1.321180e-005
4.756765e-001,-1.527428e-005,1.321180e-005
4.764706e-001,-1.594568e-005,1.321979e-005
4.772647e-001,-1.292439e-005,1.323517e-005
4.780588e-001,-1.292439e-005,1.324265e-005
4.788529e-001,-1.510643e-005,1.324468e-005
4.796471e-001,-1.527428e-005,1.324990e-005
4.804412e-001,-1.493858e-005,1.326181e-005
4.812353e-001,-1.359579e-005,1.327517e-005
4.820294e-001,-1.326009e-005,1.328125e-005
4.828235e-001,-1.426719e-005,1.328893e-005
4.836176e-001,-1.359579e-005,1.328893e-005
4.844118e-001,-1.326009e-005,1.327663e-005
4.852059e-001,-1.426719e-005,1.326849e-005
4.860000e-001,-1.258869e-005,1.327182e-005
4.867941e-001,-1.359579e-005,1.327282e-005
4.875882e-001,-1.560998e-005,1.326576e-005
4.883824e-001,-1.359579e-005,1.327598e-005
4.891765e-001,-1.493858e-005,1.328014e-005
4.899706e-001,-1.493858e-005,1.328790e-005
4.907647e-001,-1.393149e-005,1.329249e-005
4.915588e-001,-1.426719e-005,1.328901e-005
4.923529e-001,-1.326009e-005,1.328605e-005
4.931471e-001,-1.225299e-005,1.328442e-005
4.939412e-001,-1.493858e-005,1.327971e-005
4.947353e-001,-1.393149e-005,1.328644e-005
4.955294e-001,-1.091020e-005,1.328530e-005
4.963235e-001,-1.107805e-005,1.327401e-005
4.971176e-001,-1.158160e-005,1.325692e-005
4.979118e-001,-1.258869e-005,1.325082e-005
4.987059e-001,-1.057450e-005,1.324654e-005
4.995000e-001,-9.231709e-006,1.323193e-005
5.002941e-001,-1.359579e-005,1.322412e-005
5.010882e-001,-1.124590e-005,1.322301e-005
5.018824e-001,-1.158160e-005,1.321597e-005
5.026765e-001,-1.158160e-005,1.320524e-005
5.034706e-001,-9.567407e-006,1.319328e-005
5.042647e-001,-1.158160e-005,1.317616e-005
5.050588e-001,-1.107805e-005,1.316228e-005
5.058529e-001,-1.493858e-005,1.315012e-005
5.066471e-001,-1.628138e-005,1.314504e-005
5.074412e-001,-1.493858e-005,1.314234e-005
5.082353e-001,-1.644922e-005,1.313174e-005
5.090294e-001,-1.628138e-005,1.313500e-005
5.098235e-001,-1.393149e-005,1.314008e-005
5.106176e-001,-1.191730e-005,1.312877e-005
5.114118e-001,-1.292439e-005,1.312013e-005
5.122059e-001,-1.460288e-005,1.310822e-005
5.130000e-001,-1.460288e-005,1.310702e-005
5.137941e-001,-1.560998e-005,1.311156e-005
5.145882e-001,-1.174945e-005,1.312191e-005
5.153824e-001,-1.560998e-005,1.311157e-005
5.161765e-001,-1.359579e-005,1.311221e-005
5.169706e-001,-1.023880e-005,1.310632e-005
5.177647e-001,-1.258869e-005,1.309432e-005
5.185588e-001,-1.292439e-005,1.308999e-005
5.193529e-001,-1.426719e-005,1.309492e-005
5.201471e-001,-1.292439e-005,1.310692e-005
5.209412e-001,-1.258869e-005,1.311448e-005
5.217353e-001,-1.426719e-005,1.312796e-005
5.225294e-001,-1.326009e-005,1.313542e-005
5.233235e-001,-1.225299e-005,1.314048e-005
5.241176e-001,-1.510643e-005,1.314597e-005
5.249118e-001,-1.258869e-005,1.316892e-005
5.257059e-001,-1.091020e-005,1.317777e-005
5.265000e-001,-1.326009e-005,1.318330e-005
5.272941e-001,-1.493858e-005,1.319602e-005
5.280882e-001,-1.292439e-005,1.321605e-005
5.288824e-001,-9.231709e-006,1.322802e-005
5.296765e-001,-9.567407e-006,1.322566e-005
5.304706e-001,-1.124590e-005,1.322642e-005
5.312647e-001,-1.359579e-005,1.323415e-005
5.320588e-001,-1.527428e-005,1.324378e-005
5.328529e-001,-1.493858e-005,1.325569e-005
5.336471e-001,-1.628138e-005,1.326446e-005
5.344412e-001,-1.359579e-005,1.327409e-005
5.352353e-001,-1.460288e-005,1.328199e-005
5.360294e-001,-1.560998e-005,1.329052e-005
5.368235e-001,-1.292439e-005,1.330269e-005
5.376176e-001,-1.225299e-005,1.330269e-005
5.384118e-001,-1.258869e-005,1.329854e-005
5.392059e-001,-1.191730e-005,1.329538e-005
5.400000e-001,-1.426719e-005,1.329238e-005
5.407941e-001,-1.393149e-005,1.329676e-005
5.415882e-001,-1.527428e-005,1.329446e-005
5.423824e-001,-1.594568e-005,1.329568e-005
5.431765e-001,-1.124590e-005,1.329940e-005
5.439706e-001,-1.158160e-005,1.328012e-005
5.447647e-001,-1.393149e-005,1.326698e-005
5.455588e-001,-1.359579e-005,1.326349e-005
5.463529e-001,-1.091020e-005,1.325889e-005
5.471471e-001,-1.124590e-005,1.325415e-005
5.479412e-001,-1.023880e-005,1.325131e-005
5.487353e-001,-8.896010e-006,1.324486e-005
5.495294e-001,-1.091020e-005,1.323429e-005
5.503235e-001,-1.225299e-005,1.322411e-005
5.511176e-001,-1.124590e-005,1.322208e-005
5.519118e-001,-1.443504e-005,1.322116e-005
5.527059e-001,-1.560998e-005,1.322613e-005
5.535000e-001,-1.275654e-005,1.323096e-005
5.542941e-001,-1.091020e-005,1.322830e-005
5.550882e-001,-1.326009e-005,1.322037e-005
5.558824e-001,-1.560998e-005,1.321818e-005
5.566765e-001,-1.359579e-005,1.321426e-005
5.574706e-001,-1.091020e-005,1.320965e-005
5.582647e-001,-9.735256e-006,1.320171e-005
5.590588e-001,-1.326009e-005,1.318858e-005
5.598529e-001,-1.527428e-005,1.318858e-005
5.606471e-001,-1.493858e-005,1.320409e-005
5.614412e-001,-1.359579e-005,1.321835e-005
5.622353e-001,-1.174945e-005,1.322627e-005
5.630294e-001,-1.225299e-005,1.322278e-005
5.638235e-001,-1.292439e-005,1.321860e-005
5.646176e-001,-1.326009e-005,1.321646e-005
5.654118e-001,-1.393149e-005,1.321312e-005
5.662059e-001,-1.292439e-005,1.321638e-005
5.670000e-001,-1.124590e-005,1.321423e-005
5.677941e-001,-1.174945e-005,1.320377e-005
5.685882e-001,-1.191730e-005,1.320131e-005
5.693824e-001,-1.258869e-005,1.319152e-005
5.701765e-001,-1.359579e-005,1.318490e-005
5.709706e-001,-1.376364e-005,1.318490e-005
5.717647e-001,-1.560998e-005,1.318490e-005
5.725588e-001,-1.460288e-005,1.318490e-005
5.733529e-001,-1.225299e-005,1.317595e-005
5.741471e-001,-1.225299e-005,1.316464e-005
5.749412e-001,-1.292439e-005,1.316153e-005
5.757353e-001,-9.231709e-006,1.315937e-005
5.765294e-001,-9.567407e-006,1.314731e-005
5.773235e-001,-1.359579e-005,1.313256e-005
5.781176e-001,-1.292439e-005,1.313627e-005
5.789118e-001,-1.107805e-005,1.314026e-005
5.797059e-001,-1.628138e-005,1.313273e-005
5.805000e-001,-1.644922e-005,1.314764e-005
5.812941e-001,-1.426719e-005,1.315802e-005
5.820882e-001,-1.393149e-005,1.316347e-005
5.828824e-001,-1.460288e-005,1.317255e-005
5.836765e-001,-1.527428e-005,1.318211e-005
5.844706e-001,-1.443504e-005,1.319115e-005
5.852647e-001,-1.359579e-005,1.318936e-005
5.860588e-001,-1.359579e-005,1.319254e-005
5.868529e-001,-1.326009e-005,1.320765e-005
5.876471e-001,-1.426719e-005,1.321621e-005
5.884412e-001,-1.158160e-005,1.321846e-005
5.892353e-001,-1.124590e-005,1.321751e-005
5.900294e-001,-1.292439e-005,1.321659e-005
5.908235e-001,-1.359579e-005,1.322193e-005
5.916176e-001,-1.628138e-005,1.322407e-005
5.924118e-001,-1.560998e-005,1.323888e-005
5.932059e-001,-1.426719e-005,1.325386e-005
5.940000e-001,-1.426719e-005,1.325556e-005
5.947941e-001,-1.510643e-005,1.326197e-005
5.955882e-001,-1.527428e-005,1.327463e-005
5.963824e-001,-1.393149e-005,1.327934e-005
5.971765e-001,-1.258869e-005,1.327820e-005
5.979706e-001,-1.158160e-005,1.327870e-005
5.987647e-001,-1.191730e-005,1.327679e-005
5.995588e-001,-1.124590e-005,1.326940e-005
6.003529e-001,-1.292439e-005,1.325470e-005
6.011471e-001,-1.393149e-005,1.324674e-005
6.019412e-001,-1.107805e-005,1.323272e-005
6.027353e-001,-1.091020e-005,1.321492e-005
6.035294e-001,-1.258869e-005,1.319461e-005
6.043235e-001,-1.091020e-005,1.317333e-005
6.051176e-001,-1.091020e-005,1.315566e-005
6.059118e-001,-1.225299e-005,1.314769e-005
6.067059e-001,-1.107805e-005,1.314122e-005
6.075000e-001,-1.443504e-005,1.312125e-005
6.082941e-001,-1.527428e-005,1.312184e-005
6.090882e-001,-1.292439e-005,1.312307e-005
6.098824e-001,-1.158160e-005,1.311626e-005
6.106765e-001,-1.225299e-005,1.311010e-005
6.114706e-001,-1.107805e-005,1.310532e-005
6.122647e-001,-1.225299e-005,1.309550e-005
6.130588e-001,-9.567407e-006,1.309128e-005
6.138529e-001,-9.903105e-006,1.308415e-005
6.146471e-001,-1.393149e-005,1.307468e-005
6.154412e-001,-1.560998e-005,1.306603e-005
6.162353e-001,-1.057450e-005,1.307207e-005
6.170294e-001,-1.091020e-005,1.307292e-005
6.178235e-001,-1.225299e-005,1.307627e-005
6.186176e-001,-1.628138e-005,1.307627e-005
6.194118e-001,-1.695277e-005,1.308376e-005
6.202059e-001,-1.762417e-005,1.309396e-005
6.210000e-001,-1.762417e-005,1.311035e-005
6.217941e-001,-1.695277e-005,1.312671e-005
6.225882e-001,-1.695277e-005,1.314883e-005
6.233824e-001,-1.628138e-005,1.316738e-005
6.241765e-001,-1.493858e-005,1.317923e-005
6.249706e-001,-1.258869e-005,1.318998e-005
6.257647e-001,-1.040665e-005,1.320027e-005
6.265588e-001,-1.174945e-005,1.320378e-005
6.273529e-001,-1.158160e-005,1.320939e-005
6.281471e-001,-1.326009e-005,1.321292e-005
6.289412e-001,-1.225299e-005,1.321184e-005
6.297353e-001,-1.191730e-005,1.320765e-005
6.305294e-001,-1.158160e-005,1.320357e-005
6.313235e-001,-1.493858e-005,1.319746e-005
6.321176e-001,-1.393149e-005,1.320097e-005
6.329118e-001,-1.124590e-005,1.320208e-005
6.337059e-001,-1.493858e-005,1.319220e-005
6.345000e-001,-1.426719e-005,1.318714e-005
6.352941e-001,-1.359579e-005,1.318292e-005
6.360882e-001,-1.292439e-005,1.318711e-005
6.368824e-001,-1.292439e-005,1.319291e-005
6.376765e-001,-1.594568e-005,1.319185e-005
6.384706e-001,-1.644922e-005,1.320726e-005
6.392647e-001,-1.292439e-005,1.322371e-005
6.400588e-001,-1.258869e-005,1.322371e-005
6.408529e-001,-1.091020e-005,1.322756e-005
6.416471e-001,-1.292439e-005,1.321963e-005
6.424412e-001,-1.426719e-005,1.322167e-005
6.432353e-001,-1.493858e-005,1.321684e-005
6.440294e-001,-1.661708e-005,1.321437e-005
6.448235e-001,-1.594568e-005,1.322311e-005
6.456176e-001,-1.560998e-005,1.322311e-005
6.464118e-001,-1.292439e-005,1.322558e-005
6.472059e-001,-1.426719e-005,1.321377e-005
6.480000e-001,-1.493858e-005,1.321817e-005
6.487941e-001,-1.191730e-005,1.322794e-005
6.495882e-001,-1.359579e-005,1.322167e-005
6.503824e-001,-1.225299e-005,1.322056e-005
6.511765e-001,-1.091020e-005,1.321526e-005
6.519706e-001,-1.258869e-005,1.320947e-005
6.527647e-001,-1.057450e-005,1.321048e-005
6.535588e-001,-1.040665e-005,1.320382e-005
6.543529e-001,-1.225299e-005,1.319459e-005
6.551471e-001,-9.567407e-006,1.319040e-005
6.559412e-001,-9.567407e-006,1.318075e-005
6.567353e-001,-1.091020e-005,1.317996e-005
6.575294e-001,-1.359579e-005,1.317620e-005
6.583235e-001,-1.426719e-005,1.318416e-005
6.591176e-001,-1.493858e-005,1.319917e-005
6.599118e-001,-1.493858e-005,1.321173e-005
6.607059e-001,-1.292439e-005,1.322758e-005
6.615000e-001,-1.258869e-005,1.323507e-005
6.622941e-001,-1.426719e-005,1.323982e-005
6.630882e-001,-1.292439e-005,1.325084e-005
6.638824e-001,-1.275654e-005,1.325385e-005
6.646765e-001,-1.225299e-005,1.325536e-005
6.654706e-001,-1.191730e-005,1.325333e-005
6.662647e-001,-1.174945e-005,1.325333e-005
6.670588e-001,-1.091020e-005,1.325188e-005
6.678529e-001,-1.460288e-005,1.323936e-005
6.686471e-001,-1.225299e-005,1.323817e-005
6.694412e-001,-8.896010e-006,1.322816e-005
6.702353e-001,-1.309224e-005,1.320576e-005
6.710294e-001,-1.393149e-005,1.320576e-005
6.718235e-001,-1.762417e-005,1.321391e-005
6.726176e-001,-1.678492e-005,1.323323e-005
6.734118e-001,-1.292439e-005,1.324703e-005
6.742059e-001,-1.393149e-005,1.325098e-005
6.750000e-001,-1.158160e-005,1.325423e-005
6.757941e-001,-1.225299e-005,1.324107e-005
6.765882e-001,-1.023880e-005,1.322316e-005
6.773824e-001,-9.903105e-006,1.321127e-005
6.781765e-001,-1.225299e-005,1.319855e-005
6.789706e-001,-1.124590e-005,1.320230e-005
6.797647e-001,-1.107805e-005,1.320728e-005
6.805588e-001,-1.158160e-005,1.320590e-005
6.813529e-001,-1.359579e-005,1.320193e-005
6.821471e-001,-1.359579e-005,1.320805e-005
6.829412e-001,-1.460288e-005,1.320805e-005
6.837353e-001,-1.560998e-005,1.320864e-005
6.845294e-001,-1.594568e-005,1.321461e-005
6.853235e-001,-1.493858e-005,1.322014e-005
6.861176e-001,-1.309224e-005,1.322690e-005
6.869118e-001,-1.225299e-005,1.323491e-005
6.877059e-001,-1.426719e-005,1.323865e-005
6.885000e-001,-1.393149e-005,1.324968e-005
6.892941e-001,-1.292439e-005,1.325079e-005
6.900882e-001,-1.326009e-005,1.324865e-005
6.908824e-001,-1.242084e-005,1.324971e-005
6.916765e-001,-9.567407e-006,1.324143e-005
6.924706e-001,-1.023880e-005,1.322795e-005
6.932647e-001,-1.158160e-005,1.322250e-005
6.940588e-001,-1.527428e-005,1.321527e-005
6.948529e-001,-1.258869e-005,1.322675e-005
6.956471e-001,-1.628138e-005,1.322132e-005
6.964412e-001,-1.896696e-005,1.323415e-005
6.972353e-001,-1.359579e-005,1.325293e-005
6.980294e-001,-1.393149e-005,1.324833e-005
6.988235e-001,-1.426719e-005,1.324361e-005
6.996176e-001,-1.292439e-005,1.324586e-005
7.004118e-001,-1.359579e-005,1.324147e-005
7.012059e-001,-1.426719e-005,1.324565e-005
7.020000e-001,-9.231709e-006,1.325304e-005
7.027941e-001,-1.091020e-005,1.324051e-005
7.035882e-001,-1.225299e-005,1.324051e-005
7.043824e-001,-1.191730e-005,1.324756e-005
7.051765e-001,-9.903105e-006,1.324558e-005
7.059706e-001,-1.124590e-005,1.323623e-005
7.067647e-001,-1.124590e-005,1.323238e-005
7.075588e-001,-1.493858e-005,1.322535e-005
7.083529e-001,-1.560998e-005,1.323414e-005
7.091471e-001,-1.628138e-005,1.324732e-005
7.099412e-001,-1.628138e-005,1.326656e-005
7.107353e-001,-1.460288e-005,1.328850e-005
7.115294e-001,-9.567407e-006,1.330308e-005
7.123235e-001,-1.225299e-005,1.329798e-005
7.131176e-001,-1.527428e-005,1.330612e-005
7.139118e-001,-1.628138e-005,1.332148e-005
7.147059e-001,-1.493858e-005,1.333422e-005
7.155000e-001,-1.359579e-005,1.334092e-005
7.162941e-001,-8.896010e-006,1.333390e-005
7.170882e-001,-9.567407e-006,1.331423e-005
7.178824e-001,-1.091020e-005,1.331094e-005
7.186765e-001,-1.393149e-005,1.330722e-005
7.194706e-001,-1.158160e-005,1.331790e-005
7.202647e-001,-1.091020e-005,1.330844e-005
7.210588e-001,-9.231709e-006,1.330056e-005
7.218529e-001,-1.191730e-005,1.329423e-005
7.226471e-001,-1.493858e-005,1.328686e-005
7.234412e-001,-1.460288e-005,1.328686e-005
7.242353e-001,-1.527428e-005,1.329134e-005
7.250294e-001,-1.661708e-005,1.329715e-005
7.258235e-001,-1.292439e-005,1.330227e-005
7.266176e-001,-1.393149e-005,1.329183e-005
7.274118e-001,-1.628138e-005,1.329507e-005
7.282059e-001,-1.326009e-005,1.330681e-005
7.290000e-001,-1.359579e-005,1.330054e-005
7.297941e-001,-1.628138e-005,1.329474e-005
7.305882e-001,-1.527428e-005,1.329976e-005
7.313824e-001,-1.258869e-005,1.330556e-005
7.321765e-001,-1.628138e-005,1.330348e-005
7.329706e-001,-1.527428e-005,1.331084e-005
7.337647e-001,-1.393149e-005,1.331664e-005
7.345588e-001,-1.158160e-005,1.331882e-005
7.353529e-001,-1.292439e-005,1.331052e-005
7.361471e-001,-1.426719e-005,1.331154e-005
7.369412e-001,-1.091020e-005,1.331378e-005
7.377353e-001,-1.023880e-005,1.329887e-005
7.385294e-001,-1.292439e-005,1.328928e-005
7.393235e-001,-1.191730e-005,1.328256e-005
7.401176e-001,-9.567407e-006,1.327282e-005
7.409118e-001,-8.224612e-006,1.326052e-005
7.417059e-001,-1.258869e-005,1.324419e-005
7.425000e-001,-1.560998e-005,1.324210e-005
7.432941e-001,-1.275654e-005,1.325334e-005
7.440882e-001,-1.359579e-005,1.324608e-005
7.448824e-001,-1.359579e-005,1.324497e-005
7.456765e-001,-1.326009e-005,1.325288e-005
7.464706e-001,-1.359579e-005,1.325926e-005
7.472647e-001,-1.393149e-005,1.326535e-005
7.480588e-001,-1.393149e-005,1.326962e-005
7.488529e-001,-1.359579e-005,1.327949e-005
7.496471e-001,-1.376364e-005,1.329143e-005
7.504412e-001,-1.158160e-005,1.329198e-005
7.512353e-001,-1.460288e-005,1.329290e-005
7.520294e-001,-1.527428e-005,1.330237e-005
7.528235e-001,-1.493858e-005,1.331424e-005
7.536176e-001,-1.359579e-005,1.332997e-005
7.544118e-001,-1.661708e-005,1.333603e-005
7.552059e-001,-1.795987e-005,1.335433e-005
7.560000e-001,-1.393149e-005,1.336618e-005
7.567941e-001,-1.309224e-005,1.335772e-005
7.575882e-001,-1.225299e-005,1.335154e-005
7.583824e-001,-1.225299e-005,1.333717e-005
7.591765e-001,-1.460288e-005,1.332344e-005
7.599706e-001,-1.158160e-005,1.332573e-005
7.607647e-001,-1.158160e-005,1.332479e-005
7.615588e-001,-1.560998e-005,1.332086e-005
7.623529e-001,-1.225299e-005,1.332449e-005
7.631471e-001,-1.023880e-005,1.331695e-005
7.639412e-001,-1.174945e-005,1.330034e-005
7.647353e-001,-1.091020e-005,1.330034e-005
7.655294e-001,-1.091020e-005,1.328541e-005
7.663235e-001,-1.359579e-005,1.327751e-005
7.671176e-001,-1.292439e-005,1.328711e-005
7.679118e-001,-1.158160e-005,1.328813e-005
7.687059e-001,-9.735256e-006,1.328419e-005
7.695000e-001,-9.735256e-006,1.327114e-005
7.702941e-001,-1.091020e-005,1.326247e-005
7.710882e-001,-1.124590e-005,1.325773e-005
7.718824e-001,-1.292439e-005,1.324847e-005
7.726765e-001,-1.158160e-005,1.324742e-005
7.734706e-001,-1.174945e-005,1.324549e-005
7.742647e-001,-1.258869e-005,1.323465e-005
7.750588e-001,-1.091020e-005,1.323465e-005
7.758529e-001,-1.225299e-005,1.323465e-005
7.766471e-001,-1.493858e-005,1.323156e-005
7.774412e-001,-1.174945e-005,1.323156e-005
7.782353e-001,-1.359579e-005,1.322807e-005
7.790294e-001,-1.527428e-005,1.324006e-005
7.798235e-001,-1.359579e-005,1.325709e-005
7.806176e-001,-1.560998e-005,1.326410e-005
7.814118e-001,-1.560998e-005,1.327116e-005
7.822059e-001,-1.292439e-005,1.327241e-005
7.830000e-001,-1.225299e-005,1.326567e-005
7.837941e-001,-1.292439e-005,1.325187e-005
7.845882e-001,-1.426719e-005,1.324973e-005
7.853824e-001,-1.493858e-005,1.324856e-005
7.861765e-001,-1.560998e-005,1.324610e-005
7.869706e-001,-1.527428e-005,1.325531e-005
7.877647e-001,-1.258869e-005,1.326529e-005
7.885588e-001,-1.023880e-005,1.326529e-005
7.893529e-001,-9.567407e-006,1.326083e-005
7.901471e-001,-1.091020e-005,1.324737e-005
7.909412e-001,-7.049668e-006,1.323835e-005
7.917353e-001,-1.023880e-005,1.321624e-005
7.925294e-001,-1.292439e-005,1.319823e-005
7.933235e-001,-1.426719e-005,1.320312e-005
7.941176e-001,-1.393149e-005,1.321149e-005
7.949118e-001,-1.258869e-005,1.321149e-005
7.957059e-001,-1.426719e-005,1.320831e-005
7.965000e-001,-1.527428e-005,1.321850e-005
7.972941e-001,-1.292439e-005,1.323136e-005
7.980882e-001,-1.628138e-005,1.323885e-005
7.988824e-001,-1.527428e-005,1.326119e-005
7.996765e-001,-1.359579e-005,1.327491e-005
8.004706e-001,-1.560998e-005,1.327907e-005
8.012647e-001,-1.493858e-005,1.329312e-005
8.020588e-001,-1.426719e-005,1.329489e-005
8.028529e-001,-1.326009e-005,1.329008e-005
8.036471e-001,-1.359579e-005,1.329165e-005
8.044412e-001,-1.527428e-005,1.329953e-005
8.052353e-001,-1.728847e-005,1.330641e-005
8.060294e-001,-1.493858e-005,1.331302e-005
8.068235e-001,-1.359579e-005,1.331760e-005
8.076176e-001,-1.258869e-005,1.332547e-005
8.084118e-001,-1.292439e-005,1.333308e-005
8.092059e-001,-1.393149e-005,1.333203e-005
8.100000e-001,-1.124590e-005,1.332734e-005
8.107941e-001,-1.091020e-005,1.331579e-005
8.115882e-001,-1.191730e-005,1.330791e-005
8.123824e-001,-8.896010e-006,1.330839e-005
8.131765e-001,-1.091020e-005,1.329989e-005
8.139706e-001,-1.023880e-005,1.329414e-005
8.147647e-001,-1.393149e-005,1.328564e-005
8.155588e-001,-1.091020e-005,1.328564e-005
8.163529e-001,-1.091020e-005,1.327988e-005
8.171471e-001,-1.527428e-005,1.327899e-005
8.179412e-001,-1.560998e-005,1.329041e-005
8.187353e-001,-1.594568e-005,1.330258e-005
8.195294e-001,-1.191730e-005,1.331404e-005
8.203235e-001,-8.224612e-006,1.330892e-005
8.211176e-001,-9.903105e-006,1.329434e-005
8.219118e-001,-1.493858e-005,1.327689e-005
8.227059e-001,-1.695277e-005,1.327808e-005
8.235000e-001,-1.359579e-005,1.329453e-005
8.242941e-001,-1.493858e-005,1.329868e-005
8.250882e-001,-1.258869e-005,1.330540e-005
8.258824e-001,-1.107805e-005,1.331416e-005
8.266765e-001,-1.124590e-005,1.331789e-005
8.274706e-001,-1.326009e-005,1.331091e-005
8.282647e-001,-1.393149e-005,1.331196e-005
8.290588e-001,-1.359579e-005,1.332050e-005
8.298529e-001,-1.292439e-005,1.331090e-005
8.306471e-001,-1.393149e-005,1.329851e-005
8.314412e-001,-1.225299e-005,1.329738e-005
8.322353e-001,-1.359579e-005,1.329211e-005
8.330294e-001,-1.359579e-005,1.328871e-005
8.338235e-001,-1.225299e-005,1.328290e-005
8.346176e-001,-1.258869e-005,1.327592e-005
8.354118e-001,-1.258869e-005,1.327276e-005
8.362059e-001,-1.628138e-005,1.326959e-005
8.370000e-001,-1.510643e-005,1.328030e-005
8.377941e-001,-1.493858e-005,1.328325e-005
8.385882e-001,-1.560998e-005,1.329392e-005
8.393824e-001,-1.695277e-005,1.330795e-005
8.401765e-001,-1.510643e-005,1.332235e-005
8.409706e-001,-1.577783e-005,1.332753e-005
8.417647e-001,-1.426719e-005,1.332560e-005
8.425588e-001,-1.426719e-005,1.332080e-005
8.433529e-001,-1.628138e-005,1.332080e-005
8.441471e-001,-1.560998e-005,1.332816e-005
8.449412e-001,-1.258869e-005,1.333000e-005
8.457353e-001,-1.057450e-005,1.332106e-005
8.465294e-001,-1.158160e-005,1.331123e-005
8.473235e-001,-1.141375e-005,1.330831e-005
8.481176e-001,-9.903105e-006,1.330785e-005
8.489118e-001,-1.359579e-005,1.330259e-005
8.497059e-001,-1.326009e-005,1.330958e-005
8.505000e-001,-1.158160e-005,1.331063e-005
8.512941e-001,-1.158160e-005,1.330345e-005
8.520882e-001,-1.091020e-005,1.330482e-005
8.528824e-001,-1.258869e-005,1.330482e-005
8.536765e-001,-1.091020e-005,1.330482e-005
8.544706e-001,-6.881819e-006,1.330482e-005
8.552647e-001,-9.567407e-006,1.329624e-005
8.560588e-001,-1.292439e-005,1.328922e-005
8.568529e-001,-1.292439e-005,1.329453e-005
8.576471e-001,-1.191730e-005,1.328958e-005
8.584412e-001,-1.443504e-005,1.327864e-005
8.592353e-001,-1.191730e-005,1.328359e-005
8.600294e-001,-1.460288e-005,1.328454e-005
8.608235e-001,-1.644922e-005,1.329210e-005
8.616176e-001,-1.359579e-005,1.330980e-005
8.624118e-001,-1.292439e-005,1.331395e-005
8.632059e-001,-1.393149e-005,1.332298e-005
8.640000e-001,-1.158160e-005,1.333445e-005
8.647941e-001,-1.191730e-005,1.332729e-005
8.655882e-001,-1.309224e-005,1.331514e-005
8.663824e-001,-1.158160e-005,1.332226e-005
8.671765e-001,-1.225299e-005,1.332407e-005
8.679706e-001,-1.023880e-005,1.332407e-005
8.687647e-001,-1.158160e-005,1.330490e-005
8.695588e-001,-1.225299e-005,1.328655e-005
8.703529e-001,-1.493858e-005,1.326730e-005
8.711471e-001,-1.560998e-005,1.325680e-005
8.719412e-001,-1.762417e-005,1.325155e-005
8.727353e-001,-1.426719e-005,1.325433e-005
8.735294e-001,-1.376364e-005,1.324694e-005
8.743235e-001,-1.728847e-005,1.324289e-005
8.751176e-001,-1.359579e-005,1.325976e-005
8.759118e-001,-1.174945e-005,1.326895e-005
8.767059e-001,-1.191730e-005,1.326895e-005
8.775000e-001,-1.158160e-005,1.326990e-005
8.782941e-001,-9.567407e-006,1.326489e-005
8.790882e-001,-1.258869e-005,1.325785e-005
8.798824e-001,-1.292439e-005,1.325983e-005
8.806765e-001,-1.527428e-005,1.326378e-005
8.814706e-001,-1.493858e-005,1.326500e-005
8.822647e-001,-1.292439e-005,1.326849e-005
8.830588e-001,-1.493858e-005,1.327336e-005
8.838529e-001,-1.628138e-005,1.327336e-005
8.846471e-001,-1.560998e-005,1.328074e-005
8.854412e-001,-1.023880e-005,1.328779e-005
8.862353e-001,-1.023880e-005,1.328033e-005
8.870294e-001,-1.292439e-005,1.327287e-005
8.878235e-001,-1.493858e-005,1.326240e-005
8.886176e-001,-1.225299e-005,1.325671e-005
8.894118e-001,-1.359579e-005,1.325468e-005
8.902059e-001,-1.695277e-005,1.325784e-005
8.910000e-001,-1.393149e-005,1.327805e-005
8.917941e-001,-1.628138e-005,1.328129e-005
8.925882e-001,-1.359579e-005,1.328867e-005
8.933824e-001,-1.023880e-005,1.328408e-005
8.941765e-001,-8.560311e-006,1.326353e-005
8.949706e-001,-7.553216e-006,1.324178e-005
8.957647e-001,-1.174945e-005,1.321932e-005
8.965588e-001,-1.124590e-005,1.321583e-005
8.973529e-001,-1.359579e-005,1.320654e-005
8.981471e-001,-1.560998e-005,1.320192e-005
8.989412e-001,-1.426719e-005,1.321417e-005
8.997353e-001,-1.359579e-005,1.321643e-005
9.005294e-001,-1.225299e-005,1.322061e-005
9.013235e-001,-1.359579e-005,1.322435e-005
9.021176e-001,-1.426719e-005,1.322753e-005
9.029118e-001,-1.359579e-005,1.323857e-005
9.037059e-001,-1.628138e-005,1.324777e-005
9.045000e-001,-1.225299e-005,1.326158e-005
9.052941e-001,-1.124590e-005,1.326861e-005
9.060882e-001,-1.426719e-005,1.327281e-005
9.068824e-001,-1.695277e-005,1.328294e-005
9.076765e-001,-1.292439e-005,1.329523e-005
9.084706e-001,-1.292439e-005,1.329086e-005
9.092647e-001,-1.124590e-005,1.328413e-005
9.100588e-001,-1.292439e-005,1.327254e-005
9.108529e-001,-1.460288e-005,1.327254e-005
9.116471e-001,-1.628138e-005,1.327910e-005
9.124412e-001,-1.326009e-005,1.328648e-005
9.132353e-001,-1.292439e-005,1.328753e-005
9.140294e-001,-1.141375e-005,1.328805e-005
9.148235e-001,-1.376364e-005,1.328567e-005
9.156176e-001,-1.443504e-005,1.329135e-005
9.164118e-001,-1.460288e-005,1.329977e-005
9.172059e-001,-1.460288e-005,1.331105e-005
9.180000e-001,-1.560998e-005,1.331105e-005
9.187941e-001,-1.292439e-005,1.332223e-005
9.195882e-001,-1.393149e-005,1.333274e-005
9.203824e-001,-1.225299e-005,1.333544e-005
9.211765e-001,-1.225299e-005,1.333019e-005
9.219706e-001,-1.359579e-005,1.331101e-005
9.227647e-001,-1.426719e-005,1.329942e-005
9.235588e-001,-1.493858e-005,1.330379e-005
9.243529e-001,-1.292439e-005,1.330727e-005
9.251471e-001,-1.292439e-005,1.331120e-005
9.259412e-001,-1.158160e-005,1.331323e-005
9.267353e-001,-1.258869e-005,1.331673e-005
9.275294e-001,-1.091020e-005,1.332395e-005
9.283235e-001,-1.292439e-005,1.332023e-005
9.291176e-001,-1.242084e-005,1.332508e-005
9.299118e-001,-1.359579e-005,1.332885e-005
9.307059e-001,-1.359579e-005,1.333491e-005
9.315000e-001,-1.174945e-005,1.333491e-005
9.322941e-001,-1.359579e-005,1.332932e-005
9.330882e-001,-1.258869e-005,1.332593e-005
9.338824e-001,-1.158160e-005,1.331574e-005
9.346765e-001,-1.460288e-005,1.330137e-005
9.354706e-001,-1.292439e-005,1.330018e-005
9.362647e-001,-1.225299e-005,1.329966e-005
9.370588e-001,-1.628138e-005,1.329966e-005
9.378529e-001,-1.728847e-005,1.330702e-005
9.386471e-001,-1.493858e-005,1.331956e-005
9.394412e-001,-1.124590e-005,1.332627e-005
9.402353e-001,-1.292439e-005,1.332037e-005
9.410294e-001,-1.359579e-005,1.332189e-005
9.418235e-001,-1.628138e-005,1.333304e-005
9.426176e-001,-1.493858e-005,1.335217e-005
9.434118e-001,-1.225299e-005,1.336278e-005
9.442059e-001,-1.225299e-005,1.335286e-005
9.450000e-001,-1.225299e-005,1.335187e-005
9.457941e-001,-1.057450e-005,1.333815e-005
9.465882e-001,-1.158160e-005,1.330852e-005
9.473824e-001,-1.158160e-005,1.330245e-005
9.481765e-001,-1.426719e-005,1.329527e-005
9.489706e-001,-1.393149e-005,1.329527e-005
9.497647e-001,-9.063859e-006,1.329851e-005
9.505588e-001,-1.158160e-005,1.328621e-005
9.513529e-001,-1.628138e-005,1.327789e-005
9.521471e-001,-1.510643e-005,1.329944e-005
9.529412e-001,-1.443504e-005,1.331251e-005
9.537353e-001,-1.292439e-005,1.331947e-005
9.545294e-001,-1.359579e-005,1.332246e-005
9.553235e-001,-1.426719e-005,1.333283e-005
9.561176e-001,-1.091020e-005,1.334203e-005
9.569118e-001,-9.231709e-006,1.334114e-005
9.577059e-001,-1.158160e-005,1.332467e-005
9.585000e-001,-1.393149e-005,1.331158e-005
9.592941e-001,-1.493858e-005,1.330308e-005
9.600882e-001,-1.493858e-005,1.329806e-005
9.608824e-001,-1.426719e-005,1.329925e-005
9.616765e-001,-1.292439e-005,1.331266e-005
9.624706e-001,-1.426719e-005,1.331468e-005
9.632647e-001,-1.510643e-005,1.331112e-005
9.640588e-001,-1.560998e-005,1.330671e-005
9.648529e-001,-1.393149e-005,1.330916e-005
9.656471e-001,-1.091020e-005,1.331027e-005
9.664412e-001,-1.091020e-005,1.331504e-005
9.672353e-001,-1.326009e-005,1.331833e-005
9.680294e-001,-1.326009e-005,1.332512e-005
9.688235e-001,-1.091020e-005,1.332293e-005
9.696176e-001,-8.896010e-006,1.332113e-005
9.704118e-001,-9.231709e-006,1.331636e-005
9.712059e-001,-9.567407e-006,1.331636e-005
9.720000e-001,-1.023880e-005,1.331032e-005
9.727941e-001,-1.091020e-005,1.329616e-005
9.735882e-001,-1.393149e-005,1.328487e-005
9.743824e-001,-1.292439e-005,1.328017e-005
9.751765e-001,-1.527428e-005,1.326708e-005
9.759706e-001,-1.695277e-005,1.327503e-005
9.767647e-001,-1.795987e-005,1.328622e-005
9.775588e-001,-1.560998e-005,1.329311e-005
9.783529e-001,-1.426719e-005,1.330123e-005
9.791471e-001,-1.158160e-005,1.330347e-005
9.799412e-001,-1.393149e-005,1.328779e-005
9.807353e-001,-1.426719e-005,1.328309e-005
9.815294e-001,-1.292439e-005,1.328849e-005
9.823235e-001,-1.628138e-005,1.327674e-005
9.831176e-001,-1.174945e-005,1.328055e-005
9.839118e-001,-1.292439e-005,1.327383e-005
9.847059e-001,-1.493858e-005,1.327777e-005
9.855000e-001,-1.594568e-005,1.328450e-005
9.862941e-001,-1.695277e-005,1.329058e-005
9.870882e-001,-1.544213e-005,1.331073e-005
9.878824e-001,-1.426719e-005,1.332671e-005
9.886765e-001,-1.577783e-005,1.333107e-005
9.894706e-001,-1.225299e-005,1.334384e-005
9.902647e-001,-1.393149e-005,1.335083e-005
9.910588e-001,-1.443504e-005,1.336590e-005
9.918529e-001,-1.527428e-005,1.337184e-005
9.926471e-001,-1.393149e-005,1.337061e-005
9.934412e-001,-1.359579e-005,1.337434e-005
9.942353e-001,-1.225299e-005,1.337434e-005
9.950294e-001,-1.091020e-005,1.337021e-005
9.958235e-001,-1.426719e-005,1.336344e-005
9.966176e-001,-1.091020e-005,1.336567e-005
9.974118e-001,-9.567407e-006,1.335673e-005
9.982059e-001,-8.896010e-006,1.334450e-005
9.990000e-001,-9.231709e-006,1.333188e-005
9.997941e-001,-1.091020e-005,1.331942e-005
1.000588e+000,-9.903105e-006,1.331762e-005
1.001382e+000,-9.231709e-006,1.330384e-005
1.002176e+000,-9.231709e-006,1.328610e-005
1.002971e+000,-1.158160e-005,1.326956e-005
1.003765e+000,-1.258869e-005,1.326348e-005
1.004559e+000,-1.158160e-005,1.324934e-005
1.005353e+000,-8.896010e-006,1.322668e-005
1.006147e+000,-1.158160e-005,1.321283e-005
1.006941e+000,-1.174945e-005,1.320834e-005
1.007735e+000,-1.292439e-005,1.320688e-005
1.008529e+000,-1.493858e-005,1.320892e-005
1.009324e+000,-1.527428e-005,1.321012e-005
1.010118e+000,-1.225299e-005,1.322206e-005
1.010912e+000,-1.560998e-005,1.322399e-005
1.011706e+000,-1.527428e-005,1.322399e-005
1.012500e+000,-1.493858e-005,1.323400e-005
1.013294e+000,-1.577783e-005,1.324823e-005
1.014088e+000,-1.493858e-005,1.326155e-005
1.014882e+000,-1.326009e-005,1.327405e-005
1.015676e+000,-1.560998e-005,1.328086e-005
1.016471e+000,-1.560998e-005,1.328791e-005
1.017265e+000,-1.644922e-005,1.329709e-005
1.018059e+000,-1.695277e-005,1.331342e-005
1.018853e+000,-1.628138e-005,1.333644e-005
1.019647e+000,-1.359579e-005,1.335676e-005
1.020441e+000,-1.309224e-005,1.336460e-005
1.021235e+000,-1.292439e-005,1.336996e-005
1.022029e+000,-1.426719e-005,1.336996e-005
1.022824e+000,-1.493858e-005,1.337822e-005
1.023618e+000,-1.628138e-005,1.338835e-005
1.024412e+000,-1.493858e-005,1.340102e-005
1.025206e+000,-1.225299e-005,1.341339e-005
1.026000e+000,-1.124590e-005,1.341339e-005
1.026794e+000,-8.896010e-006,1.340191e-005
1.027588e+000,-1.023880e-005,1.339491e-005
1.028382e+000,-1.023880e-005,1.338539e-005
1.029176e+000,-1.091020e-005,1.337010e-005
1.029971e+000,-1.359579e-005,1.336226e-005
1.030765e+000,-1.376364e-005,1.335525e-005
1.031559e+000,-1.292439e-005,1.334878e-005
1.032353e+000,-1.242084e-005,1.334878e-005
1.033147e+000,-1.225299e-005,1.334927e-005
1.033941e+000,-1.057450e-005,1.334726e-005
1.034735e+000,-1.091020e-005,1.333631e-005
1.035529e+000,-1.359579e-005,1.332387e-005
1.036324e+000,-1.359579e-005,1.331684e-005
1.037118e+000,-1.493858e-005,1.331104e-005
1.037912e+000,-1.560998e-005,1.331878e-005
1.038706e+000,-1.628138e-005,1.333537e-005
1.039500e+000,-1.846342e-005,1.335607e-005
1.040294e+000,-1.426719e-005,1.338250e-005
1.041088e+000,-1.225299e-005,1.340079e-005
1.041882e+000,-1.426719e-005,1.340617e-005
1.042676e+000,-1.309224e-005,1.341051e-005
1.043471e+000,-1.258869e-005,1.340669e-005
1.044265e+000,-1.359579e-005,1.340246e-005
1.045059e+000,-1.057450e-005,1.340560e-005
1.045853e+000,-7.888914e-006,1.339470e-005
1.046647e+000,-1.292439e-005,1.337434e-005
1.047441e+000,-1.359579e-005,1.337434e-005
1.048235e+000,-1.158160e-005,1.336479e-005
1.049029e+000,-1.359579e-005,1.335297e-005
1.049824e+000,-1.359579e-005,1.335297e-005
1.050618e+000,-1.292439e-005,1.334595e-005
1.051412e+000,-1.158160e-005,1.333925e-005
1.052206e+000,-1.326009e-005,1.333096e-005
1.053000e+000,-1.376364e-005,1.333096e-005
1.053794e+000,-1.577783e-005,1.333151e-005
1.054588e+000,-1.560998e-005,1.333338e-005
1.055382e+000,-1.292439e-005,1.332678e-005
1.056176e+000,-1.158160e-005,1.332007e-005
1.056971e+000,-1.225299e-005,1.331401e-005
1.057765e+000,-1.326009e-005,1.331301e-005
1.058559e+000,-1.493858e-005,1.331406e-005
1.059353e+000,-1.393149e-005,1.331754e-005
1.060147e+000,-1.359579e-005,1.332562e-005
1.060941e+000,-1.292439e-005,1.333349e-005
1.061735e+000,-1.393149e-005,1.333647e-005
1.062529e+000,-1.225299e-005,1.335019e-005
1.063324e+000,-1.359579e-005,1.335390e-005
1.064118e+000,-1.225299e-005,1.336344e-005
1.064912e+000,-1.191730e-005,1.335820e-005
1.065706e+000,-1.124590e-005,1.336094e-005
1.066500e+000,-1.124590e-005,1.336183e-005
1.067294e+000,-1.158160e-005,1.334909e-005
1.068088e+000,-8.896010e-006,1.333602e-005
1.068882e+000,-1.158160e-005,1.331509e-005
1.069676e+000,-8.224612e-006,1.331415e-005
1.070471e+000,-6.881819e-006,1.331415e-005
1.071265e+000,-8.224612e-006,1.330808e-005
1.072059e+000,-1.091020e-005,1.328946e-005
1.072853e+000,-1.493858e-005,1.326927e-005
1.073647e+000,-1.393149e-005,1.327387e-005
1.074441e+000,-1.091020e-005,1.327038e-005
1.075235e+000,-1.426719e-005,1.326564e-005
1.076029e+000,-1.426719e-005,1.327534e-005
1.076824e+000,-1.560998e-005,1.328459e-005
1.077618e+000,-1.728847e-005,1.329272e-005
1.078412e+000,-1.443504e-005,1.330526e-005
1.079206e+000,-1.107805e-005,1.330808e-005
1.080000e+000,-1.225299e-005,1.330278e-005
1.080794e+000,-1.493858e-005,1.329751e-005
1.081588e+000,-1.426719e-005,1.330626e-005
1.082382e+000,-1.493858e-005,1.330849e-005
1.083176e+000,-1.292439e-005,1.331308e-005
1.083971e+000,-1.426719e-005,1.331510e-005
1.084765e+000,-1.393149e-005,1.332049e-005
1.085559e+000,-1.393149e-005,1.332475e-005
1.086353e+000,-1.359579e-005,1.331626e-005
1.087147e+000,-1.091020e-005,1.331107e-005
1.087941e+000,-1.007095e-005,1.329861e-005
1.088735e+000,-1.242084e-005,1.328157e-005
1.089529e+000,-1.225299e-005,1.326560e-005
1.090324e+000,-1.594568e-005,1.325622e-005
1.091118e+000,-1.326009e-005,1.325686e-005
1.091912e+000,-1.158160e-005,1.325353e-005
1.092706e+000,-1.359579e-005,1.324519e-005
1.093500e+000,-1.443504e-005,1.323554e-005
1.094294e+000,-1.426719e-005,1.323129e-005
1.095088e+000,-1.158160e-005,1.323672e-005
1.095882e+000,-1.292439e-005,1.323940e-005
1.096676e+000,-1.091020e-005,1.324336e-005
1.097471e+000,-1.124590e-005,1.324201e-005
1.098265e+000,-1.091020e-005,1.324542e-005
1.099059e+000,-8.896010e-006,1.323751e-005
1.099853e+000,-7.049668e-006,1.322587e-005
1.100647e+000,-6.546120e-006,1.321570e-005
1.101441e+000,-8.224612e-006,1.320470e-005
1.102235e+000,-9.063859e-006,1.319850e-005
1.103029e+000,-1.158160e-005,1.318929e-005
1.103824e+000,-1.225299e-005,1.319111e-005
1.104618e+000,-1.124590e-005,1.320351e-005
1.105412e+000,-1.225299e-005,1.320772e-005
1.106206e+000,-1.359579e-005,1.320568e-005
1.107000e+000,-1.326009e-005,1.320783e-005
1.107794e+000,-1.493858e-005,1.321191e-005
1.108588e+000,-1.493858e-005,1.321369e-005
1.109382e+000,-1.359579e-005,1.322346e-005
1.110176e+000,-1.762417e-005,1.322004e-005
1.110971e+000,-1.628138e-005,1.322487e-005
1.111765e+000,-1.628138e-005,1.323452e-005
1.112559e+000,-1.695277e-005,1.324631e-005
1.113353e+000,-1.493858e-005,1.325753e-005
1.114147e+000,-1.359579e-005,1.326822e-005
1.114941e+000,-1.510643e-005,1.327335e-005
1.115735e+000,-1.510643e-005,1.328017e-005
1.116529e+000,-1.594568e-005,1.329144e-005
1.117324e+000,-1.628138e-005,1.330391e-005
1.118118e+000,-1.628138e-005,1.332308e-005
1.118912e+000,-1.225299e-005,1.333872e-005
1.119706e+000,-1.493858e-005,1.333872e-005
1.120500e+000,-1.426719e-005,1.333872e-005
1.121294e+000,-1.628138e-005,1.333393e-005
1.122088e+000,-1.628138e-005,1.332849e-005
1.122882e+000,-1.560998e-005,1.333584e-005
1.123676e+000,-1.577783e-005,1.334231e-005
1.124471e+000,-1.628138e-005,1.333635e-005
1.125265e+000,-1.762417e-005,1.334593e-005
1.126059e+000,-1.527428e-005,1.336650e-005
1.126853e+000,-1.359579e-005,1.337737e-005
1.127647e+000,-1.661708e-005,1.338340e-005
1.128441e+000,-1.762417e-005,1.340535e-005
1.129235e+000,-1.359579e-005,1.342341e-005
1.130029e+000,-1.359579e-005,1.342552e-005
1.130824e+000,-1.191730e-005,1.341977e-005
1.131618e+000,-1.091020e-005,1.341014e-005
1.132412e+000,-1.292439e-005,1.340444e-005
1.133206e+000,-1.359579e-005,1.339777e-005
1.134000e+000,-1.124590e-005,1.338823e-005
1.134794e+000,-1.158160e-005,1.337428e-005
1.135588e+000,-1.191730e-005,1.337777e-005
1.136382e+000,-1.107805e-005,1.338220e-005
1.137176e+000,-8.896010e-006,1.337692e-005
1.137971e+000,-1.023880e-005,1.335977e-005
1.138765e+000,-9.735256e-006,1.335437e-005
1.139559e+000,-9.903105e-006,1.334362e-005
1.140353e+000,-9.903105e-006,1.332101e-005
1.141147e+000,-1.158160e-005,1.330953e-005
1.141941e+000,-1.258869e-005,1.329385e-005
1.142735e+000,-1.040665e-005,1.329069e-005
1.143529e+000,-9.903105e-006,1.329111e-005
1.144324e+000,-1.426719e-005,1.329408e-005
1.145118e+000,-1.225299e-005,1.331161e-005
1.145912e+000,-1.225299e-005,1.331306e-005
1.146706e+000,-1.023880e-005,1.331589e-005
1.147500e+000,-1.124590e-005,1.330632e-005
1.148294e+000,-1.594568e-005,1.329229e-005
1.149088e+000,-1.493858e-005,1.329836e-005
1.149882e+000,-1.393149e-005,1.330295e-005
1.150676e+000,-1.628138e-005,1.330821e-005
1.151471e+000,-1.225299e-005,1.331780e-005
1.152265e+000,-9.567407e-006,1.331142e-005
1.153059e+000,-1.393149e-005,1.330025e-005
1.153853e+000,-1.326009e-005,1.329175e-005
1.154647e+000,-1.258869e-005,1.329482e-005
1.155441e+000,-1.091020e-005,1.329866e-005
1.156235e+000,-1.191730e-005,1.328853e-005
1.157029e+000,-1.225299e-005,1.327110e-005
1.157824e+000,-1.225299e-005,1.326907e-005
1.158618e+000,-1.275654e-005,1.326704e-005
1.159412e+000,-1.426719e-005,1.327140e-005
1.160206e+000,-1.158160e-005,1.327578e-005
1.161000e+000,-9.567407e-006,1.326628e-005
1.161794e+000,-8.896010e-006,1.324544e-005
1.162588e+000,-1.242084e-005,1.323381e-005
1.163382e+000,-1.292439e-005,1.323227e-005
1.164176e+000,-1.225299e-005,1.323669e-005
1.164971e+000,-1.493858e-005,1.323197e-005
1.165765e+000,-1.393149e-005,1.323375e-005
1.166559e+000,-1.191730e-005,1.323144e-005
1.167353e+000,-1.158160e-005,1.322287e-005
1.168147e+000,-8.224612e-006,1.320967e-005
1.168941e+000,-9.903105e-006,1.319768e-005
1.169735e+000,-1.359579e-005,1.318609e-005
1.170529e+000,-1.359579e-005,1.319028e-005
1.171324e+000,-1.292439e-005,1.319447e-005
1.172118e+000,-1.359579e-005,1.319232e-005
1.172912e+000,-1.661708e-005,1.319007e-005
1.173706e+000,-1.527428e-005,1.319646e-005
1.174500e+000,-1.376364e-005,1.320445e-005
1.175294e+000,-1.493858e-005,1.320715e-005
1.176088e+000,-1.443504e-005,1.321788e-005
1.176882e+000,-1.326009e-005,1.322389e-005
1.177676e+000,-9.903105e-006,1.323073e-005
1.178471e+000,-1.426719e-005,1.322243e-005
1.179265e+000,-1.560998e-005,1.322836e-005
1.180059e+000,-1.393149e-005,1.323544e-005
1.180853e+000,-1.359579e-005,1.323655e-005
1.181647e+000,-1.409934e-005,1.324218e-005
1.182441e+000,-1.527428e-005,1.324386e-005
1.183235e+000,-1.443504e-005,1.325285e-005
1.184029e+000,-1.393149e-005,1.326177e-005
1.184824e+000,-1.628138e-005,1.325947e-005
1.185618e+000,-1.393149e-005,1.327123e-005
1.186412e+000,-1.443504e-005,1.327651e-005
1.187206e+000,-1.426719e-005,1.326970e-005
1.188000e+000,-1.359579e-005,1.325826e-005
1.188794e+000,-1.292439e-005,1.325366e-005
1.189588e+000,-1.594568e-005,1.325853e-005
1.190382e+000,-1.225299e-005,1.326900e-005
1.191176e+000,-1.393149e-005,1.326483e-005
1.191971e+000,-1.225299e-005,1.325631e-005
1.192765e+000,-1.023880e-005,1.324753e-005
1.193559e+000,-9.735256e-006,1.324209e-005
1.194353e+000,-8.896010e-006,1.323543e-005
1.195147e+000,-7.217518e-006,1.322688e-005
1.195941e+000,-1.242084e-005,1.321969e-005
1.196735e+000,-1.628138e-005,1.322212e-005
1.197529e+000,-1.493858e-005,1.323788e-005
1.198324e+000,-1.292439e-005,1.324024e-005
1.199118e+000,-1.191730e-005,1.323698e-005
1.199912e+000,-1.426719e-005,1.324418e-005
1.200706e+000,-1.712062e-005,1.325253e-005
1.201500e+000,-1.393149e-005,1.325589e-005
1.202294e+000,-8.896010e-006,1.325180e-005
1.203088e+000,-1.124590e-005,1.323626e-005
1.203882e+000,-1.326009e-005,1.323138e-005
1.204676e+000,-1.326009e-005,1.323029e-005
1.205471e+000,-1.393149e-005,1.322695e-005
1.206265e+000,-9.903105e-006,1.323599e-005
1.207059e+000,-1.158160e-005,1.323753e-005
1.207853e+000,-1.393149e-005,1.323753e-005
1.208647e+000,-1.359579e-005,1.323753e-005
1.209441e+000,-9.903105e-006,1.323292e-005
1.210235e+000,-1.158160e-005,1.321786e-005
1.211029e+000,-1.242084e-005,1.320950e-005
1.211824e+000,-1.091020e-005,1.320796e-005
1.212618e+000,-1.292439e-005,1.319776e-005
1.213412e+000,-1.460288e-005,1.319038e-005
1.214206e+000,-1.225299e-005,1.318671e-005
1.215000e+000,-1.393149e-005,1.318140e-005
1.215794e+000,-1.527428e-005,1.319046e-005
1.216588e+000,-1.829557e-005,1.320425e-005
1.217382e+000,-1.628138e-005,1.322340e-005
1.218176e+000,-1.661708e-005,1.323414e-005
1.218971e+000,-1.560998e-005,1.325303e-005
1.219765e+000,-1.795987e-005,1.327279e-005
1.220559e+000,-1.628138e-005,1.330123e-005
1.221353e+000,-1.460288e-005,1.332199e-005
1.222147e+000,-1.158160e-005,1.333494e-005
1.222941e+000,-1.158160e-005,1.333674e-005
1.223735e+000,-1.258869e-005,1.332958e-005
1.224529e+000,-1.225299e-005,1.332856e-005
1.225324e+000,-1.292439e-005,1.331862e-005
1.226118e+000,-1.359579e-005,1.330422e-005
1.226912e+000,-1.158160e-005,1.328773e-005
1.227706e+000,-1.326009e-005,1.327460e-005
1.228500e+000,-1.359579e-005,1.327127e-005
1.229294e+000,-1.359579e-005,1.327735e-005
1.230088e+000,-1.057450e-005,1.327625e-005
1.230882e+000,-1.225299e-005,1.326524e-005
1.231676e+000,-1.359579e-005,1.326321e-005
1.232471e+000,-1.242084e-005,1.325357e-005
1.233265e+000,-1.359579e-005,1.325552e-005
1.234059e+000,-1.258869e-005,1.325766e-005
1.234853e+000,-1.309224e-005,1.324989e-005
1.235647e+000,-1.393149e-005,1.323993e-005
1.236441e+000,-1.091020e-005,1.322870e-005
1.237235e+000,-8.560311e-006,1.321432e-005
1.238029e+000,-1.091020e-005,1.319861e-005
1.238824e+000,-1.158160e-005,1.318293e-005
1.239618e+000,-9.735256e-006,1.318100e-005
1.240412e+000,-1.158160e-005,1.316899e-005
1.241206e+000,-1.225299e-005,1.316001e-005
1.242000e+000,-1.091020e-005,1.314995e-005
1.242794e+000,-1.158160e-005,1.314085e-005
1.243588e+000,-1.393149e-005,1.313471e-005
1.244382e+000,-1.393149e-005,1.314003e-005
1.245176e+000,-1.426719e-005,1.314913e-005
1.245971e+000,-1.393149e-005,1.314913e-005
1.246765e+000,-1.359579e-005,1.315821e-005
1.247559e+000,-1.326009e-005,1.316950e-005
1.248353e+000,-1.594568e-005,1.318119e-005
1.249147e+000,-1.493858e-005,1.320159e-005
1.249941e+000,-1.359579e-005,1.321414e-005
1.250735e+000,-1.393149e-005,1.322460e-005
1.251529e+000,-1.560998e-005,1.323770e-005
1.252324e+000,-1.493858e-005,1.325674e-005
1.253118e+000,-1.393149e-005,1.326743e-005
1.253912e+000,-1.292439e-005,1.327171e-005
1.254706e+000,-1.258869e-005,1.327565e-005
1.255500e+000,-1.359579e-005,1.328517e-005
1.256294e+000,-1.124590e-005,1.329124e-005
1.257088e+000,-1.225299e-005,1.328986e-005
1.257882e+000,-1.393149e-005,1.328783e-005
1.258676e+000,-1.309224e-005,1.328435e-005
1.259471e+000,-9.567407e-006,1.327693e-005
1.260265e+000,-1.158160e-005,1.326990e-005
1.261059e+000,-1.678492e-005,1.325674e-005
1.261853e+000,-1.628138e-005,1.326256e-005
1.262647e+000,-1.426719e-005,1.326759e-005
1.263441e+000,-1.493858e-005,1.326214e-005
1.264235e+000,-1.493858e-005,1.326215e-005
1.265029e+000,-1.527428e-005,1.326783e-005
1.265824e+000,-1.460288e-005,1.326658e-005
1.266618e+000,-1.560998e-005,1.326293e-005
1.267412e+000,-1.560998e-005,1.325970e-005
1.268206e+000,-1.493858e-005,1.325445e-005
1.269000e+000,-1.326009e-005,1.324941e-005
1.269794e+000,-1.493858e-005,1.324832e-005
1.270588e+000,-1.393149e-005,1.325454e-005
1.271382e+000,-1.359579e-005,1.325779e-005
1.272176e+000,-1.258869e-005,1.325555e-005
1.272971e+000,-1.258869e-005,1.324777e-005
1.273765e+000,-1.091020e-005,1.323495e-005
1.274559e+000,-8.896010e-006,1.322242e-005
1.275353e+000,-1.225299e-005,1.321386e-005
1.276147e+000,-1.460288e-005,1.321672e-005
1.276941e+000,-1.258869e-005,1.323286e-005
1.277735e+000,-1.359579e-005,1.323932e-005
1.278529e+000,-1.292439e-005,1.324894e-005
1.279324e+000,-1.225299e-005,1.325471e-005
1.280118e+000,-1.225299e-005,1.325053e-005
1.280912e+000,-1.393149e-005,1.324581e-005
1.281706e+000,-1.326009e-005,1.324906e-005
1.282500e+000,-1.527428e-005,1.325165e-005
1.283294e+000,-1.527428e-005,1.326164e-005
1.284088e+000,-1.023880e-005,1.327622e-005
1.284882e+000,-8.560311e-006,1.327452e-005
1.285676e+000,-1.091020e-005,1.326113e-005
1.286471e+000,-1.091020e-005,1.325322e-005
1.287265e+000,-8.224612e-006,1.324071e-005
1.288059e+000,-6.881819e-006,1.321952e-005
1.288853e+000,-9.567407e-006,1.319327e-005
1.289647e+000,-1.225299e-005,1.316314e-005
1.290441e+000,-1.359579e-005,1.315667e-005
1.291235e+000,-1.225299e-005,1.316087e-005
1.292029e+000,-1.393149e-005,1.315441e-005
1.292824e+000,-1.426719e-005,1.315716e-005
1.293618e+000,-1.258869e-005,1.316261e-005
1.294412e+000,-1.426719e-005,1.315942e-005
1.295206e+000,-1.225299e-005,1.317051e-005
1.296000e+000,-1.493858e-005,1.318114e-005
1.296794e+000,-1.560998e-005,1.318792e-005
1.297588e+000,-1.225299e-005,1.319502e-005
1.298382e+000,-1.426719e-005,1.319695e-005
1.299176e+000,-1.493858e-005,1.319920e-005
1.299971e+000,-1.309224e-005,1.320383e-005
1.300765e+000,-1.158160e-005,1.320435e-005
1.301559e+000,-1.560998e-005,1.320435e-005
1.302353e+000,-1.628138e-005,1.321253e-005
1.303147e+000,-1.762417e-005,1.322164e-005
1.303941e+000,-1.628138e-005,1.322907e-005
1.304735e+000,-1.560998e-005,1.323165e-005
1.305529e+000,-1.426719e-005,1.324087e-005
1.306324e+000,-1.393149e-005,1.324921e-005
1.307118e+000,-1.225299e-005,1.325449e-005
1.307912e+000,-1.292439e-005,1.325141e-005
1.308706e+000,-1.124590e-005,1.324466e-005
1.309500e+000,-9.903105e-006,1.323653e-005
1.310294e+000,-1.191730e-005,1.322609e-005
1.311088e+000,-1.141375e-005,1.322307e-005
1.311882e+000,-1.158160e-005,1.321539e-005
1.312676e+000,-1.225299e-005,1.321346e-005
1.313471e+000,-1.225299e-005,1.320927e-005
1.314265e+000,-1.191730e-005,1.320927e-005
1.315059e+000,-1.426719e-005,1.320927e-005
1.315853e+000,-1.560998e-005,1.321856e-005
1.316647e+000,-1.493858e-005,1.323267e-005
1.317441e+000,-1.359579e-005,1.324338e-005
1.318235e+000,-1.510643e-005,1.325609e-005
1.319029e+000,-1.493858e-005,1.326738e-005
1.319824e+000,-1.359579e-005,1.328604e-005
1.320618e+000,-1.242084e-005,1.330250e-005
1.321412e+000,-1.292439e-005,1.331287e-005
1.322206e+000,-1.258869e-005,1.331861e-005
1.323000e+000,-1.359579e-005,1.331087e-005
1.323794e+000,-1.292439e-005,1.330977e-005
1.324588e+000,-1.225299e-005,1.331551e-005
1.325382e+000,-9.567407e-006,1.330912e-005
1.326176e+000,-1.258869e-005,1.329571e-005
1.326971e+000,-1.292439e-005,1.328550e-005
1.327765e+000,-8.896010e-006,1.326969e-005
1.328559e+000,-1.023880e-005,1.325418e-005
1.329353e+000,-1.091020e-005,1.325203e-005
1.330147e+000,-1.225299e-005,1.324829e-005
1.330941e+000,-1.124590e-005,1.323951e-005
1.331735e+000,-1.426719e-005,1.323023e-005
1.332529e+000,-1.258869e-005,1.322787e-005
1.333324e+000,-1.292439e-005,1.322684e-005
1.334118e+000,-1.242084e-005,1.322245e-005
1.334912e+000,-1.393149e-005,1.321765e-005
1.335706e+000,-1.443504e-005,1.321765e-005
1.336500e+000,-1.493858e-005,1.322048e-005
1.337294e+000,-1.359579e-005,1.323302e-005
1.338088e+000,-1.493858e-005,1.324306e-005
1.338882e+000,-1.695277e-005,1.325134e-005
1.339676e+000,-1.762417e-005,1.326782e-005
1.340471e+000,-1.493858e-005,1.327458e-005
1.341265e+000,-1.359579e-005,1.328026e-005
1.342059e+000,-1.225299e-005,1.328634e-005
1.342853e+000,-1.225299e-005,1.328218e-005
1.343647e+000,-1.141375e-005,1.327519e-005
1.344441e+000,-9.231709e-006,1.326640e-005
1.345235e+000,-1.091020e-005,1.326053e-005
1.346029e+000,-1.158160e-005,1.325476e-005
1.346824e+000,-1.225299e-005,1.325657e-005
1.347618e+000,-1.359579e-005,1.325942e-005
1.348412e+000,-1.560998e-005,1.326732e-005
1.349206e+000,-1.460288e-005,1.328705e-005
1.350000e+000,-1.493858e-005,1.330664e-005
1.350794e+000,-1.493858e-005,1.332820e-005
1.351588e+000,-1.426719e-005,1.334676e-005
1.352382e+000,-1.309224e-005,1.336124e-005
1.353176e+000,-1.258869e-005,1.336568e-005
1.353971e+000,-1.359579e-005,1.336667e-005
1.354765e+000,-1.258869e-005,1.337363e-005
1.355559e+000,-1.393149e-005,1.337462e-005
1.356353e+000,-1.493858e-005,1.337572e-005
1.357147e+000,-1.493858e-005,1.338135e-005
1.357941e+000,-1.661708e-005,1.338135e-005
1.358735e+000,-1.628138e-005,1.338765e-005
1.359529e+000,-1.493858e-005,1.339719e-005
1.360324e+000,-1.359579e-005,1.338680e-005
1.361118e+000,-1.057450e-005,1.337725e-005
1.361912e+000,-1.023880e-005,1.335899e-005
1.362706e+000,-1.258869e-005,1.333721e-005
1.363500e+000,-1.292439e-005,1.332949e-005
1.364294e+000,-1.393149e-005,1.332736e-005
1.365088e+000,-1.174945e-005,1.332328e-005
1.365882e+000,-1.023880e-005,1.331250e-005
1.366676e+000,-1.091020e-005,1.329462e-005
1.367471e+000,-1.158160e-005,1.327711e-005
1.368265e+000,-1.359579e-005,1.326140e-005
1.369059e+000,-1.393149e-005,1.326557e-005
1.369853e+000,-1.443504e-005,1.326208e-005
1.370647e+000,-1.191730e-005,1.326265e-005
1.371441e+000,-1.191730e-005,1.324787e-005
1.372235e+000,-1.510643e-005,1.323307e-005
1.373029e+000,-1.460288e-005,1.323121e-005
1.373824e+000,-1.594568e-005,1.322691e-005
1.374618e+000,-1.527428e-005,1.322561e-005
1.375412e+000,-1.359579e-005,1.321630e-005
1.376206e+000,-1.258869e-005,1.321046e-005
1.377000e+000,-1.326009e-005,1.320728e-005
1.377794e+000,-1.292439e-005,1.319518e-005
1.378588e+000,-1.225299e-005,1.317785e-005
1.379382e+000,-9.567407e-006,1.317365e-005
1.380176e+000,-1.258869e-005,1.316237e-005
1.380971e+000,-1.225299e-005,1.316436e-005
1.381765e+000,-1.359579e-005,1.316812e-005
1.382559e+000,-1.091020e-005,1.317027e-005
1.383353e+000,-1.292439e-005,1.316231e-005
1.384147e+000,-1.174945e-005,1.316722e-005
1.384941e+000,-1.225299e-005,1.316769e-005
1.385735e+000,-1.158160e-005,1.316867e-005
1.386529e+000,-1.158160e-005,1.317005e-005
1.387324e+000,-1.460288e-005,1.317670e-005
1.388118e+000,-1.292439e-005,1.318980e-005
1.388912e+000,-1.174945e-005,1.319852e-005
1.389706e+000,-1.091020e-005,1.320334e-005
1.390500e+000,-1.292439e-005,1.320587e-005
1.391294e+000,-1.628138e-005,1.320984e-005
1.392088e+000,-1.695277e-005,1.322268e-005
1.392882e+000,-1.493858e-005,1.324423e-005
1.393676e+000,-1.762417e-005,1.325926e-005
1.394471e+000,-1.426719e-005,1.327211e-005
1.395265e+000,-1.057450e-005,1.327852e-005
1.396059e+000,-1.292439e-005,1.327392e-005
1.396853e+000,-1.426719e-005,1.328138e-005
1.397647e+000,-1.158160e-005,1.329062e-005
1.398441e+000,-1.292439e-005,1.327622e-005
1.399235e+000,-1.493858e-005,1.326949e-005
1.400029e+000,-1.023880e-005,1.327298e-005
1.400824e+000,-1.426719e-005,1.325374e-005
1.401618e+000,-1.493858e-005,1.326015e-005
1.402412e+000,-1.258869e-005,1.327595e-005
1.403206e+000,-1.393149e-005,1.327168e-005
1.404000e+000,-1.560998e-005,1.327387e-005
1.404794e+000,-1.493858e-005,1.328409e-005
1.405588e+000,-1.309224e-005,1.329656e-005
1.406382e+000,-1.359579e-005,1.330008e-005
1.407176e+000,-1.326009e-005,1.330424e-005
1.407971e+000,-1.057450e-005,1.330731e-005
1.408765e+000,-6.881819e-006,1.330122e-005
1.409559e+000,-9.903105e-006,1.328251e-005
1.410353e+000,-8.224612e-006,1.327818e-005
1.411147e+000,-1.023880e-005,1.327532e-005
1.411941e+000,-1.359579e-005,1.327840e-005
1.412735e+000,-1.426719e-005,1.328206e-005
1.413529e+000,-1.628138e-005,1.328644e-005
1.414324e+000,-1.460288e-005,1.330021e-005
1.415118e+000,-1.258869e-005,1.329902e-005
1.415912e+000,-9.903105e-006,1.329476e-005
1.416706e+000,-1.292439e-005,1.328949e-005
1.417500e+000,-1.493858e-005,1.329343e-005
1.418294e+000,-1.292439e-005,1.331205e-005
1.419088e+000,-1.309224e-005,1.332030e-005
1.419882e+000,-1.258869e-005,1.331869e-005
1.420676e+000,-1.560998e-005,1.331554e-005
1.421471e+000,-1.560998e-005,1.332470e-005
1.422265e+000,-1.225299e-005,1.333173e-005
1.423059e+000,-1.359579e-005,1.331667e-005
1.423853e+000,-1.326009e-005,1.331087e-005
1.424647e+000,-1.191730e-005,1.330924e-005
1.425441e+000,-1.393149e-005,1.329953e-005
1.426235e+000,-1.359579e-005,1.329782e-005
1.427029e+000,-1.292439e-005,1.329890e-005
1.427824e+000,-1.107805e-005,1.330716e-005
1.428618e+000,-1.225299e-005,1.329748e-005
1.429412e+000,-1.359579e-005,1.328628e-005
1.430206e+000,-1.124590e-005,1.328517e-005
1.431000e+000,-1.443504e-005,1.327817e-005
1.431794e+000,-1.510643e-005,1.327932e-005
1.432588e+000,-1.661708e-005,1.327871e-005
1.433382e+000,-1.527428e-005,1.328683e-005
1.434176e+000,-1.527428e-005,1.329153e-005
1.434971e+000,-1.426719e-005,1.328772e-005
1.435765e+000,-1.594568e-005,1.328886e-005
1.436559e+000,-1.493858e-005,1.329436e-005
1.437353e+000,-1.527428e-005,1.329670e-005
1.438147e+000,-1.493858e-005,1.330251e-005
1.438941e+000,-1.426719e-005,1.330922e-005
1.439735e+000,-1.326009e-005,1.330315e-005
1.440529e+000,-1.292439e-005,1.330623e-005
1.441324e+000,-1.124590e-005,1.330299e-005
1.442118e+000,-1.309224e-005,1.330016e-005
1.442912e+000,-1.158160e-005,1.330813e-005
1.443706e+000,-1.225299e-005,1.331284e-005
1.444500e+000,-1.326009e-005,1.332132e-005
1.445294e+000,-1.393149e-005,1.333611e-005
1.446088e+000,-1.527428e-005,1.334086e-005
1.446882e+000,-1.326009e-005,1.333707e-005
1.447676e+000,-1.174945e-005,1.333141e-005
1.448471e+000,-1.225299e-005,1.332795e-005
1.449265e+000,-1.124590e-005,1.332892e-005
1.450059e+000,-9.567407e-006,1.331971e-005
1.450853e+000,-1.040665e-005,1.329559e-005
1.451647e+000,-1.124590e-005,1.328531e-005
1.452441e+000,-1.359579e-005,1.329098e-005
1.453235e+000,-1.258869e-005,1.329797e-005
1.454029e+000,-1.258869e-005,1.329589e-005
1.454824e+000,-1.393149e-005,1.329382e-005
1.455618e+000,-1.091020e-005,1.329382e-005
1.456412e+000,-1.225299e-005,1.329633e-005
1.457206e+000,-1.493858e-005,1.329824e-005
1.458000e+000,-1.493858e-005,1.330172e-005
1.458794e+000,-1.057450e-005,1.330631e-005
1.459588e+000,-1.292439e-005,1.330795e-005
1.460382e+000,-1.628138e-005,1.331189e-005
1.461176e+000,-1.460288e-005,1.332514e-005
1.461971e+000,-1.191730e-005,1.333639e-005
1.462765e+000,-1.275654e-005,1.333341e-005
1.463559e+000,-1.158160e-005,1.332737e-005
1.464353e+000,-1.141375e-005,1.332546e-005
1.465147e+000,-1.158160e-005,1.331783e-005
1.465941e+000,-1.158160e-005,1.330597e-005
1.466735e+000,-1.225299e-005,1.328194e-005
1.467529e+000,-1.426719e-005,1.326815e-005
1.468324e+000,-1.023880e-005,1.325944e-005
1.469118e+000,-1.023880e-005,1.324276e-005
1.469912e+000,-1.225299e-005,1.321655e-005
1.470706e+000,-1.426719e-005,1.320269e-005
1.471500e+000,-1.628138e-005,1.320152e-005
1.472294e+000,-1.594568e-005,1.321731e-005
1.473088e+000,-1.560998e-005,1.323178e-005
1.473882e+000,-1.560998e-005,1.324202e-005
1.474676e+000,-1.829557e-005,1.325327e-005
1.475471e+000,-1.762417e-005,1.327340e-005
1.476265e+000,-1.292439e-005,1.328848e-005
1.477059e+000,-1.158160e-005,1.329242e-005
1.477853e+000,-1.225299e-005,1.328742e-005
1.478647e+000,-1.628138e-005,1.328326e-005
1.479441e+000,-1.896696e-005,1.329288e-005
1.480235e+000,-1.695277e-005,1.332255e-005
1.481029e+000,-1.426719e-005,1.333894e-005
1.481824e+000,-1.359579e-005,1.334117e-005
1.482618e+000,-1.426719e-005,1.334482e-005
1.483412e+000,-1.225299e-005,1.334705e-005
1.484206e+000,-1.493858e-005,1.334606e-005
1.485000e+000,-1.393149e-005,1.335223e-005
1.485794e+000,-1.460288e-005,1.335223e-005
1.486588e+000,-1.242084e-005,1.336346e-005
1.487382e+000,-1.393149e-005,1.337311e-005
1.488176e+000,-1.225299e-005,1.338205e-005
1.488971e+000,-9.567407e-006,1.338395e-005
1.489765e+000,-6.881819e-006,1.338356e-005
1.490559e+000,-9.567407e-006,1.337324e-005
1.491353e+000,-1.091020e-005,1.336626e-005
1.492147e+000,-1.225299e-005,1.336626e-005
1.492941e+000,-1.359579e-005,1.336816e-005
1.493735e+000,-1.091020e-005,1.336706e-005
1.494529e+000,-1.107805e-005,1.335812e-005
1.495324e+000,-1.124590e-005,1.334848e-005
1.496118e+000,-1.158160e-005,1.334041e-005
1.496912e+000,-1.359579e-005,1.333436e-005
1.497706e+000,-1.309224e-005,1.333543e-005
1.498500e+000,-1.426719e-005,1.332554e-005
1.499294e+000,-1.393149e-005,1.332319e-005
1.500088e+000,-1.309224e-005,1.332430e-005
1.500882e+000,-1.258869e-005,1.332159e-005
1.501676e+000,-1.426719e-005,1.331140e-005
1.502471e+000,-1.795987e-005,1.330905e-005
1.503265e+000,-1.292439e-005,1.332441e-005
1.504059e+000,-1.426719e-005,1.332441e-005
1.504853e+000,-1.661708e-005,1.332980e-005
1.505647e+000,-1.712062e-005,1.334070e-005
1.506441e+000,-1.712062e-005,1.336058e-005
1.507235e+000,-1.359579e-005,1.337761e-005
1.508029e+000,-9.735256e-006,1.337651e-005
1.508824e+000,-9.903105e-006,1.336738e-005
1.509618e+000,-1.359579e-005,1.336816e-005
1.510412e+000,-1.527428e-005,1.337420e-005
1.511206e+000,-1.493858e-005,1.336843e-005
1.512000e+000,-1.359579e-005,1.336344e-005
1.512794e+000,-1.292439e-005,1.336121e-005
1.513588e+000,-1.426719e-005,1.335452e-005
1.514382e+000,-1.225299e-005,1.335218e-005
1.515176e+000,-1.091020e-005,1.334226e-005
1.515971e+000,-1.292439e-005,1.333101e-005
1.516765e+000,-1.258869e-005,1.332185e-005
1.517559e+000,-9.567407e-006,1.331166e-005
1.518353e+000,-8.224612e-006,1.329591e-005
1.519147e+000,-1.258869e-005,1.328295e-005
1.519941e+000,-1.225299e-005,1.327519e-005
1.520735e+000,-1.309224e-005,1.326992e-005
1.521529e+000,-1.225299e-005,1.326830e-005
1.522324e+000,-1.359579e-005,1.326730e-005
1.523118e+000,-1.359579e-005,1.327047e-005
1.523912e+000,-1.258869e-005,1.327836e-005
1.524706e+000,-1.057450e-005,1.328787e-005
1.525500e+000,-9.903105e-006,1.328328e-005
1.526294e+000,-1.292439e-005,1.326947e-005
1.527088e+000,-1.460288e-005,1.327050e-005
1.527882e+000,-1.426719e-005,1.327390e-005
1.528676e+000,-1.393149e-005,1.327828e-005
1.529471e+000,-1.493858e-005,1.328355e-005
1.530265e+000,-1.326009e-005,1.329230e-005
1.531059e+000,-1.393149e-005,1.329012e-005
1.531853e+000,-1.527428e-005,1.329230e-005
1.532647e+000,-1.762417e-005,1.329230e-005
1.533441e+000,-1.493858e-005,1.330156e-005
1.534235e+000,-1.527428e-005,1.331572e-005
1.535029e+000,-1.242084e-005,1.333484e-005
1.535824e+000,-1.158160e-005,1.333905e-005
1.536618e+000,-1.158160e-005,1.334085e-005
1.537412e+000,-1.191730e-005,1.334879e-005
1.538206e+000,-1.158160e-005,1.336007e-005
1.539000e+000,-1.091020e-005,1.336515e-005
1.539794e+000,-1.292439e-005,1.336144e-005
1.540588e+000,-1.258869e-005,1.335932e-005
1.541382e+000,-1.023880e-005,1.336032e-005
1.542176e+000,-1.124590e-005,1.334967e-005
1.542971e+000,-1.225299e-005,1.334047e-005
1.543765e+000,-1.292439e-005,1.333948e-005
1.544559e+000,-1.258869e-005,1.333512e-005
1.545353e+000,-1.795987e-005,1.333612e-005
1.546147e+000,-1.493858e-005,1.334798e-005
1.546941e+000,-1.225299e-005,1.334553e-005
1.547735e+000,-1.091020e-005,1.334553e-005
1.548529e+000,-1.174945e-005,1.333544e-005
1.549324e+000,-1.225299e-005,1.332528e-005
1.550118e+000,-1.275654e-005,1.332273e-005
1.550912e+000,-1.225299e-005,1.332615e-005
1.551706e+000,-1.309224e-005,1.331497e-005
1.552500e+000,-1.527428e-005,1.330376e-005
1.553294e+000,-1.560998e-005,1.329451e-005
1.554088e+000,-1.426719e-005,1.329194e-005
1.554882e+000,-1.258869e-005,1.328713e-005
1.555676e+000,-1.292439e-005,1.328173e-005
1.556471e+000,-1.359579e-005,1.327849e-005
1.557265e+000,-1.225299e-005,1.328265e-005
1.558059e+000,-1.107805e-005,1.328062e-005
1.558853e+000,-1.560998e-005,1.328017e-005
1.559647e+000,-1.795987e-005,1.329762e-005
1.560441e+000,-1.426719e-005,1.331922e-005
1.561235e+000,-1.359579e-005,1.332798e-005
1.562029e+000,-1.560998e-005,1.333404e-005
1.562824e+000,-1.225299e-005,1.334520e-005
1.563618e+000,-9.567407e-006,1.334520e-005
1.564412e+000,-1.091020e-005,1.333918e-005
1.565206e+000,-1.124590e-005,1.332908e-005
1.566000e+000,-1.225299e-005,1.331508e-005
1.566794e+000,-1.225299e-005,1.330634e-005
1.567588e+000,-9.903105e-006,1.330218e-005
1.568382e+000,-1.292439e-005,1.328660e-005
1.569176e+000,-1.493858e-005,1.327987e-005
1.569971e+000,-1.493858e-005,1.328446e-005
1.570765e+000,-1.493858e-005,1.329272e-005
1.571559e+000,-1.560998e-005,1.329944e-005
1.572353e+000,-1.493858e-005,1.330964e-005
1.573147e+000,-1.326009e-005,1.331422e-005
1.573941e+000,-1.393149e-005,1.331527e-005
1.574735e+000,-1.426719e-005,1.332052e-005
1.575529e+000,-1.359579e-005,1.333391e-005
1.576324e+000,-1.158160e-005,1.333706e-005
1.577118e+000,-1.225299e-005,1.333313e-005
1.577912e+000,-1.225299e-005,1.334161e-005
1.578706e+000,-1.174945e-005,1.334701e-005
1.579500e+000,-1.359579e-005,1.334928e-005
1.580294e+000,-1.628138e-005,1.335342e-005
1.581088e+000,-1.326009e-005,1.336994e-005
1.581882e+000,-1.225299e-005,1.336664e-005
1.582676e+000,-1.493858e-005,1.336564e-005
1.583471e+000,-1.560998e-005,1.337233e-005
1.584265e+000,-1.326009e-005,1.338297e-005
1.585059e+000,-1.292439e-005,1.338080e-005
1.585853e+000,-1.158160e-005,1.337588e-005
1.586647e+000,-1.359579e-005,1.336527e-005
1.587441e+000,-1.426719e-005,1.336527e-005
1.588235e+000,-1.510643e-005,1.336294e-005
1.589029e+000,-1.527428e-005,1.335588e-005
1.589824e+000,-1.292439e-005,1.334666e-005
1.590618e+000,-1.023880e-005,1.333997e-005
1.591412e+000,-1.174945e-005,1.333041e-005
1.592206e+000,-1.359579e-005,1.332897e-005
1.593000e+000,-1.359579e-005,1.333311e-005
1.593794e+000,-1.493858e-005,1.333963e-005
1.594588e+000,-1.460288e-005,1.335608e-005
1.595382e+000,-1.258869e-005,1.336731e-005
1.596176e+000,-1.174945e-005,1.337021e-005
1.596971e+000,-1.057450e-005,1.336877e-005
1.597765e+000,-1.091020e-005,1.336007e-005
1.598559e+000,-1.124590e-005,1.334521e-005
1.599353e+000,-1.158160e-005,1.333485e-005
1.600147e+000,-1.091020e-005,1.332421e-005
1.600941e+000,-1.326009e-005,1.331176e-005
1.601735e+000,-1.393149e-005,1.330845e-005
1.602529e+000,-1.225299e-005,1.331116e-005
1.603324e+000,-1.359579e-005,1.331016e-005
1.604118e+000,-1.426719e-005,1.331016e-005
1.604912e+000,-1.393149e-005,1.331555e-005
1.605706e+000,-1.460288e-005,1.331555e-005
1.606500e+000,-1.493858e-005,1.331437e-005
1.607294e+000,-1.426719e-005,1.331437e-005
1.608088e+000,-1.527428e-005,1.330569e-005
1.608882e+000,-1.426719e-005,1.330188e-005
1.609676e+000,-1.091020e-005,1.329953e-005
1.610471e+000,-1.158160e-005,1.329165e-005
1.611265e+000,-1.174945e-005,1.329433e-005
1.612059e+000,-9.903105e-006,1.329830e-005
1.612853e+000,-9.063859e-006,1.329107e-005
1.613647e+000,-8.560311e-006,1.328089e-005
1.614441e+000,-1.023880e-005,1.326640e-005
1.615235e+000,-1.242084e-005,1.326242e-005
1.616029e+000,-1.493858e-005,1.326835e-005
1.616824e+000,-1.359579e-005,1.328084e-005
1.617618e+000,-1.158160e-005,1.328692e-005
1.618412e+000,-1.225299e-005,1.328084e-005
1.619206e+000,-1.225299e-005,1.327557e-005
1.620000e+000,-1.292439e-005,1.326858e-005
1.620794e+000,-1.628138e-005,1.327158e-005
1.621588e+000,-1.661708e-005,1.328634e-005
1.622382e+000,-1.107805e-005,1.329208e-005
1.623176e+000,-1.560998e-005,1.328124e-005
1.623971e+000,-1.628138e-005,1.327997e-005
1.624765e+000,-1.225299e-005,1.328378e-005
1.625559e+000,-1.493858e-005,1.327961e-005
1.626353e+000,-1.628138e-005,1.328737e-005
1.627147e+000,-1.359579e-005,1.329806e-005
1.627941e+000,-1.426719e-005,1.330019e-005
1.628735e+000,-1.359579e-005,1.330659e-005
1.629529e+000,-1.225299e-005,1.331775e-005
1.630324e+000,-1.023880e-005,1.331675e-005
1.631118e+000,-1.158160e-005,1.331133e-005
1.631912e+000,-1.359579e-005,1.330526e-005
1.632706e+000,-1.393149e-005,1.331314e-005
1.633500e+000,-1.158160e-005,1.331637e-005
1.634294e+000,-1.393149e-005,1.331591e-005
1.635088e+000,-1.292439e-005,1.332116e-005
1.635882e+000,-1.225299e-005,1.332509e-005
1.636676e+000,-1.409934e-005,1.332701e-005
1.637471e+000,-1.661708e-005,1.332528e-005
1.638265e+000,-1.594568e-005,1.333831e-005
1.639059e+000,-1.510643e-005,1.335217e-005
1.639853e+000,-1.493858e-005,1.336519e-005
1.640647e+000,-1.560998e-005,1.337187e-005
1.641441e+000,-1.426719e-005,1.336932e-005
1.642235e+000,-1.493858e-005,1.335933e-005
1.643029e+000,-1.628138e-005,1.335933e-005
1.643824e+000,-1.493858e-005,1.335390e-005
1.644618e+000,-1.493858e-005,1.335624e-005
1.645412e+000,-1.091020e-005,1.336951e-005
1.646206e+000,-9.567407e-006,1.336379e-005
1.647000e+000,-1.124590e-005,1.335044e-005
1.647794e+000,-1.158160e-005,1.334952e-005
1.648588e+000,-1.443504e-005,1.334560e-005
1.649382e+000,-1.460288e-005,1.334383e-005
1.650176e+000,-1.091020e-005,1.335676e-005
1.650971e+000,-9.903105e-006,1.334668e-005
1.651765e+000,-1.158160e-005,1.333175e-005
1.652559e+000,-1.091020e-005,1.332884e-005
1.653353e+000,-1.258869e-005,1.331987e-005
1.654147e+000,-9.567407e-006,1.330968e-005
1.654941e+000,-8.392462e-006,1.329393e-005
1.655735e+000,-1.091020e-005,1.328183e-005
1.656529e+000,-1.460288e-005,1.327394e-005
1.657324e+000,-1.393149e-005,1.327842e-005
1.658118e+000,-1.091020e-005,1.328828e-005
1.658912e+000,-1.040665e-005,1.329687e-005
1.659706e+000,-1.292439e-005,1.329809e-005
1.660500e+000,-1.393149e-005,1.330999e-005
1.661294e+000,-1.158160e-005,1.332066e-005
1.662088e+000,-1.124590e-005,1.331460e-005
1.662882e+000,-1.309224e-005,1.330538e-005
1.663676e+000,-1.426719e-005,1.329416e-005
1.664471e+000,-1.242084e-005,1.329300e-005
1.665265e+000,-9.567407e-006,1.329250e-005
1.666059e+000,-1.124590e-005,1.329172e-005
1.666853e+000,-1.292439e-005,1.328686e-005
1.667647e+000,-1.225299e-005,1.328013e-005
1.668441e+000,-1.628138e-005,1.327810e-005
1.669235e+000,-1.527428e-005,1.328933e-005
1.670029e+000,-1.393149e-005,1.329829e-005
1.670824e+000,-1.628138e-005,1.329235e-005
1.671618e+000,-1.594568e-005,1.329492e-005
1.672412e+000,-1.426719e-005,1.330739e-005
1.673206e+000,-1.359579e-005,1.330962e-005
1.674000e+000,-1.426719e-005,1.331070e-005
1.674794e+000,-1.510643e-005,1.331806e-005
1.675588e+000,-1.292439e-005,1.332214e-005
1.676382e+000,-1.292439e-005,1.332001e-005
1.677176e+000,-1.527428e-005,1.332001e-005
1.677971e+000,-1.493858e-005,1.333322e-005
1.678765e+000,-1.426719e-005,1.334194e-005
1.679559e+000,-1.292439e-005,1.334418e-005
1.680353e+000,-1.359579e-005,1.334902e-005
1.681147e+000,-1.242084e-005,1.334621e-005
1.681941e+000,-1.393149e-005,1.333739e-005
1.682735e+000,-1.309224e-005,1.332759e-005
1.683529e+000,-1.225299e-005,1.332019e-005
1.684324e+000,-1.292439e-005,1.331024e-005
1.685118e+000,-1.527428e-005,1.330587e-005
1.685912e+000,-1.225299e-005,1.330337e-005
1.686706e+000,-1.426719e-005,1.329462e-005
1.687500e+000,-1.393149e-005,1.329106e-005
1.688294e+000,-1.359579e-005,1.328757e-005
1.689088e+000,-1.359579e-005,1.328533e-005
1.689882e+000,-1.376364e-005,1.328641e-005
1.690676e+000,-1.258869e-005,1.328910e-005
1.691471e+000,-1.225299e-005,1.329293e-005
1.692265e+000,-8.896010e-006,1.329038e-005
1.693059e+000,-1.091020e-005,1.328379e-005
1.693853e+000,-1.191730e-005,1.328006e-005
1.694647e+000,-1.124590e-005,1.327601e-005
1.695441e+000,-1.527428e-005,1.326790e-005
1.696235e+000,-1.359579e-005,1.326790e-005
1.697029e+000,-1.225299e-005,1.326898e-005
1.697824e+000,-1.225299e-005,1.327043e-005
1.698618e+000,-1.158160e-005,1.327043e-005
1.699412e+000,-1.158160e-005,1.327135e-005
1.700206e+000,-9.903105e-006,1.327646e-005
1.701000e+000,-1.359579e-005,1.327523e-005
1.701794e+000,-1.393149e-005,1.328223e-005
1.702588e+000,-1.242084e-005,1.328334e-005
1.703382e+000,-1.393149e-005,1.328284e-005
1.704176e+000,-1.493858e-005,1.328711e-005
1.704971e+000,-1.292439e-005,1.329059e-005
1.705765e+000,-1.225299e-005,1.329634e-005
1.706559e+000,-1.712062e-005,1.329634e-005
1.707353e+000,-1.393149e-005,1.330472e-005
1.708147e+000,-1.225299e-005,1.330123e-005
1.708941e+000,-1.493858e-005,1.330582e-005
1.709735e+000,-1.560998e-005,1.331254e-005
1.710529e+000,-1.258869e-005,1.330997e-005
1.711324e+000,-1.326009e-005,1.330342e-005
1.712118e+000,-1.124590e-005,1.330747e-005
1.712912e+000,-8.896010e-006,1.330313e-005
1.713706e+000,-1.124590e-005,1.329654e-005
1.714500e+000,-1.393149e-005,1.329609e-005
1.715294e+000,-1.292439e-005,1.330326e-005
1.716088e+000,-1.258869e-005,1.330720e-005
1.716882e+000,-1.158160e-005,1.330820e-005
1.717676e+000,-1.225299e-005,1.329989e-005
1.718471e+000,-1.359579e-005,1.330531e-005
1.719265e+000,-1.158160e-005,1.331489e-005
1.720059e+000,-1.359579e-005,1.331297e-005
1.720853e+000,-1.628138e-005,1.331074e-005
1.721647e+000,-1.493858e-005,1.331074e-005
1.722441e+000,-1.258869e-005,1.330701e-005
1.723235e+000,-1.225299e-005,1.329681e-005
1.724029e+000,-1.359579e-005,1.328561e-005
1.724824e+000,-1.376364e-005,1.326763e-005
1.725618e+000,-1.560998e-005,1.325308e-005
1.726412e+000,-1.493858e-005,1.326229e-005
1.727206e+000,-1.292439e-005,1.327297e-005
1.728000e+000,-9.567407e-006,1.327500e-005
1.728794e+000,-1.191730e-005,1.325416e-005
1.729588e+000,-1.158160e-005,1.322798e-005
1.730382e+000,-1.091020e-005,1.320952e-005
1.731176e+000,-1.292439e-005,1.319933e-005
1.731971e+000,-1.091020e-005,1.319718e-005
1.732765e+000,-1.023880e-005,1.318698e-005
1.733559e+000,-1.091020e-005,1.318150e-005
1.734353e+000,-1.460288e-005,1.316892e-005
1.735147e+000,-1.628138e-005,1.317124e-005
1.735941e+000,-1.527428e-005,1.317750e-005
1.736735e+000,-1.225299e-005,1.318705e-005
1.737529e+000,-1.359579e-005,1.318174e-005
1.738324e+000,-1.493858e-005,1.318593e-005
1.739118e+000,-1.628138e-005,1.320182e-005
1.739912e+000,-1.426719e-005,1.322805e-005
1.740706e+000,-1.460288e-005,1.324153e-005
1.741500e+000,-1.359579e-005,1.325285e-005
1.742294e+000,-1.359579e-005,1.325702e-005
1.743088e+000,-1.225299e-005,1.325702e-005
1.743882e+000,-7.721065e-006,1.326076e-005
1.744676e+000,-8.896010e-006,1.325318e-005
1.745471e+000,-1.158160e-005,1.324749e-005
1.746265e+000,-1.191730e-005,1.324749e-005
1.747059e+000,-1.107805e-005,1.324234e-005
1.747853e+000,-1.426719e-005,1.323649e-005
1.748647e+000,-1.426719e-005,1.323649e-005
1.749441e+000,-1.309224e-005,1.323763e-005
1.750235e+000,-1.158160e-005,1.323763e-005
1.751029e+000,-1.225299e-005,1.323470e-005
1.751824e+000,-1.124590e-005,1.322827e-005
1.752618e+000,-1.091020e-005,1.320465e-005
1.753412e+000,-1.292439e-005,1.319885e-005
1.754206e+000,-1.393149e-005,1.319445e-005
1.755000e+000,-1.225299e-005,1.318454e-005
1.755794e+000,-1.292439e-005,1.316727e-005
1.756588e+000,-1.359579e-005,1.315201e-005
1.757382e+000,-1.393149e-005,1.315201e-005
1.758176e+000,-1.493858e-005,1.316403e-005
1.758971e+000,-1.393149e-005,1.317915e-005
1.759765e+000,-1.527428e-005,1.318027e-005
1.760559e+000,-1.628138e-005,1.318027e-005
1.761353e+000,-1.695277e-005,1.318533e-005
1.762147e+000,-1.393149e-005,1.319771e-005
1.762941e+000,-1.359579e-005,1.320097e-005
1.763735e+000,-1.225299e-005,1.319872e-005
1.764529e+000,-1.326009e-005,1.319872e-005
1.765324e+000,-1.091020e-005,1.320557e-005
1.766118e+000,-1.258869e-005,1.319978e-005
1.766912e+000,-1.359579e-005,1.319978e-005
1.767706e+000,-1.359579e-005,1.321103e-005
1.768500e+000,-1.309224e-005,1.322515e-005
1.769294e+000,-1.393149e-005,1.322670e-005
1.770088e+000,-1.158160e-005,1.323199e-005
1.770882e+000,-1.124590e-005,1.322751e-005
1.771676e+000,-1.527428e-005,1.322466e-005
1.772471e+000,-1.158160e-005,1.323049e-005
1.773265e+000,-6.881819e-006,1.322439e-005
1.774059e+000,-1.057450e-005,1.321100e-005
1.774853e+000,-1.359579e-005,1.321100e-005
1.775647e+000,-1.057450e-005,1.322146e-005
1.776441e+000,-1.225299e-005,1.321480e-005
1.777235e+000,-1.393149e-005,1.320720e-005
1.778029e+000,-1.695277e-005,1.320606e-005
1.778824e+000,-1.493858e-005,1.321730e-005
1.779618e+000,-1.225299e-005,1.321730e-005
1.780412e+000,-1.460288e-005,1.321421e-005
1.781206e+000,-1.376364e-005,1.321651e-005
1.782000e+000,-1.326009e-005,1.321123e-005
1.782794e+000,-1.225299e-005,1.319497e-005
1.783588e+000,-1.225299e-005,1.318616e-005
1.784382e+000,-1.359579e-005,1.317611e-005
1.785176e+000,-1.393149e-005,1.317980e-005
1.785971e+000,-1.359579e-005,1.318704e-005
1.786765e+000,-1.359579e-005,1.319317e-005
1.787559e+000,-1.426719e-005,1.319833e-005
1.788353e+000,-1.359579e-005,1.320671e-005
1.789147e+000,-1.191730e-005,1.321464e-005
1.789941e+000,-8.224612e-006,1.321163e-005
1.790735e+000,-1.225299e-005,1.320067e-005
1.791529e+000,-1.460288e-005,1.320614e-005
1.792324e+000,-1.359579e-005,1.321660e-005
1.793118e+000,-1.460288e-005,1.322078e-005
1.793912e+000,-1.292439e-005,1.322634e-005
1.794706e+000,-1.359579e-005,1.322737e-005
1.795500e+000,-1.292439e-005,1.321078e-005
1.796294e+000,-1.393149e-005,1.320402e-005
1.797088e+000,-1.292439e-005,1.320932e-005
1.797882e+000,-1.393149e-005,1.321510e-005
1.798676e+000,-1.258869e-005,1.322185e-005
1.799471e+000,-1.292439e-005,1.322286e-005
1.800265e+000,-1.091020e-005,1.322338e-005
1.801059e+000,-1.091020e-005,1.321963e-005
1.801853e+000,-1.091020e-005,1.321332e-005
1.802647e+000,-1.023880e-005,1.319954e-005
1.803441e+000,-1.225299e-005,1.318278e-005
1.804235e+000,-1.158160e-005,1.317633e-005
1.805029e+000,-1.124590e-005,1.317339e-005
1.805824e+000,-1.225299e-005,1.316848e-005
1.806618e+000,-1.124590e-005,1.316428e-005
1.807412e+000,-8.896010e-006,1.316142e-005
1.808206e+000,-1.292439e-005,1.315615e-005
1.809000e+000,-1.493858e-005,1.314687e-005
1.809794e+000,-1.426719e-005,1.313482e-005
1.810588e+000,-1.359579e-005,1.313482e-005
1.811382e+000,-1.124590e-005,1.313482e-005
1.812176e+000,-1.023880e-005,1.312061e-005
1.812971e+000,-1.107805e-005,1.311511e-005
1.813765e+000,-1.091020e-005,1.311889e-005
1.814559e+000,-1.225299e-005,1.311889e-005
1.815353e+000,-1.158160e-005,1.312177e-005
1.816147e+000,-1.527428e-005,1.311982e-005
1.816941e+000,-1.393149e-005,1.312991e-005
1.817735e+000,-1.460288e-005,1.314155e-005
1.818529e+000,-1.359579e-005,1.314715e-005
1.819324e+000,-1.527428e-005,1.314251e-005
1.820118e+000,-1.560998e-005,1.314374e-005
1.820912e+000,-1.493858e-005,1.314622e-005
1.821706e+000,-1.644922e-005,1.314374e-005
1.822500e+000,-1.493858e-005,1.314948e-005
1.823294e+000,-1.393149e-005,1.315521e-005
1.824088e+000,-1.527428e-005,1.315521e-005
1.824882e+000,-1.510643e-005,1.315881e-005
1.825676e+000,-1.628138e-005,1.316406e-005
1.826471e+000,-1.628138e-005,1.317989e-005
1.827265e+000,-1.376364e-005,1.319377e-005
1.828059e+000,-1.661708e-005,1.319851e-005
1.828853e+000,-1.628138e-005,1.321516e-005
1.829647e+000,-1.577783e-005,1.322482e-005
1.830441e+000,-1.728847e-005,1.322288e-005
1.831235e+000,-1.560998e-005,1.323769e-005
1.832029e+000,-1.292439e-005,1.324894e-005
1.832824e+000,-1.292439e-005,1.324219e-005
1.833618e+000,-1.225299e-005,1.323297e-005
1.834412e+000,-1.091020e-005,1.322988e-005
1.835206e+000,-1.040665e-005,1.322410e-005
1.836000e+000,-1.124590e-005,1.322099e-005
1.836794e+000,-7.553216e-006,1.321396e-005
1.837588e+000,-8.224612e-006,1.319629e-005
1.838382e+000,-1.091020e-005,1.317690e-005
1.839176e+000,-1.326009e-005,1.316309e-005
1.839971e+000,-1.292439e-005,1.316415e-005
1.840765e+000,-1.292439e-005,1.317167e-005
1.841559e+000,-1.326009e-005,1.317518e-005
1.842353e+000,-1.426719e-005,1.317409e-005
1.843147e+000,-1.493858e-005,1.317635e-005
1.843941e+000,-1.460288e-005,1.317635e-005
1.844735e+000,-1.359579e-005,1.317635e-005
1.845529e+000,-1.326009e-005,1.317954e-005
1.846324e+000,-1.661708e-005,1.318410e-005
1.847118e+000,-1.426719e-005,1.320393e-005
1.847912e+000,-1.225299e-005,1.321412e-005
1.848706e+000,-1.225299e-005,1.321697e-005
1.849500e+000,-1.158160e-005,1.321890e-005
1.850294e+000,-1.091020e-005,1.322072e-005
1.851088e+000,-1.292439e-005,1.321387e-005
1.851882e+000,-1.158160e-005,1.321061e-005
1.852676e+000,-1.292439e-005,1.320868e-005
1.853471e+000,-1.359579e-005,1.320654e-005
1.854265e+000,-1.728847e-005,1.320428e-005
1.855059e+000,-1.493858e-005,1.321691e-005
1.855853e+000,-1.393149e-005,1.321811e-005
1.856647e+000,-1.426719e-005,1.321461e-005
1.857441e+000,-1.225299e-005,1.321461e-005
1.858235e+000,-1.158160e-005,1.320458e-005
1.859029e+000,-1.225299e-005,1.319621e-005
1.859824e+000,-1.309224e-005,1.319996e-005
1.860618e+000,-1.225299e-005,1.320445e-005
1.861412e+000,-1.225299e-005,1.320591e-005
1.862206e+000,-1.258869e-005,1.321219e-005
1.863000e+000,-1.258869e-005,1.322138e-005
1.863794e+000,-1.309224e-005,1.323164e-005
1.864588e+000,-1.107805e-005,1.323965e-005
1.865382e+000,-9.903105e-006,1.323585e-005
1.866176e+000,-1.057450e-005,1.322080e-005
1.866971e+000,-1.057450e-005,1.321200e-005
1.867765e+000,-1.258869e-005,1.320931e-005
1.868559e+000,-1.091020e-005,1.321031e-005
1.869353e+000,-9.567407e-006,1.320656e-005
1.870147e+000,-1.124590e-005,1.319746e-005
1.870941e+000,-1.359579e-005,1.318072e-005
1.871735e+000,-1.292439e-005,1.316969e-005
1.872529e+000,-1.091020e-005,1.317505e-005
1.873324e+000,-1.225299e-005,1.315997e-005
1.874118e+000,-1.426719e-005,1.314606e-005
1.874912e+000,-1.376364e-005,1.315253e-005
1.875706e+000,-1.258869e-005,1.314844e-005
1.876500e+000,-1.292439e-005,1.313553e-005
1.877294e+000,-1.359579e-005,1.313337e-005
1.878088e+000,-1.493858e-005,1.313110e-005
1.878882e+000,-1.359579e-005,1.313574e-005
1.879676e+000,-1.258869e-005,1.313995e-005
1.880471e+000,-1.359579e-005,1.314645e-005
1.881265e+000,-1.326009e-005,1.315259e-005
1.882059e+000,-1.393149e-005,1.315150e-005
1.882853e+000,-1.527428e-005,1.315150e-005
1.883647e+000,-1.510643e-005,1.316350e-005
1.884441e+000,-1.258869e-005,1.316763e-005
1.885235e+000,-1.359579e-005,1.316659e-005
1.886029e+000,-1.292439e-005,1.317079e-005
1.886824e+000,-1.292439e-005,1.316695e-005
1.887618e+000,-1.359579e-005,1.315375e-005
1.888412e+000,-1.158160e-005,1.314534e-005
1.889206e+000,-1.225299e-005,1.313394e-005
1.890000e+000,-1.225299e-005,1.312509e-005
1.890794e+000,-1.443504e-005,1.311373e-005
1.891588e+000,-1.292439e-005,1.311432e-005
1.892382e+000,-1.091020e-005,1.310750e-005
1.893176e+000,-1.225299e-005,1.308975e-005
1.893971e+000,-1.091020e-005,1.308086e-005
1.894765e+000,-9.903105e-006,1.306818e-005
1.895559e+000,-1.107805e-005,1.306562e-005
1.896353e+000,-1.426719e-005,1.306943e-005
1.897147e+000,-1.158160e-005,1.307881e-005
1.897941e+000,-1.393149e-005,1.307881e-005
1.898735e+000,-1.527428e-005,1.307707e-005
1.899529e+000,-1.292439e-005,1.307952e-005
1.900324e+000,-1.258869e-005,1.308536e-005
1.901118e+000,-1.359579e-005,1.309271e-005
1.901912e+000,-1.225299e-005,1.309887e-005
1.902706e+000,-9.231709e-006,1.310266e-005
1.903500e+000,-1.225299e-005,1.309375e-005
1.904294e+000,-1.393149e-005,1.310088e-005
1.905088e+000,-1.460288e-005,1.311590e-005
1.905882e+000,-1.326009e-005,1.312733e-005
1.906676e+000,-1.158160e-005,1.312279e-005
1.907471e+000,-1.023880e-005,1.311551e-005
1.908265e+000,-1.292439e-005,1.311379e-005
1.909059e+000,-1.393149e-005,1.312092e-005
1.909853e+000,-1.359579e-005,1.312420e-005
1.910647e+000,-1.326009e-005,1.312308e-005
1.911441e+000,-1.359579e-005,1.312814e-005
1.912235e+000,-1.225299e-005,1.313522e-005
1.913029e+000,-1.158160e-005,1.313264e-005
1.913824e+000,-1.023880e-005,1.312422e-005
1.914618e+000,-1.040665e-005,1.311822e-005
1.915412e+000,-1.258869e-005,1.312025e-005
1.916206e+000,-1.628138e-005,1.312414e-005
1.917000e+000,-1.527428e-005,1.313603e-005
1.917794e+000,-1.644922e-005,1.314611e-005
1.918588e+000,-1.359579e-005,1.314677e-005
1.919382e+000,-1.359579e-005,1.314090e-005
1.920176e+000,-1.460288e-005,1.313978e-005
1.920971e+000,-1.258869e-005,1.313350e-005
1.921765e+000,-1.091020e-005,1.312188e-005
1.922559e+000,-1.191730e-005,1.311162e-005
1.923353e+000,-1.258869e-005,1.310642e-005
1.924147e+000,-1.493858e-005,1.310094e-005
1.924941e+000,-1.460288e-005,1.310033e-005
1.925735e+000,-1.426719e-005,1.310594e-005
1.926529e+000,-1.426719e-005,1.311038e-005
1.927324e+000,-1.560998e-005,1.310676e-005
1.928118e+000,-1.359579e-005,1.310925e-005
1.928912e+000,-1.141375e-005,1.310698e-005
1.929706e+000,-1.292439e-005,1.310251e-005
1.930500e+000,-1.359579e-005,1.310035e-005
1.931294e+000,-1.359579e-005,1.310406e-005
1.932088e+000,-1.560998e-005,1.310294e-005
1.932882e+000,-1.426719e-005,1.311172e-005
1.933676e+000,-1.577783e-005,1.311821e-005
1.934471e+000,-1.493858e-005,1.312814e-005
1.935265e+000,-1.359579e-005,1.312691e-005
1.936059e+000,-1.594568e-005,1.313112e-005
1.936853e+000,-1.560998e-005,1.313727e-005
1.937647e+000,-1.510643e-005,1.314328e-005
1.938441e+000,-1.292439e-005,1.314853e-005
1.939235e+000,-8.896010e-006,1.314638e-005
1.940029e+000,-1.124590e-005,1.313301e-005
1.940824e+000,-1.292439e-005,1.312913e-005
1.941618e+000,-1.091020e-005,1.313118e-005
1.942412e+000,-1.158160e-005,1.313601e-005
1.943206e+000,-1.426719e-005,1.313784e-005
1.944000e+000,-1.292439e-005,1.314530e-005
1.944794e+000,-1.091020e-005,1.315021e-005
1.945588e+000,-1.124590e-005,1.313637e-005
1.946382e+000,-1.292439e-005,1.312929e-005
1.947176e+000,-1.225299e-005,1.313134e-005
1.947971e+000,-1.191730e-005,1.313134e-005
1.948765e+000,-1.258869e-005,1.313230e-005
1.949559e+000,-1.393149e-005,1.313525e-005
1.950353e+000,-1.359579e-005,1.314688e-005
1.951147e+000,-1.326009e-005,1.314688e-005
1.951941e+000,-1.225299e-005,1.314467e-005
1.952735e+000,-1.426719e-005,1.314417e-005
1.953529e+000,-1.527428e-005,1.314532e-005
1.954324e+000,-1.560998e-005,1.314655e-005
1.955118e+000,-1.560998e-005,1.315582e-005
1.955912e+000,-9.903105e-006,1.316714e-005
1.956706e+000,-9.903105e-006,1.314353e-005
1.957500e+000,-1.225299e-005,1.313190e-005
1.958294e+000,-1.225299e-005,1.313190e-005
1.959088e+000,-1.091020e-005,1.312304e-005
1.959882e+000,-1.359579e-005,1.310791e-005
1.960676e+000,-1.426719e-005,1.311111e-005
1.961471e+000,-1.393149e-005,1.311447e-005
1.962265e+000,-1.493858e-005,1.312268e-005
1.963059e+000,-1.242084e-005,1.314015e-005
1.963853e+000,-1.191730e-005,1.314352e-005
1.964647e+000,-1.242084e-005,1.313721e-005
1.965441e+000,-1.326009e-005,1.313566e-005
1.966235e+000,-1.695277e-005,1.313776e-005
1.967029e+000,-1.225299e-005,1.315633e-005
1.967824e+000,-1.527428e-005,1.315633e-005
1.968618e+000,-1.628138e-005,1.316219e-005
1.969412e+000,-1.225299e-005,1.317802e-005
1.970206e+000,-1.158160e-005,1.317383e-005
1.971000e+000,-1.493858e-005,1.315799e-005
1.971794e+000,-1.326009e-005,1.315799e-005
1.972588e+000,-1.493858e-005,1.316009e-005
1.973382e+000,-1.493858e-005,1.316892e-005
1.974176e+000,-1.443504e-005,1.317356e-005
1.974971e+000,-1.225299e-005,1.317584e-005
1.975765e+000,-1.359579e-005,1.316453e-005
1.976559e+000,-1.359579e-005,1.315990e-005
1.977353e+000,-1.225299e-005,1.316205e-005
1.978147e+000,-1.292439e-005,1.316914e-005
1.978941e+000,-1.292439e-005,1.317217e-005
1.979735e+000,-1.158160e-005,1.317614e-005
1.980529e+000,-1.124590e-005,1.317797e-005
1.981324e+000,-1.359579e-005,1.317307e-005
1.982118e+000,-1.258869e-005,1.318102e-005
1.982912e+000,-1.091020e-005,1.318750e-005
1.983706e+000,-1.225299e-005,1.318750e-005
1.984500e+000,-1.393149e-005,1.317988e-005
1.985294e+000,-1.275654e-005,1.317129e-005
1.986088e+000,-1.091020e-005,1.316276e-005
1.986882e+000,-1.091020e-005,1.315900e-005
1.987676e+000,-1.057450e-005,1.315103e-005
1.988471e+000,-7.553216e-006,1.313754e-005
1.989265e+000,-1.023880e-005,1.311230e-005
1.990059e+000,-1.225299e-005,1.310031e-005
1.990853e+000,-1.292439e-005,1.309264e-005
1.991647e+000,-1.577783e-005,1.309047e-005
1.992441e+000,-1.560998e-005,1.309826e-005
1.993235e+000,-1.426719e-005,1.310963e-005
1.994029e+000,-1.359579e-005,1.312710e-005
1.994824e+000,-1.359579e-005,1.313992e-005
1.995618e+000,-1.292439e-005,1.314606e-005
1.996412e+000,-1.426719e-005,1.314909e-005
1.997206e+000,-1.544213e-005,1.315888e-005
1.998000e+000,-1.594568e-005,1.316310e-005
1.998794e+000,-1.628138e-005,1.316923e-005
1.999588e+000,-1.359579e-005,1.318056e-005
2.000382e+000,-1.493858e-005,1.318668e-005
2.001176e+000,-1.493858e-005,1.319550e-005
2.001971e+000,-1.393149e-005,1.320716e-005
2.002765e+000,-1.091020e-005,1.321620e-005
2.003559e+000,-1.023880e-005,1.321042e-005
2.004353e+000,-1.158160e-005,1.319966e-005
2.005147e+000,-8.560311e-006,1.319773e-005
2.005941e+000,-9.567407e-006,1.318641e-005
2.006735e+000,-1.091020e-005,1.317514e-005
2.007529e+000,-1.258869e-005,1.316606e-005
2.008324e+000,-1.359579e-005,1.315824e-005
2.009118e+000,-1.426719e-005,1.315712e-005
2.009912e+000,-8.560311e-006,1.315352e-005
2.010706e+000,-1.426719e-005,1.313028e-005
2.011500e+000,-1.661708e-005,1.312010e-005
2.012294e+000,-1.628138e-005,1.313006e-005
2.013088e+000,-1.460288e-005,1.313979e-005
2.013882e+000,-1.393149e-005,1.314743e-005
2.014676e+000,-1.292439e-005,1.314964e-005
2.015471e+000,-1.225299e-005,1.315545e-005
2.016265e+000,-1.594568e-005,1.315444e-005
2.017059e+000,-1.594568e-005,1.316284e-005
2.017853e+000,-1.393149e-005,1.317124e-005
2.018647e+000,-1.225299e-005,1.317398e-005
2.019441e+000,-1.393149e-005,1.316867e-005
2.020235e+000,-1.107805e-005,1.317592e-005
2.021029e+000,-1.493858e-005,1.317546e-005
2.021824e+000,-1.359579e-005,1.317424e-005
2.022618e+000,-1.091020e-005,1.318037e-005
2.023412e+000,-1.057450e-005,1.318902e-005
2.024206e+000,-9.567407e-006,1.318902e-005
2.025000e+000,-1.174945e-005,1.317775e-005
2.025794e+000,-1.493858e-005,1.318092e-005
2.026588e+000,-1.644922e-005,1.318974e-005
2.027382e+000,-1.426719e-005,1.319897e-005
2.028176e+000,-1.091020e-005,1.318885e-005
2.028971e+000,-1.225299e-005,1.317627e-005
2.029765e+000,-1.091020e-005,1.317627e-005
2.030559e+000,-8.224612e-006,1.316488e-005
2.031353e+000,-8.224612e-006,1.315014e-005
2.032147e+000,-1.292439e-005,1.313704e-005
2.032941e+000,-1.057450e-005,1.313909e-005
2.033735e+000,-9.567407e-006,1.313444e-005
2.034529e+000,-1.326009e-005,1.312312e-005
2.035324e+000,-1.225299e-005,1.312091e-005
2.036118e+000,-1.158160e-005,1.311670e-005
2.036912e+000,-1.359579e-005,1.311054e-005
2.037706e+000,-1.493858e-005,1.310827e-005
2.038500e+000,-1.426719e-005,1.311292e-005
2.039294e+000,-1.225299e-005,1.312039e-005
2.040088e+000,-1.023880e-005,1.313040e-005
2.040882e+000,-1.426719e-005,1.312490e-005
2.041676e+000,-1.493858e-005,1.312372e-005
2.042471e+000,-1.426719e-005,1.312837e-005
2.043265e+000,-1.124590e-005,1.312720e-005
2.044059e+000,-1.292439e-005,1.312228e-005
2.044853e+000,-1.359579e-005,1.312011e-005
2.045647e+000,-1.225299e-005,1.312228e-005
2.046441e+000,-1.309224e-005,1.311694e-005
2.047235e+000,-1.359579e-005,1.311747e-005
2.048029e+000,-1.225299e-005,1.311635e-005
2.048824e+000,-1.359579e-005,1.311534e-005
2.049618e+000,-1.493858e-005,1.311750e-005
2.050412e+000,-1.292439e-005,1.313013e-005
2.051206e+000,-1.426719e-005,1.313595e-005
2.052000e+000,-1.326009e-005,1.314620e-005
2.052794e+000,-1.426719e-005,1.315479e-005
2.053588e+000,-1.762417e-005,1.316126e-005
2.054382e+000,-1.577783e-005,1.318259e-005
2.055176e+000,-1.628138e-005,1.319738e-005
2.055971e+000,-1.426719e-005,1.321124e-005
2.056765e+000,-1.896696e-005,1.322053e-005
2.057559e+000,-1.829557e-005,1.325428e-005
2.058353e+000,-1.661708e-005,1.327441e-005
2.059147e+000,-1.628138e-005,1.328076e-005
2.059941e+000,-1.947051e-005,1.328814e-005
2.060735e+000,-1.829557e-005,1.331140e-005
2.061529e+000,-1.628138e-005,1.333629e-005
2.062324e+000,-1.712062e-005,1.335541e-005
2.063118e+000,-1.896696e-005,1.337571e-005
2.063912e+000,-1.393149e-005,1.340433e-005
2.064706e+000,-1.527428e-005,1.340955e-005
2.065500e+000,-1.560998e-005,1.342132e-005
2.066294e+000,-1.326009e-005,1.342255e-005
2.067088e+000,-1.460288e-005,1.342039e-005
2.067882e+000,-1.460288e-005,1.342039e-005
2.068676e+000,-1.426719e-005,1.342376e-005
2.069471e+000,-1.460288e-005,1.342023e-005
2.070265e+000,-1.376364e-005,1.341661e-005
2.071059e+000,-1.527428e-005,1.341261e-005
2.071853e+000,-1.393149e-005,1.340819e-005
2.072647e+000,-1.426719e-005,1.340473e-005
2.073441e+000,-1.124590e-005,1.340586e-005
2.074235e+000,-1.023880e-005,1.339316e-005
2.075029e+000,-9.903105e-006,1.337849e-005
2.075824e+000,-8.224612e-006,1.335859e-005
2.076618e+000,-8.560311e-006,1.333504e-005
2.077412e+000,-1.023880e-005,1.332116e-005
2.078206e+000,-9.735256e-006,1.330067e-005
2.079000e+000,-5.035477e-006,1.328026e-005
2.079794e+000,-6.881819e-006,1.325343e-005
2.080588e+000,-8.896010e-006,1.322317e-005
2.081382e+000,-7.217518e-006,1.320334e-005
2.082176e+000,-9.567407e-006,1.318947e-005
2.082971e+000,-7.217518e-006,1.318035e-005
2.083765e+000,-1.023880e-005,1.316850e-005
2.084559e+000,-9.567407e-006,1.316679e-005
2.085353e+000,-1.023880e-005,1.316476e-005
2.086147e+000,-1.091020e-005,1.316214e-005
2.086941e+000,-1.124590e-005,1.316964e-005
2.087735e+000,-1.191730e-005,1.317675e-005
2.088529e+000,-1.158160e-005,1.317953e-005
2.089324e+000,-1.124590e-005,1.317449e-005
2.090118e+000,-1.091020e-005,1.316958e-005
2.090912e+000,-1.258869e-005,1.316378e-005
2.091706e+000,-1.426719e-005,1.316168e-005
2.092500e+000,-1.292439e-005,1.316168e-005
2.093294e+000,-1.326009e-005,1.315489e-005
2.094088e+000,-1.426719e-005,1.315036e-005
2.094882e+000,-1.426719e-005,1.315262e-005
2.095676e+000,-1.174945e-005,1.315598e-005
2.096471e+000,-1.359579e-005,1.313925e-005
2.097265e+000,-1.560998e-005,1.313699e-005
2.098059e+000,-1.594568e-005,1.314832e-005
2.098853e+000,-1.661708e-005,1.316092e-005
2.099647e+000,-1.527428e-005,1.317809e-005
2.100441e+000,-1.762417e-005,1.319189e-005
2.101235e+000,-1.728847e-005,1.320921e-005
2.102029e+000,-1.493858e-005,1.322906e-005
2.102824e+000,-1.762417e-005,1.323581e-005
2.103618e+000,-1.846342e-005,1.325093e-005
2.104412e+000,-1.426719e-005,1.325598e-005
2.105206e+000,-1.326009e-005,1.325363e-005
2.106000e+000,-1.309224e-005,1.325143e-005
2.106794e+000,-1.594568e-005,1.324757e-005
2.107588e+000,-1.527428e-005,1.326008e-005
2.108382e+000,-1.527428e-005,1.327198e-005
2.109176e+000,-1.527428e-005,1.328196e-005
2.109971e+000,-1.493858e-005,1.328938e-005
2.110765e+000,-1.258869e-005,1.329812e-005
2.111559e+000,-1.426719e-005,1.329912e-005
2.112353e+000,-1.124590e-005,1.330452e-005
2.113147e+000,-9.567407e-006,1.330069e-005
2.113941e+000,-9.567407e-006,1.329112e-005
2.114735e+000,-1.158160e-005,1.328738e-005
2.115529e+000,-1.628138e-005,1.329171e-005
2.116324e+000,-1.493858e-005,1.331005e-005
2.117118e+000,-1.393149e-005,1.332337e-005
2.117912e+000,-1.023880e-005,1.332762e-005
2.118706e+000,-6.881819e-006,1.332593e-005
2.119500e+000,-9.567407e-006,1.332065e-005
2.120294e+000,-1.023880e-005,1.331647e-005
2.121088e+000,-1.460288e-005,1.330690e-005
2.121882e+000,-1.359579e-005,1.331243e-005
2.122676e+000,-1.426719e-005,1.332030e-005
2.123471e+000,-1.644922e-005,1.332668e-005
2.124265e+000,-1.376364e-005,1.333469e-005
2.125059e+000,-1.326009e-005,1.333469e-005
2.125853e+000,-1.359579e-005,1.333676e-005
2.126647e+000,-1.258869e-005,1.333889e-005
2.127441e+000,-1.023880e-005,1.333574e-005
2.128235e+000,-1.191730e-005,1.332160e-005
2.129029e+000,-1.292439e-005,1.331648e-005
2.129824e+000,-1.460288e-005,1.331750e-005
2.130618e+000,-1.527428e-005,1.332090e-005
2.131412e+000,-1.661708e-005,1.332777e-005
2.132206e+000,-1.409934e-005,1.333757e-005
2.133000e+000,-1.426719e-005,1.333345e-005
2.133794e+000,-1.359579e-005,1.333050e-005
2.134588e+000,-1.225299e-005,1.333365e-005
2.135382e+000,-1.158160e-005,1.332951e-005
2.136176e+000,-1.225299e-005,1.332557e-005
2.136971e+000,-1.510643e-005,1.332355e-005
2.137765e+000,-1.359579e-005,1.332873e-005
2.138559e+000,-1.393149e-005,1.333479e-005
2.139353e+000,-1.644922e-005,1.334004e-005
2.140147e+000,-1.292439e-005,1.335441e-005
2.140941e+000,-8.896010e-006,1.334948e-005
2.141735e+000,-1.191730e-005,1.333899e-005
2.142529e+000,-1.426719e-005,1.334173e-005
2.143324e+000,-1.292439e-005,1.334811e-005
2.144118e+000,-9.903105e-006,1.335383e-005
2.144912e+000,-1.091020e-005,1.335383e-005
2.145706e+000,-1.376364e-005,1.335339e-005
2.146500e+000,-1.460288e-005,1.335171e-005
2.147294e+000,-1.695277e-005,1.336114e-005
2.148088e+000,-1.275654e-005,1.337226e-005
2.148882e+000,-9.567407e-006,1.336385e-005
2.149676e+000,-1.124590e-005,1.335485e-005
2.150471e+000,-1.225299e-005,1.335103e-005
2.151265e+000,-1.023880e-005,1.334689e-005
2.152059e+000,-1.091020e-005,1.334149e-005
2.152853e+000,-1.628138e-005,1.334552e-005
2.153647e+000,-1.460288e-005,1.335923e-005
2.154441e+000,-1.225299e-005,1.336151e-005
2.155235e+000,-1.560998e-005,1.335399e-005
2.156029e+000,-1.460288e-005,1.336208e-005
2.156824e+000,-1.292439e-005,1.337150e-005
2.157618e+000,-1.359579e-005,1.337891e-005
2.158412e+000,-1.426719e-005,1.338103e-005
2.159206e+000,-1.762417e-005,1.338215e-005
2.160000e+000,-1.359579e-005,1.339711e-005
2.160794e+000,-1.376364e-005,1.339818e-005
2.161588e+000,-1.628138e-005,1.339873e-005
2.162382e+000,-1.393149e-005,1.341238e-005
2.163176e+000,-1.225299e-005,1.341950e-005
2.163971e+000,-1.292439e-005,1.342487e-005
2.164765e+000,-1.292439e-005,1.343184e-005
