X [s],L DELTOID ANTERIOR: EMG 3 [V],L DELTOID ANTERIOR: EMG 3->filter (FilterSlidingRMS69) [V]
0.000000e+000,0.000000e+000,0.000000e+000
7.941176e-004,0.000000e+000,0.000000e+000
1.588235e-003,0.000000e+000,0.000000e+000
2.382353e-003,0.000000e+000,0.000000e+000
3.176471e-003,0.000000e+000,0.000000e+000
3.970588e-003,0.000000e+000,0.000000e+000
4.764706e-003,0.000000e+000,0.000000e+000
5.558824e-003,0.000000e+000,0.000000e+000
6.352941e-003,0.000000e+000,0.000000e+000
7.147059e-003,0.000000e+000,0.000000e+000
7.941176e-003,0.000000e+000,0.000000e+000
8.735294e-003,0.000000e+000,0.000000e+000
9.529412e-003,0.000000e+000,0.000000e+000
1.032353e-002,0.000000e+000,0.000000e+000
1.111765e-002,0.000000e+000,0.000000e+000
1.191176e-002,0.000000e+000,0.000000e+000
1.270588e-002,0.000000e+000,0.000000e+000
1.350000e-002,0.000000e+000,0.000000e+000
1.429412e-002,0.000000e+000,0.000000e+000
1.508824e-002,0.000000e+000,0.000000e+000
1.588235e-002,0.000000e+000,0.000000e+000
1.667647e-002,0.000000e+000,0.000000e+000
1.747059e-002,0.000000e+000,0.000000e+000
1.826471e-002,0.000000e+000,0.000000e+000
1.905882e-002,0.000000e+000,0.000000e+000
1.985294e-002,0.000000e+000,0.000000e+000
2.064706e-002,0.000000e+000,0.000000e+000
2.144118e-002,0.000000e+000,0.000000e+000
2.223529e-002,0.000000e+000,0.000000e+000
2.302941e-002,0.000000e+000,0.000000e+000
2.382353e-002,0.000000e+000,0.000000e+000
2.461765e-002,0.000000e+000,0.000000e+000
2.541176e-002,0.000000e+000,0.000000e+000
2.620588e-002,0.000000e+000,0.000000e+000
2.700000e-002,0.000000e+000,0.000000e+000
2.779412e-002,0.000000e+000,0.000000e+000
2.858824e-002,0.000000e+000,0.000000e+000
2.938235e-002,0.000000e+000,0.000000e+000
3.017647e-002,0.000000e+000,0.000000e+000
3.097059e-002,0.000000e+000,0.000000e+000
3.176471e-002,0.000000e+000,0.000000e+000
3.255882e-002,0.000000e+000,0.000000e+000
3.335294e-002,0.000000e+000,0.000000e+000
3.414706e-002,0.000000e+000,0.000000e+000
3.494118e-002,0.000000e+000,0.000000e+000
3.573529e-002,0.000000e+000,0.000000e+000
3.652941e-002,0.000000e+000,0.000000e+000
3.732353e-002,0.000000e+000,0.000000e+000
3.811765e-002,0.000000e+000,0.000000e+000
3.891176e-002,0.000000e+000,0.000000e+000
3.970588e-002,0.000000e+000,0.000000e+000
4.050000e-002,0.000000e+000,0.000000e+000
4.129412e-002,0.000000e+000,0.000000e+000
4.208824e-002,0.000000e+000,0.000000e+000
4.288235e-002,0.000000e+000,0.000000e+000
4.367647e-002,0.000000e+000,0.000000e+000
4.447059e-002,0.000000e+000,0.000000e+000
4.526471e-002,0.000000e+000,0.000000e+000
4.605882e-002,0.000000e+000,0.000000e+000
4.685294e-002,0.000000e+000,0.000000e+000
4.764706e-002,0.000000e+000,0.000000e+000
4.844118e-002,0.000000e+000,0.000000e+000
4.923529e-002,0.000000e+000,0.000000e+000
5.002941e-002,0.000000e+000,0.000000e+000
5.082353e-002,0.000000e+000,0.000000e+000
5.161765e-002,0.000000e+000,0.000000e+000
5.241176e-002,0.000000e+000,0.000000e+000
5.320588e-002,0.000000e+000,0.000000e+000
5.400000e-002,0.000000e+000,0.000000e+000
5.479412e-002,0.000000e+000,0.000000e+000
5.558824e-002,0.000000e+000,0.000000e+000
5.638235e-002,0.000000e+000,0.000000e+000
5.717647e-002,0.000000e+000,0.000000e+000
5.797059e-002,0.000000e+000,0.000000e+000
5.876471e-002,0.000000e+000,0.000000e+000
5.955882e-002,0.000000e+000,0.000000e+000
6.035294e-002,0.000000e+000,0.000000e+000
6.114706e-002,0.000000e+000,0.000000e+000
6.194118e-002,0.000000e+000,0.000000e+000
6.273529e-002,0.000000e+000,0.000000e+000
6.352941e-002,0.000000e+000,0.000000e+000
6.432353e-002,0.000000e+000,0.000000e+000
6.511765e-002,0.000000e+000,0.000000e+000
6.591176e-002,0.000000e+000,0.000000e+000
6.670588e-002,0.000000e+000,0.000000e+000
6.750000e-002,0.000000e+000,0.000000e+000
6.829412e-002,0.000000e+000,0.000000e+000
6.908824e-002,0.000000e+000,0.000000e+000
6.988235e-002,0.000000e+000,0.000000e+000
7.067647e-002,0.000000e+000,0.000000e+000
7.147059e-002,0.000000e+000,0.000000e+000
7.226471e-002,0.000000e+000,0.000000e+000
7.305882e-002,0.000000e+000,0.000000e+000
7.385294e-002,0.000000e+000,0.000000e+000
7.464706e-002,0.000000e+000,0.000000e+000
7.544118e-002,0.000000e+000,0.000000e+000
7.623529e-002,0.000000e+000,0.000000e+000
7.702941e-002,0.000000e+000,0.000000e+000
7.782353e-002,0.000000e+000,0.000000e+000
7.861765e-002,0.000000e+000,0.000000e+000
7.941176e-002,0.000000e+000,0.000000e+000
8.020588e-002,0.000000e+000,0.000000e+000
8.100000e-002,0.000000e+000,0.000000e+000
8.179412e-002,0.000000e+000,0.000000e+000
8.258824e-002,0.000000e+000,0.000000e+000
8.338235e-002,0.000000e+000,0.000000e+000
8.417647e-002,0.000000e+000,0.000000e+000
8.497059e-002,0.000000e+000,0.000000e+000
8.576471e-002,0.000000e+000,0.000000e+000
8.655882e-002,0.000000e+000,0.000000e+000
8.735294e-002,0.000000e+000,0.000000e+000
8.814706e-002,0.000000e+000,0.000000e+000
8.894118e-002,0.000000e+000,0.000000e+000
8.973529e-002,0.000000e+000,0.000000e+000
9.052941e-002,0.000000e+000,0.000000e+000
9.132353e-002,0.000000e+000,0.000000e+000
9.211765e-002,0.000000e+000,0.000000e+000
9.291176e-002,0.000000e+000,0.000000e+000
9.370588e-002,0.000000e+000,0.000000e+000
9.450000e-002,-2.232395e-005,0.000000e+000
9.529412e-002,-1.997406e-005,0.000000e+000
9.608824e-002,-1.493858e-005,0.000000e+000
9.688235e-002,-8.224612e-006,0.000000e+000
9.767647e-002,-1.023880e-005,0.000000e+000
9.847059e-002,-1.359579e-005,0.000000e+000
9.926471e-002,-1.091020e-005,0.000000e+000
1.000588e-001,-7.553216e-006,0.000000e+000
1.008529e-001,-1.242084e-005,0.000000e+000
1.016471e-001,-2.030976e-005,0.000000e+000
1.024412e-001,-1.258869e-005,0.000000e+000
1.032353e-001,1.846342e-006,0.000000e+000
1.040294e-001,1.527428e-005,0.000000e+000
1.048235e-001,1.762417e-005,0.000000e+000
1.056176e-001,5.539025e-006,0.000000e+000
1.064118e-001,-5.874723e-006,0.000000e+000
1.072059e-001,-8.224612e-006,0.000000e+000
1.080000e-001,-7.888914e-006,0.000000e+000
1.087941e-001,-6.546120e-006,0.000000e+000
1.095882e-001,-8.224612e-006,0.000000e+000
1.103824e-001,-1.292439e-005,0.000000e+000
1.111765e-001,-1.023880e-005,0.000000e+000
1.119706e-001,-7.217518e-006,0.000000e+000
1.127647e-001,-5.874723e-006,0.000000e+000
1.135588e-001,-1.896696e-005,0.000000e+000
1.143529e-001,-2.870222e-005,0.000000e+000
1.151471e-001,-3.105211e-005,0.000000e+000
1.159412e-001,-6.881819e-006,0.000000e+000
1.167353e-001,2.433814e-005,0.000000e+000
1.175294e-001,3.205920e-005,0.000000e+000
1.183235e-001,2.467384e-005,0.000000e+000
1.191176e-001,8.896010e-006,0.000000e+000
1.199118e-001,-2.182040e-006,0.000000e+000
1.207059e-001,-1.225299e-005,0.000000e+000
1.215000e-001,-1.896696e-005,0.000000e+000
1.222941e-001,-1.258869e-005,0.000000e+000
1.230882e-001,-6.881819e-006,0.000000e+000
1.238824e-001,-8.896010e-006,0.000000e+000
1.246765e-001,-8.224612e-006,0.000000e+000
1.254706e-001,-8.224612e-006,0.000000e+000
1.262647e-001,-8.896010e-006,0.000000e+000
1.270588e-001,-9.567407e-006,0.000000e+000
1.278529e-001,-7.217518e-006,0.000000e+000
1.286471e-001,-8.560311e-006,0.000000e+000
1.294412e-001,-6.881819e-006,0.000000e+000
1.302353e-001,-5.539025e-006,0.000000e+000
1.310294e-001,-5.539025e-006,0.000000e+000
1.318235e-001,-9.567407e-006,0.000000e+000
1.326176e-001,-8.896010e-006,0.000000e+000
1.334118e-001,-8.896010e-006,0.000000e+000
1.342059e-001,-1.091020e-005,0.000000e+000
1.350000e-001,-1.225299e-005,0.000000e+000
1.357941e-001,-1.057450e-005,0.000000e+000
1.365882e-001,-1.023880e-005,0.000000e+000
1.373824e-001,-8.896010e-006,0.000000e+000
1.381765e-001,-4.531929e-006,0.000000e+000
1.389706e-001,3.860533e-006,0.000000e+000
1.397647e-001,8.896010e-006,0.000000e+000
1.405588e-001,3.189136e-006,0.000000e+000
1.413529e-001,-4.196231e-006,0.000000e+000
1.421471e-001,-6.210422e-006,0.000000e+000
1.429412e-001,-1.158160e-005,0.000000e+000
1.437353e-001,-1.443504e-005,0.000000e+000
1.445294e-001,-1.225299e-005,0.000000e+000
1.453235e-001,-9.903105e-006,0.000000e+000
1.461176e-001,-1.225299e-005,0.000000e+000
1.469118e-001,-1.359579e-005,0.000000e+000
1.477059e-001,-6.881819e-006,0.000000e+000
1.485000e-001,-5.539025e-006,0.000000e+000
1.492941e-001,-7.888914e-006,0.000000e+000
1.500882e-001,-4.867628e-006,0.000000e+000
1.508824e-001,1.174945e-006,0.000000e+000
1.516765e-001,1.174945e-006,0.000000e+000
1.524706e-001,-1.091020e-005,0.000000e+000
1.532647e-001,-2.970932e-005,0.000000e+000
1.540588e-001,-4.045167e-005,0.000000e+000
1.548529e-001,-4.884413e-005,0.000000e+000
1.556471e-001,-4.179446e-005,0.000000e+000
1.564412e-001,-1.795987e-005,0.000000e+000
1.572353e-001,2.299535e-005,0.000000e+000
1.580294e-001,8.493171e-005,0.000000e+000
1.588235e-001,1.176623e-004,0.000000e+000
1.596176e-001,8.778516e-005,0.000000e+000
1.604118e-001,3.675899e-005,0.000000e+000
1.612059e-001,2.349889e-006,0.000000e+000
1.620000e-001,-2.635233e-005,0.000000e+000
1.627941e-001,-4.179446e-005,0.000000e+000
1.635882e-001,-4.313725e-005,0.000000e+000
1.643824e-001,-3.239490e-005,0.000000e+000
1.651765e-001,-2.702373e-005,0.000000e+000
1.659706e-001,-2.299535e-005,0.000000e+000
1.667647e-001,-2.182040e-005,0.000000e+000
1.675588e-001,-1.896696e-005,0.000000e+000
1.683529e-001,-1.762417e-005,0.000000e+000
1.691471e-001,-1.359579e-005,0.000000e+000
1.699412e-001,-1.091020e-005,0.000000e+000
1.707353e-001,-8.224612e-006,0.000000e+000
1.715294e-001,-7.217518e-006,0.000000e+000
1.723235e-001,-8.560311e-006,0.000000e+000
1.731176e-001,-8.896010e-006,0.000000e+000
1.739118e-001,-1.527428e-005,0.000000e+000
1.747059e-001,-1.896696e-005,0.000000e+000
1.755000e-001,-7.721065e-006,0.000000e+000
1.762941e-001,7.217518e-006,0.000000e+000
1.770882e-001,1.678492e-006,0.000000e+000
1.778824e-001,-1.225299e-005,0.000000e+000
1.786765e-001,-1.913481e-005,0.000000e+000
1.794706e-001,-8.560311e-006,0.000000e+000
1.802647e-001,4.531929e-006,0.000000e+000
1.810588e-001,8.560311e-006,0.000000e+000
1.818529e-001,6.210422e-006,0.000000e+000
1.826471e-001,8.392462e-007,0.000000e+000
1.834412e-001,-8.392462e-007,0.000000e+000
1.842353e-001,-6.881819e-006,0.000000e+000
1.850294e-001,-1.762417e-005,0.000000e+000
1.858235e-001,-1.997406e-005,0.000000e+000
1.866176e-001,-1.762417e-005,0.000000e+000
1.874118e-001,-5.874723e-006,0.000000e+000
1.882059e-001,1.023880e-005,0.000000e+000
1.890000e-001,1.795987e-005,0.000000e+000
1.897941e-001,7.049668e-006,0.000000e+000
1.905882e-001,-1.846342e-006,0.000000e+000
1.913824e-001,-5.874723e-006,0.000000e+000
1.921765e-001,-8.896010e-006,0.000000e+000
1.929706e-001,-8.560311e-006,0.000000e+000
1.937647e-001,-4.196231e-006,0.000000e+000
1.945588e-001,2.517739e-006,0.000000e+000
1.953529e-001,-1.510643e-006,0.000000e+000
1.961471e-001,-8.896010e-006,0.000000e+000
1.969412e-001,-2.903792e-005,0.000000e+000
1.977353e-001,-4.985122e-005,0.000000e+000
1.985294e-001,-5.287251e-005,0.000000e+000
1.993235e-001,-2.853437e-006,0.000000e+000
2.001176e-001,4.414435e-005,0.000000e+000
2.009118e-001,3.474479e-005,0.000000e+000
2.017059e-001,6.546120e-006,0.000000e+000
2.025000e-001,-2.165255e-005,0.000000e+000
2.032941e-001,-4.145876e-005,0.000000e+000
2.040882e-001,-5.455100e-005,0.000000e+000
2.048824e-001,-4.582284e-005,0.000000e+000
2.056765e-001,1.863127e-005,0.000000e+000
2.064706e-001,6.294347e-005,0.000000e+000
2.072647e-001,6.797894e-005,0.000000e+000
2.080588e-001,5.421531e-005,0.000000e+000
2.088529e-001,2.870222e-005,0.000000e+000
2.096471e-001,8.392462e-007,0.000000e+000
2.104412e-001,-1.644922e-005,0.000000e+000
2.112353e-001,-2.970932e-005,0.000000e+000
2.120294e-001,-3.373770e-005,0.000000e+000
2.128235e-001,-4.179446e-005,0.000000e+000
2.136176e-001,-3.642328e-005,0.000000e+000
2.144118e-001,-2.853437e-006,0.000000e+000
2.152059e-001,2.870222e-005,0.000000e+000
2.160000e-001,2.131685e-005,0.000000e+000
2.167941e-001,4.531929e-006,0.000000e+000
2.175882e-001,-9.567407e-006,0.000000e+000
2.183824e-001,-1.695277e-005,0.000000e+000
2.191765e-001,-2.265965e-005,0.000000e+000
2.199706e-001,-2.635233e-005,0.000000e+000
2.207647e-001,-2.467384e-005,0.000000e+000
2.215588e-001,-1.963836e-005,0.000000e+000
2.223529e-001,-1.510643e-005,0.000000e+000
2.231471e-001,-1.158160e-005,0.000000e+000
2.239412e-001,-8.560311e-006,0.000000e+000
2.247353e-001,-8.560311e-006,0.000000e+000
2.255294e-001,-9.567407e-006,0.000000e+000
2.263235e-001,-9.903105e-006,0.000000e+000
2.271176e-001,-1.191730e-005,0.000000e+000
2.279118e-001,-1.225299e-005,0.000000e+000
2.287059e-001,-1.023880e-005,0.000000e+000
2.295000e-001,-2.182040e-006,0.000000e+000
2.302941e-001,-1.678492e-007,0.000000e+000
2.310882e-001,-2.853437e-006,0.000000e+000
2.318824e-001,-5.874723e-006,0.000000e+000
2.326765e-001,-1.225299e-005,0.000000e+000
2.334706e-001,-1.124590e-005,0.000000e+000
2.342647e-001,-1.426719e-005,0.000000e+000
2.350588e-001,-5.539025e-006,0.000000e+000
2.358529e-001,-1.107805e-005,0.000000e+000
2.366471e-001,-1.829557e-005,0.000000e+000
2.374412e-001,-2.568093e-005,0.000000e+000
2.382353e-001,-2.316319e-005,0.000000e+000
2.390294e-001,-2.400244e-005,0.000000e+000
2.398235e-001,-4.867628e-006,0.000000e+000
2.406176e-001,3.205920e-005,0.000000e+000
2.414118e-001,5.757229e-005,0.000000e+000
2.422059e-001,5.220111e-005,0.000000e+000
2.430000e-001,2.333104e-005,0.000000e+000
2.437941e-001,1.057450e-005,0.000000e+000
2.445882e-001,3.524834e-006,0.000000e+000
2.453824e-001,-8.392462e-007,0.000000e+000
2.461765e-001,-1.158160e-005,0.000000e+000
2.469706e-001,-1.863127e-005,0.000000e+000
2.477647e-001,-1.695277e-005,0.000000e+000
2.485588e-001,-1.661708e-005,0.000000e+000
2.493529e-001,-2.165255e-005,1.889735e-005
2.501471e-001,-3.239490e-005,1.893682e-005
2.509412e-001,-3.978027e-005,1.902486e-005
2.517353e-001,-2.316319e-005,1.915685e-005
2.525294e-001,1.695277e-005,1.920140e-005
2.533235e-001,3.608759e-005,1.922522e-005
2.541176e-001,2.870222e-005,1.933278e-005
2.549118e-001,2.232395e-005,1.940052e-005
2.557059e-001,8.560311e-006,1.944138e-005
2.565000e-001,-8.224612e-006,1.944738e-005
2.572941e-001,-3.205920e-005,1.945292e-005
2.580882e-001,-4.011597e-005,1.953687e-005
2.588824e-001,-2.198825e-005,1.966760e-005
2.596765e-001,-1.258869e-005,1.970670e-005
2.604706e-001,-6.546120e-006,1.971950e-005
2.612647e-001,-8.392462e-007,1.972296e-005
2.620588e-001,-3.189136e-006,1.972302e-005
2.628529e-001,-1.091020e-005,1.972384e-005
2.636471e-001,-1.829557e-005,1.973345e-005
2.644412e-001,-2.333104e-005,1.976044e-005
2.652353e-001,-2.299535e-005,1.980425e-005
2.660294e-001,-1.628138e-005,1.984673e-005
2.668235e-001,-6.881819e-006,1.986798e-005
2.676176e-001,1.057450e-005,1.987178e-005
2.684118e-001,1.225299e-005,1.988074e-005
2.692059e-001,8.392462e-007,1.989276e-005
2.700000e-001,-5.874723e-006,1.989282e-005
2.707941e-001,-7.888914e-006,1.989558e-005
2.715882e-001,-8.224612e-006,1.990056e-005
2.723824e-001,-6.881819e-006,1.990597e-005
2.731765e-001,-8.392462e-007,1.990976e-005
2.739706e-001,-2.182040e-006,1.990982e-005
2.747647e-001,-5.539025e-006,1.991020e-005
2.755588e-001,-9.567407e-006,1.991265e-005
2.763529e-001,-1.023880e-005,1.991997e-005
2.771471e-001,-8.896010e-006,1.992835e-005
2.779412e-001,-9.231709e-006,1.993467e-005
2.787353e-001,-8.224612e-006,1.994148e-005
2.795294e-001,-5.539025e-006,1.994688e-005
2.803235e-001,-5.539025e-006,1.994933e-005
2.811176e-001,-5.539025e-006,1.995177e-005
2.819118e-001,-4.196231e-006,1.995422e-005
2.827059e-001,-4.364080e-006,1.995563e-005
2.835000e-001,-5.539025e-006,1.995715e-005
2.842941e-001,-4.531929e-006,1.995960e-005
2.850882e-001,-1.174945e-006,1.996124e-005
2.858824e-001,7.217518e-006,1.996134e-005
2.866765e-001,9.567407e-006,1.996550e-005
2.874706e-001,3.356985e-006,1.997280e-005
2.882647e-001,-3.189136e-006,1.997370e-005
2.890588e-001,-8.224612e-006,1.997451e-005
2.898529e-001,-9.735256e-006,1.997990e-005
2.906471e-001,-9.903105e-006,1.998745e-005
2.914412e-001,-5.203327e-006,1.999526e-005
2.922353e-001,5.203327e-006,1.999742e-005
2.930294e-001,5.035477e-007,1.999957e-005
2.938235e-001,-4.867628e-006,1.999959e-005
2.946176e-001,-9.231709e-006,2.000148e-005
2.954118e-001,-9.063859e-006,2.000826e-005
2.962059e-001,-1.359579e-005,2.001480e-005
2.970000e-001,-1.057450e-005,2.002950e-005
2.977941e-001,-1.091020e-005,2.003839e-005
2.985882e-001,-9.735256e-006,2.004785e-005
2.993824e-001,-7.553216e-006,2.005537e-005
3.001765e-001,-9.567407e-006,2.005990e-005
3.009706e-001,-1.661708e-005,2.006717e-005
3.017647e-001,-2.853437e-005,2.008907e-005
3.025588e-001,-4.649424e-005,2.015350e-005
3.033529e-001,-4.112306e-005,2.032358e-005
3.041471e-001,1.376364e-005,2.045565e-005
3.049412e-001,5.455100e-005,2.047039e-005
3.057353e-001,5.052262e-005,2.070058e-005
3.065294e-001,2.668803e-005,2.089601e-005
3.073235e-001,5.874723e-006,2.095022e-005
3.081176e-001,-5.035477e-007,2.095284e-005
3.089118e-001,-1.963836e-005,2.095286e-005
3.097059e-001,-3.910887e-005,2.098215e-005
3.105000e-001,-4.884413e-005,2.109790e-005
3.112941e-001,-4.213016e-005,2.127720e-005
3.120882e-001,-7.553216e-006,2.140963e-005
3.128824e-001,1.527428e-005,2.141387e-005
3.136765e-001,7.217518e-006,2.143121e-005
3.144706e-001,-4.196231e-006,2.143508e-005
3.152647e-001,1.057450e-005,2.143639e-005
3.160588e-001,2.232395e-005,2.144470e-005
3.168529e-001,1.795987e-005,2.148167e-005
3.176471e-001,3.860533e-006,2.150557e-005
3.184412e-001,-4.196231e-006,2.150667e-005
3.192353e-001,-5.539025e-006,2.150797e-005
3.200294e-001,-1.326009e-005,2.151024e-005
3.208235e-001,-1.963836e-005,2.152326e-005
3.216176e-001,-1.829557e-005,2.155177e-005
3.224118e-001,-2.047761e-005,2.157649e-005
3.232059e-001,-1.896696e-005,2.160741e-005
3.240000e-001,-3.524834e-006,2.163391e-005
3.247941e-001,4.699779e-006,2.163482e-005
3.255882e-001,8.392462e-007,2.163645e-005
3.263824e-001,-1.091020e-005,2.163650e-005
3.271765e-001,-2.635233e-005,2.164526e-005
3.279706e-001,-2.735943e-005,2.169629e-005
3.287647e-001,-4.145876e-005,2.175115e-005
3.295588e-001,-5.320821e-005,2.187662e-005
3.303529e-001,-5.522240e-005,2.208173e-005
3.311471e-001,-1.242084e-005,2.230056e-005
3.319412e-001,4.951553e-005,2.231157e-005
3.327353e-001,6.965744e-005,2.248587e-005
3.335294e-001,5.925078e-005,2.282689e-005
3.343235e-001,4.448005e-005,2.307049e-005
3.351176e-001,2.870222e-005,2.320664e-005
3.359118e-001,1.795987e-005,2.326310e-005
3.367059e-001,-1.091020e-005,2.328517e-005
3.375000e-001,-2.769513e-005,2.329331e-005
3.382941e-001,-4.078737e-005,2.334569e-005
3.390882e-001,-5.354391e-005,2.345888e-005
3.398824e-001,-4.078737e-005,2.365269e-005
3.406765e-001,5.035477e-006,2.376442e-005
3.414706e-001,3.340200e-005,2.376612e-005
3.422647e-001,2.668803e-005,2.384076e-005
3.430588e-001,8.896010e-006,2.388828e-005
3.438529e-001,-1.091020e-005,2.389355e-005
3.446471e-001,-2.366674e-005,2.386826e-005
3.454412e-001,-3.776608e-005,2.387901e-005
3.462353e-001,-4.045167e-005,2.395910e-005
3.470294e-001,-2.064546e-005,2.406314e-005
3.478235e-001,-8.392462e-007,2.408439e-005
3.486176e-001,1.191730e-005,2.407222e-005
3.494118e-001,6.546120e-006,2.407374e-005
3.502059e-001,-3.692683e-006,2.407280e-005
3.510000e-001,-6.881819e-006,2.406349e-005
3.517941e-001,-8.392462e-006,2.403932e-005
3.525882e-001,-1.292439e-005,2.403349e-005
3.533824e-001,-1.695277e-005,2.404433e-005
3.541765e-001,-1.628138e-005,2.404791e-005
3.549706e-001,-1.896696e-005,2.404490e-005
3.557647e-001,-2.517739e-005,2.406668e-005
3.565588e-001,-2.182040e-005,2.410630e-005
3.573529e-001,-9.567407e-006,2.413327e-005
3.581471e-001,1.510643e-006,2.413520e-005
3.589412e-001,5.035477e-006,2.413253e-005
3.597353e-001,8.896010e-006,2.412974e-005
3.605294e-001,5.874723e-006,2.412393e-005
3.613235e-001,-8.392462e-007,2.411929e-005
3.621176e-001,-3.860533e-006,2.411590e-005
3.629118e-001,-7.217518e-006,2.411461e-005
3.637059e-001,-8.560311e-006,2.409428e-005
3.645000e-001,-6.546120e-006,2.404463e-005
3.652941e-001,-1.057450e-005,2.398353e-005
3.660882e-001,-7.721065e-006,2.398781e-005
3.668824e-001,-7.217518e-006,2.395242e-005
3.676765e-001,-3.860533e-006,2.388747e-005
3.684706e-001,-2.853437e-006,2.384785e-005
3.692647e-001,-1.846342e-006,2.384311e-005
3.700588e-001,3.524834e-006,2.384301e-005
3.708529e-001,1.326009e-005,2.383382e-005
3.716471e-001,1.326009e-005,2.382153e-005
3.724412e-001,8.560311e-006,2.382269e-005
3.732353e-001,3.860533e-006,2.382442e-005
3.740294e-001,-5.203327e-006,2.382012e-005
3.748235e-001,-1.225299e-005,2.381741e-005
3.756176e-001,-1.628138e-005,2.382293e-005
3.764118e-001,-1.795987e-005,2.383535e-005
3.772059e-001,-1.292439e-005,2.385078e-005
3.780000e-001,-9.567407e-006,2.385845e-005
3.787941e-001,-8.224612e-006,2.385967e-005
3.795882e-001,-8.392462e-007,2.386103e-005
3.803824e-001,-1.678492e-007,2.385903e-005
3.811765e-001,-8.560311e-006,2.385698e-005
3.819706e-001,-2.400244e-005,2.385576e-005
3.827647e-001,-3.508049e-005,2.388891e-005
3.835588e-001,-3.776608e-005,2.396555e-005
3.843529e-001,-2.299535e-005,2.405225e-005
3.851471e-001,4.531929e-006,2.407730e-005
3.859412e-001,2.400244e-005,2.407126e-005
3.867353e-001,1.359579e-005,2.410242e-005
3.875294e-001,-2.165255e-005,2.410940e-005
3.883235e-001,-5.488670e-005,2.413899e-005
3.891176e-001,-2.702373e-005,2.433593e-005
3.899118e-001,5.488670e-005,2.437850e-005
3.907059e-001,8.979935e-005,2.457383e-005
3.915000e-001,6.344701e-005,2.508980e-005
3.922941e-001,2.400244e-005,2.534158e-005
3.930882e-001,-3.524834e-006,2.536934e-005
3.938824e-001,-2.165255e-005,2.535703e-005
3.946765e-001,-3.440909e-005,2.537704e-005
3.954706e-001,-3.004501e-005,2.544509e-005
3.962647e-001,-1.896696e-005,2.549214e-005
3.970588e-001,-1.393149e-005,2.550306e-005
3.978529e-001,-1.359579e-005,2.551222e-005
3.986471e-001,-1.594568e-005,2.552184e-005
3.994412e-001,-1.493858e-005,2.553382e-005
4.002353e-001,-1.728847e-005,2.554626e-005
4.010294e-001,-1.661708e-005,2.556479e-005
4.018235e-001,-2.165255e-005,2.558190e-005
4.026176e-001,-2.299535e-005,2.560367e-005
4.034118e-001,-1.326009e-005,2.558165e-005
4.042059e-001,-5.539025e-006,2.549058e-005
4.050000e-001,-1.023880e-005,2.534303e-005
4.057941e-001,-1.158160e-005,2.523965e-005
4.065882e-001,-4.531929e-006,2.522776e-005
4.073824e-001,-3.524834e-006,2.519566e-005
4.081765e-001,-1.510643e-006,2.473638e-005
4.089706e-001,-4.196231e-006,2.382866e-005
4.097647e-001,-3.524834e-006,2.330921e-005
4.105588e-001,-4.196231e-006,2.321757e-005
4.113529e-001,-2.853437e-006,2.321839e-005
4.121471e-001,5.035477e-006,2.317128e-005
4.129412e-001,1.107805e-005,2.305268e-005
4.137353e-001,4.364080e-006,2.293231e-005
4.145294e-001,1.174945e-006,2.286065e-005
4.153235e-001,1.174945e-006,2.280982e-005
4.161176e-001,-8.392462e-007,2.277297e-005
4.169118e-001,-2.853437e-006,2.273970e-005
4.177059e-001,-6.881819e-006,2.271507e-005
4.185000e-001,-1.359579e-005,2.269661e-005
4.192941e-001,-1.628138e-005,2.269661e-005
4.200882e-001,-1.829557e-005,2.270685e-005
4.208824e-001,-1.292439e-005,2.272557e-005
4.216765e-001,-3.524834e-006,2.273362e-005
4.224706e-001,-2.182040e-006,2.272936e-005
4.232647e-001,-5.539025e-006,2.272415e-005
4.240588e-001,-6.881819e-006,2.270995e-005
4.248529e-001,-5.035477e-006,2.268803e-005
4.256471e-001,-6.210422e-006,2.268563e-005
4.264412e-001,-7.553216e-006,2.268468e-005
4.272353e-001,-1.292439e-005,2.268849e-005
4.280294e-001,-1.963836e-005,2.268967e-005
4.288235e-001,-2.047761e-005,2.269104e-005
4.296176e-001,-2.165255e-005,2.271531e-005
4.304118e-001,-2.702373e-005,2.274672e-005
4.312059e-001,-2.735943e-005,2.279266e-005
4.320000e-001,-2.903792e-005,2.284221e-005
4.327941e-001,-2.030976e-005,2.290087e-005
4.335882e-001,1.997406e-005,2.292948e-005
4.343824e-001,5.857939e-005,2.295389e-005
4.351765e-001,6.797894e-005,2.316938e-005
4.359706e-001,4.884413e-005,2.345776e-005
4.367647e-001,1.628138e-005,2.359820e-005
4.375588e-001,-2.165255e-005,2.361376e-005
4.383529e-001,-4.464790e-005,2.363829e-005
4.391471e-001,-3.776608e-005,2.375058e-005
4.399412e-001,1.460288e-005,2.384269e-005
4.407353e-001,4.280156e-005,2.385670e-005
4.415294e-001,3.642328e-005,2.397638e-005
4.423235e-001,1.594568e-005,2.405909e-005
4.431176e-001,-1.393149e-005,2.407106e-005
4.439118e-001,-2.568093e-005,2.408274e-005
4.447059e-001,-3.306630e-005,2.412588e-005
4.455000e-001,-3.675899e-005,2.419779e-005
4.462941e-001,-2.500954e-005,2.428136e-005
4.470882e-001,-1.174945e-005,2.426708e-005
4.478824e-001,-9.231709e-006,2.411257e-005
4.486765e-001,-1.124590e-005,2.393292e-005
4.494706e-001,-1.158160e-005,2.394079e-005
4.502647e-001,-1.158160e-005,2.381980e-005
4.510588e-001,-1.225299e-005,2.374795e-005
4.518529e-001,-1.393149e-005,2.375514e-005
4.526471e-001,-1.393149e-005,2.373672e-005
4.534412e-001,-1.225299e-005,2.363421e-005
4.542353e-001,-9.735256e-006,2.344306e-005
4.550294e-001,-8.224612e-006,2.330648e-005
4.558235e-001,-5.706874e-006,2.328737e-005
4.566176e-001,-2.517739e-006,2.301712e-005
4.574118e-001,-2.853437e-006,2.269562e-005
4.582059e-001,-1.510643e-006,2.248903e-005
4.590000e-001,-5.539025e-006,2.243078e-005
4.597941e-001,-2.517739e-006,2.243291e-005
4.605882e-001,8.392462e-007,2.241414e-005
4.613824e-001,8.392462e-007,2.235140e-005
4.621765e-001,-1.628138e-005,2.227021e-005
4.629706e-001,-1.896696e-005,2.216402e-005
4.637647e-001,-8.896010e-006,2.209444e-005
4.645588e-001,-1.628138e-005,2.209956e-005
4.653529e-001,-3.004501e-005,2.205926e-005
4.661471e-001,-2.870222e-005,2.209160e-005
4.669412e-001,-4.196231e-006,2.214942e-005
4.677353e-001,2.500954e-005,2.214411e-005
4.685294e-001,3.978027e-005,2.216841e-005
4.693235e-001,2.198825e-005,2.224506e-005
4.701176e-001,1.174945e-006,2.222995e-005
4.709118e-001,-1.426719e-005,2.218640e-005
4.717059e-001,-2.702373e-005,2.217333e-005
4.725000e-001,-3.709468e-005,2.220935e-005
4.732941e-001,-4.045167e-005,2.229822e-005
4.740882e-001,-2.903792e-005,2.240956e-005
4.748824e-001,5.035477e-007,2.246420e-005
4.756765e-001,5.539025e-006,2.245773e-005
4.764706e-001,-4.531929e-006,2.245295e-005
4.772647e-001,3.424125e-005,2.244433e-005
4.780588e-001,7.100023e-005,2.251675e-005
4.788529e-001,5.824369e-005,2.286317e-005
4.796471e-001,1.997406e-005,2.309789e-005
4.804412e-001,-9.567407e-006,2.312538e-005
4.812353e-001,-1.930266e-005,2.313112e-005
4.820294e-001,-2.198825e-005,2.315439e-005
4.828235e-001,-2.165255e-005,2.317730e-005
4.836176e-001,-1.795987e-005,2.320081e-005
4.844118e-001,-1.695277e-005,2.320897e-005
4.852059e-001,-1.628138e-005,2.322658e-005
4.860000e-001,-8.224612e-006,2.323634e-005
4.867941e-001,-1.158160e-005,2.321803e-005
4.875882e-001,-1.493858e-005,2.318197e-005
4.883824e-001,-1.242084e-005,2.316043e-005
4.891765e-001,-1.292439e-005,2.313141e-005
4.899706e-001,-1.124590e-005,2.314128e-005
4.907647e-001,-1.023880e-005,2.307918e-005
4.915588e-001,-1.225299e-005,2.285665e-005
4.923529e-001,-1.225299e-005,2.267656e-005
4.931471e-001,-1.191730e-005,2.264886e-005
4.939412e-001,-9.903105e-006,2.265098e-005
4.947353e-001,-7.888914e-006,2.265700e-005
4.955294e-001,-8.560311e-006,2.266132e-005
4.963235e-001,-1.023880e-005,2.265705e-005
4.971176e-001,-8.896010e-006,2.264001e-005
4.979118e-001,-1.225299e-005,2.262536e-005
4.987059e-001,-1.443504e-005,2.261649e-005
4.995000e-001,-1.628138e-005,2.259815e-005
5.002941e-001,-2.165255e-005,2.254281e-005
5.010882e-001,-2.568093e-005,2.246401e-005
5.018824e-001,-1.812772e-005,2.247273e-005
5.026765e-001,7.217518e-006,2.247565e-005
5.034706e-001,2.635233e-005,2.238690e-005
5.042647e-001,3.273060e-005,2.237769e-005
5.050588e-001,2.500954e-005,2.241842e-005
5.058529e-001,1.997406e-005,2.245761e-005
5.066471e-001,1.846342e-005,2.248109e-005
5.074412e-001,8.560311e-006,2.243238e-005
5.082353e-001,-5.035477e-006,2.232308e-005
5.090294e-001,-5.539025e-006,2.229038e-005
5.098235e-001,-8.560311e-006,2.228125e-005
5.106176e-001,-1.728847e-005,2.228342e-005
5.114118e-001,-2.299535e-005,2.230472e-005
5.122059e-001,-2.635233e-005,2.234172e-005
5.130000e-001,-2.500954e-005,2.238269e-005
5.137941e-001,-2.467384e-005,2.240336e-005
5.145882e-001,-2.467384e-005,2.240794e-005
5.153824e-001,-1.863127e-005,2.241363e-005
5.161765e-001,-9.567407e-006,2.241946e-005
5.169706e-001,6.713969e-007,2.242260e-005
5.177647e-001,-4.196231e-006,2.241468e-005
5.185588e-001,-1.326009e-005,2.240527e-005
5.193529e-001,-2.970932e-005,2.241771e-005
5.201471e-001,-3.105211e-005,2.247787e-005
5.209412e-001,-1.728847e-005,2.254168e-005
5.217353e-001,1.930266e-005,2.255801e-005
5.225294e-001,6.160067e-005,2.258096e-005
5.233235e-001,6.294347e-005,2.284693e-005
5.241176e-001,3.776608e-005,2.312109e-005
5.249118e-001,1.258869e-005,2.321700e-005
5.257059e-001,-8.896010e-006,2.322159e-005
5.265000e-001,-2.702373e-005,2.321983e-005
5.272941e-001,-2.568093e-005,2.326444e-005
5.280882e-001,-6.881819e-006,2.330371e-005
5.288824e-001,2.853437e-006,2.330233e-005
5.296765e-001,-5.539025e-006,2.330079e-005
5.304706e-001,-2.030976e-005,2.330079e-005
5.312647e-001,-1.980621e-005,2.332687e-005
5.320588e-001,-1.594568e-005,2.335243e-005
5.328529e-001,-1.091020e-005,2.336846e-005
5.336471e-001,-1.091020e-005,2.337448e-005
5.344412e-001,-3.524834e-006,2.338119e-005
5.352353e-001,1.846342e-006,2.338194e-005
5.360294e-001,4.867628e-006,2.337863e-005
5.368235e-001,-8.392462e-007,2.337400e-005
5.376176e-001,-1.359579e-005,2.337328e-005
5.384118e-001,-2.568093e-005,2.338518e-005
5.392059e-001,-3.373770e-005,2.342545e-005
5.400000e-001,-3.591974e-005,2.349627e-005
5.407941e-001,-2.500954e-005,2.357693e-005
5.415882e-001,-2.853437e-006,2.361731e-005
5.423824e-001,1.863127e-005,2.361603e-005
5.431765e-001,1.863127e-005,2.363941e-005
5.439706e-001,7.553216e-006,2.366118e-005
5.447647e-001,-2.853437e-006,2.365929e-005
5.455588e-001,-1.023880e-005,2.365431e-005
5.463529e-001,-1.292439e-005,2.364892e-005
5.471471e-001,-2.047761e-005,2.365264e-005
5.479412e-001,-1.628138e-005,2.367285e-005
5.487353e-001,-8.224612e-006,2.368430e-005
5.495294e-001,-4.196231e-006,2.368501e-005
5.503235e-001,-3.356985e-007,2.368004e-005
5.511176e-001,1.174945e-006,2.366147e-005
5.519118e-001,-1.678492e-007,2.360671e-005
5.527059e-001,-8.224612e-006,2.346044e-005
5.535000e-001,-1.158160e-005,2.334999e-005
5.542941e-001,-8.560311e-006,2.334622e-005
5.550882e-001,-1.141375e-005,2.314740e-005
5.558824e-001,-1.359579e-005,2.298016e-005
5.566765e-001,-1.023880e-005,2.294359e-005
5.574706e-001,-1.359579e-005,2.294847e-005
5.582647e-001,-9.567407e-006,2.296127e-005
5.590588e-001,2.064546e-005,2.294087e-005
5.598529e-001,4.011597e-005,2.286416e-005
5.606471e-001,1.594568e-005,2.281002e-005
5.614412e-001,-2.450599e-005,2.270361e-005
5.622353e-001,-4.649424e-005,2.274170e-005
5.630294e-001,-1.124590e-005,2.287633e-005
5.638235e-001,3.323415e-005,2.288150e-005
5.646176e-001,3.340200e-005,2.295702e-005
5.654118e-001,1.728847e-005,2.302655e-005
5.662059e-001,-1.493858e-005,2.301275e-005
5.670000e-001,-4.481575e-005,2.300587e-005
5.677941e-001,-5.522240e-005,2.314344e-005
5.685882e-001,-1.510643e-005,2.335112e-005
5.693824e-001,4.280156e-005,2.336458e-005
5.701765e-001,4.934768e-005,2.347718e-005
5.709706e-001,2.635233e-005,2.361578e-005
5.717647e-001,-1.510643e-006,2.364002e-005
5.725588e-001,-1.829557e-005,2.361192e-005
5.733529e-001,-2.433814e-005,2.361023e-005
5.741471e-001,-2.702373e-005,2.364931e-005
5.749412e-001,-2.433814e-005,2.369694e-005
5.757353e-001,-1.930266e-005,2.373667e-005
5.765294e-001,-1.493858e-005,2.375367e-005
5.773235e-001,-6.881819e-006,2.372206e-005
5.781176e-001,-4.196231e-006,2.367494e-005
5.789118e-001,-9.231709e-006,2.356024e-005
5.797059e-001,-1.493858e-005,2.337392e-005
5.805000e-001,-2.131685e-005,2.318058e-005
5.812941e-001,-2.249180e-005,2.320118e-005
5.820882e-001,-1.091020e-005,2.306724e-005
5.828824e-001,3.860533e-006,2.273816e-005
5.836765e-001,7.217518e-006,2.249202e-005
5.844706e-001,-1.678492e-007,2.235523e-005
5.852647e-001,-4.531929e-006,2.229647e-005
5.860588e-001,-7.217518e-006,2.227489e-005
5.868529e-001,-1.510643e-006,2.227011e-005
5.876471e-001,-2.853437e-006,2.221536e-005
5.884412e-001,-4.196231e-006,2.209638e-005
5.892353e-001,-5.203327e-006,2.189008e-005
5.900294e-001,-1.678492e-007,2.177071e-005
5.908235e-001,2.517739e-006,2.176885e-005
5.916176e-001,-6.210422e-006,2.168756e-005
5.924118e-001,-9.567407e-006,2.163804e-005
5.932059e-001,-9.231709e-006,2.163895e-005
5.940000e-001,-9.903105e-006,2.163646e-005
5.947941e-001,-9.735256e-006,2.160243e-005
5.955882e-001,-8.224612e-006,2.150406e-005
5.963824e-001,-7.217518e-006,2.138758e-005
5.971765e-001,-9.567407e-006,2.135971e-005
5.979706e-001,-1.158160e-005,2.136648e-005
5.987647e-001,-9.567407e-006,2.136589e-005
5.995588e-001,-8.896010e-006,2.136952e-005
6.003529e-001,-8.896010e-006,2.137440e-005
6.011471e-001,-7.217518e-006,2.137677e-005
6.019412e-001,-6.881819e-006,2.137540e-005
6.027353e-001,-6.210422e-006,2.136648e-005
6.035294e-001,-9.903105e-006,2.134793e-005
6.043235e-001,-5.874723e-006,2.133547e-005
6.051176e-001,-1.326009e-005,2.131118e-005
6.059118e-001,-1.930266e-005,2.127693e-005
6.067059e-001,-3.524834e-006,2.126918e-005
6.075000e-001,2.114900e-005,2.126325e-005
6.082941e-001,3.575189e-005,2.129655e-005
6.090882e-001,2.668803e-005,2.139002e-005
6.098824e-001,1.124590e-005,2.143710e-005
6.106765e-001,-7.553216e-006,2.144393e-005
6.114706e-001,-2.702373e-005,2.144812e-005
6.122647e-001,-4.414435e-005,2.150116e-005
6.130588e-001,-5.421531e-005,2.164117e-005
6.138529e-001,-5.253681e-005,2.185103e-005
6.146471e-001,-1.628138e-005,2.204816e-005
6.154412e-001,5.354391e-005,2.205922e-005
6.162353e-001,8.241398e-005,2.226095e-005
6.170294e-001,5.690089e-005,2.273796e-005
6.178235e-001,1.930266e-005,2.296255e-005
6.186176e-001,-9.231709e-006,2.298781e-005
6.194118e-001,-2.836652e-005,2.299347e-005
6.202059e-001,-2.618448e-005,2.304827e-005
6.210000e-001,-1.258869e-005,2.308346e-005
6.217941e-001,8.392462e-007,2.308227e-005
6.225882e-001,-4.196231e-006,2.307726e-005
6.233824e-001,-1.628138e-005,2.307745e-005
6.241765e-001,-2.198825e-005,2.309386e-005
6.249706e-001,-2.165255e-005,2.311684e-005
6.257647e-001,-1.896696e-005,2.313087e-005
6.265588e-001,-1.762417e-005,2.313343e-005
6.273529e-001,-8.896010e-006,2.314331e-005
6.281471e-001,-2.853437e-006,2.314245e-005
6.289412e-001,-1.493858e-005,2.313836e-005
6.297353e-001,-2.064546e-005,2.315367e-005
6.305294e-001,-1.695277e-005,2.318296e-005
6.313235e-001,-8.224612e-006,2.319766e-005
6.321176e-001,-2.182040e-006,2.316273e-005
6.329118e-001,-5.035477e-007,2.307830e-005
6.337059e-001,1.846342e-006,2.297970e-005
6.345000e-001,-2.853437e-006,2.294326e-005
6.352941e-001,-1.426719e-005,2.294240e-005
6.360882e-001,-1.762417e-005,2.291653e-005
6.368824e-001,-2.299535e-005,2.292527e-005
6.376765e-001,-3.608759e-005,2.292943e-005
6.384706e-001,-1.963836e-005,2.281035e-005
6.392647e-001,1.795987e-005,2.278628e-005
6.400588e-001,4.112306e-005,2.259752e-005
6.408529e-001,2.702373e-005,2.214390e-005
6.416471e-001,8.560311e-006,2.190566e-005
6.424412e-001,-3.189136e-006,2.186908e-005
6.432353e-001,-7.049668e-006,2.186891e-005
6.440294e-001,-1.560998e-005,2.183837e-005
6.448235e-001,-1.493858e-005,2.176970e-005
6.456176e-001,5.035477e-007,2.171994e-005
6.464118e-001,5.035477e-006,2.169357e-005
6.472059e-001,4.531929e-006,2.168118e-005
6.480000e-001,5.874723e-006,2.166911e-005
6.487941e-001,1.057450e-005,2.165295e-005
6.495882e-001,5.203327e-006,2.164476e-005
6.503824e-001,-4.196231e-006,2.162476e-005
6.511765e-001,-9.735256e-006,2.160571e-005
6.519706e-001,-2.064546e-005,2.157813e-005
6.527647e-001,-2.299535e-005,2.157056e-005
6.535588e-001,-2.165255e-005,2.159660e-005
6.543529e-001,-1.896696e-005,2.162888e-005
6.551471e-001,-1.493858e-005,2.164764e-005
6.559412e-001,-1.359579e-005,2.165419e-005
6.567353e-001,-1.359579e-005,2.166627e-005
6.575294e-001,-1.359579e-005,2.167893e-005
6.583235e-001,-1.258869e-005,2.169234e-005
6.591176e-001,-9.567407e-006,2.170268e-005
6.599118e-001,-8.224612e-006,2.170848e-005
6.607059e-001,-7.553216e-006,2.171215e-005
6.615000e-001,-4.531929e-006,2.171574e-005
6.622941e-001,-6.881819e-006,2.171539e-005
6.630882e-001,-1.963836e-005,2.170986e-005
6.638824e-001,-2.836652e-005,2.173673e-005
6.646765e-001,-2.098116e-005,2.179550e-005
6.654706e-001,1.174945e-006,2.182754e-005
6.662647e-001,1.930266e-005,2.182759e-005
6.670588e-001,2.870222e-005,2.185416e-005
6.678529e-001,2.198825e-005,2.191066e-005
6.686471e-001,1.124590e-005,2.193235e-005
6.694412e-001,-1.678492e-007,2.192229e-005
6.702353e-001,-1.628138e-005,2.189796e-005
6.710294e-001,-3.860533e-005,2.190509e-005
6.718235e-001,-6.881819e-005,2.201226e-005
6.726176e-001,-5.857939e-005,2.235190e-005
6.734118e-001,-1.158160e-005,2.259287e-005
6.742059e-001,4.682994e-005,2.259899e-005
6.750000e-001,8.006408e-005,2.275122e-005
6.757941e-001,6.160067e-005,2.319288e-005
6.765882e-001,2.870222e-005,2.344809e-005
6.773824e-001,-6.210422e-006,2.349265e-005
6.781765e-001,-2.870222e-005,2.346911e-005
6.789706e-001,-1.930266e-005,2.349654e-005
6.797647e-001,-5.874723e-006,2.349002e-005
6.805588e-001,1.057450e-005,2.344280e-005
6.813529e-001,1.174945e-005,2.339952e-005
6.821471e-001,-2.182040e-006,2.335148e-005
6.829412e-001,-1.292439e-005,2.332366e-005
6.837353e-001,-2.500954e-005,2.330782e-005
6.845294e-001,-2.568093e-005,2.311532e-005
6.853235e-001,-1.762417e-005,2.284078e-005
6.861176e-001,-6.881819e-006,2.269565e-005
6.869118e-001,-3.860533e-006,2.268037e-005
6.877059e-001,-5.539025e-006,2.264848e-005
6.885000e-001,-1.225299e-005,2.251006e-005
6.892941e-001,-2.534523e-005,2.241960e-005
6.900882e-001,-3.558404e-005,2.245006e-005
6.908824e-001,-3.575189e-005,2.240990e-005
6.916765e-001,-2.500954e-005,2.240646e-005
6.924706e-001,-8.224612e-006,2.243282e-005
6.932647e-001,1.007095e-006,2.242384e-005
6.940588e-001,-6.210422e-006,2.237703e-005
6.948529e-001,-1.762417e-005,2.230185e-005
6.956471e-001,9.903105e-006,2.222742e-005
6.964412e-001,4.750134e-005,2.218961e-005
6.972353e-001,4.246586e-005,2.234110e-005
6.980294e-001,2.333104e-005,2.246323e-005
6.988235e-001,1.577783e-005,2.249283e-005
6.996176e-001,-1.510643e-006,2.250096e-005
7.004118e-001,-1.963836e-005,2.249163e-005
7.012059e-001,-3.038071e-005,2.250829e-005
7.020000e-001,-2.366674e-005,2.255980e-005
7.027941e-001,-1.829557e-005,2.258562e-005
7.035882e-001,-2.098116e-005,2.259863e-005
7.043824e-001,-1.695277e-005,2.262296e-005
7.051765e-001,-1.242084e-005,2.263842e-005
7.059706e-001,-1.393149e-005,2.264698e-005
7.067647e-001,-1.728847e-005,2.266018e-005
7.075588e-001,-1.191730e-005,2.268060e-005
7.083529e-001,6.546120e-006,2.269041e-005
7.091471e-001,1.426719e-005,2.269127e-005
7.099412e-001,1.174945e-005,2.270510e-005
7.107353e-001,-1.678492e-007,2.271473e-005
7.115294e-001,-1.628138e-005,2.271468e-005
7.123235e-001,-3.071641e-005,2.271468e-005
7.131176e-001,-3.944457e-005,2.275557e-005
7.139118e-001,-3.038071e-005,2.285867e-005
7.147059e-001,5.203327e-006,2.290446e-005
7.155000e-001,3.508049e-005,2.284350e-005
7.162941e-001,3.575189e-005,2.287184e-005
7.170882e-001,1.795987e-005,2.295944e-005
7.178824e-001,6.713969e-007,2.293842e-005
7.186765e-001,-6.881819e-006,2.282833e-005
7.194706e-001,-1.628138e-005,2.279789e-005
7.202647e-001,-2.165255e-005,2.281630e-005
7.210588e-001,-1.829557e-005,2.283481e-005
7.218529e-001,-1.493858e-005,2.280721e-005
7.226471e-001,-1.258869e-005,2.272657e-005
7.234412e-001,-9.903105e-006,2.262279e-005
7.242353e-001,-7.553216e-006,2.257028e-005
7.250294e-001,-1.158160e-005,2.257429e-005
7.258235e-001,-1.460288e-005,2.258158e-005
7.266176e-001,-1.091020e-005,2.259517e-005
7.274118e-001,-5.035477e-007,2.252081e-005
7.282059e-001,3.021286e-006,2.216153e-005
7.290000e-001,1.174945e-006,2.191709e-005
7.297941e-001,1.007095e-006,2.188819e-005
7.305882e-001,-2.853437e-006,2.188160e-005
7.313824e-001,-4.867628e-006,2.185506e-005
7.321765e-001,-4.196231e-006,2.182154e-005
7.329706e-001,-7.049668e-006,2.178858e-005
7.337647e-001,-4.196231e-006,2.176863e-005
7.345588e-001,-4.531929e-006,2.174889e-005
7.353529e-001,-6.881819e-006,2.173098e-005
7.361471e-001,-1.023880e-005,2.172949e-005
7.369412e-001,-9.903105e-006,2.172734e-005
7.377353e-001,-1.023880e-005,2.171818e-005
7.385294e-001,-1.225299e-005,2.171455e-005
7.393235e-001,-1.258869e-005,2.171331e-005
7.401176e-001,-1.292439e-005,2.171566e-005
7.409118e-001,-7.888914e-006,2.172022e-005
7.417059e-001,5.203327e-006,2.171377e-005
7.425000e-001,1.846342e-006,2.170475e-005
7.432941e-001,-1.963836e-005,2.169457e-005
7.440882e-001,-4.280156e-005,2.171567e-005
7.448824e-001,-1.963836e-005,2.184506e-005
7.456765e-001,3.440909e-005,2.186782e-005
7.464706e-001,5.085832e-005,2.194626e-005
7.472647e-001,2.870222e-005,2.212744e-005
7.480588e-001,1.023880e-005,2.217587e-005
7.488529e-001,-1.007095e-006,2.216843e-005
7.496471e-001,-1.695277e-005,2.214946e-005
7.504412e-001,-2.517739e-005,2.213641e-005
7.512353e-001,-2.333104e-005,2.213457e-005
7.520294e-001,-2.165255e-005,2.215008e-005
7.528235e-001,-1.896696e-005,2.218002e-005
7.536176e-001,5.035477e-007,2.215598e-005
7.544118e-001,1.829557e-005,2.207887e-005
7.552059e-001,1.863127e-005,2.205789e-005
7.560000e-001,5.539025e-006,2.205415e-005
7.567941e-001,-1.023880e-005,2.203174e-005
7.575882e-001,-1.628138e-005,2.203402e-005
7.583824e-001,-2.030976e-005,2.205133e-005
7.591765e-001,-1.896696e-005,2.207889e-005
7.599706e-001,-7.721065e-006,2.209954e-005
7.607647e-001,4.867628e-006,2.208229e-005
7.615588e-001,2.853437e-006,2.204584e-005
7.623529e-001,-3.189136e-006,2.199621e-005
7.631471e-001,-1.107805e-005,2.195162e-005
7.639412e-001,-1.863127e-005,2.191633e-005
7.647353e-001,-1.997406e-005,2.189731e-005
7.655294e-001,-1.695277e-005,2.190108e-005
7.663235e-001,-4.531929e-006,2.191532e-005
7.671176e-001,5.035477e-007,2.191678e-005
7.679118e-001,-1.007095e-006,2.191552e-005
7.687059e-001,-4.867628e-006,2.190281e-005
7.695000e-001,-7.217518e-006,2.184028e-005
7.702941e-001,-4.867628e-006,2.177367e-005
7.710882e-001,-2.853437e-006,2.175354e-005
7.718824e-001,-1.678492e-007,2.172684e-005
7.726765e-001,-1.846342e-006,2.144693e-005
7.734706e-001,-9.567407e-006,2.115099e-005
7.742647e-001,-1.124590e-005,2.105026e-005
7.750588e-001,-9.567407e-006,2.104784e-005
7.758529e-001,-8.392462e-006,2.104878e-005
7.766471e-001,-5.539025e-006,2.099880e-005
7.774412e-001,-2.517739e-006,2.095106e-005
7.782353e-001,-1.158160e-005,2.094795e-005
7.790294e-001,-1.997406e-005,2.095752e-005
7.798235e-001,-2.131685e-005,2.098548e-005
7.806176e-001,-2.316319e-005,2.098866e-005
7.814118e-001,-2.500954e-005,2.099961e-005
7.822059e-001,-8.224612e-006,2.102774e-005
7.830000e-001,1.997406e-005,2.102384e-005
7.837941e-001,3.743038e-005,2.104504e-005
7.845882e-001,3.172351e-005,2.114984e-005
7.853824e-001,1.795987e-005,2.122522e-005
7.861765e-001,2.182040e-006,2.124763e-005
7.869706e-001,-3.524834e-006,2.124794e-005
7.877647e-001,-5.035477e-006,2.123501e-005
7.885588e-001,-8.896010e-006,2.118740e-005
7.893529e-001,-2.853437e-006,2.110765e-005
7.901471e-001,-4.867628e-006,2.101071e-005
7.909412e-001,-1.359579e-005,2.096506e-005
7.917353e-001,-1.661708e-005,2.097847e-005
7.925294e-001,-1.762417e-005,2.097308e-005
7.933235e-001,-1.829557e-005,2.097031e-005
7.941176e-001,-2.064546e-005,2.099138e-005
7.949118e-001,-2.098116e-005,2.102308e-005
7.957059e-001,-2.131685e-005,2.104846e-005
7.965000e-001,-3.642328e-005,2.107019e-005
7.972941e-001,-5.857939e-005,2.113865e-005
7.980882e-001,-4.951553e-005,2.137584e-005
7.988824e-001,-5.539025e-006,2.155271e-005
7.996765e-001,4.599069e-005,2.155368e-005
8.004706e-001,7.771420e-005,2.170937e-005
8.012647e-001,7.167162e-005,2.214783e-005
8.020588e-001,2.366674e-005,2.251412e-005
8.028529e-001,-1.896696e-005,2.254893e-005
8.036471e-001,-2.098116e-005,2.256485e-005
8.044412e-001,8.560311e-006,2.259073e-005
8.052353e-001,1.795987e-005,2.258671e-005
8.060294e-001,-1.678492e-007,2.259642e-005
8.068235e-001,-1.560998e-005,2.258903e-005
8.076176e-001,-2.433814e-005,2.259318e-005
8.084118e-001,-3.323415e-005,2.262845e-005
8.092059e-001,-4.112306e-005,2.267613e-005
8.100000e-001,-2.836652e-005,2.268187e-005
8.107941e-001,-1.678492e-007,2.272048e-005
8.115882e-001,1.107805e-005,2.267835e-005
8.123824e-001,1.174945e-006,2.253473e-005
8.131765e-001,-2.165255e-005,2.252589e-005
8.139706e-001,-2.030976e-005,2.248091e-005
8.147647e-001,-7.217518e-006,2.243105e-005
8.155588e-001,2.182040e-006,2.241352e-005
8.163529e-001,4.531929e-006,2.239800e-005
8.171471e-001,1.158160e-005,2.225622e-005
8.179412e-001,6.210422e-006,2.204665e-005
8.187353e-001,3.189136e-006,2.203295e-005
8.195294e-001,-2.853437e-006,2.190089e-005
8.203235e-001,-6.210422e-006,2.172370e-005
8.211176e-001,-1.158160e-005,2.167557e-005
8.219118e-001,-6.546120e-006,2.168526e-005
8.227059e-001,-9.735256e-006,2.166382e-005
8.235000e-001,-1.560998e-005,2.162721e-005
8.242941e-001,-1.359579e-005,2.159136e-005
8.250882e-001,-1.023880e-005,2.156128e-005
8.258824e-001,-1.359579e-005,2.154150e-005
8.266765e-001,-1.292439e-005,2.153866e-005
8.274706e-001,-1.292439e-005,2.154751e-005
8.282647e-001,-1.695277e-005,2.155855e-005
8.290588e-001,-1.443504e-005,2.157348e-005
8.298529e-001,-1.510643e-006,2.157239e-005
8.306471e-001,1.594568e-005,2.153899e-005
8.314412e-001,2.114900e-005,2.152038e-005
8.322353e-001,1.644922e-005,2.154465e-005
8.330294e-001,9.903105e-006,2.156354e-005
8.338235e-001,1.846342e-006,2.156694e-005
8.346176e-001,-8.224612e-006,2.156718e-005
8.354118e-001,-1.493858e-005,2.157066e-005
8.362059e-001,-1.225299e-005,2.158329e-005
8.370000e-001,-1.460288e-005,2.159419e-005
8.377941e-001,-1.728847e-005,2.160931e-005
8.385882e-001,-2.500954e-005,2.163003e-005
8.393824e-001,-2.400244e-005,2.167404e-005
8.401765e-001,-1.326009e-005,2.171632e-005
8.409706e-001,-1.174945e-006,2.172875e-005
8.417647e-001,-6.210422e-006,2.172602e-005
8.425588e-001,-6.881819e-006,2.172214e-005
8.433529e-001,-9.903105e-006,2.171936e-005
8.441471e-001,-7.553216e-006,2.171936e-005
8.449412e-001,-3.189136e-006,2.171659e-005
8.457353e-001,1.174945e-006,2.171238e-005
8.465294e-001,3.021286e-006,2.170866e-005
8.473235e-001,-1.678492e-007,2.170262e-005
8.481176e-001,-1.124590e-005,2.169277e-005
8.489118e-001,-3.457694e-005,2.169534e-005
8.497059e-001,-6.059357e-005,2.177712e-005
8.505000e-001,-3.273060e-005,2.203824e-005
8.512941e-001,2.333104e-005,2.211176e-005
8.520882e-001,3.524834e-005,2.214752e-005
8.528824e-001,2.182040e-005,2.223391e-005
8.536765e-001,-2.853437e-006,2.226097e-005
8.544706e-001,-1.896696e-005,2.225908e-005
8.552647e-001,-2.433814e-005,2.227223e-005
8.560588e-001,-8.224612e-006,2.228794e-005
8.568529e-001,2.534523e-005,2.229188e-005
8.576471e-001,3.306630e-005,2.230582e-005
8.584412e-001,1.594568e-005,2.229262e-005
8.592353e-001,2.182040e-006,2.225988e-005
8.600294e-001,-8.392462e-007,2.225117e-005
8.608235e-001,-3.189136e-006,2.224714e-005
8.616176e-001,-1.376364e-005,2.219554e-005
8.624118e-001,-1.846342e-005,2.206896e-005
8.632059e-001,-1.762417e-005,2.188067e-005
8.640000e-001,-2.064546e-005,2.170168e-005
8.647941e-001,-1.779202e-005,2.171350e-005
8.655882e-001,-1.628138e-005,2.152566e-005
8.663824e-001,-1.225299e-005,2.103728e-005
8.671765e-001,-9.903105e-006,2.080227e-005
8.679706e-001,-8.224612e-006,2.078124e-005
8.687647e-001,-7.888914e-006,2.077989e-005
8.695588e-001,-5.874723e-006,2.072292e-005
8.703529e-001,-1.174945e-006,2.067283e-005
8.711471e-001,5.706874e-006,2.066073e-005
8.719412e-001,5.203327e-006,2.066318e-005
8.727353e-001,2.517739e-006,2.066391e-005
8.735294e-001,-7.553216e-006,2.064397e-005
8.743235e-001,-8.224612e-006,2.061105e-005
8.751176e-001,-4.867628e-006,2.058003e-005
8.759118e-001,-6.881819e-006,2.055401e-005
8.767059e-001,-1.560998e-005,2.053361e-005
8.775000e-001,-3.306630e-005,2.054636e-005
8.782941e-001,-4.112306e-005,2.063030e-005
8.790882e-001,-1.829557e-005,2.074329e-005
8.798824e-001,2.584878e-005,2.073626e-005
8.806765e-001,4.347295e-005,2.076548e-005
8.814706e-001,2.803082e-005,2.090475e-005
8.822647e-001,9.231709e-006,2.096415e-005
8.830588e-001,-4.867628e-006,2.097061e-005
8.838529e-001,-1.628138e-005,2.097215e-005
8.846471e-001,-2.299535e-005,2.099165e-005
8.854412e-001,-1.158160e-005,2.101631e-005
8.862353e-001,1.661708e-005,2.100293e-005
8.870294e-001,1.225299e-005,2.098376e-005
8.878235e-001,-4.196231e-006,2.089615e-005
8.886176e-001,-1.393149e-005,2.086808e-005
8.894118e-001,-2.433814e-005,2.085828e-005
8.902059e-001,-3.323415e-005,2.077423e-005
8.910000e-001,-4.179446e-005,2.080289e-005
8.917941e-001,-2.467384e-005,2.093060e-005
8.925882e-001,1.728847e-005,2.097609e-005
8.933824e-001,3.138781e-005,2.099500e-005
8.941765e-001,1.628138e-005,2.105116e-005
8.949706e-001,2.517739e-006,2.105433e-005
8.957647e-001,-1.091020e-005,2.105480e-005
8.965588e-001,-1.896696e-005,2.106188e-005
8.973529e-001,-1.863127e-005,2.108751e-005
8.981471e-001,-1.426719e-005,2.111110e-005
8.989412e-001,1.846342e-006,2.111802e-005
8.997353e-001,-3.524834e-006,2.111624e-005
9.005294e-001,-2.769513e-005,2.111584e-005
9.013235e-001,-4.196231e-005,2.116648e-005
9.021176e-001,-4.213016e-005,2.126664e-005
9.029118e-001,-1.258869e-005,2.135975e-005
9.037059e-001,3.877317e-005,2.133660e-005
9.045000e-001,6.764325e-005,2.142178e-005
9.052941e-001,5.992218e-005,2.174290e-005
9.060882e-001,2.903792e-005,2.199091e-005
9.068824e-001,-6.378271e-006,2.203853e-005
9.076765e-001,-1.779202e-005,2.202812e-005
9.084706e-001,-2.534523e-005,2.203954e-005
9.092647e-001,-2.836652e-005,2.207930e-005
9.100588e-001,-2.366674e-005,2.213239e-005
9.108529e-001,-1.728847e-005,2.216856e-005
9.116471e-001,-1.225299e-005,2.218854e-005
9.124412e-001,-1.225299e-005,2.219592e-005
9.132353e-001,-1.560998e-005,2.217901e-005
9.140294e-001,-1.258869e-005,2.213870e-005
9.148235e-001,-1.258869e-005,2.211843e-005
9.156176e-001,-1.644922e-005,2.212973e-005
9.164118e-001,-1.292439e-005,2.212239e-005
9.172059e-001,-1.057450e-005,2.207507e-005
9.180000e-001,-9.567407e-006,2.204824e-005
9.187941e-001,-6.210422e-006,2.204572e-005
9.195882e-001,-1.510643e-006,2.204850e-005
9.203824e-001,-5.035477e-007,2.202951e-005
9.211765e-001,-8.392462e-007,2.192154e-005
9.219706e-001,-2.853437e-006,2.157483e-005
9.227647e-001,-9.567407e-006,2.132067e-005
9.235588e-001,-1.091020e-005,2.131749e-005
9.243529e-001,-5.539025e-006,2.116200e-005
9.251471e-001,-2.182040e-006,2.067639e-005
9.259412e-001,2.182040e-006,2.038242e-005
9.267353e-001,-1.678492e-007,2.031834e-005
9.275294e-001,-4.364080e-006,2.031531e-005
9.283235e-001,-1.023880e-005,2.025214e-005
9.291176e-001,-2.333104e-005,2.023107e-005
9.299118e-001,-3.004501e-005,2.027116e-005
9.307059e-001,-3.121996e-005,2.033319e-005
9.315000e-001,-2.366674e-005,2.039861e-005
9.322941e-001,5.035477e-007,2.044191e-005
9.330882e-001,2.786297e-005,2.042892e-005
9.338824e-001,4.145876e-005,2.044067e-005
9.346765e-001,3.340200e-005,2.052303e-005
9.354706e-001,1.644922e-005,2.058540e-005
9.362647e-001,5.035477e-007,2.060266e-005
9.370588e-001,-2.333104e-005,2.060153e-005
9.378529e-001,-4.985122e-005,2.064119e-005
9.386471e-001,-5.455100e-005,2.082054e-005
9.394412e-001,-1.510643e-006,2.099825e-005
9.402353e-001,5.337606e-005,2.090218e-005
9.410294e-001,4.817273e-005,2.102150e-005
9.418235e-001,1.997406e-005,2.114952e-005
9.426176e-001,-1.007095e-006,2.117445e-005
9.434118e-001,-1.023880e-005,2.117445e-005
9.442059e-001,-1.510643e-005,2.117943e-005
9.450000e-001,-1.863127e-005,2.117324e-005
9.457941e-001,-1.560998e-005,2.119196e-005
9.465882e-001,-1.359579e-005,2.104018e-005
9.473824e-001,-1.359579e-005,2.091733e-005
9.481765e-001,-1.359579e-005,2.088995e-005
9.489706e-001,-1.510643e-005,2.088506e-005
9.497647e-001,-1.896696e-005,2.090228e-005
9.505588e-001,-1.661708e-005,2.090030e-005
9.513529e-001,-1.695277e-005,2.085096e-005
9.521471e-001,-1.158160e-005,2.083012e-005
9.529412e-001,-8.896010e-006,2.081478e-005
9.537353e-001,-6.210422e-006,2.078714e-005
9.545294e-001,-2.853437e-006,2.076807e-005
9.553235e-001,-4.867628e-006,2.075687e-005
9.561176e-001,-6.210422e-006,2.074379e-005
9.569118e-001,-8.896010e-006,2.072380e-005
9.577059e-001,-1.326009e-005,2.071897e-005
9.585000e-001,-2.366674e-005,2.072919e-005
9.592941e-001,-1.963836e-005,2.075656e-005
9.600882e-001,9.903105e-006,2.077555e-005
9.608824e-001,3.743038e-005,2.078306e-005
9.616765e-001,3.608759e-005,2.086991e-005
9.624706e-001,7.888914e-006,2.089727e-005
9.632647e-001,-1.560998e-005,2.078314e-005
9.640588e-001,-1.158160e-005,2.073103e-005
9.648529e-001,-1.091020e-005,2.073925e-005
9.656471e-001,-2.299535e-005,2.065373e-005
9.664412e-001,-2.836652e-005,2.059587e-005
9.672353e-001,-3.944457e-005,2.063311e-005
9.680294e-001,-4.682994e-005,2.075280e-005
9.688235e-001,-2.870222e-005,2.091679e-005
9.696176e-001,1.963836e-005,2.095928e-005
9.704118e-001,5.690089e-005,2.095296e-005
9.712059e-001,5.119402e-005,2.117243e-005
9.720000e-001,3.105211e-005,2.135199e-005
9.727941e-001,8.392462e-007,2.141200e-005
9.735882e-001,-2.030976e-005,2.140476e-005
9.743824e-001,-3.373770e-005,2.143118e-005
9.751765e-001,-2.970932e-005,2.150566e-005
9.759706e-001,-6.881819e-006,2.155517e-005
9.767647e-001,1.174945e-006,2.154987e-005
9.775588e-001,4.531929e-006,2.154995e-005
9.783529e-001,-8.392462e-007,2.155080e-005
9.791471e-001,-1.678492e-007,2.155075e-005
9.799412e-001,-8.392462e-007,2.155068e-005
9.807353e-001,-1.359579e-005,2.155013e-005
9.815294e-001,-2.114900e-005,2.156203e-005
9.823235e-001,-2.333104e-005,2.159374e-005
9.831176e-001,-2.366674e-005,2.163018e-005
9.839118e-001,-3.172351e-005,2.167008e-005
9.847059e-001,-3.642328e-005,2.174240e-005
9.855000e-001,-3.205920e-005,2.183589e-005
9.862941e-001,-2.182040e-005,2.190310e-005
9.870882e-001,7.553216e-006,2.193056e-005
9.878824e-001,4.145876e-005,2.192709e-005
9.886765e-001,4.280156e-005,2.204072e-005
9.894706e-001,2.098116e-005,2.216129e-005
9.902647e-001,-7.553216e-006,2.218091e-005
9.910588e-001,-2.366674e-005,2.218054e-005
9.918529e-001,-2.098116e-005,2.221877e-005
9.926471e-001,-7.553216e-006,2.225006e-005
9.934412e-001,1.359579e-005,2.222653e-005
9.942353e-001,1.930266e-005,2.210821e-005
9.950294e-001,8.560311e-006,2.210727e-005
9.958235e-001,-1.510643e-006,2.202712e-005
9.966176e-001,-5.539025e-006,2.183950e-005
9.974118e-001,-1.091020e-005,2.178159e-005
9.982059e-001,-1.997406e-005,2.178263e-005
9.990000e-001,-1.695277e-005,2.181170e-005
9.997941e-001,-1.695277e-005,2.181170e-005
1.000588e+000,-1.628138e-005,2.178639e-005
1.001382e+000,-1.628138e-005,2.176597e-005
1.002176e+000,-1.628138e-005,2.175106e-005
1.002971e+000,-1.661708e-005,2.174413e-005
1.003765e+000,-1.829557e-005,2.176432e-005
1.004559e+000,-1.829557e-005,2.176432e-005
1.005353e+000,-1.762417e-005,2.176342e-005
1.006147e+000,3.524834e-006,2.178389e-005
1.006941e+000,1.930266e-005,2.177713e-005
1.007735e+000,2.064546e-005,2.178499e-005
1.008529e+000,1.460288e-005,2.178599e-005
1.009324e+000,4.531929e-006,2.177528e-005
1.010118e+000,-3.189136e-006,2.177243e-005
1.010912e+000,-6.881819e-006,2.177144e-005
1.011706e+000,-6.210422e-006,2.177431e-005
1.012500e+000,-6.881819e-006,2.177638e-005
1.013294e+000,-4.196231e-006,2.177087e-005
1.014088e+000,1.678492e-007,2.174676e-005
1.014882e+000,-6.881819e-006,2.171752e-005
1.015676e+000,-1.292439e-005,2.169992e-005
1.016471e+000,-1.091020e-005,2.171066e-005
1.017265e+000,-1.023880e-005,2.171938e-005
1.018059e+000,-1.292439e-005,2.172698e-005
1.018853e+000,-7.888914e-006,2.173749e-005
1.019647e+000,-1.124590e-005,2.173823e-005
1.020441e+000,-1.158160e-005,2.174576e-005
1.021235e+000,-6.881819e-006,2.175498e-005
1.022029e+000,-4.196231e-006,2.175845e-005
1.022824e+000,-4.196231e-006,2.175949e-005
1.023618e+000,-1.158160e-005,2.175407e-005
1.024412e+000,-1.326009e-005,2.175464e-005
1.025206e+000,-9.231709e-006,2.176080e-005
1.026000e+000,-1.292439e-005,2.176189e-005
1.026794e+000,-1.628138e-005,2.177186e-005
1.027588e+000,-2.433814e-005,2.179078e-005
1.028382e+000,-4.515145e-005,2.182424e-005
1.029176e+000,-3.541619e-005,2.194355e-005
1.029971e+000,2.400244e-005,2.200152e-005
1.030765e+000,6.965744e-005,2.200438e-005
1.031559e+000,6.630045e-005,2.230815e-005
1.032353e+000,3.340200e-005,2.261498e-005
1.033147e+000,-8.392462e-007,2.266539e-005
1.033941e+000,-2.232395e-005,2.256680e-005
1.034735e+000,-2.635233e-005,2.253092e-005
1.035529e+000,-1.795987e-005,2.255719e-005
1.036324e+000,-1.225299e-005,2.257961e-005
1.037118e+000,-2.114900e-005,2.258932e-005
1.037912e+000,-3.910887e-005,2.261904e-005
1.038706e+000,-5.119402e-005,2.272092e-005
1.039500e+000,-4.313725e-005,2.290329e-005
1.040294e+000,8.896010e-006,2.303066e-005
1.041088e+000,5.320821e-005,2.302335e-005
1.041882e+000,6.126497e-005,2.319939e-005
1.042676e+000,4.548714e-005,2.343450e-005
1.043471e+000,2.098116e-005,2.355206e-005
1.044265e+000,-1.326009e-005,2.355300e-005
1.045059e+000,-3.709468e-005,2.353512e-005
1.045853e+000,-3.776608e-005,2.359739e-005
1.046647e+000,-1.930266e-005,2.360411e-005
1.047441e+000,-9.567407e-006,2.339684e-005
1.048235e+000,-1.426719e-005,2.323565e-005
1.049029e+000,-1.980621e-005,2.324750e-005
1.049824e+000,-3.105211e-005,2.312919e-005
1.050618e+000,-3.776608e-005,2.277709e-005
1.051412e+000,-8.224612e-006,2.251619e-005
1.052206e+000,2.735943e-005,2.248134e-005
1.053000e+000,2.601663e-005,2.250886e-005
1.053794e+000,1.326009e-005,2.252560e-005
1.054588e+000,3.860533e-006,2.253285e-005
1.055382e+000,-1.846342e-006,2.251109e-005
1.056176e+000,-1.242084e-005,2.251133e-005
1.056971e+000,-1.930266e-005,2.250501e-005
1.057765e+000,-1.560998e-005,2.248945e-005
1.058559e+000,-1.107805e-005,2.242842e-005
1.059353e+000,-1.242084e-005,2.231679e-005
1.060147e+000,-1.426719e-005,2.227034e-005
1.060941e+000,-1.762417e-005,2.228488e-005
1.061735e+000,-1.963836e-005,2.229831e-005
1.062529e+000,-7.217518e-006,2.232573e-005
1.063324e+000,1.426719e-005,2.229599e-005
1.064118e+000,2.635233e-005,2.228106e-005
1.064912e+000,1.846342e-005,2.232692e-005
1.065706e+000,-2.853437e-006,2.235088e-005
1.066500e+000,-1.930266e-005,2.235000e-005
1.067294e+000,-4.330510e-005,2.236698e-005
1.068088e+000,-6.529335e-005,2.249736e-005
1.068882e+000,-8.207828e-005,2.279641e-005
1.069676e+000,-5.958648e-005,2.326167e-005
1.070471e+000,1.728847e-005,2.350085e-005
1.071265e+000,6.092927e-005,2.351201e-005
1.072059e+000,5.622950e-005,2.375923e-005
1.072853e+000,3.877317e-005,2.396390e-005
1.073647e+000,2.668803e-005,2.404746e-005
1.074441e+000,1.393149e-005,2.408235e-005
1.075235e+000,-6.881819e-006,2.408825e-005
1.076029e+000,-1.628138e-005,2.407917e-005
1.076824e+000,-1.426719e-005,2.408565e-005
1.077618e+000,-1.527428e-005,2.408806e-005
1.078412e+000,-1.326009e-005,2.408448e-005
1.079206e+000,-8.896010e-006,2.408233e-005
1.080000e+000,-7.553216e-006,2.408741e-005
1.080794e+000,-6.881819e-006,2.407437e-005
1.081588e+000,-8.224612e-006,2.404791e-005
1.082382e+000,-6.881819e-006,2.403447e-005
1.083176e+000,-1.023880e-005,2.403111e-005
1.083971e+000,-1.191730e-005,2.403782e-005
1.084765e+000,-1.057450e-005,2.404275e-005
1.085559e+000,-1.292439e-005,2.403538e-005
1.086353e+000,-1.023880e-005,2.403650e-005
1.087147e+000,-7.217518e-006,2.402931e-005
1.087941e+000,-5.539025e-006,2.401295e-005
1.088735e+000,-5.539025e-006,2.397348e-005
1.089529e+000,-6.210422e-006,2.393722e-005
1.090324e+000,-1.191730e-005,2.392809e-005
1.091118e+000,-1.158160e-005,2.393745e-005
1.091912e+000,-8.560311e-006,2.394380e-005
1.092706e+000,-6.210422e-006,2.394553e-005
1.093500e+000,-5.539025e-006,2.394157e-005
1.094294e+000,-8.896010e-006,2.393982e-005
1.095088e+000,-3.189136e-006,2.394440e-005
1.095882e+000,6.546120e-006,2.394499e-005
1.096676e+000,1.174945e-006,2.394723e-005
1.097471e+000,-3.021286e-006,2.394732e-005
1.098265e+000,-4.196231e-006,2.393952e-005
1.099059e+000,-1.846342e-006,2.386103e-005
1.099853e+000,-5.539025e-006,2.361497e-005
1.100647e+000,-8.224612e-006,2.354470e-005
1.101441e+000,-1.091020e-005,2.351244e-005
1.102235e+000,-9.231709e-006,2.343623e-005
1.103029e+000,-7.553216e-006,2.340966e-005
1.103824e+000,-8.224612e-006,2.341298e-005
1.104618e+000,-1.846342e-006,2.339311e-005
1.105412e+000,-3.692683e-006,2.335299e-005
1.106206e+000,-9.903105e-006,2.334930e-005
1.107000e+000,-7.553216e-006,2.331215e-005
1.107794e+000,-2.853437e-006,2.324126e-005
1.108588e+000,1.846342e-006,2.322439e-005
1.109382e+000,-4.196231e-006,2.322430e-005
1.110176e+000,-9.567407e-006,2.322546e-005
1.110971e+000,-1.191730e-005,2.323103e-005
1.111765e+000,-1.225299e-005,2.322778e-005
1.112559e+000,-2.299535e-005,2.321470e-005
1.113353e+000,-4.515145e-005,2.322966e-005
1.114147e+000,-6.680400e-005,2.333993e-005
1.114941e+000,-4.045167e-005,2.362111e-005
1.115735e+000,3.138781e-005,2.371337e-005
1.116529e+000,7.301442e-005,2.376938e-005
1.117324e+000,7.704280e-005,2.411740e-005
1.118118e+000,5.690089e-005,2.450177e-005
1.118912e+000,2.735943e-005,2.470728e-005
1.119706e+000,-2.349889e-006,2.475326e-005
1.120500e+000,-2.299535e-005,2.475353e-005
1.121294e+000,-3.373770e-005,2.478543e-005
1.122088e+000,-2.366674e-005,2.485671e-005
1.122882e+000,8.896010e-006,2.489216e-005
1.123676e+000,1.560998e-005,2.489358e-005
1.124471e+000,-4.196231e-006,2.490484e-005
1.125265e+000,-2.433814e-005,2.490445e-005
1.126059e+000,-3.608759e-005,2.493927e-005
1.126853e+000,-2.769513e-005,2.500677e-005
1.127647e+000,-5.874723e-006,2.498598e-005
1.128441e+000,1.225299e-005,2.488018e-005
1.129235e+000,1.393149e-005,2.486836e-005
1.130029e+000,-2.182040e-006,2.483799e-005
1.130824e+000,-1.695277e-005,2.471684e-005
1.131618e+000,-2.433814e-005,2.468471e-005
1.132412e+000,-3.591974e-005,2.471740e-005
1.133206e+000,-3.306630e-005,2.479886e-005
1.134000e+000,-2.232395e-005,2.485199e-005
1.134794e+000,-2.903792e-005,2.485004e-005
1.135588e+000,-4.649424e-005,2.489544e-005
1.136382e+000,-3.239490e-005,2.501575e-005
1.137176e+000,3.138781e-005,2.507293e-005
1.137971e+000,6.865034e-005,2.513430e-005
1.138765e+000,5.589380e-005,2.541897e-005
1.139559e+000,2.635233e-005,2.557708e-005
1.140353e+000,-1.678492e-007,2.555154e-005
1.141147e+000,-9.567407e-006,2.544245e-005
1.141941e+000,-1.560998e-005,2.541006e-005
1.142735e+000,-1.359579e-005,2.540660e-005
1.143529e+000,-1.091020e-005,2.535639e-005
1.144324e+000,-1.393149e-005,2.534721e-005
1.145118e+000,-1.980621e-005,2.535900e-005
1.145912e+000,-1.225299e-005,2.537616e-005
1.146706e+000,-1.527428e-005,2.536300e-005
1.147500e+000,-1.795987e-005,2.535586e-005
1.148294e+000,-1.829557e-005,2.536333e-005
1.149088e+000,-1.762417e-005,2.538412e-005
1.149882e+000,-1.225299e-005,2.540282e-005
1.150676e+000,-1.124590e-005,2.536412e-005
1.151471e+000,-1.225299e-005,2.526131e-005
1.152265e+000,-1.628138e-005,2.515868e-005
1.153059e+000,-1.594568e-005,2.516542e-005
1.153853e+000,-1.628138e-005,2.508626e-005
1.154647e+000,-1.326009e-005,2.481114e-005
1.155441e+000,-5.035477e-007,2.459101e-005
1.156235e+000,1.174945e-005,2.453636e-005
1.157029e+000,8.392462e-007,2.454268e-005
1.157824e+000,-1.225299e-005,2.452218e-005
1.158618e+000,-1.158160e-005,2.449019e-005
1.159412e+000,8.392462e-006,2.444656e-005
1.160206e+000,2.803082e-005,2.441464e-005
1.161000e+000,3.004501e-005,2.444637e-005
1.161794e+000,1.292439e-005,2.449534e-005
1.162588e+000,-5.539025e-006,2.449644e-005
1.163382e+000,-5.539025e-006,2.448259e-005
1.164176e+000,-4.867628e-006,2.447428e-005
1.164971e+000,-6.210422e-006,2.446551e-005
1.165765e+000,-4.867628e-006,2.445040e-005
1.166559e+000,-6.210422e-006,2.444106e-005
1.167353e+000,-1.728847e-005,2.443629e-005
1.168147e+000,-1.695277e-005,2.444980e-005
1.168941e+000,-7.217518e-006,2.446600e-005
1.169735e+000,5.035477e-007,2.446924e-005
1.170529e+000,6.546120e-006,2.446924e-005
1.171324e+000,-1.007095e-006,2.447198e-005
1.172118e+000,-4.196231e-006,2.447152e-005
1.172912e+000,-6.210422e-006,2.446671e-005
1.173706e+000,-1.191730e-005,2.446147e-005
1.174500e+000,-1.225299e-005,2.446872e-005
1.175294e+000,-1.359579e-005,2.447818e-005
1.176088e+000,-1.393149e-005,2.448989e-005
1.176882e+000,-1.997406e-005,2.450250e-005
1.177676e+000,-2.903792e-005,2.452718e-005
1.178471e+000,-3.776608e-005,2.457507e-005
1.179265e+000,-3.978027e-005,2.463215e-005
1.180059e+000,-9.567407e-006,2.467606e-005
1.180853e+000,2.870222e-005,2.461900e-005
1.181647e+000,2.668803e-005,2.463605e-005
1.182441e+000,-4.867628e-006,2.468203e-005
1.183235e+000,-4.531929e-006,2.463342e-005
1.184029e+000,4.179446e-005,2.452340e-005
1.184824e+000,5.421531e-005,2.456434e-005
1.185618e+000,3.004501e-005,2.473673e-005
1.186412e+000,6.546120e-006,2.479476e-005
1.187206e+000,-4.196231e-006,2.476253e-005
1.188000e+000,-8.896010e-006,2.460334e-005
1.188794e+000,-2.517739e-005,2.441515e-005
1.189588e+000,-3.239490e-005,2.445631e-005
1.190382e+000,-3.155566e-005,2.433885e-005
1.191176e+000,-3.642328e-005,2.425202e-005
1.191971e+000,-5.522240e-005,2.431285e-005
1.192765e+000,-5.253681e-005,2.451170e-005
1.193559e+000,-1.091020e-005,2.468359e-005
1.194353e+000,1.460288e-005,2.467655e-005
1.195147e+000,-2.517739e-006,2.466791e-005
1.195941e+000,-5.203327e-006,2.465259e-005
1.196735e+000,1.997406e-005,2.464239e-005
1.197529e+000,3.675899e-005,2.465622e-005
1.198324e+000,1.560998e-005,2.473144e-005
1.199118e+000,-1.393149e-005,2.473243e-005
1.199912e+000,-4.011597e-005,2.472176e-005
1.200706e+000,-3.373770e-005,2.480749e-005
1.201500e+000,2.198825e-005,2.486204e-005
1.202294e+000,6.428626e-005,2.488440e-005
1.203088e+000,6.495765e-005,2.514246e-005
1.203882e+000,4.179446e-005,2.540587e-005
1.204676e+000,1.174945e-005,2.551461e-005
1.205471e+000,-1.225299e-005,2.552175e-005
1.206265e+000,-2.987716e-005,2.552871e-005
1.207059e+000,-2.803082e-005,2.557940e-005
1.207853e+000,-2.131685e-005,2.561734e-005
1.208647e+000,-1.829557e-005,2.561077e-005
1.209441e+000,-2.349889e-005,2.560760e-005
1.210235e+000,-2.970932e-005,2.563582e-005
1.211029e+000,-3.508049e-005,2.560360e-005
1.211824e+000,-3.575189e-005,2.559914e-005
1.212618e+000,-3.407340e-005,2.567467e-005
1.213412e+000,-3.474479e-005,2.573150e-005
1.214206e+000,-3.021286e-005,2.579782e-005
1.215000e+000,-7.553216e-006,2.584677e-005
1.215794e+000,-8.392462e-007,2.581769e-005
1.216588e+000,3.356985e-007,2.576806e-005
1.217382e+000,-2.182040e-006,2.567174e-005
1.218176e+000,3.189136e-006,2.553564e-005
1.218971e+000,3.021286e-006,2.548485e-005
1.219765e+000,-5.874723e-006,2.546132e-005
1.220559e+000,-1.023880e-005,2.526019e-005
1.221353e+000,-9.567407e-006,2.510109e-005
1.222147e+000,-8.224612e-006,2.504567e-005
1.222941e+000,-4.867628e-006,2.504992e-005
1.223735e+000,-5.035477e-007,2.502519e-005
1.224529e+000,5.035477e-007,2.495268e-005
1.225324e+000,1.678492e-007,2.489631e-005
1.226118e+000,-2.853437e-006,2.489328e-005
1.226912e+000,-9.567407e-006,2.489371e-005
1.227706e+000,-1.560998e-005,2.489825e-005
1.228500e+000,-6.881819e-006,2.491379e-005
1.229294e+000,1.191730e-005,2.491681e-005
1.230088e+000,1.997406e-005,2.492584e-005
1.230882e+000,1.594568e-005,2.493952e-005
1.231676e+000,5.874723e-006,2.492719e-005
1.232471e+000,-2.349889e-006,2.489460e-005
1.233265e+000,-5.874723e-006,2.485910e-005
1.234059e+000,-1.023880e-005,2.479677e-005
1.234853e+000,-1.678492e-007,2.471818e-005
1.235647e+000,2.517739e-006,2.465188e-005
1.236441e+000,-6.210422e-006,2.462152e-005
1.237235e+000,-9.903105e-006,2.462033e-005
1.238029e+000,-1.091020e-005,2.451528e-005
1.238824e+000,-1.359579e-005,2.440376e-005
1.239618e+000,-1.191730e-005,2.438709e-005
1.240412e+000,-1.728847e-005,2.439264e-005
1.241206e+000,-2.064546e-005,2.437558e-005
1.242000e+000,-5.035477e-006,2.437467e-005
1.242794e+000,5.203327e-006,2.437260e-005
1.243588e+000,-1.091020e-005,2.436229e-005
1.244382e+000,-2.249180e-005,2.434571e-005
1.245176e+000,-2.098116e-005,2.437399e-005
1.245971e+000,-1.326009e-005,2.440258e-005
1.246765e+000,1.678492e-007,2.441205e-005
1.247559e+000,1.628138e-005,2.440429e-005
1.248353e+000,2.198825e-005,2.439555e-005
1.249147e+000,9.231709e-006,2.440835e-005
1.249941e+000,-5.539025e-006,2.439515e-005
1.250735e+000,-1.124590e-005,2.437985e-005
1.251529e+000,-1.158160e-005,2.437079e-005
1.252324e+000,-1.124590e-005,2.436223e-005
1.253118e+000,-1.091020e-005,2.435245e-005
1.253912e+000,-1.242084e-005,2.433834e-005
1.254706e+000,-1.091020e-005,2.432653e-005
1.255500e+000,-1.577783e-005,2.431399e-005
1.256294e+000,-2.182040e-005,2.432947e-005
1.257088e+000,-3.239490e-005,2.433625e-005
1.257882e+000,-3.709468e-005,2.437699e-005
1.258676e+000,-9.567407e-006,2.445283e-005
1.259471e+000,2.366674e-005,2.445745e-005
1.260265e+000,2.735943e-005,2.449323e-005
1.261059e+000,1.460288e-005,2.453877e-005
1.261853e+000,2.433814e-005,2.455011e-005
1.262647e+000,3.524834e-005,2.458543e-005
1.263441e+000,2.769513e-005,2.466463e-005
1.264235e+000,9.231709e-006,2.471410e-005
1.265029e+000,-2.182040e-006,2.471654e-005
1.265824e+000,-1.174945e-005,2.470608e-005
1.266618e+000,-2.098116e-005,2.470731e-005
1.267412e+000,-2.568093e-005,2.472891e-005
1.268206e+000,-2.265965e-005,2.476061e-005
1.269000e+000,-1.846342e-005,2.478960e-005
1.269794e+000,-1.829557e-005,2.480337e-005
1.270588e+000,-1.695277e-005,2.481625e-005
1.271382e+000,-2.030976e-005,2.483165e-005
1.272176e+000,-2.249180e-005,2.485696e-005
1.272971e+000,-2.702373e-005,2.488822e-005
1.273765e+000,-4.179446e-005,2.492633e-005
1.274559e+000,-3.776608e-005,2.502648e-005
1.275353e+000,-3.860533e-006,2.511166e-005
1.276147e+000,1.023880e-005,2.510202e-005
1.276941e+000,-4.867628e-006,2.509185e-005
1.277735e+000,2.265965e-005,2.505573e-005
1.278529e+000,5.891508e-005,2.495862e-005
1.279324e+000,5.622950e-005,2.509964e-005
1.280118e+000,2.366674e-005,2.526315e-005
1.280912e+000,-2.047761e-005,2.499115e-005
1.281706e+000,-4.850843e-005,2.473649e-005
1.282500e+000,-5.807584e-005,2.481601e-005
1.283294e+000,-1.678492e-005,2.503145e-005
1.284088e+000,3.575189e-005,2.501767e-005
1.284882e+000,4.213016e-005,2.505480e-005
1.285676e+000,1.863127e-005,2.514693e-005
1.286471e+000,-3.692683e-006,2.515940e-005
1.287265e+000,-1.292439e-005,2.513194e-005
1.288059e+000,-2.500954e-005,2.504547e-005
1.288853e+000,-3.373770e-005,2.491828e-005
1.289647e+000,-2.333104e-005,2.487207e-005
1.290441e+000,-1.762417e-005,2.490183e-005
1.291235e+000,-8.896010e-006,2.474013e-005
1.292029e+000,-1.091020e-005,2.450250e-005
1.292824e+000,-1.359579e-005,2.437544e-005
1.293618e+000,-4.196231e-006,2.435876e-005
1.294412e+000,9.231709e-006,2.434841e-005
1.295206e+000,7.888914e-006,2.426385e-005
1.296000e+000,-4.196231e-006,2.417417e-005
1.296794e+000,-9.903105e-006,2.415077e-005
1.297588e+000,-1.225299e-005,2.415120e-005
1.298382e+000,-1.174945e-005,2.414768e-005
1.299176e+000,-1.292439e-005,2.413091e-005
1.299971e+000,-8.224612e-006,2.407825e-005
1.300765e+000,-4.196231e-006,2.398823e-005
1.301559e+000,-2.853437e-006,2.398491e-005
1.302353e+000,-3.692683e-006,2.393570e-005
1.303147e+000,-8.896010e-006,2.389154e-005
1.303941e+000,-1.057450e-005,2.388509e-005
1.304735e+000,-1.023880e-005,2.389155e-005
1.305529e+000,-1.091020e-005,2.389831e-005
1.306324e+000,-8.224612e-006,2.389596e-005
1.307118e+000,-1.023880e-005,2.387563e-005
1.307912e+000,-1.225299e-005,2.386637e-005
1.308706e+000,-1.309224e-005,2.386820e-005
1.309500e+000,-7.553216e-006,2.386934e-005
1.310294e+000,-4.867628e-006,2.385957e-005
1.311088e+000,-8.224612e-006,2.384041e-005
1.311882e+000,-5.539025e-006,2.381916e-005
1.312676e+000,-4.867628e-006,2.381773e-005
1.313471e+000,-7.217518e-006,2.380570e-005
1.314265e+000,3.524834e-006,2.376270e-005
1.315059e+000,2.803082e-005,2.374067e-005
1.315853e+000,3.575189e-005,2.379277e-005
1.316647e+000,2.333104e-005,2.385330e-005
1.317441e+000,8.392462e-007,2.376429e-005
1.318235e+000,-1.460288e-005,2.347693e-005
1.319029e+000,-2.064546e-005,2.303021e-005
1.319824e+000,-1.930266e-005,2.281316e-005
1.320618e+000,-1.628138e-005,2.281831e-005
1.321412e+000,-1.292439e-005,2.257646e-005
1.322206e+000,-1.628138e-005,2.236424e-005
1.323000e+000,-1.728847e-005,2.227590e-005
1.323794e+000,-1.091020e-005,2.224633e-005
1.324588e+000,2.853437e-006,2.224096e-005
1.325382e+000,6.546120e-006,2.223815e-005
1.326176e+000,1.846342e-006,2.222223e-005
1.326971e+000,-1.510643e-006,2.220789e-005
1.327765e+000,-7.553216e-006,2.219131e-005
1.328559e+000,-6.881819e-006,2.218279e-005
1.329353e+000,-5.203327e-006,2.218051e-005
1.330147e+000,-6.210422e-006,2.217836e-005
1.330941e+000,-1.091020e-005,2.217773e-005
1.331735e+000,-1.091020e-005,2.218142e-005
1.332529e+000,-9.567407e-006,2.218656e-005
1.333324e+000,-5.706874e-006,2.218561e-005
1.334118e+000,-3.189136e-006,2.217775e-005
1.334912e+000,-1.023880e-005,2.217045e-005
1.335706e+000,-9.567407e-006,2.216598e-005
1.336500e+000,5.035477e-007,2.216503e-005
1.337294e+000,8.392462e-007,2.216130e-005
1.338088e+000,-8.560311e-006,2.215915e-005
1.338882e+000,-7.553216e-006,2.216221e-005
1.339676e+000,-1.510643e-006,2.216354e-005
1.340471e+000,5.035477e-006,2.215350e-005
1.341265e+000,9.903105e-006,2.214568e-005
1.342059e+000,6.881819e-006,2.214746e-005
1.342853e+000,5.035477e-007,2.214809e-005
1.343647e+000,-9.567407e-006,2.214590e-005
1.344441e+000,-1.359579e-005,2.214679e-005
1.345235e+000,-1.762417e-005,2.215935e-005
1.346029e+000,-1.628138e-005,2.217858e-005
1.346824e+000,-1.426719e-005,2.219751e-005
1.347618e+000,-8.896010e-006,2.221145e-005
1.348412e+000,-5.035477e-006,2.221586e-005
1.349206e+000,1.007095e-006,2.221743e-005
1.350000e+000,-8.392462e-007,2.221531e-005
1.350794e+000,-1.124590e-005,2.221051e-005
1.351588e+000,-2.400244e-005,2.221104e-005
1.352382e+000,-3.038071e-005,2.224621e-005
1.353176e+000,-2.970932e-005,2.230810e-005
1.353971e+000,-1.225299e-005,2.236620e-005
1.354765e+000,1.913481e-005,2.237665e-005
1.355559e+000,3.978027e-005,2.240172e-005
1.356353e+000,2.786297e-005,2.250698e-005
1.357147e+000,9.231709e-006,2.255782e-005
1.357941e+000,-6.881819e-006,2.256326e-005
1.358735e+000,-1.158160e-005,2.256636e-005
1.359529e+000,-1.426719e-005,2.257458e-005
1.360324e+000,-1.846342e-005,2.258248e-005
1.361118e+000,-1.191730e-005,2.259650e-005
1.361912e+000,-6.210422e-006,2.259593e-005
1.362706e+000,-6.881819e-006,2.256135e-005
1.363500e+000,-7.217518e-006,2.242037e-005
1.364294e+000,-5.539025e-006,2.210489e-005
1.365088e+000,-2.517739e-006,2.198892e-005
1.365882e+000,-4.196231e-006,2.191792e-005
1.366676e+000,-6.546120e-006,2.152843e-005
1.367471e+000,-7.553216e-006,2.108807e-005
1.368265e+000,-9.903105e-006,2.084651e-005
1.369059e+000,-1.326009e-005,2.079677e-005
1.369853e+000,-2.030976e-005,2.080980e-005
1.370647e+000,-3.306630e-005,2.080090e-005
1.371441e+000,-4.313725e-005,2.079747e-005
1.372235e+000,-4.716563e-005,2.089682e-005
1.373029e+000,-2.970932e-005,2.105967e-005
1.373824e+000,1.661708e-005,2.110793e-005
1.374618e+000,6.025788e-005,2.112742e-005
1.375412e+000,7.603571e-005,2.135522e-005
1.376206e+000,6.428626e-005,2.168663e-005
1.377000e+000,4.145876e-005,2.193237e-005
1.377794e+000,9.231709e-006,2.205432e-005
1.378588e+000,-1.577783e-005,2.204963e-005
1.379382e+000,-2.165255e-005,2.205359e-005
1.380176e+000,-2.047761e-005,2.208707e-005
1.380971e+000,-1.896696e-005,2.209658e-005
1.381765e+000,-1.258869e-005,2.207981e-005
1.382559e+000,-1.158160e-005,2.199804e-005
1.383353e+000,-1.091020e-005,2.192850e-005
1.384147e+000,-1.225299e-005,2.190093e-005
1.384941e+000,-1.628138e-005,2.185048e-005
1.385735e+000,-1.628138e-005,2.171183e-005
1.386529e+000,-2.366674e-005,2.165422e-005
1.387324e+000,-4.061952e-005,2.162294e-005
1.388118e+000,-6.865034e-005,2.139620e-005
1.388912e+000,-6.596475e-005,2.151411e-005
1.389706e+000,-2.635233e-005,2.178309e-005
1.390500e+000,5.035477e-007,2.183380e-005
1.391294e+000,2.534523e-005,2.182714e-005
1.392088e+000,4.414435e-005,2.185621e-005
1.392882e+000,4.179446e-005,2.198434e-005
1.393676e+000,4.397650e-005,2.210193e-005
1.394471e+000,4.330510e-005,2.222692e-005
1.395265e+000,3.340200e-005,2.233292e-005
1.396059e+000,7.721065e-006,2.240165e-005
1.396853e+000,-1.829557e-005,2.238930e-005
1.397647e+000,-2.568093e-005,2.239017e-005
1.398441e+000,-3.239490e-005,2.241326e-005
1.399235e+000,-3.273060e-005,2.246569e-005
1.400029e+000,-2.366674e-005,2.253088e-005
1.400824e+000,-1.426719e-005,2.256151e-005
1.401618e+000,-5.874723e-006,2.256528e-005
1.402412e+000,-2.517739e-006,2.254900e-005
1.403206e+000,-2.517739e-006,2.253149e-005
1.404000e+000,-2.182040e-006,2.251319e-005
1.404794e+000,-5.874723e-006,2.250109e-005
1.405588e+000,-1.225299e-005,2.250351e-005
1.406382e+000,-1.661708e-005,2.250437e-005
1.407176e+000,-1.829557e-005,2.252385e-005
1.407971e+000,-2.232395e-005,2.253690e-005
1.408765e+000,-2.316319e-005,2.256262e-005
1.409559e+000,-1.628138e-005,2.259549e-005
1.410353e+000,4.531929e-006,2.255877e-005
1.411147e+000,1.309224e-005,2.249641e-005
1.411941e+000,6.210422e-006,2.249672e-005
1.412735e+000,-2.853437e-006,2.249728e-005
1.413529e+000,-5.539025e-006,2.249568e-005
1.414324e+000,-5.035477e-006,2.249618e-005
1.415118e+000,-8.896010e-006,2.249524e-005
1.415912e+000,-1.158160e-005,2.249917e-005
1.416706e+000,-1.359579e-005,2.250593e-005
1.417500e+000,-1.057450e-005,2.249786e-005
1.418294e+000,3.524834e-006,2.248543e-005
1.419088e+000,1.057450e-005,2.248262e-005
1.419882e+000,1.678492e-007,2.249052e-005
1.420676e+000,-1.225299e-005,2.248749e-005
1.421471e+000,-1.963836e-005,2.249804e-005
1.422265e+000,-3.121996e-005,2.252408e-005
1.423059e+000,-2.970932e-005,2.259016e-005
1.423853e+000,-1.292439e-005,2.264231e-005
1.424647e+000,5.539025e-006,2.264350e-005
1.425441e+000,7.049668e-006,2.263266e-005
1.426235e+000,5.035477e-007,2.262249e-005
1.427029e+000,-5.203327e-006,2.259441e-005
1.427824e+000,-3.524834e-006,2.253682e-005
1.428618e+000,1.023880e-005,2.243670e-005
1.429412e+000,1.292439e-005,2.233159e-005
1.430206e+000,3.860533e-006,2.233697e-005
1.431000e+000,-1.258869e-005,2.227923e-005
1.431794e+000,-2.719158e-005,2.223961e-005
1.432588e+000,-3.306630e-005,2.229080e-005
1.433382e+000,-2.769513e-005,2.236731e-005
1.434176e+000,-4.867628e-006,2.229745e-005
1.434971e+000,2.937362e-005,2.208825e-005
1.435765e+000,3.508049e-005,2.208537e-005
1.436559e+000,2.064546e-005,2.217085e-005
1.437353e+000,2.182040e-006,2.220018e-005
1.438147e+000,-1.040665e-005,2.219484e-005
1.438941e+000,-1.359579e-005,2.215710e-005
1.439735e+000,-1.124590e-005,2.209488e-005
1.440529e+000,-6.881819e-006,2.203214e-005
1.441324e+000,-5.539025e-006,2.193948e-005
1.442118e+000,-7.217518e-006,2.171927e-005
1.442912e+000,-8.224612e-006,2.151982e-005
1.443706e+000,-1.695277e-005,2.151602e-005
1.444500e+000,-3.038071e-005,2.152150e-005
1.445294e+000,-3.978027e-005,2.158922e-005
1.446088e+000,-3.978027e-005,2.170364e-005
1.446882e+000,-7.553216e-006,2.179029e-005
1.447676e+000,3.038071e-005,2.169552e-005
1.448471e+000,3.843748e-005,2.174532e-005
1.449265e+000,2.316319e-005,2.183909e-005
1.450059e+000,3.524834e-006,2.176073e-005
1.450853e+000,-1.124590e-005,2.167820e-005
1.451647e+000,-3.038071e-005,2.165195e-005
1.452441e+000,-3.709468e-005,2.141460e-005
1.453235e+000,4.699779e-006,2.120211e-005
1.454029e+000,3.440909e-005,2.107218e-005
1.454824e+000,2.265965e-005,2.115107e-005
1.455618e+000,-3.356985e-007,2.117840e-005
1.456412e+000,-9.735256e-006,2.111119e-005
1.457206e+000,-1.896696e-005,2.105901e-005
1.458000e+000,-2.299535e-005,2.105185e-005
1.458794e+000,-2.433814e-005,2.106653e-005
1.459588e+000,-2.299535e-005,2.106956e-005
1.460382e+000,-1.963836e-005,2.104280e-005
1.461176e+000,-1.023880e-005,2.097876e-005
1.461971e+000,7.553216e-006,2.088951e-005
1.462765e+000,1.124590e-005,2.080519e-005
1.463559e+000,3.356985e-006,2.072231e-005
1.464353e+000,-1.174945e-005,2.065291e-005
1.465147e+000,-2.836652e-005,2.065916e-005
1.465941e+000,-4.649424e-005,2.072103e-005
1.466735e+000,-6.260777e-005,2.088648e-005
1.467529e+000,-5.320821e-005,2.118285e-005
1.468324e+000,9.231709e-006,2.139386e-005
1.469118e+000,6.562905e-005,2.139952e-005
1.469912e+000,7.905699e-005,2.171513e-005
1.470706e+000,6.025788e-005,2.216117e-005
1.471500e+000,3.071641e-005,2.241405e-005
1.472294e+000,4.531929e-006,2.247619e-005
1.473088e+000,-1.292439e-005,2.247596e-005
1.473882e+000,-1.930266e-005,2.248778e-005
1.474676e+000,-2.165255e-005,2.251413e-005
1.475471e+000,-2.668803e-005,2.254726e-005
1.476265e+000,-2.903792e-005,2.259693e-005
1.477059e+000,-3.642328e-005,2.264984e-005
1.477853e+000,-5.119402e-005,2.272585e-005
1.478647e+000,-5.270466e-005,2.290545e-005
1.479441e+000,-5.035477e-007,2.308796e-005
1.480235e+000,5.421531e-005,2.306045e-005
1.481029e+000,4.850843e-005,2.324511e-005
1.481824e+000,2.182040e-005,2.340340e-005
1.482618e+000,2.517739e-006,2.343540e-005
1.483412e+000,-8.896010e-006,2.343349e-005
1.484206e+000,-1.728847e-005,2.343174e-005
1.485000e+000,-2.836652e-005,2.345204e-005
1.485794e+000,-3.575189e-005,2.350618e-005
1.486588e+000,-2.803082e-005,2.359001e-005
1.487382e+000,-9.231709e-006,2.363638e-005
1.488176e+000,9.231709e-006,2.363410e-005
1.488971e+000,1.695277e-005,2.362739e-005
1.489765e+000,1.359579e-005,2.363719e-005
1.490559e+000,8.392462e-007,2.362950e-005
1.491353e+000,-5.874723e-006,2.360081e-005
1.492147e+000,-1.292439e-005,2.360143e-005
1.492941e+000,-1.628138e-005,2.361087e-005
1.493735e+000,-1.795987e-005,2.362071e-005
1.494529e+000,-1.560998e-005,2.360835e-005
1.495324e+000,-2.098116e-005,2.359509e-005
1.496118e+000,-2.232395e-005,2.361293e-005
1.496912e+000,-8.224612e-006,2.364651e-005
1.497706e+000,-1.258869e-005,2.363321e-005
1.498500e+000,-1.695277e-005,2.361130e-005
1.499294e+000,-6.210422e-006,2.362493e-005
1.500088e+000,1.158160e-005,2.362547e-005
1.500882e+000,1.426719e-005,2.362598e-005
1.501676e+000,9.063859e-006,2.363066e-005
1.502471e+000,1.158160e-005,2.362767e-005
1.503265e+000,7.553216e-006,2.362869e-005
1.504059e+000,5.035477e-007,2.362214e-005
1.504853e+000,-8.224612e-006,2.361413e-005
1.505647e+000,-1.359579e-005,2.360190e-005
1.506441e+000,-1.795987e-005,2.358224e-005
1.507235e+000,-1.829557e-005,2.353311e-005
1.508029e+000,-1.107805e-005,2.346254e-005
1.508824e+000,-1.510643e-006,2.346466e-005
1.509618e+000,-7.553216e-006,2.342678e-005
1.510412e+000,-9.567407e-006,2.337973e-005
1.511206e+000,-1.376364e-005,2.337144e-005
1.512000e+000,-1.863127e-005,2.334397e-005
1.512794e+000,-2.366674e-005,2.328282e-005
1.513588e+000,-1.896696e-005,2.326866e-005
1.514382e+000,-5.035477e-007,2.328744e-005
1.515176e+000,1.795987e-005,2.328713e-005
1.515971e+000,1.930266e-005,2.329974e-005
1.516765e+000,1.057450e-005,2.329512e-005
1.517559e+000,8.392462e-007,2.325765e-005
1.518353e+000,-4.867628e-006,2.322252e-005
1.519147e+000,-2.182040e-006,2.320076e-005
1.519941e+000,8.392462e-007,2.317811e-005
1.520735e+000,-3.524834e-006,2.315840e-005
1.521529e+000,-9.903105e-006,2.313088e-005
1.522324e+000,-1.762417e-005,2.310278e-005
1.523118e+000,-1.594568e-005,2.307384e-005
1.523912e+000,-1.359579e-005,2.297061e-005
1.524706e+000,-1.309224e-005,2.288439e-005
1.525500e+000,-1.712062e-005,2.289528e-005
1.526294e+000,-2.970932e-005,2.290837e-005
1.527088e+000,-3.239490e-005,2.296800e-005
1.527882e+000,-2.165255e-005,2.300512e-005
1.528676e+000,-8.224612e-006,2.279638e-005
1.529471e+000,1.527428e-005,2.257921e-005
1.530265e+000,3.877317e-005,2.255615e-005
1.531059e+000,5.891508e-005,2.263255e-005
1.531853e+000,5.354391e-005,2.271107e-005
1.532647e+000,1.997406e-005,2.267557e-005
1.533441e+000,-9.567407e-006,2.268381e-005
1.534235e+000,-3.273060e-005,2.260035e-005
1.535029e+000,-3.508049e-005,2.255072e-005
1.535824e+000,-1.124590e-005,2.261302e-005
1.536618e+000,3.524834e-006,2.262096e-005
1.537412e+000,6.546120e-006,2.261008e-005
1.538206e+000,-3.189136e-006,2.256901e-005
1.539000e+000,-1.359579e-005,2.248928e-005
1.539794e+000,-1.712062e-005,2.246381e-005
1.540588e+000,-2.349889e-005,2.246257e-005
1.541382e+000,-2.652018e-005,2.249608e-005
1.542176e+000,-1.829557e-005,2.253740e-005
1.542971e+000,-6.210422e-006,2.254799e-005
1.543765e+000,-5.874723e-006,2.254947e-005
1.544559e+000,-2.366674e-005,2.254588e-005
1.545353e+000,-4.045167e-005,2.258102e-005
1.546147e+000,-4.112306e-005,2.269488e-005
1.546941e+000,2.517739e-006,2.280638e-005
1.547735e+000,3.004501e-005,2.279634e-005
1.548529e+000,1.326009e-005,2.284969e-005
1.549324e+000,-2.433814e-005,2.285030e-005
1.550118e+000,-3.105211e-005,2.288684e-005
1.550912e+000,1.426719e-005,2.295260e-005
1.551706e+000,4.112306e-005,2.296616e-005
1.552500e+000,4.011597e-005,2.308217e-005
1.553294e+000,2.903792e-005,2.318749e-005
1.554088e+000,1.527428e-005,2.323766e-005
1.554882e+000,-2.182040e-006,2.324646e-005
1.555676e+000,-1.628138e-005,2.323864e-005
1.556471e+000,-2.098116e-005,2.325216e-005
1.557265e+000,-1.930266e-005,2.327512e-005
1.558059e+000,-1.762417e-005,2.329033e-005
1.558853e+000,-2.232395e-005,2.329985e-005
1.559647e+000,-3.172351e-005,2.332999e-005
1.560441e+000,-3.239490e-005,2.339696e-005
1.561235e+000,-3.239490e-005,2.346369e-005
1.562029e+000,-3.843748e-005,2.353272e-005
1.562824e+000,-3.642328e-005,2.363089e-005
1.563618e+000,-1.628138e-005,2.371662e-005
1.564412e+000,1.359579e-005,2.373357e-005
1.565206e+000,2.098116e-005,2.369322e-005
1.566000e+000,1.460288e-005,2.363684e-005
1.566794e+000,8.560311e-006,2.361452e-005
1.567588e+000,2.517739e-006,2.361942e-005
1.568382e+000,-4.196231e-006,2.360546e-005
1.569176e+000,-5.539025e-006,2.357788e-005
1.569971e+000,-4.531929e-006,2.355478e-005
1.570765e+000,-1.023880e-005,2.353824e-005
1.571559e+000,-1.527428e-005,2.353403e-005
1.572353e+000,-1.527428e-005,2.353188e-005
1.573147e+000,-1.225299e-005,2.352744e-005
1.573941e+000,-1.829557e-005,2.352955e-005
1.574735e+000,-1.779202e-005,2.355164e-005
1.575529e+000,-1.493858e-005,2.357014e-005
1.576324e+000,-3.524834e-006,2.358498e-005
1.577118e+000,5.035477e-007,2.358566e-005
1.577912e+000,2.182040e-006,2.358183e-005
1.578706e+000,8.392462e-007,2.357895e-005
1.579500e+000,2.517739e-006,2.357717e-005
1.580294e+000,1.057450e-005,2.357499e-005
1.581088e+000,2.870222e-005,2.357451e-005
1.581882e+000,4.078737e-005,2.362206e-005
1.582676e+000,3.105211e-005,2.372780e-005
1.583471e+000,5.203327e-006,2.379024e-005
1.584265e+000,-1.258869e-005,2.379137e-005
1.585059e+000,-2.853437e-005,2.379496e-005
1.585853e+000,-3.004501e-005,2.384328e-005
1.586647e+000,-2.467384e-005,2.390347e-005
1.587441e+000,-2.232395e-005,2.394395e-005
1.588235e+000,-1.762417e-005,2.397220e-005
1.589029e+000,-1.426719e-005,2.398903e-005
1.589824e+000,-1.326009e-005,2.400239e-005
1.590618e+000,-2.853437e-006,2.401237e-005
1.591412e+000,1.997406e-005,2.400641e-005
1.592206e+000,2.735943e-005,2.402972e-005
1.593000e+000,1.426719e-005,2.407925e-005
1.593794e+000,-1.023880e-005,2.408666e-005
1.594588e+000,-3.541619e-005,2.408137e-005
1.595382e+000,-5.085832e-005,2.414369e-005
1.596176e+000,-4.448005e-005,2.429631e-005
1.596971e+000,1.678492e-007,2.441236e-005
1.597765e+000,5.690089e-005,2.440720e-005
1.598559e+000,7.502861e-005,2.461589e-005
1.599353e+000,4.817273e-005,2.497732e-005
1.600147e+000,1.762417e-005,2.512478e-005
1.600941e+000,-8.224612e-006,2.513645e-005
1.601735e+000,-2.702373e-005,2.510422e-005
1.602529e+000,-3.608759e-005,2.509199e-005
1.603324e+000,-3.273060e-005,2.511861e-005
1.604118e+000,-2.702373e-005,2.517694e-005
1.604912e+000,-2.232395e-005,2.519996e-005
1.605706e+000,-1.896696e-005,2.513136e-005
1.606500e+000,-1.225299e-005,2.510495e-005
1.607294e+000,-8.896010e-006,2.510907e-005
1.608088e+000,-1.158160e-005,2.511108e-005
1.608882e+000,-2.064546e-005,2.511108e-005
1.609676e+000,-3.440909e-005,2.512520e-005
1.610471e+000,-5.220111e-005,2.517858e-005
1.611265e+000,-5.186542e-005,2.534140e-005
1.612059e+000,-2.853437e-006,2.550746e-005
1.612853e+000,4.145876e-005,2.550501e-005
1.613647e+000,4.817273e-005,2.560886e-005
1.614441e+000,3.508049e-005,2.575086e-005
1.615235e+000,1.560998e-005,2.582645e-005
1.616029e+000,1.007095e-006,2.584039e-005
1.616824e+000,-8.896010e-006,2.583781e-005
1.617618e+000,-4.196231e-006,2.583917e-005
1.618412e+000,4.531929e-006,2.583421e-005
1.619206e+000,7.217518e-006,2.582464e-005
1.620000e+000,-8.392462e-007,2.580241e-005
1.620794e+000,-1.023880e-005,2.573489e-005
1.621588e+000,-1.158160e-005,2.562600e-005
1.622382e+000,-1.091020e-005,2.549577e-005
1.623176e+000,-1.359579e-005,2.544804e-005
1.623971e+000,-8.224612e-006,2.544232e-005
1.624765e+000,-1.091020e-005,2.521832e-005
1.625559e+000,-9.063859e-006,2.485821e-005
1.626353e+000,-1.846342e-006,2.459737e-005
1.627147e+000,1.174945e-006,2.448607e-005
1.627941e+000,-7.888914e-006,2.448061e-005
1.628735e+000,-1.225299e-005,2.446847e-005
1.629529e+000,-1.829557e-005,2.444772e-005
1.630324e+000,-3.978027e-005,2.444221e-005
1.631118e+000,-5.790799e-005,2.452174e-005
1.631912e+000,-4.347295e-005,2.472833e-005
1.632706e+000,7.888914e-006,2.484113e-005
1.633500e+000,3.541619e-005,2.483749e-005
1.634294e+000,3.205920e-005,2.490818e-005
1.635088e+000,1.997406e-005,2.495689e-005
1.635882e+000,3.860533e-006,2.496543e-005
1.636676e+000,-4.867628e-006,2.493063e-005
1.637471e+000,-1.107805e-005,2.482654e-005
1.638265e+000,-9.231709e-006,2.453037e-005
1.639059e+000,-6.881819e-006,2.425186e-005
1.639853e+000,-1.040665e-005,2.420933e-005
1.640647e+000,-1.258869e-005,2.421644e-005
1.641441e+000,-1.560998e-005,2.418460e-005
1.642235e+000,-1.225299e-005,2.407207e-005
1.643029e+000,1.174945e-006,2.396622e-005
1.643824e+000,1.174945e-006,2.383748e-005
1.644618e+000,-1.359579e-005,2.371196e-005
1.645412e+000,-3.105211e-005,2.364937e-005
1.646206e+000,-3.373770e-005,2.371020e-005
1.647000e+000,-2.702373e-005,2.376410e-005
1.647794e+000,-2.030976e-005,2.376885e-005
1.648588e+000,2.517739e-006,2.372614e-005
1.649382e+000,3.877317e-005,2.365455e-005
1.650176e+000,4.750134e-005,2.371797e-005
1.650971e+000,3.508049e-005,2.385539e-005
1.651765e+000,1.695277e-005,2.393510e-005
1.652559e+000,-1.510643e-006,2.395379e-005
1.653353e+000,-1.091020e-005,2.395352e-005
1.654147e+000,-1.493858e-005,2.396112e-005
1.654941e+000,-1.393149e-005,2.397365e-005
1.655735e+000,-1.225299e-005,2.397657e-005
1.656529e+000,-1.695277e-005,2.396820e-005
1.657324e+000,-1.191730e-005,2.396505e-005
1.658118e+000,-8.560311e-006,2.394137e-005
1.658912e+000,-7.553216e-006,2.391053e-005
1.659706e+000,-1.057450e-005,2.389667e-005
1.660500e+000,-1.728847e-005,2.390276e-005
1.661294e+000,-1.091020e-005,2.391125e-005
1.662088e+000,-1.460288e-005,2.391661e-005
1.662882e+000,-2.165255e-005,2.393026e-005
1.663676e+000,-2.165255e-005,2.395940e-005
1.664471e+000,-1.963836e-005,2.398885e-005
1.665265e+000,-1.930266e-005,2.400919e-005
1.666059e+000,5.539025e-006,2.402500e-005
1.666853e+000,3.004501e-005,2.401478e-005
1.667647e+000,3.172351e-005,2.406716e-005
1.668441e+000,1.695277e-005,2.413284e-005
1.669235e+000,1.846342e-006,2.414442e-005
1.670029e+000,-6.210422e-006,2.414464e-005
1.670824e+000,-1.493858e-005,2.413728e-005
1.671618e+000,-2.098116e-005,2.412656e-005
1.672412e+000,-1.577783e-005,2.409126e-005
1.673206e+000,-1.628138e-005,2.404934e-005
1.674000e+000,-1.393149e-005,2.405583e-005
1.674794e+000,-9.567407e-006,2.406664e-005
1.675588e+000,-6.881819e-006,2.406941e-005
1.676382e+000,-6.881819e-006,2.407253e-005
1.677176e+000,-1.107805e-005,2.407387e-005
1.677971e+000,-1.393149e-005,2.408116e-005
1.678765e+000,-1.628138e-005,2.408706e-005
1.679559e+000,-1.493858e-005,2.409354e-005
1.680353e+000,-5.706874e-006,2.410730e-005
1.681147e+000,-3.189136e-006,2.409899e-005
1.681941e+000,-3.189136e-006,2.405075e-005
1.682735e+000,-5.874723e-006,2.397893e-005
1.683529e+000,-3.189136e-006,2.393024e-005
1.684324e+000,-2.014191e-006,2.392934e-005
1.685118e+000,-2.853437e-006,2.387212e-005
1.685912e+000,-1.359579e-005,2.379044e-005
1.686706e+000,-2.870222e-005,2.377428e-005
1.687500e+000,-4.213016e-005,2.382907e-005
1.688294e+000,-2.719158e-005,2.394019e-005
1.689088e+000,4.817273e-005,2.397704e-005
1.689882e+000,9.819181e-005,2.412232e-005
1.690676e+000,8.375677e-005,2.474755e-005
1.691471e+000,5.069047e-005,2.519295e-005
1.692265e+000,1.728847e-005,2.535157e-005
1.693059e+000,-1.560998e-005,2.536609e-005
1.693853e+000,-5.018692e-005,2.536335e-005
1.694647e+000,-7.335011e-005,2.546333e-005
1.695441e+000,-7.402152e-005,2.569973e-005
1.696235e+000,-3.743038e-005,2.594005e-005
1.697029e+000,2.333104e-005,2.602242e-005
1.697824e+000,4.615854e-005,2.599924e-005
1.698618e+000,3.306630e-005,2.603921e-005
1.699412e+000,1.762417e-005,2.607324e-005
1.700206e+000,-9.231709e-006,2.609145e-005
1.701000e+000,-3.340200e-005,2.608893e-005
1.701794e+000,-4.246586e-005,2.610069e-005
1.702588e+000,-3.978027e-005,2.612675e-005
1.703382e+000,-2.433814e-005,2.622168e-005
1.704176e+000,-1.393149e-005,2.618572e-005
1.704971e+000,-1.023880e-005,2.616630e-005
1.705765e+000,-3.860533e-006,2.617267e-005
1.706559e+000,1.510643e-006,2.616781e-005
1.707353e+000,5.203327e-006,2.614605e-005
1.708147e+000,5.035477e-007,2.611547e-005
1.708941e+000,-1.258869e-005,2.607935e-005
1.709735e+000,-2.316319e-005,2.605672e-005
1.710529e+000,-2.702373e-005,2.606594e-005
1.711324e+000,-1.829557e-005,2.610412e-005
1.712118e+000,-1.091020e-005,2.612106e-005
1.712912e+000,-1.359579e-005,2.612060e-005
1.713706e+000,-1.980621e-005,2.613118e-005
1.714500e+000,-2.165255e-005,2.614667e-005
1.715294e+000,-1.493858e-005,2.612621e-005
1.716088e+000,-4.196231e-006,2.600779e-005
1.716882e+000,-2.853437e-006,2.576777e-005
1.717676e+000,-1.762417e-005,2.559272e-005
1.718471e+000,-3.340200e-005,2.560675e-005
1.719265e+000,-5.421531e-005,2.540751e-005
1.720059e+000,-6.277562e-005,2.519916e-005
1.720853e+000,-1.225299e-005,2.521873e-005
1.721647e+000,4.515145e-005,2.516859e-005
1.722441e+000,6.361486e-005,2.529594e-005
1.723235e+000,5.354391e-005,2.553901e-005
1.724029e+000,3.608759e-005,2.569406e-005
1.724824e+000,2.937362e-005,2.574566e-005
1.725618e+000,1.728847e-005,2.575497e-005
1.726412e+000,5.874723e-006,2.572130e-005
1.727206e+000,-5.874723e-006,2.564118e-005
1.728000e+000,-1.091020e-005,2.548006e-005
1.728794e+000,-8.392462e-006,2.531336e-005
1.729588e+000,-8.392462e-006,2.531777e-005
1.730382e+000,-1.359579e-005,2.513669e-005
1.731176e+000,-1.460288e-005,2.499896e-005
1.731971e+000,-1.292439e-005,2.498220e-005
1.732765e+000,-1.359579e-005,2.499245e-005
1.733559e+000,-1.158160e-005,2.499918e-005
1.734353e+000,-1.057450e-005,2.498868e-005
1.735147e+000,-1.443504e-005,2.494449e-005
1.735941e+000,-2.299535e-005,2.487611e-005
1.736735e+000,-2.433814e-005,2.485965e-005
1.737529e+000,-7.217518e-006,2.489212e-005
1.738324e+000,1.846342e-006,2.489000e-005
1.739118e+000,1.460288e-005,2.487182e-005
1.739912e+000,1.460288e-005,2.487364e-005
1.740706e+000,5.203327e-006,2.488724e-005
1.741500e+000,-1.174945e-006,2.488677e-005
1.742294e+000,-9.903105e-006,2.487616e-005
1.743088e+000,-1.023880e-005,2.486547e-005
1.743882e+000,-7.553216e-006,2.485152e-005
1.744676e+000,-6.210422e-006,2.483956e-005
1.745471e+000,-6.210422e-006,2.481380e-005
1.746265e+000,-7.553216e-006,2.478428e-005
1.747059e+000,-1.292439e-005,2.478360e-005
1.747853e+000,-1.661708e-005,2.478415e-005
1.748647e+000,-2.182040e-006,2.478343e-005
1.749441e+000,1.292439e-005,2.478125e-005
1.750235e+000,1.863127e-005,2.478337e-005
1.751029e+000,8.224612e-006,2.479259e-005
1.751824e+000,-2.517739e-006,2.479166e-005
1.752618e+000,-1.426719e-005,2.478345e-005
1.753412e+000,-2.601663e-005,2.479286e-005
1.754206e+000,-2.299535e-005,2.483628e-005
1.755000e+000,-1.225299e-005,2.486583e-005
1.755794e+000,-5.874723e-006,2.486360e-005
1.756588e+000,5.035477e-007,2.484515e-005
1.757382e+000,-6.881819e-006,2.482370e-005
1.758176e+000,-1.359579e-005,2.481887e-005
1.758971e+000,-9.903105e-006,2.483058e-005
1.759765e+000,-9.231709e-006,2.483321e-005
1.760559e+000,-7.553216e-006,2.483281e-005
1.761353e+000,-8.224612e-006,2.482431e-005
1.762147e+000,-5.874723e-006,2.480638e-005
1.762941e+000,-6.881819e-006,2.477262e-005
1.763735e+000,-1.493858e-005,2.475253e-005
1.764529e+000,-1.779202e-005,2.476687e-005
1.765324e+000,-2.366674e-005,2.476648e-005
1.766118e+000,-2.970932e-005,2.477854e-005
1.766912e+000,-6.210422e-006,2.482802e-005
1.767706e+000,2.735943e-005,2.483045e-005
1.768500e+000,2.903792e-005,2.487689e-005
1.769294e+000,-2.182040e-006,2.493050e-005
1.770088e+000,-3.910887e-005,2.493076e-005
1.770882e+000,-4.448005e-005,2.502747e-005
1.771676e+000,-9.567407e-006,2.514682e-005
1.772471e+000,3.524834e-005,2.513295e-005
1.773265e+000,6.260777e-005,2.519548e-005
1.774059e+000,5.857939e-005,2.543043e-005
1.774853e+000,1.896696e-005,2.563375e-005
1.775647e+000,-1.174945e-005,2.563789e-005
1.776441e+000,-2.735943e-005,2.559160e-005
1.777235e+000,-2.232395e-005,2.557288e-005
1.778029e+000,-1.040665e-005,2.557471e-005
1.778824e+000,-1.846342e-006,2.557725e-005
1.779618e+000,-9.567407e-006,2.556293e-005
1.780412e+000,-2.232395e-005,2.547483e-005
1.781206e+000,-2.517739e-005,2.528834e-005
1.782000e+000,-2.030976e-005,2.514734e-005
1.782794e+000,-1.493858e-005,2.514819e-005
1.783588e+000,-1.040665e-005,2.515653e-005
1.784382e+000,-1.174945e-005,2.509550e-005
1.785176e+000,-1.527428e-005,2.502607e-005
1.785971e+000,-1.091020e-005,2.503287e-005
1.786765e+000,-8.560311e-006,2.503965e-005
1.787559e+000,-1.560998e-005,2.504159e-005
1.788353e+000,-2.064546e-005,2.505643e-005
1.789147e+000,-1.174945e-005,2.507177e-005
1.789941e+000,-6.881819e-006,2.506191e-005
1.790735e+000,-4.531929e-006,2.502982e-005
1.791529e+000,-4.531929e-006,2.498634e-005
1.792324e+000,-2.047761e-005,2.496631e-005
1.793118e+000,-2.450599e-005,2.499059e-005
1.793912e+000,-1.393149e-005,2.502663e-005
1.794706e+000,-2.182040e-006,2.500333e-005
1.795500e+000,-5.203327e-006,2.489920e-005
1.796294e+000,1.846342e-006,2.479255e-005
1.797088e+000,4.515145e-005,2.479237e-005
1.797882e+000,6.881819e-005,2.486522e-005
1.798676e+000,4.515145e-005,2.515555e-005
1.799471e+000,1.829557e-005,2.524694e-005
1.800265e+000,-5.539025e-006,2.520720e-005
1.801059e+000,-1.460288e-005,2.519628e-005
1.801853e+000,-2.232395e-005,2.510271e-005
1.802647e+000,-2.198825e-005,2.503214e-005
1.803441e+000,-1.829557e-005,2.500924e-005
1.804235e+000,-1.695277e-005,2.501570e-005
1.805029e+000,-1.695277e-005,2.503369e-005
1.805824e+000,-1.359579e-005,2.503510e-005
1.806618e+000,-1.158160e-005,2.501886e-005
1.807412e+000,-1.292439e-005,2.500367e-005
1.808206e+000,-1.359579e-005,2.499453e-005
1.809000e+000,-1.829557e-005,2.497455e-005
1.809794e+000,-1.930266e-005,2.493169e-005
1.810588e+000,-1.158160e-005,2.488842e-005
1.811382e+000,-3.189136e-006,2.482979e-005
1.812176e+000,-2.853437e-006,2.473551e-005
1.812971e+000,-3.189136e-006,2.465049e-005
1.813765e+000,-2.182040e-006,2.463402e-005
1.814559e+000,-3.021286e-006,2.462237e-005
1.815353e+000,-3.524834e-006,2.459448e-005
1.816147e+000,-4.196231e-006,2.458147e-005
1.816941e+000,-6.546120e-006,2.457787e-005
1.817735e+000,-7.553216e-006,2.458023e-005
1.818529e+000,-5.874723e-006,2.458279e-005
1.819324e+000,-6.210422e-006,2.458304e-005
1.820118e+000,-2.517739e-006,2.458421e-005
1.820912e+000,-2.517739e-006,2.457782e-005
1.821706e+000,-5.203327e-006,2.456312e-005
1.822500e+000,-6.881819e-006,2.454974e-005
1.823294e+000,-1.426719e-005,2.454308e-005
1.824088e+000,-1.695277e-005,2.453456e-005
1.824882e+000,-2.165255e-005,2.453267e-005
1.825676e+000,-1.829557e-005,2.454861e-005
1.826471e+000,-7.553216e-006,2.456951e-005
1.827265e+000,1.040665e-005,2.457319e-005
1.828059e+000,2.668803e-005,2.457990e-005
1.828853e+000,3.541619e-005,2.462595e-005
1.829647e+000,3.289845e-005,2.470652e-005
1.830441e+000,1.930266e-005,2.476899e-005
1.831235e+000,5.035477e-006,2.473996e-005
1.832029e+000,-4.196231e-006,2.463429e-005
1.832824e+000,-5.539025e-006,2.457303e-005
1.833618e+000,-2.517739e-006,2.457326e-005
1.834412e+000,-5.539025e-006,2.456340e-005
1.835206e+000,-1.359579e-005,2.451255e-005
1.836000e+000,-1.829557e-005,2.446587e-005
1.836794e+000,-1.963836e-005,2.444803e-005
1.837588e+000,-2.635233e-005,2.444069e-005
1.838382e+000,-3.776608e-005,2.446568e-005
1.839176e+000,-4.179446e-005,2.454514e-005
1.839971e+000,-3.508049e-005,2.464684e-005
1.840765e+000,-1.326009e-005,2.472570e-005
1.841559e+000,3.524834e-006,2.471132e-005
1.842353e+000,-3.356985e-007,2.466384e-005
1.843147e+000,-3.524834e-006,2.465071e-005
1.843941e+000,-1.678492e-006,2.464474e-005
1.844735e+000,-1.091020e-005,2.456374e-005
1.845529e+000,-2.500954e-005,2.440326e-005
1.846324e+000,-3.793393e-005,2.431481e-005
1.847118e+000,-2.316319e-005,2.440886e-005
1.847912e+000,2.400244e-005,2.423201e-005
1.848706e+000,4.280156e-005,2.389764e-005
1.849500e+000,2.400244e-005,2.386506e-005
1.850294e+000,-8.224612e-006,2.388277e-005
1.851088e+000,-1.863127e-005,2.388277e-005
1.851882e+000,2.517739e-006,2.385721e-005
1.852676e+000,2.400244e-005,2.377055e-005
1.853471e+000,2.836652e-005,2.373736e-005
1.854265e+000,1.174945e-005,2.374235e-005
1.855059e+000,-3.189136e-006,2.371817e-005
1.855853e+000,-9.231709e-006,2.369469e-005
1.856647e+000,-1.560998e-005,2.369033e-005
1.857441e+000,-1.913481e-005,2.370138e-005
1.858235e+000,-1.158160e-005,2.371696e-005
1.859029e+000,2.182040e-006,2.369734e-005
1.859824e+000,8.392462e-007,2.361797e-005
1.860618e+000,-1.191730e-005,2.343358e-005
1.861412e+000,-3.138781e-005,2.325979e-005
1.862206e+000,-5.455100e-005,2.332659e-005
1.863000e+000,-7.133593e-005,2.341223e-005
1.863794e+000,-5.555810e-005,2.359976e-005
1.864588e+000,-1.963836e-005,2.372466e-005
1.865382e+000,1.460288e-005,2.373419e-005
1.866176e+000,7.335011e-005,2.374843e-005
1.866971e+000,1.055772e-004,2.410125e-005
1.867765e+000,7.100023e-005,2.482565e-005
1.868559e+000,1.443504e-005,2.514561e-005
1.869353e+000,-1.963836e-005,2.515550e-005
1.870147e+000,-2.702373e-005,2.517986e-005
1.870941e+000,-3.105211e-005,2.521938e-005
1.871735e+000,-2.366674e-005,2.527174e-005
1.872529e+000,-2.165255e-005,2.529951e-005
1.873324e+000,-2.165255e-005,2.531738e-005
1.874118e+000,-2.433814e-005,2.534260e-005
1.874912e+000,-2.635233e-005,2.537232e-005
1.875706e+000,-2.702373e-005,2.541072e-005
1.876500e+000,-2.769513e-005,2.545623e-005
1.877294e+000,-1.762417e-005,2.550408e-005
1.878088e+000,3.189136e-006,2.551958e-005
1.878882e+000,2.366674e-005,2.551085e-005
1.879676e+000,2.534523e-005,2.552491e-005
1.880471e+000,6.546120e-006,2.546620e-005
1.881265e+000,-1.023880e-005,2.525835e-005
1.882059e+000,-2.030976e-005,2.514556e-005
1.882853e+000,-2.030976e-005,2.516773e-005
1.883647e+000,-1.829557e-005,2.511441e-005
1.884441e+000,-2.030976e-005,2.507043e-005
1.885235e+000,-1.930266e-005,2.507129e-005
1.886029e+000,-2.064546e-005,2.509400e-005
1.886824e+000,-1.963836e-005,2.511953e-005
1.887618e+000,-1.225299e-005,2.513619e-005
1.888412e+000,8.560311e-006,2.514030e-005
1.889206e+000,2.098116e-005,2.514195e-005
1.890000e+000,2.030976e-005,2.516296e-005
1.890794e+000,1.678492e-007,2.517903e-005
1.891588e+000,-1.795987e-005,2.516361e-005
1.892382e+000,-1.594568e-005,2.517452e-005
1.893176e+000,-1.091020e-005,2.519051e-005
1.893971e+000,8.392462e-007,2.519795e-005
1.894765e+000,8.560311e-006,2.518631e-005
1.895559e+000,7.049668e-006,2.512992e-005
1.896353e+000,-2.182040e-006,2.506085e-005
1.897147e+000,-1.678492e-007,2.501471e-005
1.897941e+000,3.860533e-006,2.498844e-005
1.898735e+000,6.210422e-006,2.498898e-005
1.899529e+000,9.903105e-006,2.489547e-005
1.900324e+000,1.661708e-005,2.475703e-005
1.901118e+000,9.231709e-006,2.469556e-005
1.901912e+000,-3.860533e-006,2.468252e-005
1.902706e+000,-1.661708e-005,2.468334e-005
1.903500e+000,-1.695277e-005,2.469347e-005
1.904294e+000,-2.165255e-005,2.469761e-005
1.905088e+000,-2.450599e-005,2.471532e-005
1.905882e+000,-1.661708e-005,2.474432e-005
1.906676e+000,-3.692683e-006,2.474360e-005
1.907471e+000,1.174945e-006,2.473533e-005
1.908265e+000,1.846342e-006,2.473071e-005
1.909059e+000,-6.881819e-006,2.472725e-005
1.909853e+000,-1.225299e-005,2.472310e-005
1.910647e+000,-1.829557e-005,2.471352e-005
1.911441e+000,-1.896696e-005,2.472741e-005
1.912235e+000,-1.493858e-005,2.473684e-005
1.913029e+000,-6.881819e-006,2.472102e-005
1.913824e+000,-2.517739e-006,2.469386e-005
1.914618e+000,-5.035477e-007,2.466939e-005
1.915412e+000,-8.392462e-007,2.464534e-005
1.916206e+000,-4.196231e-006,2.464340e-005
1.917000e+000,-3.524834e-006,2.458614e-005
1.917794e+000,-9.903105e-006,2.452169e-005
1.918588e+000,-1.359579e-005,2.450939e-005
1.919382e+000,-1.560998e-005,2.452117e-005
1.920176e+000,-2.433814e-005,2.453449e-005
1.920971e+000,-3.172351e-005,2.455844e-005
1.921765e+000,-3.843748e-005,2.459512e-005
1.922559e+000,-2.299535e-005,2.467453e-005
1.923353e+000,2.735943e-005,2.469154e-005
1.924147e+000,6.193637e-005,2.472727e-005
1.924941e+000,5.052262e-005,2.496725e-005
1.925735e+000,2.366674e-005,2.512651e-005
1.926529e+000,-1.510643e-006,2.515899e-005
1.927324e+000,-1.712062e-005,2.515136e-005
1.928118e+000,-4.615854e-005,2.515763e-005
1.928912e+000,-5.320821e-005,2.527543e-005
1.929706e+000,-1.896696e-005,2.543921e-005
1.930500e+000,2.467384e-005,2.545968e-005
1.931294e+000,3.239490e-005,2.549709e-005
1.932088e+000,8.560311e-006,2.556191e-005
1.932882e+000,-1.594568e-005,2.556433e-005
1.933676e+000,-4.213016e-005,2.557953e-005
1.934471e+000,-5.824369e-005,2.568953e-005
1.935265e+000,-4.917983e-005,2.589845e-005
1.936059e+000,-7.049668e-006,2.603543e-005
1.936853e+000,2.467384e-005,2.598804e-005
1.937647e+000,4.884413e-005,2.591649e-005
1.938441e+000,5.270466e-005,2.601745e-005
1.939235e+000,3.810178e-005,2.604541e-005
1.940029e+000,1.661708e-005,2.553980e-005
1.940824e+000,-5.539025e-006,2.511611e-005
1.941618e+000,-1.091020e-005,2.495463e-005
1.942412e+000,-1.124590e-005,2.494315e-005
1.943206e+000,-1.258869e-005,2.493567e-005
1.944000e+000,-1.661708e-005,2.478449e-005
1.944794e+000,-2.064546e-005,2.445436e-005
1.945588e+000,-2.467384e-005,2.412309e-005
1.946382e+000,-2.467384e-005,2.407074e-005
1.947176e+000,-3.038071e-005,2.407500e-005
1.947971e+000,-3.994812e-005,2.399500e-005
1.948765e+000,-5.455100e-005,2.402832e-005
1.949559e+000,-6.092927e-005,2.420430e-005
1.950353e+000,-2.517739e-006,2.444176e-005
1.951147e+000,6.109713e-005,2.436938e-005
1.951941e+000,6.092927e-005,2.449513e-005
1.952735e+000,2.500954e-005,2.463320e-005
1.953529e+000,-7.553216e-006,2.463534e-005
1.954324e+000,-2.433814e-005,2.462648e-005
1.955118e+000,-3.709468e-005,2.465798e-005
1.955912e+000,-3.239490e-005,2.474573e-005
1.956706e+000,-5.874723e-006,2.481302e-005
1.957500e+000,1.560998e-005,2.481349e-005
1.958294e+000,3.071641e-005,2.482911e-005
1.959088e+000,2.534523e-005,2.487940e-005
1.959882e+000,3.860533e-006,2.488618e-005
1.960676e+000,-1.829557e-005,2.484036e-005
1.961471e+000,-2.433814e-005,2.484036e-005
1.962265e+000,-6.881819e-006,2.487069e-005
1.963059e+000,8.896010e-006,2.486188e-005
1.963853e+000,2.517739e-006,2.484181e-005
1.964647e+000,-6.881819e-006,2.481215e-005
1.965441e+000,-1.292439e-005,2.480087e-005
1.966235e+000,-1.359579e-005,2.481046e-005
1.967029e+000,-1.493858e-005,2.482180e-005
1.967824e+000,-1.896696e-005,2.481619e-005
1.968618e+000,-2.232395e-005,2.476763e-005
1.969412e+000,-1.560998e-005,2.461020e-005
1.970206e+000,5.035477e-007,2.436981e-005
1.971000e+000,3.021286e-006,2.436002e-005
1.971794e+000,1.174945e-006,2.422699e-005
1.972588e+000,3.692683e-006,2.395962e-005
1.973382e+000,-4.196231e-006,2.376923e-005
1.974176e+000,-8.560311e-006,2.368301e-005
1.974971e+000,-1.292439e-005,2.362986e-005
1.975765e+000,-1.762417e-005,2.362098e-005
1.976559e+000,-1.426719e-005,2.363958e-005
1.977353e+000,-8.896010e-006,2.365097e-005
1.978147e+000,-5.539025e-006,2.364828e-005
1.978941e+000,-8.224612e-006,2.364560e-005
1.979735e+000,-5.539025e-006,2.364541e-005
1.980529e+000,-6.881819e-006,2.363503e-005
1.981324e+000,-8.392462e-006,2.362385e-005
1.982118e+000,-1.493858e-005,2.361734e-005
1.982912e+000,-2.769513e-005,2.361992e-005
1.983706e+000,-4.380865e-005,2.366255e-005
1.984500e+000,-3.743038e-005,2.378387e-005
1.985294e+000,9.567407e-006,2.386358e-005
1.986088e+000,4.917983e-005,2.383439e-005
1.986882e+000,5.152972e-005,2.395609e-005
1.987676e+000,3.038071e-005,2.412851e-005
1.988471e+000,7.217518e-006,2.418912e-005
1.989265e+000,-3.524834e-006,2.417851e-005
1.990059e+000,-1.560998e-005,2.416528e-005
1.990853e+000,-1.359579e-005,2.417955e-005
1.991647e+000,-9.567407e-006,2.419163e-005
1.992441e+000,-7.888914e-006,2.419120e-005
1.993235e+000,-8.224612e-006,2.418839e-005
1.994029e+000,-8.896010e-006,2.418909e-005
1.994824e+000,-8.224612e-006,2.419176e-005
1.995618e+000,-8.224612e-006,2.419367e-005
1.996412e+000,-8.224612e-006,2.419437e-005
1.997206e+000,-6.881819e-006,2.418783e-005
1.998000e+000,-8.224612e-006,2.417276e-005
1.998794e+000,-6.881819e-006,2.417690e-005
1.999588e+000,-4.867628e-006,2.416902e-005
2.000382e+000,-7.553216e-006,2.414770e-005
2.001176e+000,-7.553216e-006,2.414700e-005
2.001971e+000,-6.378271e-006,2.415035e-005
2.002765e+000,-6.881819e-006,2.413961e-005
2.003559e+000,-8.896010e-006,2.409805e-005
2.004353e+000,-1.493858e-005,2.406831e-005
2.005147e+000,-2.165255e-005,2.407315e-005
2.005941e+000,-2.568093e-005,2.410186e-005
2.006735e+000,-2.970932e-005,2.414537e-005
2.007529e+000,-2.853437e-005,2.420040e-005
2.008324e+000,5.203327e-006,2.424177e-005
2.009118e+000,4.515145e-005,2.423711e-005
2.009912e+000,5.824369e-005,2.436511e-005
2.010706e+000,3.407340e-005,2.458212e-005
2.011500e+000,2.517739e-006,2.465284e-005
2.012294e+000,-1.930266e-005,2.465102e-005
2.013088e+000,-4.213016e-005,2.467202e-005
2.013882e+000,-5.958648e-005,2.477197e-005
2.014676e+000,-5.925078e-005,2.497899e-005
2.015471e+000,-3.575189e-005,2.516638e-005
2.016265e+000,6.546120e-006,2.519139e-005
2.017059e+000,5.723659e-005,2.519166e-005
2.017853e+000,7.737850e-005,2.535092e-005
2.018647e+000,5.052262e-005,2.567201e-005
2.019441e+000,8.560311e-006,2.582956e-005
2.020235e+000,-2.098116e-005,2.573963e-005
2.021029e+000,-3.978027e-005,2.564429e-005
2.021824e+000,-2.836652e-005,2.573670e-005
2.022618e+000,-5.539025e-006,2.570960e-005
2.023412e+000,1.258869e-005,2.546759e-005
2.024206e+000,2.517739e-006,2.526211e-005
2.025000e+000,-1.023880e-005,2.523982e-005
2.025794e+000,-1.443504e-005,2.523772e-005
2.026588e+000,-1.460288e-005,2.520362e-005
2.027382e+000,-1.728847e-005,2.518560e-005
2.028176e+000,-1.158160e-005,2.519765e-005
2.028971e+000,-1.510643e-006,2.520591e-005
2.029765e+000,-7.888914e-006,2.520027e-005
2.030559e+000,-1.594568e-005,2.517270e-005
2.031353e+000,-1.376364e-005,2.514867e-005
2.032147e+000,-7.888914e-006,2.513454e-005
2.032941e+000,-2.853437e-005,2.512435e-005
2.033735e+000,-5.589380e-005,2.516905e-005
2.034529e+000,-8.140688e-005,2.535726e-005
2.035324e+000,-5.186542e-005,2.575564e-005
2.036118e+000,7.888914e-006,2.591411e-005
2.036912e+000,4.061952e-005,2.591343e-005
2.037706e+000,5.690089e-005,2.599970e-005
2.038500e+000,6.025788e-005,2.617132e-005
2.039294e+000,5.152972e-005,2.638299e-005
2.040088e+000,3.810178e-005,2.653993e-005
2.040882e+000,1.393149e-005,2.662566e-005
2.041676e+000,-4.867628e-006,2.663603e-005
2.042471e+000,-1.309224e-005,2.661237e-005
2.043265e+000,-9.063859e-006,2.658668e-005
2.044059e+000,-5.874723e-006,2.657998e-005
2.044853e+000,-1.628138e-005,2.658176e-005
2.045647e+000,-1.896696e-005,2.659601e-005
2.046441e+000,-2.366674e-005,2.661734e-005
2.047235e+000,-1.913481e-005,2.652874e-005
2.048029e+000,-1.795987e-005,2.626514e-005
2.048824e+000,-1.762417e-005,2.616089e-005
2.049618e+000,-1.258869e-005,2.615942e-005
2.050412e+000,-1.426719e-005,2.616720e-005
2.051206e+000,-1.359579e-005,2.616661e-005
2.052000e+000,-9.735256e-006,2.614752e-005
2.052794e+000,-1.158160e-005,2.612384e-005
2.053588e+000,-1.124590e-005,2.611161e-005
2.054382e+000,-9.063859e-006,2.610180e-005
2.055176e+000,-1.023880e-005,2.608927e-005
2.055971e+000,-7.888914e-006,2.608439e-005
2.056765e+000,-6.881819e-006,2.608000e-005
2.057559e+000,-9.567407e-006,2.607269e-005
2.058353e+000,-8.224612e-006,2.606699e-005
2.059147e+000,-4.196231e-006,2.605067e-005
2.059941e+000,-3.189136e-006,2.602896e-005
2.060735e+000,-5.539025e-006,2.602138e-005
2.061529e+000,-4.867628e-006,2.602263e-005
2.062324e+000,-5.539025e-006,2.602358e-005
2.063118e+000,-3.189136e-006,2.602484e-005
2.063912e+000,-1.510643e-006,2.602517e-005
2.064706e+000,-3.524834e-006,2.602475e-005
2.065500e+000,-4.196231e-006,2.602475e-005
2.066294e+000,-2.853437e-006,2.602475e-005
2.067088e+000,-6.881819e-006,2.602263e-005
2.067882e+000,-6.881819e-006,2.602203e-005
2.068676e+000,-5.539025e-006,2.602282e-005
2.069471e+000,-4.196231e-006,2.602234e-005
2.070265e+000,-5.539025e-006,2.602303e-005
2.071059e+000,-6.881819e-006,2.602452e-005
2.071853e+000,-6.881819e-006,2.602576e-005
2.072647e+000,-5.539025e-006,2.602576e-005
2.073441e+000,-4.867628e-006,2.601518e-005
2.074235e+000,-4.867628e-006,2.599903e-005
2.075029e+000,-3.189136e-006,2.597175e-005
2.075824e+000,1.007095e-006,2.595185e-005
2.076618e+000,-1.510643e-006,2.594841e-005
2.077412e+000,-2.853437e-006,2.594190e-005
2.078206e+000,-3.189136e-006,2.589865e-005
2.079000e+000,-6.210422e-006,2.582204e-005
2.079794e+000,-9.567407e-006,2.575760e-005
2.080588e+000,-8.896010e-006,2.574022e-005
2.081382e+000,-4.196231e-006,2.574355e-005
2.082176e+000,-1.846342e-006,2.574355e-005
2.082971e+000,-2.853437e-006,2.574186e-005
2.083765e+000,-3.860533e-006,2.574197e-005
2.084559e+000,-4.196231e-006,2.574100e-005
2.085353e+000,-3.189136e-006,2.573065e-005
2.086147e+000,-4.867628e-006,2.571055e-005
2.086941e+000,-1.242084e-005,2.568813e-005
2.087735e+000,-1.930266e-005,2.565462e-005
2.088529e+000,-3.105211e-005,2.558914e-005
2.089324e+000,-4.615854e-005,2.554039e-005
2.090118e+000,-2.836652e-005,2.559644e-005
2.090912e+000,3.038071e-005,2.563553e-005
2.091706e+000,5.337606e-005,2.569203e-005
2.092500e+000,3.860533e-005,2.586800e-005
2.093294e+000,1.460288e-005,2.595882e-005
2.094088e+000,-1.359579e-005,2.597172e-005
2.094882e+000,-3.994812e-005,2.597575e-005
2.095676e+000,-5.018692e-005,2.603517e-005
2.096471e+000,-3.239490e-005,2.610113e-005
2.097265e+000,-1.829557e-005,2.613240e-005
2.098059e+000,-5.203327e-006,2.611769e-005
2.098853e+000,2.937362e-005,2.600741e-005
2.099647e+000,6.294347e-005,2.602496e-005
2.100441e+000,6.428626e-005,2.626215e-005
2.101235e+000,4.414435e-005,2.649069e-005
2.102029e+000,9.231709e-006,2.660719e-005
2.102824e+000,-2.635233e-005,2.657779e-005
2.103618e+000,-6.227207e-005,2.657119e-005
2.104412e+000,-6.965744e-005,2.679437e-005
2.105206e+000,-5.320821e-005,2.708059e-005
2.106000e+000,-2.903792e-005,2.724157e-005
2.106794e+000,8.392462e-007,2.727660e-005
2.107588e+000,3.743038e-005,2.725526e-005
2.108382e+000,4.548714e-005,2.732917e-005
2.109176e+000,2.987716e-005,2.744919e-005
2.109971e+000,1.225299e-005,2.750088e-005
2.110765e+000,-5.539025e-006,2.750135e-005
2.111559e+000,-2.601663e-005,2.744603e-005
2.112353e+000,-3.743038e-005,2.731232e-005
2.113147e+000,-2.836652e-005,2.709647e-005
2.113941e+000,-1.997406e-005,2.696203e-005
2.114735e+000,-1.695277e-005,2.696281e-005
2.115529e+000,-1.628138e-005,2.696719e-005
2.116324e+000,-1.594568e-005,2.666344e-005
2.117118e+000,-1.225299e-005,2.600481e-005
2.117912e+000,-1.191730e-005,2.570358e-005
2.118706e+000,-7.721065e-006,2.569947e-005
2.119500e+000,-7.553216e-006,2.567926e-005
2.120294e+000,-3.860533e-006,2.563748e-005
2.121088e+000,-7.217518e-006,2.557845e-005
2.121882e+000,-7.049668e-006,2.554680e-005
2.122676e+000,-4.867628e-006,2.552067e-005
2.123471e+000,-7.721065e-006,2.549288e-005
2.124265e+000,-1.158160e-005,2.545958e-005
2.125059e+000,-1.695277e-005,2.542451e-005
2.125853e+000,-1.426719e-005,2.539676e-005
2.126647e+000,-1.426719e-005,2.536140e-005
2.127441e+000,-1.695277e-005,2.535468e-005
2.128235e+000,-1.829557e-005,2.537208e-005
2.129029e+000,-3.440909e-005,2.535794e-005
2.129824e+000,-4.582284e-005,2.539192e-005
2.130618e+000,-9.903105e-006,2.552059e-005
2.131412e+000,4.817273e-005,2.552016e-005
2.132206e+000,6.126497e-005,2.563895e-005
2.133000e+000,4.548714e-005,2.584561e-005
2.133794e+000,3.474479e-005,2.595224e-005
2.134588e+000,2.870222e-005,2.600096e-005
2.135382e+000,1.258869e-005,2.602858e-005
2.136176e+000,-3.524834e-006,2.601219e-005
2.136971e+000,-8.896010e-006,2.598933e-005
2.137765e+000,-1.426719e-005,2.598498e-005
2.138559e+000,-2.165255e-005,2.599297e-005
2.139353e+000,-2.601663e-005,2.599472e-005
2.140147e+000,-2.131685e-005,2.601091e-005
2.140941e+000,-1.795987e-005,2.603871e-005
2.141735e+000,-1.309224e-005,2.603871e-005
2.142529e+000,-8.896010e-006,2.603364e-005
2.143324e+000,-8.224612e-006,2.603120e-005
2.144118e+000,-8.896010e-006,2.603530e-005
2.144912e+000,-1.023880e-005,2.603565e-005
2.145706e+000,-1.896696e-005,2.603903e-005
2.146500e+000,-2.299535e-005,2.606072e-005
2.147294e+000,-3.138781e-005,2.609301e-005
2.148088e+000,-4.263371e-005,2.615216e-005
2.148882e+000,-4.246586e-005,2.626026e-005
2.149676e+000,2.182040e-006,2.636346e-005
2.150471e+000,4.649424e-005,2.634706e-005
2.151265e+000,5.455100e-005,2.647227e-005
2.152059e+000,4.884413e-005,2.664977e-005
2.152853e+000,1.963836e-005,2.677553e-005
2.153647e+000,-1.242084e-005,2.678137e-005
2.154441e+000,-3.038071e-005,2.676266e-005
2.155235e+000,-3.642328e-005,2.678184e-005
2.156029e+000,-2.836652e-005,2.684423e-005
2.156824e+000,-1.863127e-005,2.689111e-005
2.157618e+000,-8.224612e-006,2.691158e-005
2.158412e+000,-6.546120e-006,2.691538e-005
2.159206e+000,-1.846342e-006,2.691511e-005
2.160000e+000,3.189136e-006,2.690643e-005
2.160794e+000,-8.392462e-007,2.688721e-005
2.161588e+000,-6.210422e-006,2.686594e-005
2.162382e+000,-1.091020e-005,2.685500e-005
2.163176e+000,-6.210422e-006,2.685925e-005
2.163971e+000,-3.524834e-006,2.686116e-005
2.164765e+000,5.035477e-007,2.686188e-005
2.165559e+000,4.531929e-006,2.686185e-005
2.166353e+000,-5.035477e-007,2.686203e-005
2.167147e+000,-6.881819e-006,2.686131e-005
2.167941e+000,-6.881819e-006,2.685830e-005
2.168735e+000,-8.560311e-006,2.685015e-005
2.169529e+000,-1.023880e-005,2.684004e-005
2.170324e+000,-9.567407e-006,2.681110e-005
2.171118e+000,-9.567407e-006,2.675671e-005
2.171912e+000,-4.867628e-006,2.667410e-005
2.172706e+000,-1.510643e-006,2.664393e-005
2.173500e+000,-1.174945e-006,2.659930e-005
2.174294e+000,-1.510643e-006,2.636873e-005
2.175088e+000,-4.867628e-006,2.621428e-005
2.175882e+000,-6.881819e-006,2.618167e-005
2.176676e+000,-8.560311e-006,2.618441e-005
2.177471e+000,-8.896010e-006,2.617104e-005
