X [s].2,L DELTOID ANTERIOR: EMG 3 [V],X [s].3,L BICEPS BRACHII: EMG 4 [V],X [s].4,L DELTOID POSTERIOR: EMG 5 [V],X [s].7,L DELTOID MEDIUS: EMG 8 [V]
0.0,-4.19623e-06,0.0,-1.39315e-05,0.0,-1.24208e-05,0.0,-1.49386e-05
0.000794117179931,-5.203328959989046e-06,0.000794117179931,-1.2420801560068064e-05,0.000794117179931,-1.493859739992098e-05,0.000794117179931,-1.4267200693340636e-05
0.0015882343598621,-6.042564039418003e-06,0.0015882343598621,-1.1749404768522416e-05,0.0015882343598621,-1.829557615738792e-05,0.0015882343598621,-1.42672e-05
0.0023823515397932,-7.553212839899517e-06,0.0023823515397932,-9.231713254580552e-06,0.0023823515397932,-1.5609995443560083e-05,0.0023823515397932,-1.62814e-05
0.0031764687197242,-3.860535953333677e-06,0.0031764687197242,-1.0910197293948032e-05,0.0031764687197242,-1.3260103788495327e-05,0.0031764687197242,-1.62814e-05
0.0039705858996553,-3.021294333316428e-06,0.0039705858996553,-1.3595786133222202e-05,0.0039705858996553,-1.2253005200041674e-05,0.0039705858996553,-1.62814e-05
0.0047647030795864,-3.02129e-06,0.0047647030795864,-1.5274285372595844e-05,0.0047647030795864,-1.560997074519169e-05,0.0047647030795864,-1.2588732180289145e-05
0.0055588202595174,-6.546119506324601e-06,0.0055588202595174,-1.0910199780587258e-05,0.0055588202595174,-1.628139967088089e-05,0.0055588202595174,-1.359580043882548e-05
0.0063529374394485,-5.035484870890319e-06,0.0063529374394485,-1.0238802164854472e-05,0.0063529374394485,-1.527430324728171e-05,0.0063529374394485,-1.4938595670291057e-05
0.0071470546193796,-6.210412039104806e-06,0.0071470546193796,-9.903102274560845e-06,0.0071470546193796,-1.4938602274560844e-05,0.0071470546193796,-1.3595809098243371e-05
0.0079411717993107,-5.20334039998008e-06,0.0079411717993107,-9.231716933285632e-06,0.0079411717993107,-1.49386e-05,0.0079411717993107,-1.1078125999692032e-05
0.0087352889792417,-5.0354802157563405e-06,0.0087352889792417,-9.567409568487318e-06,0.0087352889792417,-1.49386e-05,0.0087352889792417,-1.2252998489769884e-05
0.0095294061591728,-6.210414317305377e-06,0.0095294061591728,-8.224616494563417e-06,0.0095294061591728,-1.4267203247281709e-05,0.0095294061591728,-1.4938587010873166e-05
0.0103235233391039,-5.035435601035972e-06,0.0103235233391039,-1.0238844397494496e-05,0.0103235233391039,-1.4938550667817746e-05,0.0103235233391039,-1.3931411202071944e-05
0.0111176405190349,-3.524932761823563e-06,0.0111176405190349,-1.1749425693006824e-05,0.0111176405190349,-1.3260117126970596e-05,0.0111176405190349,-1.091033701576475e-05
0.011911757698966,-5.538922718782971e-06,0.011911757698966,-1.225297317703262e-05,0.011911757698966,-1.359578211979716e-05,0.011911757698966,-1.3595656958377294e-05
0.0127058748788971,-7.5531562817350595e-06,0.0127058748788971,-1.2588689380236451e-05,0.0127058748788971,-1.225304247905419e-05,0.0127058748788971,-1.4602868140709357e-05
0.0134999920588282,-5.874736785363136e-06,0.0134999920588282,-1.3595789928782116e-05,0.0134999920588282,-9.90312349950839e-06,0.0134999920588282,-1.5274293285854746e-05
0.0142941092387592,-3.5248475752823207e-06,0.0142941092387592,-1.4267192188763413e-05,0.0142941092387592,-1.1917327339328055e-05,0.0142941092387592,-1.4938590235372554e-05
0.0150882264186903,-5.03559725181601e-06,0.0150882264186903,-1.3595710664776151e-05,0.0150882264186903,-1.426716091417634e-05,0.0150882264186903,-1.4099283251308756e-05
0.0158823435986214,-8.560059678580599e-06,0.0158823435986214,-1.0910390722163608e-05,0.0158823435986214,-1.3092283444497409e-05,0.0158823435986214,-1.3595835756854849e-05
0.0166764607785524,-7.72111145096035e-06,0.0166764607785524,-1.3595667355346363e-05,0.0166764607785524,-1.3931458546076189e-05,0.0166764607785524,-1.2253066322326818e-05
0.0174705779584835,-4.532018519684872e-06,0.0174705779584835,-1.4267181364218434e-05,0.0174705779584835,-1.628133477476452e-05,0.0174705779584835,-1.1581618635781563e-05
0.0182646951384146,-2.853450275938086e-06,0.0182646951384146,-9.567438772736838e-06,0.0182646951384146,-1.4938608220799446e-05,0.0182646951384146,-1.1245902055199862e-05
0.0190588123183456,-4.196235207491059e-06,0.0190588123183456,-9.903146867419529e-06,0.0190588123183456,-1.4267179170035766e-05,0.0190588123183456,-1.3931505207491058e-05
0.0198529294982767,-4.532029748523167e-06,0.0198529294982767,-1.29244e-05,0.0198529294982767,-1.2924375062776352e-05,0.0198529294982767,-1.4267087782493587e-05
0.0206470466782078,-7.2173396921785155e-06,0.0206470466782078,-1.29244e-05,0.0206470466782078,-1.2253045077123218e-05,0.0206470466782078,-1.1246102847054483e-05
0.0214411638581389,-8.224564164328309e-06,0.0214411638581389,-1.258871527870894e-05,0.0214411638581389,-9.567532229216393e-06,0.0214411638581389,-1.12459e-05
0.0222352810380699,-8.392455991990991e-06,0.0222352810380699,-1.2253008016018018e-05,0.0222352810380699,-1.1245859920148692e-05,0.0222352810380699,-1.4434923849022749e-05
0.023029398218001,-9.063858493345804e-06,0.023029398218001,-1.2420799623448654e-05,0.023029398218001,-1.12459e-05,0.023029398218001,-1.4435e-05
0.0238235153979321,-7.55322e-06,0.0238235153979321,-1.2252960943817065e-05,0.0238235153979321,-1.3260119528091469e-05,0.0238235153979321,-1.2253032546819113e-05
0.0246176325778631,-7.55309606752421e-06,0.0246176325778631,-1.0238786229679334e-05,0.0246176325778631,-1.42672e-05,0.0246176325778631,-1.3931548194071342e-05
0.0254117497577942,-4.53212113104228e-06,0.0254117497577942,-9.903121236852766e-06,0.0254117497577942,-1.42672e-05,0.0254117497577942,-1.510632567417839e-05
0.0262058669377253,-5.538988069491473e-06,0.0262058669377253,-1.4267018301129711e-05,0.0262058669377253,-1.6281316138982945e-05,0.0262058669377253,-1.3763655907344704e-05
0.0269999841176564,-5.203336714145255e-06,0.0269999841176564,-1.4602893285854746e-05,0.0269999841176564,-1.62814e-05,0.0269999841176564,-1.628134964291057e-05
0.0277941012975874,-4.867632194166328e-06,0.0277941012975874,-1.3595796708725998e-05,0.0277941012975874,-1.5610001097091335e-05,0.0277941012975874,-1.5609997805817333e-05
0.0285882184775185,-6.210451241012207e-06,0.0285882184775185,-1.1581553138714345e-05,0.0285882184775185,-1.6281376569240846e-05,0.0285882184775185,-1.4267235144975454e-05
0.0293823356574496,-7.553111212318482e-06,0.0293823356574496,-9.56757318071212e-06,0.0293823356574496,-1.527438159076114e-05,0.0293823356574496,-1.577767761790907e-05
0.0301764528373806,-6.37833978179016e-06,0.0301764528373806,-1.040665015348852e-05,0.0301764528373806,-1.6281340187037007e-05,0.0301764528373806,-1.359592959178359e-05
0.0309705700173117,-5.539061687030961e-06,0.0309705700173117,-1.15815556395159e-05,0.0309705700173117,-1.5610025349926823e-05,0.0309705700173117,-1.1581676049780467e-05
0.0317646871972428,-5.70686729402498e-06,0.0317646871972428,-1.0910210824544976e-05,0.0317646871972428,-1.292444329817991e-05,0.0317646871972428,-1.15816e-05
0.0325588043771738,-4.1962411024554665e-06,0.0325588043771738,-1.1078114802796238e-05,0.0325588043771738,-1.5274294448744707e-05,0.0325588043771738,-1.326009814958157e-05
0.0333529215571049,-6.210410888038104e-06,0.0333529215571049,-1.3763558997528625e-05,0.0333529215571049,-1.426714532822862e-05,0.0333529215571049,-1.2924381776076209e-05
0.034147038737036,-5.874745895211538e-06,0.034147038737036,-1.225311652459502e-05,0.034147038737036,-1.2253155371269223e-05,0.034147038737036,-1.2253051790423076e-05
0.0349411559169671,-4.196323178352698e-06,0.0349411559169671,-1.1749427956448008e-05,0.0349411559169671,-1.4267088185310604e-05,0.0349411559169671,-1.3931406821092172e-05
0.0357352730968981,-3.5248527461812915e-06,0.0357352730968981,-1.107812274279342e-05,0.0357352730968981,-1.42672e-05,0.0357352730968981,-1.5274254507637418e-05
0.0365293902768292,-2.182056441476449e-06,0.0365293902768292,-1.1581593835012628e-05,0.0365293902768292,-1.292441644159889e-05,0.0365293902768292,-1.6617083558401108e-05
0.0373235074567603,-5.203320543126418e-06,0.0373235074567603,-1.3092192119741524e-05,0.0373235074567603,-1.3931485814220117e-05,0.0373235074567603,-1.5609993695417613e-05
0.0381176246366913,-4.196271654682947e-06,0.0381176246366913,-1.2252958345317051e-05,0.0381176246366913,-1.242076355370346e-05,0.0381176246366913,-1.493857396427212e-05
0.0389117418166224,-5.53893162598921e-06,0.0389117418166224,-1.091029837401079e-05,0.0389117418166224,-1.1245986073596423e-05,0.0389117418166224,-1.4099361487419762e-05
0.0397058589965535,-5.53903e-06,0.0397058589965535,-1.09102e-05,0.0397058589965535,-1.409915266435693e-05,0.0397058589965535,-1.2924460666099054e-05
0.0404999761764846,-4.867650142435766e-06,0.0404999761764846,-1.0574510071217884e-05,0.0404999761764846,-1.5274264749237378e-05,0.0404999761764846,-1.4602849643910583e-05
0.0412940933564156,-6.042560170239302e-06,0.0412940933564156,-1.2252985957365196e-05,0.0412940933564156,-1.426720842558088e-05,0.0412940933564156,-1.225301965968872e-05
0.0420882105363467,-3.52486562869232e-06,0.0420882105363467,-1.1581593320258645e-05,0.0420882105363467,-1.158162672161874e-05,0.0420882105363467,-9.90311336080937e-06
0.0428823277162778,-6.210175572347681e-06,0.0428823277162778,-1.1078145825804736e-05,0.0428823277162778,-1.3595616678578151e-05,0.0428823277162778,-1.0910108339289075e-05
0.0436764448962088,-4.196369767667847e-06,0.0436764448962088,-1.2252918471925216e-05,0.0436764448962088,-1.35958e-05,0.0436764448962088,-1.292426023163824e-05
0.0444705620761399,-3.524862064072075e-06,0.0444705620761399,-1.3260051903891888e-05,0.0444705620761399,-1.2924432064072076e-05,0.0444705620761399,-1.2253032064072076e-05
0.045264679256071,-4.531903691964648e-06,0.045264679256071,-1.1581643846725586e-05,0.045264679256071,-1.2756504385978687e-05,0.045264679256071,-1.2924382461309764e-05
0.046058796436002,-3.524834519962584e-06,0.046058796436002,-1.2252996986691613e-05,0.046058796436002,-1.5945685686560747e-05,0.046058796436002,-1.4938590960074833e-05
0.0468529136159331,-2.8534860423242657e-06,0.0468529136159331,-1.023881726593589e-05,0.0468529136159331,-1.628134820219233e-05,0.0468529136159331,-1.5610023021247856e-05
0.0476470307958642,-5.538795985979651e-06,0.0476470307958642,-1.1245812244415603e-05,0.0476470307958642,-1.3260363266753184e-05,0.0476470307958642,-1.695268299255414e-05
0.0484411479757953,-4.867673985708389e-06,0.0484411479757953,-1.2924290035729027e-05,0.0484411479757953,-1.4267134021437415e-05,0.0484411479757953,-1.762415601429161e-05
0.0492352651557263,-6.546046349622417e-06,0.0492352651557263,-1.359577053967345e-05,0.0492352651557263,-1.661699688885708e-05,0.0492352651557263,-1.695282946032655e-05
0.0500293823356574,-5.203359869666973e-06,0.0500293823356574,-1.426718506505529e-05,0.0500293823356574,-1.527432986988942e-05,0.0500293823356574,-1.2253104544612965e-05
0.0508234995155885,-5.539029795218569e-06,0.0508234995155885,-9.567412866933944e-06,0.0508234995155885,-1.2253001843032884e-05,0.0508234995155885,-1.1581600409562862e-05
0.0516176166955195,-8.22458177212698e-06,0.0516176166955195,-1.1245928228083238e-05,0.0516176166955195,-1.4435067042748782e-05,0.0516176166955195,-1.2924421171062427e-05
0.0524117338754506,-6.881931799777905e-06,0.0524117338754506,-1.25885881993895e-05,0.0524117338754506,-1.76239344693871e-05,0.0524117338754506,-1.3931416149542126e-05
0.0532058510553817,-5.539112763309362e-06,0.0532058510553817,-1.3931417236074286e-05,0.0532058510553817,-1.5274444836870003e-05,0.0532058510553817,-1.2924462072944286e-05
0.0539999682353128,-3.189233997633553e-06,0.0539999682353128,-1.2253067141452543e-05,0.0539999682353128,-1.4938613428290507e-05,0.0539999682353128,-1.2253026856581017e-05
0.0547940854152438,-2.853446165599586e-06,0.0547940854152438,-9.23176549021261e-06,0.0547940854152438,-1.7288456840802896e-05,0.0547940854152438,-1.0910224662398344e-05
0.0555882025951749,-5.203332193873716e-06,0.0555882025951749,-1.0238802193906392e-05,0.0555882025951749,-1.560999232132763e-05,0.0555882025951749,-1.225301096953196e-05
0.056382319775106,-5.874652180569665e-06,0.056382319775106,-1.091013217955953e-05,0.056382319775106,-1.3260337371541646e-05,0.056382319775106,-1.560966089779765e-05
0.057176436955037,-3.525016561803185e-06,0.057176436955037,-9.567516606404426e-06,0.057176436955037,-1.2588753303599172e-05,0.057176436955037,-1.3931633258997933e-05
0.0579705541349681,-4.1961912217826745e-06,0.0579705541349681,-1.1581483665925596e-05,0.0579705541349681,-1.25887e-05,0.0579705541349681,-1.4267180610891335e-05
0.0587646713148992,-2.853488505309756e-06,0.0587646713148992,-1.2252975747164508e-05,0.0587646713148992,-1.3260075747164509e-05,0.0587646713148992,-1.4602887873582256e-05
0.0595587884948302,-2.517744863726823e-06,0.0595587884948302,-1.1245914591180467e-05,0.0595587884948302,-1.32601e-05,0.0595587884948302,-1.4938595136273175e-05
0.0603529056747613,-5.53903e-06,0.0603529056747613,-1.2253011993310182e-05,0.0603529056747613,-1.3595809594648145e-05,0.0603529056747613,-1.35958e-05
0.0611470228546924,-5.53903e-06,0.0611470228546924,-1.3931336957443026e-05,0.0611470228546924,-1.493846956595442e-05,0.0611470228546924,-1.35958e-05
0.0619411400346235,-3.860656749634116e-06,0.0619411400346235,-1.2253126749634117e-05,0.0619411400346235,-1.1246178849195054e-05,0.0619411400346235,-1.4267149300146354e-05
0.0627352572145545,-4.1962119127641e-06,0.0627352572145545,-1.3595727651056398e-05,0.0627352572145545,-1.3763464348424709e-05,0.0627352572145545,-1.46028819127641e-05
0.0635293743944856,-6.210355053052583e-06,0.0635293743944856,-1.35958e-05,0.0635293743944856,-1.829545386703057e-05,0.0635293743944856,-1.594565670182009e-05
0.0643234915744167,-5.874723561854061e-06,0.0643234915744167,-1.158162137112436e-05,0.0643234915744167,-1.3931546304102785e-05,0.0643234915744167,-1.628139643814594e-05
0.0651176087543477,-3.5248244495539093e-06,0.0651176087543477,-1.359580740074176e-05,0.0651176087543477,-1.2253014801483518e-05,0.0651176087543477,-1.4434972247769546e-05
0.0659117259342788,-3.021336959271253e-06,0.0659117259342788,-1.4267137386394884e-05,0.0659117259342788,-1.3595674772789767e-05,0.0659117259342788,-1.1917534796356267e-05
0.0667058431142099,-4.53182178447311e-06,0.0667058431142099,-1.3931524048054055e-05,0.0667058431142099,-1.527417975972973e-05,0.0667058431142099,-1.3595679759729727e-05
0.067499960294141,-4.196246785363138e-06,0.067499960294141,-1.0406876243812889e-05,0.067499960294141,-1.4267250356089412e-05,0.067499960294141,-1.225306714145255e-05
0.068294077474072,-8.895876683156328e-06,0.068294077474072,-1.0238804762754438e-05,0.068294077474072,-1.2588747613361072e-05,0.068294077474072,-1.3931452386638928e-05
0.0690881946540031,-8.560312259981298e-06,0.0690881946540031,-1.107809434971015e-05,0.0690881946540031,-1.1581606779943892e-05,0.0690881946540031,-1.4267197740018704e-05
0.0698823118339342,-6.210680866981012e-06,0.0698823118339342,-1.0238893172726026e-05,0.0698823118339342,-1.3595576398779026e-05,0.0698823118339342,-1.3092330439596188e-05
0.0706764290138652,-8.224429947660632e-06,0.0706764290138652,-1.4938179875788995e-05,0.0706764290138652,-1.493847996451114e-05,0.0706764290138652,-1.242086001774443e-05
0.0714705461937963,-9.567319015274832e-06,0.0714705461937963,-1.1581827461812916e-05,0.0714705461937963,-1.292453647708775e-05,0.0714705461937963,-1.4267074892615022e-05
0.0722646633737274,-8.89604096698075e-06,0.0722646633737274,-1.02388619339615e-05,0.0722646633737274,-1.3260084516509624e-05,0.0722646633737274,-1.3260146450471123e-05
0.0730587805536585,-6.88186932455179e-06,0.0730587805536585,-1.4267101350406648e-05,0.0730587805536585,-1.2924408220799446e-05,0.0730587805536585,-1.32601e-05
0.0738528977335895,-2.5177524553537945e-06,0.0738528977335895,-1.3931500958108528e-05,0.0738528977335895,-9.90310862297676e-06,0.0738528977335895,-1.628139137702324e-05
0.0746470149135206,-6.210024385368155e-06,0.0746470149135206,-1.1078405698514494e-05,0.0746470149135206,-1.3595404383225455e-05,0.0746470149135206,-1.6617064034838677e-05
0.0754411320934517,-7.04959823250137e-06,0.0754411320934517,-1.225289952977761e-05,0.0754411320934517,-1.6616841637004933e-05,0.0754411320934517,-1.527441482799781e-05
0.0762352492733827,-8.560213501250414e-06,0.0762352492733827,-1.2253e-05,0.0762352492733827,-1.4435139391199407e-05,0.0762352492733827,-1.5609978555691474e-05
0.0770293664533138,-5.035628906139965e-06,0.0770293664533138,-1.2588685818382394e-05,0.0770293664533138,-1.2924463815166982e-05,0.0770293664533138,-1.3595885089705636e-05
0.0778234836332449,-6.881781946109314e-06,0.0778234836332449,-1.3260086162146625e-05,0.0778234836332449,-1.3595786162146622e-05,0.0778234836332449,-1.2420824217273933e-05
0.078617600813176,-4.196228625126418e-06,0.078617600813176,-1.1245899656279045e-05,0.078617600813176,-1.4938598968837131e-05,0.078617600813176,-1.3595797937674268e-05
0.079411717993107,-2.8535786527773545e-06,0.079411717993107,-1.0910234663452482e-05,0.079411717993107,-1.3931603990357446e-05,0.079411717993107,-1.158180798071489e-05
0.0802058351730381,-4.196120380309625e-06,0.0802058351730381,-1.2252890379493266e-05,0.0802058351730381,-1.2253137025633417e-05,0.0802058351730381,-1.15816e-05
0.0809999523529692,-6.881658861113883e-06,0.0809999523529692,-1.2588679857564234e-05,0.0809999523529692,-1.4267079145385404e-05,0.0809999523529692,-1.4938398575642338e-05
0.0817940695329002,-4.196333037575031e-06,0.0817940695329002,-1.1581638639234512e-05,0.0817940695329002,-1.42672e-05,0.0817940695329002,-1.3260164398724187e-05
0.0825881867128313,-4.531924382946079e-06,0.0825881867128313,-1.0406719658852105e-05,0.0825881867128313,-1.4938588765892158e-05,0.0825881867128313,-1.2588711234107842e-05
0.0833823038927624,-4.867589376479908e-06,0.0833823038927624,-1.5105831282819847e-05,0.0833823038927624,-1.40994015648508e-05,0.0833823038927624,-1.3595678129439722e-05
0.0841764210726934,-4.196296731889687e-06,0.0841764210726934,-1.2421066927558746e-05,0.0841764210726934,-1.2924516775837345e-05,0.0841764210726934,-1.4267133268110312e-05
0.0849705382526245,-3.524882206507829e-06,0.0849705382526245,-1.023896966726256e-05,0.0849705382526245,-1.0239008826031316e-05,0.0849705382526245,-1.3931526103253914e-05
0.0857646554325556,-4.86755463774801e-06,0.0857646554325556,-1.2588568116059015e-05,0.0857646554325556,-1.292424927549602e-05,0.0857646554325556,-1.4602862318874006e-05
0.0865587726124866,-5.874685266728646e-06,0.0865587726124866,-1.158163473361624e-05,0.0865587726124866,-1.225302315574416e-05,0.0865587726124866,-1.7959784221279195e-05
0.0873528897924177,-7.217502739275369e-06,0.0873528897924177,-9.903121575905788e-06,0.0873528897924177,-8.896053151683034e-06,0.0873528897924177,-1.527433452144926e-05
0.0881470069723488,-7.21752e-06,0.0881470069723488,-1.2588385425509985e-05,0.0881470069723488,-9.231670678188748e-06,0.0881470069723488,-1.560996067818875e-05
0.0889411241522799,-9.56718555245062e-06,0.0889411241522799,-1.25887e-05,0.0889411241522799,-1.0910039680594768e-05,0.0889411241522799,-1.5274332064072074e-05
0.0897352413322109,-8.896059602762315e-06,0.0897352413322109,-1.2924375198618844e-05,0.0897352413322109,-9.567509204785837e-06,0.0897352413322109,-1.2924573609668104e-05
0.090529358512142,-6.8819252316189565e-06,0.090529358512142,-1.29244e-05,0.090529358512142,-1.0406656151184608e-05,0.090529358512142,-1.0238940309521876e-05
0.0913234756920731,-6.88182e-06,0.0913234756920731,-1.1581641103997248e-05,0.0913234756920731,-1.3595702379537073e-05,0.0913234756920731,-1.1581558896002752e-05
0.0921175928720041,-6.210426026616778e-06,0.0921175928720041,-1.0910206026616778e-05,0.0921175928720041,-1.695276986691611e-05,0.0921175928720041,-1.275648945386945e-05
0.0929117100519352,-2.853820198758993e-06,0.0929117100519352,-1.09102e-05,0.0929117100519352,-1.963809583918071e-05,0.0929117100519352,-1.1246071084798043e-05
0.0937058272318663,-2.85344e-06,0.0937058272318663,-1.2252876951202752e-05,0.0937058272318663,-1.39320229573883e-05,0.0937058272318663,-1.040677690091648e-05
0.0944999444117974,-2.85344e-06,0.0944999444117974,-9.735436245612902e-06,0.0944999444117974,-1.376361175325427e-05,0.0944999444117974,-1.1245841254729105e-05
0.0952940615917284,-3.524797526848727e-06,0.0952940615917284,-1.0238775645257462e-05,0.0952940615917284,-1.6952645747815666e-05,0.0952940615917284,-1.3931370105460225e-05
0.0960881787716595,-5.538976155240706e-06,0.0960881787716595,-1.1245873077620354e-05,0.0960881787716595,-1.5610035896506197e-05,0.0960881787716595,-1.6281337181114158e-05
0.0968822959515906,-4.196405920680089e-06,0.0968822959515906,-1.0910243980170022e-05,0.0968822959515906,-1.376384189748564e-05,0.0968822959515906,-1.527443194051007e-05
0.0976764131315216,-4.19623e-06,0.0976764131315216,-1.1245863276982534e-05,0.0976764131315216,-1.4602808186986716e-05,0.0976764131315216,-1.644907147490849e-05
0.0984705303114527,-5.5389121586938046e-06,0.0984705303114527,-1.2252911619020352e-05,0.0984705303114527,-1.6281252698367255e-05,0.0984705303114527,-1.561007364642848e-05
0.0992646474913838,-4.8676743952712525e-06,0.0992646474913838,-1.3092144509217106e-05,0.0992646474913838,-1.7791900113945852e-05,0.0992646474913838,-1.7624066814186243e-05
0.1000587646713148,-3.525227833763519e-06,0.1000587646713148,-1.292444971440685e-05,0.1000587646713148,-1.4939445381933888e-05,0.1000587646713148,-1.9637803249354724e-05
0.1008528818512459,-5.538730283097774e-06,0.1008528818512459,-1.3931350141548889e-05,0.1008528818512459,-1.191774957535334e-05,0.1008528818512459,-1.661754957535334e-05
0.101646999031177,-7.049668156747196e-06,0.101646999031177,-1.2588701638457782e-05,0.101646999031177,-1.0238802048072226e-05,0.101646999031177,-1.7624198771156662e-05
0.1024411162111081,-3.6925571674932495e-06,0.1024411162111081,-9.56760653288897e-06,0.1024411162111081,-1.0238898267176291e-05,0.1024411162111081,-1.5274054332059268e-05
0.1032352333910391,-2.8535386767907506e-06,0.1032352333910391,-1.091049603037225e-05,0.1032352333910391,-1.0910792060744502e-05,0.1032352333910391,-1.3596490737535254e-05
0.1040293505709702,-3.1897321298027e-06,0.1040293505709702,-1.1917744100659298e-05,0.1040293505709702,-1.2925658263152856e-05,0.1040293505709702,-1.59452558993407e-05
0.1048234677509013,-4.531031007839974e-06,0.1048234677509013,-1.292372575085876e-05,0.1048234677509013,-1.5775889660907946e-05,0.1048234677509013,-1.4939274249141238e-05
0.1056175849308323,-2.8543174426286622e-06,0.1056175849308323,-1.091125293742748e-05,0.1056175849308323,-1.6281136739505273e-05,0.1056175849308323,-1.3596501958284986e-05
0.1064117021107634,-4.53130027190851e-06,0.1064117021107634,-1.1581348107262704e-05,0.1064117021107634,-1.661697405363135e-05,0.1064117021107634,-1.2924651892737296e-05
0.1072058192906945,-6.881285180113581e-06,0.1072058192906945,-1.15816e-05,0.1072058192906945,-1.66171e-05,0.1072058192906945,-1.1246282015830251e-05
0.1079999364706256,-5.539137439053716e-06,0.1079999364706256,-1.124592685996346e-05,0.1079999364706256,-1.1582002899451877e-05,0.1079999364706256,-1.2252919420109624e-05
0.1087940536505566,-5.874878781998236e-06,0.1087940536505566,-1.4266973167608664e-05,0.1087940536505566,-1.3595936099434802e-05,0.1087940536505566,-1.258855256232413e-05
0.1095881708304877,-8.224537773558269e-06,0.1095881708304877,-1.0910344452883463e-05,0.1095881708304877,-1.5609711094233073e-05,0.1095881708304877,-1.0406736102463278e-05
0.1103822880104188,-7.888666464338676e-06,0.1103822880104188,-1.158208707857732e-05,0.1103822880104188,-1.4265860533912374e-05,0.1103822880104188,-1.0574134694694348e-05
0.1111764051903498,-7.215980128865157e-06,0.1111764051903498,-1.2924057805281871e-05,0.1111764051903498,-1.057535548679532e-05,0.1111764051903498,-9.569120968493909e-06
0.1119705223702809,-4.198045167162112e-06,0.1119705223702809,-1.2253403371815565e-05,0.1119705223702809,-1.2251991570461092e-05,0.1119705223702809,-1.2922383146930106e-05
0.112764639550212,-4.867325206564676e-06,0.112764639550212,-1.258854760328234e-05,0.112764639550212,-1.258854760328234e-05,0.112764639550212,-1.2253304793435322e-05
0.1135587567301431,-6.88120288197347e-06,0.1135587567301431,-1.2924297146484935e-05,0.1135587567301431,-1.4937880025394554e-05,0.1135587567301431,-1.3763137174501474e-05
0.1143528739100741,-4.867949860286795e-06,0.1143528739100741,-1.2588753310312472e-05,0.1143528739100741,-1.2924719861874828e-05,0.1143528739100741,-1.4938413405966178e-05
0.1151469910900052,-5.203326232890121e-06,0.1151469910900052,-1.25887e-05,0.1151469910900052,-1.1581615068439515e-05,0.1151469910900052,-1.3595815068439516e-05
0.1159411082699363,-8.224129353753657e-06,0.1159411082699363,-1.1917071119536409e-05,0.1159411082699363,-1.3595845776092716e-05,0.1159411082699363,-1.25887e-05
0.1167352254498673,-4.699446382466412e-06,0.1167352254498673,-1.02388e-05,0.1167352254498673,-1.3931118722818758e-05,0.1167352254498673,-1.2588985957885933e-05
0.1175293426297984,-3.526566159061356e-06,0.1175293426297984,-1.023908936056186e-05,0.1175293426297984,-1.2587976598595348e-05,0.1175293426297984,-1.35958e-05
0.1183234598097295,-7.550482770963864e-06,0.1183234598097295,-1.0909743794028167e-05,0.1183234598097295,-1.0911340514929577e-05,0.1183234598097295,-1.35958e-05
0.1191175769896605,-5.540103077072463e-06,0.1191175769896605,-9.903636541200024e-06,0.1191175769896605,-1.22522846117333e-05,0.1191175769896605,-1.4434552908971243e-05
0.1199116941695916,-3.525605823184495e-06,0.1199116941695916,-1.225209487295142e-05,0.1199116941695916,-1.0910717215456329e-05,0.1199116941695916,-1.3596123240401364e-05
0.1207058113495227,-4.867310957354062e-06,0.1207058113495227,-1.359548095735406e-05,0.1207058113495227,-1.1581440478677031e-05,0.1207058113495227,-1.2253319042645936e-05
0.1214999285294538,-5.874629348523456e-06,0.1214999285294538,-1.2588790652376678e-05,0.1214999285294538,-1.577742228626451e-05,0.1214999285294538,-1.4602688477787754e-05
0.1222940457093848,-4.196191348512589e-06,0.1222940457093848,-1.3595626068306648e-05,0.1222940457093848,-1.6952684045537766e-05,0.1222940457093848,-1.628126471979406e-05
0.1230881628893159,-3.524967737892596e-06,0.1230881628893159,-1.0574568868946296e-05,0.1230881628893159,-1.4938324524214808e-05,0.1230881628893159,-1.3931706606838892e-05
0.123882280069247,-4.196822057217129e-06,0.123882280069247,-1.090972635493176e-05,0.123882280069247,-1.359603682429778e-05,0.123882280069247,-1.49386e-05
0.124676397249178,-5.875223232260685e-06,0.124676397249178,-9.568751947698315e-06,0.124676397249178,-1.426619353547863e-05,0.124676397249178,-1.4939019335233012e-05
0.1254705144291091,-6.881204882460148e-06,0.1254705144291091,-1.2251359692668205e-05,0.1254705144291091,-1.2254230235079702e-05,0.1254705144291091,-1.5777287432589172e-05
0.1262646316090402,-6.21073150842618e-06,0.1262646316090402,-1.3930721228934552e-05,0.1262646316090402,-1.292408849157382e-05,0.1262646316090402,-1.9636608803351048e-05
0.1270587487889713,-9.23075410406939e-06,0.1270587487889713,-1.2253531055052488e-05,0.1270587487889713,-1.4266775155958009e-05,0.1270587487889713,-1.728924347707348e-05
0.1278528659689023,-6.882216672967287e-06,0.1278528659689023,-1.3595573328768378e-05,0.1278528659689023,-1.4602843332192096e-05,0.1278528659689023,-1.4938996674655337e-05
0.1286469831488334,-4.1962869966302745e-06,0.1286469831488334,-1.1581642747631878e-05,0.1286469831488334,-1.6281364376973434e-05,0.1286469831488334,-1.4267214249210626e-05
0.1294411003287645,-7.553135162805418e-06,0.1294411003287645,-1.1581621202980712e-05,0.1294411003287645,-1.4267115162805418e-05,0.1294411003287645,-1.4266775814027092e-05
0.1302352175086955,-6.88182e-06,0.1302352175086955,-1.1748986185597549e-05,0.1302352175086955,-1.3596167847199532e-05,0.1302352175086955,-1.090992411460035e-05
0.1310293346886266,-6.8823853038251245e-06,0.1310293346886266,-1.0238517350192396e-05,0.1310293346886266,-1.49386e-05,0.1310293346886266,-9.90295867720116e-06
0.1318234518685577,-8.223684181862399e-06,0.1318234518685577,-9.567872905621434e-06,0.1318234518685577,-1.49386e-05,0.1318234518685577,-9.567641449363349e-06
0.1326175690484888,-6.211513221945086e-06,0.1326175690484888,-1.3593613550682228e-05,0.1326175690484888,-1.4603082204562114e-05,0.1326175690484888,-1.0909471187179143e-05
0.1334116862284198,-5.539295318767238e-06,0.1334116862284198,-1.4938069354561958e-05,0.1334116862284198,-1.661630403184294e-05,0.1334116862284198,-1.4265873386404895e-05
0.1342058034083509,-4.1965624726276734e-06,0.1342058034083509,-1.3596132472627672e-05,0.1342058034083509,-1.712047533514445e-05,0.1342058034083509,-1.2924732472627672e-05
0.134999920588282,-5.874552126228517e-06,0.134999920588282,-1.1246135024680283e-05,0.134999920588282,-1.8463265700182697e-05,0.134999920588282,-1.4938398550274045e-05
0.135794037768213,-6.881851936496556e-06,0.135794037768213,-1.258869201349751e-05,0.135794037768213,-1.762404829926301e-05,0.135794037768213,-1.3260084031751724e-05
0.1365881549481441,-7.55289244274565e-06,0.1365881549481441,-1.2420767254032004e-05,0.1365881549481441,-1.4434377650974175e-05,0.1365881549481441,-1.292426897709826e-05
0.1373822721280752,-5.87472e-06,0.1373822721280752,-1.2252597325849413e-05,0.1373822721280752,-1.1244864511546148e-05,0.1373822721280752,-1.2252654836039611e-05
0.1381763893080062,-5.873569269193875e-06,0.1381763893080062,-1.1078346561737308e-05,0.1381763893080062,-8.226336074172886e-06,0.1381763893080062,-1.1247379517332533e-05
0.1389705064879373,-3.526288740957138e-06,0.1389705064879373,-1.1581287442360314e-05,0.1389705064879373,-1.1747211916498938e-05,0.1389705064879373,-1.4265324467930923e-05
0.1397646236678684,-4.53145266487443e-06,0.1397646236678684,-1.2252681776582952e-05,0.1397646236678684,-1.2252761308738716e-05,0.1397646236678684,-1.5777084021010142e-05
0.1405587408477994,-2.8539878392657745e-06,0.1405587408477994,-9.568286544783568e-06,0.1405587408477994,-1.3259771294482207e-05,0.1405587408477994,-1.493887390494542e-05
0.1413528580277305,-2.85344e-06,0.1413528580277305,-1.3595079698147996e-05,0.1413528580277305,-1.376350997098531e-05,0.1413528580277305,-1.3596040101213355e-05
0.1421469752076616,-2.1820609642014703e-06,0.1421469752076616,-1.35958e-05,0.1421469752076616,-1.4938563311086196e-05,0.1421469752076616,-1.35958e-05
0.1429410923875927,-1.5108743654474997e-06,0.1429410923875927,-1.023895624440738e-05,0.1429410923875927,-1.4602939061101844e-05,0.1429410923875927,-1.426735624440738e-05
0.1437352095675237,-3.5257160404051017e-06,0.1437352095675237,-1.1581777208608896e-05,0.1437352095675237,-1.4937979769868856e-05,0.1437352095675237,-1.5610354417217797e-05
0.1445293267474548,-6.881957973736592e-06,0.1445293267474548,-1.2252586078790222e-05,0.1445293267474548,-1.258801013131704e-05,0.1445293267474548,-1.695142026263408e-05
0.1453234439273859,-7.217285190469746e-06,0.1453234439273859,-1.124660442859076e-05,0.1453234439273859,-1.0911374047651266e-05,0.1453234439273859,-1.3598148095302532e-05
0.146117561107317,-6.882005562057536e-06,0.146117561107317,-1.0239356686172609e-05,0.146117561107317,-1.09102e-05,0.146117561107317,-9.9051411826329e-06
0.146911678287248,-5.539574071367979e-06,0.146911678287248,-1.090992796229011e-05,0.146911678287248,-9.903508056564833e-06,0.146911678287248,-1.3258739811450556e-05
0.1477057954671791,-4.5321894269570566e-06,0.1477057954671791,-1.1581427048695297e-05,0.1477057954671791,-1.1916781146085887e-05,0.1477057954671791,-1.1078662078860387e-05
0.1484999126471102,-4.196266932449748e-06,0.1484999126471102,-1.359557840530151e-05,0.1484999126471102,-1.225296306755025e-05,0.1484999126471102,-1.1917207674376442e-05
0.1492940298270412,-4.196242610752833e-06,0.1492940298270412,-1.19173e-05,0.1492940298270412,-1.2924475664516993e-05,0.1492940298270412,-1.3931518914250973e-05
0.1500881470069723,-4.531619232074293e-06,0.1500881470069723,-1.1917548615821744e-05,0.1500881470069723,-1.4938475692089128e-05,0.1500881470069723,-1.4434627076267385e-05
0.1508822641869034,-2.8541101796208782e-06,0.1508822641869034,-1.3260211697158028e-05,0.1508822641869034,-1.4266976605683943e-05,0.1508822641869034,-1.242074416805744e-05
0.1516763813668344,-4.8677910375425566e-06,0.1516763813668344,-1.3595638962457442e-05,0.1516763813668344,-1.3596444150170228e-05,0.1516763813668344,-1.2254288300340454e-05
0.1524704985467655,-5.203118254275723e-06,0.1524704985467655,-1.3260311745724275e-05,0.1524704985467655,-1.4937753017102892e-05,0.1524704985467655,-1.4936906034205785e-05
0.1532646157266966,-7.2165451896159e-06,0.1532646157266966,-1.4937787653980156e-05,0.1532646157266966,-1.4267524938407937e-05,0.1532646157266966,-1.3596449876815876e-05
0.1540587329066277,-5.204007552644294e-06,0.1540587329066277,-1.225390340801092e-05,0.1540587329066277,-1.225367755600819e-05,0.1540587329066277,-1.560932244399181e-05
0.1548528500865587,-8.895312792989784e-06,0.1548528500865587,-1.191736338279876e-05,0.1548528500865587,-1.2253e-05,0.1548528500865587,-1.4938726765597522e-05
0.1556469672664898,-6.881903037164823e-06,0.1556469672664898,-1.258867232080764e-05,0.1556469672664898,-1.0574569197980904e-05,0.1556469672664898,-1.3931541518788543e-05
0.1564410844464209,-4.364097851803211e-06,0.1564410844464209,-1.3931464296393578e-05,0.1564410844464209,-1.0910164296393577e-05,0.1564410844464209,-1.3595942814425692e-05
0.157235201626352,-4.532185740427046e-06,0.157235201626352,-1.3595459012763938e-05,0.157235201626352,-1.0574585246809017e-05,0.157235201626352,-1.4939111480854091e-05
0.158029318806283,-5.5393665471509164e-06,0.158029318806283,-1.2253067290181502e-05,0.158029318806283,-1.0910469240928846e-05,0.158029318806283,-1.6951319174891348e-05
0.1588234359862141,-6.377674600088486e-06,0.1588234359862141,-1.242068095407136e-05,0.1588234359862141,-1.1581123674395176e-05,0.1588234359862141,-1.3262719790826515e-05
0.1596175531661451,-5.539502293254825e-06,0.1596175531661451,-1.225309443163834e-05,0.1596175531661451,-1.3930177563129128e-05,0.1596175531661451,-1.2589077839105964e-05
0.1604116703460762,-6.210141251451057e-06,0.1604116703460762,-1.3595242494598487e-05,0.1604116703460762,-1.4938181870948863e-05,0.1604116703460762,-1.376311220353274e-05
0.1612057875260073,-4.1967689962106494e-06,0.1612057875260073,-1.0910918665182192e-05,0.1612057875260073,-1.2924938998886644e-05,0.1612057875260073,-1.2589014402637236e-05
0.1619999047059384,-5.706688696446805e-06,0.1619999047059384,-1.09102e-05,0.1619999047059384,-1.560967768043845e-05,0.1619999047059384,-1.3763458991192708e-05
0.1627940218858694,-8.224480454947538e-06,0.1627940218858694,-1.15816e-05,0.1627940218858694,-1.69527074674259e-05,0.1627940218858694,-1.426723701302964e-05
0.1635881390658005,-3.5251827787600144e-06,0.1635881390658005,-1.1581482407079994e-05,0.1635881390658005,-1.3596152778760014e-05,0.1635881390658005,-1.5609941203539998e-05
0.1643822562457316,-5.539680034748291e-06,0.1643822562457316,-1.0910687512345291e-05,0.1643822562457316,-1.5609783320674813e-05,0.1643822562457316,-1.52743e-05
0.1651763734256627,-7.552589262918402e-06,0.1651763734256627,-1.2419775075728294e-05,0.1651763734256627,-1.4939230737081596e-05,0.1651763734256627,-1.5274773052811197e-05
0.1659704906055937,-6.211280395985832e-06,0.1659704906055937,-1.024019811143959e-05,0.1659704906055937,-1.6280539604014168e-05,0.1659704906055937,-1.6280754703010627e-05
0.1667646077855248,-7.217022519901826e-06,0.1667646077855248,-1.02388e-05,0.1667646077855248,-1.7623536693202437e-05,0.1667646077855248,-1.5274797480098173e-05
0.1675587249654559,-6.881936283496798e-06,0.1675587249654559,-1.2923469732025608e-05,0.1675587249654559,-1.69530325669936e-05,0.1675587249654559,-1.4938716283496798e-05
0.1683528421453869,-4.1967639203655606e-06,0.1683528421453869,-1.2588766740294206e-05,0.1683528421453869,-1.4435500562147016e-05,0.1683528421453869,-1.5274233259705794e-05
0.169146959325318,-5.538961211633589e-06,0.169146959325318,-1.0910285985458013e-05,0.169146959325318,-1.3763634394183204e-05,0.169146959325318,-1.2588837576732825e-05
0.1699410765052491,-8.396988440121841e-07,0.1699410765052491,-9.903002962630576e-06,0.1699410765052491,-1.561012938444396e-05,0.1699410765052491,-1.1581664692221978e-05
0.1707351936851801,-5.539398499471757e-06,0.1707351936851801,-8.89658322275571e-06,0.1707351936851801,-1.695312755725433e-05,0.1707351936851801,-1.225304093245999e-05
0.1715293108651112,-7.048029167917185e-06,0.1715293108651112,-1.1246031267192266e-05,0.1715293108651112,-1.829454986246188e-05,0.1715293108651112,-1.24204718515706e-05
0.1723234280450423,-2.856458936543589e-06,0.1723234280450423,-1.1581358483925407e-05,0.1723234280450423,-1.561193212859673e-05,0.1723234280450423,-1.1582203754214468e-05
0.1731175452249733,-3.524445451630837e-06,0.1731175452249733,-1.15816e-05,0.1731175452249733,-1.6616523168854787e-05,0.1731175452249733,-1.1749303890114023e-05
0.1739116624049044,-5.873720867331146e-06,0.1739116624049044,-1.2588271798462564e-05,0.1739116624049044,-1.426819913692068e-05,0.1739116624049044,-1.4266129474897274e-05
0.1747057795848355,-7.888350858916693e-06,0.1747057795848355,-1.225309319064322e-05,0.1747057795848355,-1.3595986381286438e-05,0.1747057795848355,-1.3595986381286438e-05
0.1754998967647666,-4.19671011924639e-06,0.1754998967647666,-1.2588656352559383e-05,0.1754998967647666,-1.1581861884643694e-05,0.1754998967647666,-1.1581861884643694e-05
0.1762940139446976,-5.874693469246732e-06,0.1762940139446976,-1.4938552833904187e-05,0.1762940139446976,-1.2253076644905693e-05,0.1762940139446976,-1.2253014738526811e-05
0.1770881311246287,-4.363775087346317e-06,0.1770881311246287,-1.2253055438964567e-05,0.1770881311246287,-1.661704456103543e-05,0.1770881311246287,-1.309272667842062e-05
0.1778822483045598,-2.518264907708542e-06,0.1778822483045598,-1.25887e-05,0.1778822483045598,-1.6280665124829874e-05,0.1778822483045598,-1.628119003566568e-05
0.1786763654844909,-4.196847323992922e-06,0.1786763654844909,-1.2588237007005308e-05,0.1786763654844909,-1.39315e-05,0.1786763654844909,-1.560969133800354e-05
0.1794704826644219,-5.53815619092554e-06,0.1794704826644219,-1.1582255356805844e-05,0.1794704826644219,-1.39315e-05,0.1794704826644219,-1.493903690453723e-05
0.180264599844353,-3.1903242843240297e-06,0.180264599844353,-1.15816e-05,0.180264599844353,-1.6280215710636226e-05,0.180264599844353,-1.35964767367793e-05
0.181058717024284,-3.18914e-06,0.181058717024284,-1.15816e-05,0.181058717024284,-1.62814e-05,0.181058717024284,-1.5609282154046606e-05
0.1818528342042151,-5.538539317560708e-06,0.1818528342042151,-1.2588489706631114e-05,0.1818528342042151,-1.326073088010666e-05,0.1818528342042151,-1.292496078231703e-05
0.1826469513841462,-3.860632772935183e-06,0.1826469513841462,-1.5106245843658676e-05,0.1826469513841462,-1.2253061663761107e-05,0.1826469513841462,-1.1246002772935184e-05
0.1834410685640773,-2.35010741375314e-06,0.1834410685640773,-1.1917328988615557e-05,0.1834410685640773,-1.1917473931693331e-05,0.1834410685640773,-1.460316089754e-05
0.1842351857440083,-4.867944124933247e-06,0.1842351857440083,-1.2252685872727408e-05,0.1842351857440083,-1.3931107340909262e-05,0.1842351857440083,-1.7623414681818523e-05
0.1850293029239394,-6.209652520289785e-06,0.1850293029239394,-1.0910455827840192e-05,0.1850293029239394,-1.2254151225280868e-05,0.1850293029239394,-1.4267455827840192e-05
0.1858234201038705,-4.197699208786203e-06,0.1858234201038705,-1.1581110261306502e-05,0.1858234201038705,-1.527209617587926e-05,0.1858234201038705,-1.4938110261306502e-05
0.1866175372838016,-3.860725634543838e-06,0.1866175372838016,-1.0575086903631514e-05,0.1866175372838016,-1.4938795634543838e-05,0.1866175372838016,-1.49386e-05
0.1874116544637326,-5.538299543293773e-06,0.1874116544637326,-7.554534813367526e-06,0.1874116544637326,-1.49386e-05,0.1874116544637326,-1.2254168730729965e-05
0.1882057716436637,-3.1898158340945496e-06,0.1882057716436637,-9.231227262182758e-06,0.1882057716436637,-1.292497928883192e-05,0.1882057716436637,-1.4434372451478876e-05
0.1889998888235948,-7.552608938631769e-06,0.1889998888235948,-9.903005991528108e-06,0.1889998888235948,-1.0574829034552346e-05,0.1889998888235948,-1.4267223495466992e-05
0.1897940060035258,-9.231684617410186e-06,0.1897940060035258,-1.0406688577498114e-05,0.1897940060035258,-1.1581615229599257e-05,0.1897940060035258,-1.3595792385200372e-05
0.1905881231834569,-5.874667920082295e-06,0.1905881231834569,-8.89632248726338e-06,0.1905881231834569,-1.359538334824692e-05,0.1905881231834569,-1.258901248881481e-05
0.191382240363388,-5.539639745003186e-06,0.191382240363388,-1.091091137270217e-05,0.191382240363388,-1.0909539442660944e-05,0.191382240363388,-1.4602391876641307e-05
0.192176357543319,-7.5531445111369745e-06,0.192176357543319,-1.3259043155917651e-05,0.192176357543319,-8.728537444315123e-06,0.192176357543319,-1.29240980445479e-05
0.1929704747232501,-7.385480902770392e-06,0.1929704747232501,-1.0911752638785487e-05,0.1929704747232501,-9.56685548614804e-06,0.1929704747232501,-1.2253443611081569e-05
0.1937645919031812,-6.2110238959159055e-06,0.1937645919031812,-1.1916782374929224e-05,0.1937645919031812,-1.023845492175924e-05,0.1937645919031812,-1.5272747124787674e-05
0.1945587090831123,-9.230603017274945e-06,0.1945587090831123,-1.5273070015123335e-05,0.1945587090831123,-1.0574377001512334e-05,0.1945587090831123,-1.5609877001512335e-05
0.1953528262630433,-1.0238579636332936e-05,0.1953528262630433,-1.4938673455285062e-05,0.1953528262630433,-1.1581379634144812e-05,0.1953528262630433,-1.3596240731710372e-05
0.1961469434429744,-6.2107069435650345e-06,0.1961469434429744,-1.292454347249482e-05,0.1961469434429744,-1.2588628263752589e-05,0.1961469434429744,-1.4938504351670118e-05
0.1969410606229055,-7.217443106639634e-06,0.1969410606229055,-1.0910405048960974e-05,0.1969410606229055,-1.4267225631120122e-05,0.1969410606229055,-1.6281348737759755e-05
0.1977351778028366,-6.21026965359388e-06,0.1977351778028366,-1.3596251045936352e-05,0.1977351778028366,-1.46029e-05,0.1977351778028366,-1.5609398605418196e-05
0.1985292949827676,-5.538531757408337e-06,0.1985292949827676,-1.5608754393520844e-05,0.1985292949827676,-1.4602775439352083e-05,0.1985292949827676,-1.2924524560647916e-05
0.1993234121626987,-4.197222890475672e-06,0.1993234121626987,-1.225548222618918e-05,0.1993234121626987,-1.4267448222618918e-05,0.1993234121626987,-1.3259851777381082e-05
0.2001175293426297,-5.202733023882186e-06,0.2001175293426297,-1.2253e-05,0.2001175293426297,-1.1247690928353443e-05,0.2001175293426297,-1.32601e-05
0.2009116465225608,-3.525577244183397e-06,0.2009116465225608,-1.2253e-05,0.2009116465225608,-1.2252551653489962e-05,0.2009116465225608,-1.292454944883668e-05
0.2017057637024919,-6.3774208050863975e-06,0.2017057637024919,-1.158179981126815e-05,0.2017057637024919,-1.6280201132391094e-05,0.2017057637024919,-1.3595600188731848e-05
0.202499880882423,-8.224333008126999e-06,0.202499880882423,-1.091030072486299e-05,0.202499880882423,-1.62814e-05,0.202499880882423,-1.3931449637568504e-05
0.203293998062354,-4.196239830697886e-06,0.203293998062354,-1.2252996723084434e-05,0.203293998062354,-1.4267204915373346e-05,0.203293998062354,-1.4267199180771109e-05
0.2040881152422851,-4.867435104105149e-06,0.2040881152422851,-1.2924205104105148e-05,0.2040881152422851,-1.69528e-05,0.2040881152422851,-1.4602656380131436e-05
0.2048822324222162,-3.52483e-06,0.2048822324222162,-1.1581845653304572e-05,0.2048822324222162,-1.6953045653304574e-05,0.2048822324222162,-1.292381039694224e-05
0.2056763496021472,-3.52483e-06,0.2056763496021472,-1.2421390497815568e-05,0.2056763496021472,-1.7790449965221686e-05,0.2056763496021472,-1.0910052375546107e-05
0.2064704667820783,-3.52483e-06,0.2064704667820783,-1.3762699364748234e-05,0.2064704667820783,-1.4269564134000168e-05,0.2064704667820783,-1.0574725158812942e-05
0.2072645839620094,-1.6794574402815349e-06,0.2072645839620094,-1.2924839721765364e-05,0.2072645839620094,-1.292510359674277e-05,0.2072645839620094,-1.241983258067756e-05
0.2080587011419405,-4.195282333890792e-06,0.2080587011419405,-1.2253252711966177e-05,0.2080587011419405,-1.493784186410147e-05,0.2080587011419405,-1.2253063159171768e-05
0.2088528183218715,-5.203099561658476e-06,0.2088528183218715,-1.2253e-05,0.2088528183218715,-1.7623585497755934e-05,0.2088528183218715,-1.4266739123316952e-05
0.2096469355018026,-5.035493634788952e-06,0.2096469355018026,-9.567628155810914e-06,0.2096469355018026,-1.7959872730422095e-05,0.2096469355018026,-1.2924509078311616e-05
0.2104410526817337,-3.5248745472493995e-06,0.2104410526817337,-1.057453341375454e-05,0.2104410526817337,-1.72883886318765e-05,0.2104410526817337,-1.1581778188997595e-05
0.2112351698616647,-4.1967327156516455e-06,0.2112351698616647,-1.1078494981853465e-05,0.2112351698616647,-1.5610179531371623e-05,0.2112351698616647,-1.426727181682728e-05
0.2120292870415958,-6.54575638148331e-06,0.2120292870415958,-1.292427879262424e-05,0.2120292870415958,-1.644853337748626e-05,0.2120292870415958,-1.4602293963121208e-05
0.2128234042215269,-5.539784720179193e-06,0.2128234042215269,-1.2588951575891087e-05,0.2128234042215269,-1.4604283629930634e-05,0.2128234042215269,-1.2925657879455435e-05
0.2136175214014579,-5.53903e-06,0.2136175214014579,-1.1582207048604116e-05,0.2136175214014579,-1.4938397650465294e-05,0.2136175214014579,-1.225340469906941e-05
0.214411638581389,-3.5257468379926086e-06,0.214411638581389,-1.2252694387335796e-05,0.214411638581389,-1.3596411225328403e-05,0.214411638581389,-1.44340067816007e-05
0.2152057557613201,-8.223164322338814e-06,0.2152057557613201,-1.0575016315647604e-05,0.2152057557613201,-1.2924606526259042e-05,0.2152057557613201,-1.4938445089925448e-05
0.2159998729412512,-5.5394597562148645e-06,0.2159998729412512,-1.0238853719926916e-05,0.2159998729412512,-1.426698512029233e-05,0.2159998729412512,-1.628118512029233e-05
0.2167939901211822,-4.196246706897253e-06,0.2167939901211822,-1.1917279116378437e-05,0.2167939901211822,-1.628137493965412e-05,0.2167939901211822,-1.8966966586205496e-05
0.2175881073011133,-4.8678114645616695e-06,0.2175881073011133,-1.1078122676482137e-05,0.2175881073011133,-1.5945291701695595e-05,0.2175881073011133,-1.49386e-05
0.2183822244810444,-6.21098945525801e-06,0.2183822244810444,-1.124675418712784e-05,0.2183822244810444,-1.2923166176975892e-05,0.2183822244810444,-1.4938220361276516e-05
0.2191763416609755,-8.223167296778014e-06,0.2191763416609755,-1.4265468745819322e-05,0.2191763416609755,-8.559011567959737e-06,0.2191763416609755,-1.359479010172794e-05
0.2199704588409065,-4.869915107237159e-06,0.2199704588409065,-1.0241542145021468e-05,0.2199704588409065,-5.541086595152037e-06,0.2199704588409065,-1.1247499584595858e-05
0.2207645760208376,-5.874182235296445e-06,0.2207645760208376,-1.02388e-05,0.2207645760208376,-8.894217443868433e-06,0.2207645760208376,-1.1916941486637772e-05
0.2215586932007686,-6.881430859564398e-06,0.2215586932007686,-9.903229713478536e-06,0.2215586932007686,-1.1244992009514231e-05,0.2215586932007686,-1.09105891404356e-05
0.2223528103806997,-4.868111019267428e-06,0.2223528103806997,-1.292367846751663e-05,0.2223528103806997,-1.191713965944814e-05,0.2223528103806997,-1.158143965944814e-05
0.2231469275606308,-6.210297492618984e-06,0.2231469275606308,-1.4267077491706647e-05,0.2231469275606308,-1.1245961254146676e-05,0.2231469275606308,-1.2588608118779986e-05
0.2239410447405619,-5.539048915565771e-06,0.2239410447405619,-1.0910124336046466e-05,0.2239410447405619,-1.1917394580646272e-05,0.2239410447405619,-1.42672e-05
0.2247351619204929,-5.874788459331859e-06,0.2247351619204929,-9.56768383528813e-06,0.2247351619204929,-1.35958e-05,0.2247351619204929,-1.4267747674654864e-05
0.225529279100424,-6.208770049571144e-06,0.225529279100424,-1.0910907124621537e-05,0.225529279100424,-1.35958e-05,0.225529279100424,-1.6951621458964107e-05
0.2263233962803551,-1.5142089930976694e-06,0.2263233962803551,-1.2922870425020464e-05,0.2263233962803551,-1.35958e-05,0.2263233962803551,-1.3598349291632562e-05
0.2271175134602862,-4.530078642856558e-06,0.2271175134602862,-1.3259894292969874e-05,0.2271175134602862,-1.560876575781924e-05,0.2271175134602862,-1.35958e-05
0.2279116306402172,-5.53856150851736e-06,0.2279116306402172,-1.1917924655310188e-05,0.2279116306402172,-1.7623263017034717e-05,0.2279116306402172,-1.594460685320717e-05
0.2287057478201483,-6.210206761926183e-06,0.2287057478201483,-1.1246113241249886e-05,0.2287057478201483,-1.3597079447499315e-05,0.2287057478201483,-1.6281293379375056e-05
0.2294998650000794,-4.867858307989152e-06,0.2294998650000794,-1.493797214835414e-05,0.2294998650000794,-1.1246299541956455e-05,0.2294998650000794,-1.2924970774223508e-05
0.2302939821800104,-8.3923808911414e-06,0.2302939821800104,-1.49386e-05,0.2302939821800104,-1.4938517123582652e-05,0.2302939821800104,-1.1917322602659275e-05
0.2310880993599415,-7.552883929388623e-06,0.2310880993599415,-1.1581347947354312e-05,0.2310880993599415,-1.2253042008982845e-05,0.2310880993599415,-1.3596178080845604e-05
0.2318822165398726,-4.868362414756296e-06,0.2318822165398726,-9.567867758199984e-06,0.2318822165398726,-1.2588791552185438e-05,0.2318822165398726,-1.661645913470194e-05
0.2326763337198036,-7.552938164180892e-06,0.2326763337198036,-1.1246040917909554e-05,0.2326763337198036,-1.2923554492542676e-05,0.2326763337198036,-1.426621357463312e-05
0.2334704508997347,-6.882283730714583e-06,0.2334704508997347,-1.1581368134642709e-05,0.2334704508997347,-1.0911591192143748e-05,0.2334704508997347,-1.191892305750104e-05
0.2342645680796658,-6.210785228353097e-06,0.2342645680796658,-1.1246082614176548e-05,0.2342645680796658,-1.292330431494071e-05,0.2342645680796658,-1.695006078735178e-05
0.2350586852595969,-3.693678028340685e-06,0.2350586852595969,-1.292373464513022e-05,0.2350586852595969,-1.5608935432208354e-05,0.2350586852595969,-1.5107131910176685e-05
0.2358528024395279,-1.511182928025698e-06,0.2358528024395279,-1.5273715305600455e-05,0.2358528024395279,-1.728808236114318e-05,0.2358528024395279,-1.3931792334758938e-05
0.236646919619459,-4.867290155324633e-06,0.236646919619459,-1.2253305861118945e-05,0.236646919619459,-1.6281501953706314e-05,0.236646919619459,-1.39315e-05
0.2374410367993901,-5.53903e-06,0.2374410367993901,-9.567487792705634e-06,0.2374410367993901,-1.4938506648197076e-05,0.2374410367993901,-1.4938576659731929e-05
0.2382351539793211,-5.538802143572515e-06,0.2382351539793211,-1.1246095305509272e-05,0.2382351539793211,-1.2924139592654302e-05,0.2382351539793211,-1.4434576847759673e-05
0.2390292711592522,-4.364709751162003e-06,0.2390292711592522,-1.2252541996674318e-05,0.2390292711592522,-1.158182900166284e-05,0.2390292711592522,-1.225322900166284e-05
0.2398233883391833,-6.208999454299009e-06,0.2398233883391833,-1.09112331297417e-05,0.2398233883391833,-1.2252483435129148e-05,0.2398233883391833,-1.292388343512915e-05
0.2406175055191144,-5.874929064525562e-06,0.2406175055191144,-1.1581181870948877e-05,0.2406175055191144,-1.2253e-05,0.2406175055191144,-1.258890906452556e-05
0.2414116226990454,-4.868108559217006e-06,0.2414116226990454,-1.0910519042645936e-05,0.2414116226990454,-1.4098422656483178e-05,0.2414116226990454,-1.0575457127937814e-05
0.2422057398789765,-5.538810043759247e-06,0.2422057398789765,-1.3594920175036986e-05,0.2422057398789765,-1.6280685125837133e-05,0.2422057398789765,-1.49371702844351e-05
0.2429998570589076,-6.210299131964697e-06,0.2429998570589076,-1.0910683479342276e-05,0.2429998570589076,-1.62814e-05,0.2429998570589076,-1.359604173967114e-05
0.2437939742388386,-6.378264554142404e-06,0.2437939742388386,-1.0238821783430383e-05,0.2437939742388386,-1.577781633919503e-05,0.2437939742388386,-1.2924421783430384e-05
0.2445880914187697,-7.217423371281471e-06,0.2445880914187697,-1.1581522697025177e-05,0.2445880914187697,-1.4602706742562944e-05,0.2445880914187697,-1.2924593257437056e-05
0.2453822085987008,-6.379107846927846e-06,0.2453822085987008,-1.0910552778760014e-05,0.2453822085987008,-1.2924752778760014e-05,0.2453822085987008,-1.4602811805309997e-05
0.2461763257786318,-9.56713487072523e-06,0.2461763257786318,-1.225217461217569e-05,0.2461763257786318,-1.4267819020379007e-05,0.2461763257786318,-1.4265824353626153e-05
0.2469704429585629,-8.896480437258898e-06,0.2469704429585629,-1.0240211311776693e-05,0.2469704429585629,-1.5776741551201533e-05,0.2469704429585629,-1.0912552186294488e-05
0.247764560138494,-4.86986164898429e-06,0.247764560138494,-1.191637014164003e-05,0.247764560138494,-1.4268036844824885e-05,0.247764560138494,-1.2252256113312025e-05
0.2485586773184251,-4.19650285693878e-06,0.2485586773184251,-1.292399071459183e-05,0.2485586773184251,-1.0911564284693896e-05,0.2485586773184251,-1.493750857224488e-05
0.2493527944983561,-4.19623e-06,0.2493527944983561,-1.1917560655800394e-05,0.2493527944983561,-1.4266331147332024e-05,0.2493527944983561,-1.359614754106719e-05
0.2501469116782872,-5.538880631743178e-06,0.2501469116782872,-1.2252962657935792e-05,0.2501469116782872,-1.3931537342064206e-05,0.2501469116782872,-1.3092256018658128e-05
0.2509410288582183,-4.531942201138375e-06,0.2509410288582183,-1.29244e-05,0.2509410288582183,-1.35958488045535e-05,0.2509410288582183,-1.628132679316975e-05
0.2517351460381494,-4.867753488682005e-06,0.2517351460381494,-1.2924523488682004e-05,0.2517351460381494,-1.493835302263599e-05,0.2517351460381494,-1.4267446977364009e-05
0.2525292632180804,-5.538363114644493e-06,0.2525292632180804,-1.3595133114644491e-05,0.2525292632180804,-1.35958e-05,0.2525292632180804,-1.561e-05
0.2533233803980115,-3.526399814245566e-06,0.2533233803980115,-1.1583169814245564e-05,0.2533233803980115,-1.35958e-05,0.2533233803980115,-1.561e-05
0.2541174975779426,-4.19580515595801e-06,0.2541174975779426,-1.15816e-05,0.2541174975779426,-1.7621650935748062e-05,0.2541174975779426,-1.577769382062817e-05
0.2549116147578736,-4.19623e-06,0.2549116147578736,-1.15816e-05,0.2549116147578736,-1.4939903030547316e-05,0.2549116147578736,-1.3596858688060112e-05
0.2557057319378047,-2.853893339087144e-06,0.2557057319378047,-1.4937466643841894e-05,0.2557057319378047,-1.2925080013694864e-05,0.2557057319378047,-1.35958e-05
0.2564998491177358,-5.538519662594626e-06,0.2564998491177358,-1.191787413171886e-05,0.2564998491177358,-1.5945125868281137e-05,0.2564998491177358,-1.560961724552076e-05
0.2572939662976669,-4.196286996842505e-06,0.2572939662976669,-9.567509744049922e-06,0.2572939662976669,-1.3763692621991384e-05,0.2572939662976669,-1.4435049874359505e-05
0.2580880834775979,-4.196265293991977e-06,0.2580880834775979,-1.1581635293991977e-05,0.2580880834775979,-1.0910288229723169e-05,0.2580880834775979,-1.4435017652252764e-05
0.258882200657529,-4.532184511583744e-06,0.258882200657529,-1.1917257568766845e-05,0.258882200657529,-1.17496969428169e-05,0.258882200657529,-1.4602857568766843e-05
0.2596763178374601,-5.53903e-06,0.2596763178374601,-1.1749467125672386e-05,0.2596763178374601,-1.2924198662962398e-05,0.2596763178374601,-1.4435469759768031e-05
0.2604704350173911,-5.53903e-06,0.2604704350173911,-1.1917180678515688e-05,0.2604704350173911,-1.2421157893385942e-05,0.2604704350173911,-1.56091649628108e-05
0.2612645521973222,-4.868008658334878e-06,0.2612645521973222,-1.3930364024995366e-05,0.2612645521973222,-1.35951373197148e-05,0.2612645521973222,-1.7623064024995365e-05
0.2620586693772533,-5.538750428070376e-06,0.2620586693772533,-1.225369892982406e-05,0.2620586693772533,-1.6951402140351883e-05,0.2620586693772533,-1.4939718287718494e-05
0.2628527865571843,-4.532200728286694e-06,0.2628527865571843,-1.1581780485524464e-05,0.2628527865571843,-1.4939141456573387e-05,0.2628527865571843,-1.3596160971048926e-05
0.2636469037371154,-5.203248600880698e-06,0.2636469037371154,-1.2252918600880695e-05,0.2636469037371154,-1.2588984896917556e-05,0.2636469037371154,-1.4938437201761397e-05
0.2644410209170465,-3.860609592523349e-06,0.2644410209170465,-1.2924382312714046e-05,0.2644410209170465,-1.393155306185786e-05,0.2644410209170465,-1.225298673321834e-05
0.2652351380969776,-6.881586454357029e-06,0.2652351380969776,-1.2253e-05,0.2652351380969776,-1.5945057744698875e-05,0.2652351380969776,-1.1749779523192402e-05
0.2660292552769086,-5.5387605142823245e-06,0.2660292552769086,-1.2252568822851718e-05,0.2660292552769086,-1.2252353234277578e-05,0.2660292552769086,-1.3930637645703436e-05
0.2668233724568397,-4.700442472449379e-06,0.2668233724568397,-1.0911259955919003e-05,0.2668233724568397,-1.024038993387851e-05,0.2668233724568397,-1.1248019911838012e-05
0.2676174896367708,-5.873964778120208e-06,0.2676174896367708,-1.1413376362864082e-05,0.2676174896367708,-1.4264610645802716e-05,0.2676174896367708,-1.091041577951644e-05
0.2684116068167018,-5.5391962313619065e-06,0.2684116068167018,-1.1749233763686163e-05,0.2684116068167018,-1.5441518197661224e-05,0.2684116068167018,-1.2252335054744653e-05
0.2692057239966329,-6.881353231031182e-06,0.2692057239966329,-1.3930741477396423e-05,0.2692057239966329,-1.4938775022286284e-05,0.2692057239966329,-1.2588583306888768e-05
0.269999841176564,-4.532400047360271e-06,0.269999841176564,-1.3595867149908653e-05,0.269999841176564,-1.3763835034681758e-05,0.269999841176564,-1.3259965700182695e-05
0.270793958356495,-6.210331966994236e-06,0.270793958356495,-1.124602324694234e-05,0.270793958356495,-1.2924444014142733e-05,0.270793958356495,-1.4602829573175807e-05
0.2715880755364261,-7.553188063503444e-06,0.2715880755364261,-1.3260131936496555e-05,0.2715880755364261,-1.2588476444524111e-05,0.2715880755364261,-1.3595895809489666e-05
0.2723821927163572,-7.217357040601728e-06,0.2723821927163572,-1.3595555560902591e-05,0.2723821927163572,-1.023900371138363e-05,0.2723821927163572,-1.4602981479699136e-05
0.2731763098962882,-6.546774286567226e-06,0.2731763098962882,-1.2588045709534707e-05,0.2731763098962882,-1.1078034551463136e-05,0.2731763098962882,-1.4938207425720824e-05
0.2739704270762193,-8.223400381337536e-06,0.2739704270762193,-1.0911409625869051e-05,0.2739704270762193,-1.0910320998619848e-05,0.2739704270762193,-1.3932225775521432e-05
0.2747645442561504,-4.869556855148685e-06,0.2747645442561504,-1.1916721940011488e-05,0.2747645442561504,-9.568180740911504e-06,0.2747645442561504,-1.4267007313337162e-05
0.2755586614360815,-2.854298856497515e-06,0.2755586614360815,-1.2588413713079486e-05,0.2755586614360815,-1.0574070573883255e-05,0.2755586614360815,-1.5609427426158973e-05
0.2763527786160125,-4.86706840124215e-06,0.2763527786160125,-1.3092059613554542e-05,0.2763527786160125,-1.49373831966502e-05,0.2763527786160125,-1.4267574401030708e-05
0.2771468957959436,-6.881555658982096e-06,0.2771468957959436,-1.3931389850800408e-05,0.2771468957959436,-1.8462937407483943e-05,0.2771468957959436,-1.49385118858899e-05
0.2779410129758747,-6.546103541720831e-06,0.2779410129758747,-1.4938523193934569e-05,0.2779410129758747,-1.896692319393457e-05,0.2779410129758747,-1.4602938403032716e-05
0.2787351301558057,-5.53903e-06,0.2787351301558057,-1.0238744970649889e-05,0.2787351301558057,-1.4266704735848998e-05,0.2787351301558057,-1.695235976519911e-05
0.2795292473357368,-5.539552201963424e-06,0.2795292473357368,-9.902995562096229e-06,0.2795292473357368,-1.1245795558985088e-05,0.2795292473357368,-1.4266260030865782e-05
0.2803233645156679,-7.216178296733851e-06,0.2803233645156679,-9.567678334258418e-06,0.2803233645156679,-1.0910468342251932e-05,0.2803233645156679,-1.1248315080267391e-05
0.2811174816955989,-5.5401256785315495e-06,0.2811174816955989,-1.0238361732504035e-05,0.2811174816955989,-1.2923085177928824e-05,0.2811174816955989,-1.0239457411035589e-05
0.2819115988755301,-4.867969187618518e-06,0.2819115988755301,-1.0406615177835644e-05,0.2819115988755301,-1.1582278375237036e-05,0.2819115988755301,-1.292304324952593e-05
0.2827057160554611,-6.5455197505427365e-06,0.2827057160554611,-1.3594659537117195e-05,0.2827057160554611,-1.2923919797573286e-05,0.2827057160554611,-1.3595559898786644e-05
0.2834998332353922,-4.867982534920062e-06,0.2834998332353922,-1.35958e-05,0.2834998332353922,-1.29244e-05,0.2834998332353922,-1.309230577160766e-05
0.2842939504153233,-5.538988071597059e-06,0.2842939504153233,-1.0239009642014703e-05,0.2842939504153233,-1.191736289260441e-05,0.2842939504153233,-1.3595768550575333e-05
0.2850880675952543,-5.53897284199778e-06,0.2850880675952543,-1.325998568399556e-05,0.2850880675952543,-1.4266799894835785e-05,0.2850880675952543,-1.527382844733301e-05
0.2858821847751854,-4.86817685309869e-06,0.2858821847751854,-1.191706563338893e-05,0.2858821847751854,-9.56741e-06,0.2858821847751854,-9.735689669793155e-06
0.2866763019551165,-7.216372460410068e-06,0.2866763019551165,-1.0909434974872773e-05,0.2866763019551165,-9.567728777244962e-06,0.2866763019551165,-1.1582938781628573e-05
0.2874704191350475,-4.198437498707022e-06,0.2874704191350475,-8.89748166336919e-06,0.2874704191350475,-1.0406086774659229e-05,0.2874704191350475,-1.510382461284997e-05
0.2882645363149786,-3.525222088316567e-06,0.2882645363149786,-9.567017911683431e-06,0.2882645363149786,-1.023889805127845e-05,0.2882645363149786,-1.2590170301987817e-05
0.2890586534949096,-8.404180006631524e-07,0.2890586534949096,-9.56741e-06,0.2890586534949096,-1.1916567495221484e-05,0.2890586534949096,-1.359536049713289e-05
0.2898527706748408,1.174358257524923e-06,0.2898527706748408,-8.896203915506197e-06,0.2898527706748408,-1.0910490873259296e-05,0.2898527706748408,-1.2588990873259297e-05
0.2906468878547718,-5.033109289424147e-07,0.2906468878547718,-1.0238610343210428e-05,0.2906468878547718,-1.1581505170899008e-05,0.2906468878547718,-1.1581742243651485e-05
0.2914410050347029,-3.860523614107153e-06,0.2914410050347029,-9.56741425724076e-06,0.2914410050347029,-1.359580851460834e-05,0.2914410050347029,-1.4602902128652086e-05
0.292235122214634,-2.8530266265477905e-06,0.292235122214634,-1.0238696657829847e-05,0.292235122214634,-1.4938729171940588e-05,0.292235122214634,-1.49386e-05
0.293029239394565,-1.6936531041995514e-07,0.293029239394565,-9.567106736771733e-06,0.293029239394565,-1.5777142944728352e-05,0.293029239394565,-1.4938397824514488e-05
0.2938233565744961,-5.199254582516118e-06,0.2938233565744961,-8.56112508657227e-06,0.2938233565744961,-1.359756598043957e-05,0.2938233565744961,-1.426774339104818e-05
0.2946174737544272,-2.854997454923214e-06,0.2946174737544272,-1.2250552567047648e-05,0.2946174737544272,-1.3931277505492716e-05,0.2946174737544272,-1.2254334967043706e-05
0.2954115909343582,-4.195538199933144e-06,0.2954115909343582,-1.2253e-05,0.2954115909343582,-1.3595972951304704e-05,0.2954115909343582,-1.2420713550107448e-05
0.2962057081142893,-6.8808327388591525e-06,0.2962057081142893,-1.393088295948938e-05,0.2962057081142893,-1.4434691498125404e-05,0.2962057081142893,-1.225306168567035e-05
0.2969998252942204,-6.210567729798993e-06,0.2969998252942204,-1.2924621594698487e-05,0.2969998252942204,-1.6448756810603023e-05,0.2969998252942204,-1.0910495459597985e-05
0.2977939424741515,-6.881771356606168e-06,0.2977939424741515,-1.2253048643393832e-05,0.2977939424741515,-1.2253304017588916e-05,0.2977939424741515,-1.09102e-05
0.2985880596540825,-7.888531679668965e-06,0.2985880596540825,-1.0910099114728652e-05,0.2985880596540825,-1.4938574778494336e-05,0.2985880596540825,-1.2253113493018936e-05
0.2993821768340136,-2.853290470583416e-06,0.2993821768340136,-9.568008115439206e-06,0.2993821768340136,-1.460252617645854e-05,0.2993821768340136,-1.3762665454509123e-05
0.3001762940139447,-2.1825366024965924e-06,0.3001762940139447,-1.225312415154872e-05,0.3001762940139447,-1.2925641515487202e-05,0.3001762940139447,-9.568527360240194e-06
0.3009704111938757,-3.5238354805338654e-06,0.3009704111938757,-1.2588451368281874e-05,0.3009704111938757,-1.6278913682818748e-05,0.3009704111938757,-1.258646232194324e-05
0.3017645283738068,-5.873324194363775e-06,0.3017645283738068,-1.0911197008268644e-05,0.3017645283738068,-1.7287901795038813e-05,0.3017645283738068,-1.3595201795038812e-05
0.3025586455537379,-5.539179853987066e-06,0.3025586455537379,-1.1581300283097747e-05,0.3025586455537379,-1.3597448442962374e-05,0.3025586455537379,-1.22535994338045e-05
0.3033527627336689,-5.87461968773972e-06,0.3033527627336689,-1.0574800945745565e-05,0.3033527627336689,-1.4266999369502958e-05,0.3033527627336689,-1.4602197793260354e-05
0.3041468799136,-5.87472e-06,0.3041468799136,-1.124579845590812e-05,0.3041468799136,-1.6281095367724357e-05,0.3041468799136,-1.896633996340277e-05
0.3049409970935311,-5.539031228806731e-06,0.3049409970935311,-1.023880368653001e-05,0.3049409970935311,-1.62814e-05,0.3049409970935311,-2.114899201270134e-05
0.3057351142734621,-6.2105649430778015e-06,0.3057351142734621,-1.057483820051487e-05,0.3057351142734621,-1.6616665170766596e-05,0.3057351142734621,-1.963777191332953e-05
0.3065292314533932,-7.21820413838266e-06,0.3065292314533932,-1.292420453105885e-05,0.3065292314533932,-1.35958e-05,0.3065292314533932,-1.5274202265529426e-05
0.3073233486333243,-9.56548466661956e-06,0.3073233486333243,-1.2253550097592494e-05,0.3073233486333243,-1.35958e-05,0.3073233486333243,-1.4938875048796249e-05
0.3081174658132554,-6.548152661296777e-06,0.3081174658132554,-1.2253e-05,0.3081174658132554,-1.6279593183978158e-05,0.3081174658132554,-1.4435338811643058e-05
0.3089115829931864,-7.049405536799776e-06,0.3089115829931864,-1.3259571073599552e-05,0.3089115829931864,-1.8294542147199104e-05,0.3089115829931864,-1.2421857852800896e-05
0.3097057001731175,-1.0908742203180808e-05,0.3097057001731175,-1.3595673234402476e-05,0.3097057001731175,-1.9637892937609916e-05,0.3097057001731175,-1.3595356301527885e-05
0.3104998173530486,-1.1245822777605058e-05,0.3104998173530486,-1.158206333436965e-05,0.3104998173530486,-1.8967154444789883e-05,0.3104998173530486,-1.5945159443235406e-05
0.3112939345329796,-1.2588589283230557e-05,0.3112939345329796,-1.15816e-05,0.3112939345329796,-1.8295655358384724e-05,0.3112939345329796,-1.6281372320807637e-05
0.3120880517129107,-1.1245878135989734e-05,0.3120880517129107,-1.29244e-05,0.3120880517129107,-1.8631234407969203e-05,0.3120880517129107,-1.644918907125135e-05
0.3128821688928418,-1.0909771558850035e-05,0.3128821688928418,-1.292429287854516e-05,0.3128821688928418,-1.76242e-05,0.3128821688928418,-1.62814e-05
0.3136762860727728,-8.89625159655308e-06,0.3136762860727728,-1.2421826803342584e-05,0.3136762860727728,-1.7623475210340764e-05,0.3136762860727728,-1.6281218784593194e-05
0.314470403252704,-9.566906030019437e-06,0.314470403252704,-1.5272158090051323e-05,0.314470403252704,-1.5611511909941696e-05,0.314470403252704,-1.57781780150167e-05
0.315264520432635,-8.560918277447453e-06,0.315264520432635,-1.5945294481701696e-05,0.315264520432635,-1.3261519314044055e-05,0.315264520432635,-1.6616593071927666e-05
0.3160586376125661,-1.0909127492938244e-05,0.3160586376125661,-1.3261325727572377e-05,0.3160586376125661,-1.4937833920267263e-05,0.3160586376125661,-2.047583803943508e-05
0.3168527547924971,-1.3762718797117562e-05,0.3168527547924971,-9.568550397095376e-06,0.3168527547924971,-1.4267407345487931e-05,0.3168527547924971,-1.8296273857394507e-05
0.3176468719724282,-9.90372248166348e-06,0.3176468719724282,-1.0909983483446986e-05,0.3176468719724282,-1.42672e-05,0.3176468719724282,-1.4939141295413626e-05
0.3184409891523593,-9.9031e-06,0.3184409891523593,-1.560993579125738e-05,0.3184409891523593,-1.2588722931693794e-05,0.3184409891523593,-1.6617077068306205e-05
0.3192351063322903,-9.567589826116088e-06,0.3192351063322903,-1.5945924784319107e-05,0.3192351063322903,-9.735507261411824e-06,0.3192351063322903,-1.594543025881707e-05
0.3200292235122214,-1.0909869668617013e-05,0.3200292235122214,-1.762382247520633e-05,0.3200292235122214,-1.158197752479367e-05,0.3200292235122214,-1.393074495041266e-05
0.3208233406921525,-9.736234398946318e-06,0.3208233406921525,-1.6282513608273713e-05,0.3208233406921525,-1.2923286391726287e-05,0.3208233406921525,-1.1248127216547424e-05
0.3216174578720835,-6.883768273906685e-06,0.3216174578720835,-1.4268575256989052e-05,0.3216174578720835,-1.3595341581003648e-05,0.3216174578720835,-1.0239487628494524e-05
0.3224115750520147,-6.88182e-06,0.3224115750520147,-1.3931679666295547e-05,0.3224115750520147,-1.4266840667408902e-05,0.3224115750520147,-1.1245361001113356e-05
0.3232056922319457,-6.210680246185936e-06,0.3232056922319457,-1.5105944588555472e-05,0.3232056922319457,-1.4938339753814063e-05,0.3232056922319457,-9.568060611588669e-06
0.3239998094118768,-2.18300695388394e-06,0.3239998094118768,-1.3596162597504972e-05,0.3239998094118768,-1.3931741739671162e-05,0.3239998094118768,-8.896171159780775e-06
0.3247939265918079,-1.1750331100633505e-06,0.3247939265918079,-1.56098137798733e-05,0.3247939265918079,-1.4938506889936647e-05,0.3247939265918079,-1.0238675854173402e-05
0.3255880437717389,-2.85344e-06,0.3255880437717389,-1.3763572242984176e-05,0.3255880437717389,-1.39315e-05,0.3255880437717389,-1.1581525973940718e-05
0.32638216095167,-2.8532358508477973e-06,0.32638216095167,-1.3260304149152202e-05,0.32638216095167,-1.3931704149152202e-05,0.32638216095167,-1.0238936099434802e-05
0.3271762781316011,-1.8445783319312904e-06,0.3271762781316011,-1.4266495329973708e-05,0.3271762781316011,-1.4938188924992107e-05,0.3271762781316011,-1.091031744500438e-05
0.3279703953115321,3.1853099412753376e-06,0.3279703953115321,-1.225453202957478e-05,0.3279703953115321,-1.3764493721949343e-05,0.3279703953115321,-1.1245644661737536e-05
0.3287645124914632,1.847164466578292e-06,0.3287645124914632,-1.2253e-05,0.3287645124914632,-1.426689079433361e-05,0.3287645124914632,-1.359435718348799e-05
0.3295586296713942,1.84634e-06,0.3295586296713942,-1.359517370623203e-05,0.3295586296713942,-1.158285258753594e-05,0.3295586296713942,-1.2756891456925423e-05
0.3303527468513254,5.039761184069381e-07,0.3303527468513254,-1.326020703023939e-05,0.3303527468513254,-1.2923971879042444e-05,0.3303527468513254,-1.191756755965712e-05
0.3311468640312564,-2.5172226187236693e-06,0.3311468640312564,-1.158188743518404e-05,0.3311468640312564,-1.2588757487036809e-05,0.3311468640312564,-1.560936764259511e-05
0.3319409812111875,-2.182047943834204e-06,0.3319409812111875,-1.0574523831502611e-05,0.3319409812111875,-1.3092188085431869e-05,0.3319409812111875,-1.661707616849739e-05
0.3327350983911186,-3.188869605344585e-06,0.3327350983911186,-1.15816415993684e-05,0.3327350983911186,-1.46027752018948e-05,0.3327350983911186,-1.42672831987368e-05
0.3335292155710496,-1.0068724299132498e-06,0.3335292155710496,-1.1917664111704948e-05,0.3335292155710496,-1.35958e-05,0.3335292155710496,-1.4939055139631183e-05
0.3343233327509807,-1.685533891908291e-07,0.3343233327509807,-1.3258972978637566e-05,0.3343233327509807,-1.35958e-05,0.3343233327509807,-1.6615691223296956e-05
0.3351174499309118,-2.851579470286259e-06,0.3351174499309118,-1.3595567433006404e-05,0.3351174499309118,-1.3260332566993596e-05,0.3351174499309118,-1.7623502299019206e-05
0.3359115671108428,-1.5113720951639751e-06,0.3359115671108428,-1.3260283023790996e-05,0.3359115671108428,-1.225354907137298e-05,0.3359115671108428,-1.5611098142745965e-05
0.3367056842907739,-2.8529060776463464e-06,0.3367056842907739,-1.024000132529572e-05,0.3367056842907739,-1.2924133038823171e-05,0.3367056842907739,-1.561e-05
0.337499801470705,-1.5109757495432376e-06,0.337499801470705,-1.1581264250456762e-05,0.337499801470705,-1.359563212522838e-05,0.337499801470705,-1.3596303624314857e-05
0.338293918650636,-3.524623635925318e-06,0.338293918650636,-1.091026878836641e-05,0.338293918650636,-1.4938462423267175e-05,0.338293918650636,-1.2253137576732822e-05
0.3390880358305671,-3.692793617194045e-06,0.3390880358305671,-9.567440297587484e-06,0.3390880358305671,-1.1581448510257516e-05,0.3390880358305671,-1.292436970196125e-05
0.3398821530104982,-6.210355307778021e-06,0.3398821530104982,-1.023873530777802e-05,0.3398821530104982,-8.224739384443958e-06,0.3398821530104982,-1.2252482464151254e-05
0.3406762701904293,-5.874834091732225e-06,0.3406762701904293,-9.90304295753251e-06,0.3406762701904293,-8.896466363530277e-06,0.3406762701904293,-9.567638180065829e-06
0.3414703873703603,-6.210161308465357e-06,0.3414703873703603,-9.73538933806129e-06,0.3414703873703603,-1.0237765241567455e-05,0.3414703873703603,-1.0238282624636745e-05
0.3422645045502914,-5.874929474139995e-06,0.3422645045502914,-1.0070790500900322e-05,0.3422645045502914,-7.554895780640119e-06,0.3422645045502914,-1.1748457397569623e-05
0.3430586217302225,-6.210260069062586e-06,0.3430586217302225,-1.0238720058351809e-05,0.3430586217302225,-1.1244140769216646e-05,0.3430586217302225,-1.3594920356023703e-05
0.3438527389101535,-6.042625193867417e-06,0.3438527389101535,-9.567630772181384e-06,0.3438527389101535,-1.2252668836795497e-05,0.3438527389101535,-1.35958e-05
0.3446468560900846,-5.874750422266116e-06,0.3446468560900846,-1.0238678312748004e-05,0.3446468560900846,-1.3931195777338849e-05,0.3446468560900846,-1.426707831093554e-05
0.3454409732700157,-6.881786096011121e-06,0.3454409732700157,-1.02388e-05,0.3454409732700157,-1.594563219202224e-05,0.3454409732700157,-1.2924445205318504e-05
0.3462350904499467,-5.539278571035034e-06,0.3462350904499467,-9.23197769197151e-06,0.3462350904499467,-1.426744856647836e-05,0.3462350904499467,-1.1917261758127046e-05
0.3470292076298778,-7.720324768052023e-06,0.3470292076298778,-1.1581994522884874e-05,0.3470292076298778,-1.6449068501077367e-05,0.3470292076298778,-1.1582301397232632e-05
0.3478233248098089,-4.870053414715555e-06,0.3478233248098089,-1.3090917053707344e-05,0.3478233248098089,-1.5946127620454355e-05,0.3478233248098089,-1.426491913109787e-05
0.34861744198974,-3.0225875776617714e-06,0.34861744198974,-1.3595446078127284e-05,0.34861744198974,-1.3932915546934118e-05,0.34861744198974,-1.8963697057153725e-05
0.349411559169671,-2.182505953216098e-06,0.349411559169671,-1.024066381286439e-05,0.349411559169671,-1.1582904669005077e-05,0.349411559169671,-1.6282891050291512e-05
0.3502056763496021,-4.866535299405519e-06,0.3502056763496021,-1.1581052647664658e-05,0.3502056763496021,-1.2252726323832329e-05,0.3502056763496021,-1.3093499982177443e-05
0.3509997935295332,-6.2100708230754586e-06,0.3509997935295332,-1.1245987294881232e-05,0.3509997935295332,-1.3595450820475072e-05,0.3509997935295332,-1.3595669044676234e-05
0.3517939107094642,-7.553068993285395e-06,0.3517939107094642,-1.0238913255035952e-05,0.3517939107094642,-1.35958e-05,0.3517939107094642,-1.3260137751678652e-05
0.3525880278893953,-6.210372834255441e-06,0.3525880278893953,-1.0238894332191622e-05,0.3525880278893953,-1.2253070749143715e-05,0.3525880278893953,-1.3931511791523951e-05
0.3533821450693264,-4.86763e-06,0.3533821450693264,-1.2923663985108388e-05,0.3533821450693264,-1.4267322669453112e-05,0.3533821450693264,-1.4266831991640658e-05
0.3541762622492574,-4.866965572538469e-06,0.3541762622492574,-8.896231476920088e-06,0.3541762622492574,-1.4938267784619869e-05,0.3541762622492574,-1.2253553692300218e-05
0.3549703794291886,-2.8550122610347467e-06,0.3549703794291886,-9.566885910386443e-06,0.3549703794291886,-1.3932286134420334e-05,0.3549703794291886,-1.393018977596611e-05
0.3557644966091196,-3.1889271683645595e-06,0.3557644966091196,-9.56741e-06,0.3557644966091196,-1.3763706447517398e-05,0.3557644966091196,-1.426698716836456e-05
0.3565586137890507,-4.866813562699817e-06,0.3565586137890507,-1.007075504789424e-05,0.3565586137890507,-1.628017531243296e-05,0.3565586137890507,-1.225397973059716e-05
0.3573527309689818,-5.8743787676976026e-06,0.3573527309689818,-1.0909915653865918e-05,0.3573527309689818,-1.5610227490460468e-05,0.3573527309689818,-1.5273276292927906e-05
0.3581468481489128,-4.532186806198127e-06,0.3581468481489128,-1.225274319188939e-05,0.3581468481489128,-1.2421409928825107e-05,0.3581468481489128,-1.2924849414193566e-05
0.3589409653288439,-4.196244658825072e-06,0.3589409653288439,-1.3092163355120642e-05,0.3589409653288439,-1.3092170682349857e-05,0.3589409653288439,-1.1581658635300289e-05
0.3597350825087749,-5.53920442084839e-06,0.3597350825087749,-1.1078152321370496e-05,0.3597350825087749,-1.225319185888053e-05,0.3597350825087749,-1.3931848843775086e-05
0.360529199688706,-7.217098395602197e-06,0.360529199688706,-1.15816e-05,0.360529199688706,-1.409892056634039e-05,0.360529199688706,-1.7288289183986156e-05
0.3613233168686371,-5.540472300831771e-06,0.3613233168686371,-1.15816e-05,0.3613233168686371,-1.258999803551792e-05,0.3613233168686371,-1.644992119767655e-05
0.3621174340485681,-6.209941443158922e-06,0.3621174340485681,-1.091067856396893e-05,0.3621174340485681,-1.1582317845953394e-05,0.3621174340485681,-1.4939676733290832e-05
0.3629115512284993,-8.223471572960866e-06,0.3629115512284993,-1.1581220522436276e-05,0.3629115512284993,-1.0239558955127444e-05,0.3629115512284993,-1.1583497387818613e-05
0.3637056684084303,-1.023795883070067e-05,0.3637056684084303,-1.2252719608841484e-05,0.3637056684084303,-1.25877186309452e-05,0.3637056684084303,-1.023936078231703e-05
0.3644997855883614,-6.882726518365973e-06,0.3644997855883614,-1.2588609347623322e-05,0.3644997855883614,-1.2924309347623323e-05,0.3644997855883614,-9.231981954429634e-06
0.3652939027682925,-4.196558872168004e-06,0.3652939027682925,-1.2924358890825926e-05,0.3652939027682925,-1.493835334495556e-05,0.3652939027682925,-1.0070897222166495e-05
0.3660880199482235,-2.182174943953643e-06,0.3660880199482235,-1.1581650604171043e-05,0.3660880199482235,-1.3931508434028509e-05,0.3660880199482235,-1.1917325302085522e-05
0.3668821371281546,-7.553335952735167e-06,0.3668821371281546,-1.35958e-05,0.3668821371281546,-1.42672e-05,0.3668821371281546,-1.2925095726773334e-05
0.3676762543080857,-8.22461e-06,0.3676762543080857,-1.359547784443634e-05,0.3676762543080857,-1.4266985229624226e-05,0.3676762543080857,-1.6952155688872682e-05
0.3684703714880167,-8.22461e-06,0.3684703714880167,-1.2589496194236875e-05,0.3684703714880167,-1.3596330796157917e-05,0.3684703714880167,-1.4940192388473753e-05
0.3692644886679478,-6.882684750083593e-06,0.3692644886679478,-1.2924183810869114e-05,0.3692644886679478,-1.2589348567392658e-05,0.3692644886679478,-1.49386e-05
0.3700586058478789,-5.539696578748996e-06,0.3700586058478789,-9.569076454318688e-06,0.3700586058478789,-1.426636677035859e-05,0.3700586058478789,-1.4603066645928282e-05
0.3708527230278099,-6.210185798036958e-06,0.3708527230278099,-1.1580897387134243e-05,0.3708527230278099,-1.6448438849724666e-05,0.3708527230278099,-1.292498551362839e-05
0.371646840207741,-5.874787559523098e-06,0.371646840207741,-1.0910335119046197e-05,0.371646840207741,-1.393200668636075e-05,0.371646840207741,-1.4266929761907608e-05
0.3724409573876721,-4.867684048424873e-06,0.3724409573876721,-9.56748206474539e-06,0.3724409573876721,-1.258877206528207e-05,0.3724409573876721,-1.6952655869435862e-05
0.3732350745676032,-2.8535661065893013e-06,0.3732350745676032,-1.09102e-05,0.3732350745676032,-1.561e-05,0.3732350745676032,-1.628133694623578e-05
0.3740291917475342,-4.196391936219482e-06,0.3740291917475342,-1.09102e-05,0.3740291917475342,-1.560894741457337e-05,0.3740291917475342,-1.561e-05
0.3748233089274653,-4.867046369685792e-06,0.3748233089274653,-1.09102e-05,0.3748233089274653,-1.1249693597042356e-05,0.3748233089274653,-1.561e-05
0.3756174261073964,-5.203087360520113e-06,0.3756174261073964,-1.1581114721040223e-05,0.3756174261073964,-1.3929558884160903e-05,0.3756174261073964,-1.561e-05
0.3764115432873274,-2.854791668189099e-06,0.3764115432873274,-1.174930348062159e-05,0.3764115432873274,-1.2253965481386533e-05,0.3764115432873274,-1.5106689673176205e-05
0.3772056604672585,-4.866768685828013e-06,0.3772056604672585,-1.3930566883633275e-05,0.3772056604672585,-1.0910774212298813e-05,0.3772056604672585,-1.3932002414380304e-05
0.3779997776471896,-6.2100439633120175e-06,0.3779997776471896,-1.32602880197442e-05,0.3779997776471896,-1.2923835940767404e-05,0.3779997776471896,-1.32602880197442e-05
0.3787938948271206,-5.539118932014442e-06,0.3787938948271206,-1.409918883994918e-05,0.3787938948271206,-1.5106110973271106e-05,0.3787938948271206,-1.3931411066660965e-05
0.3795880120070517,-5.539014770400745e-06,0.3795880120070517,-1.560996954080149e-05,0.3795880120070517,-1.5609989846933832e-05,0.3795880120070517,-1.3595805076533084e-05
0.3803821291869828,-4.531820760528622e-06,0.3803821291869828,-1.3595909239471375e-05,0.3803821291869828,-1.4938654619735688e-05,0.3803821291869828,-1.3931336140792932e-05
0.3811762463669139,-3.860686047873559e-06,0.3811762463669139,-1.426621171229557e-05,0.3811762463669139,-1.527377984042147e-05,0.3811762463669139,-1.29244e-05
0.3819703635468449,-4.36367687297329e-06,0.3819703635468449,-1.1080653097807328e-05,0.3819703635468449,-1.3597143756755698e-05,0.3819703635468449,-1.29244e-05
0.382764480726776,-3.52537886656577e-06,0.382764480726776,-1.1245790259386672e-05,0.382764480726776,-1.3931280453373692e-05,0.382764480726776,-1.0911517279757847e-05
0.3835585979067071,-3.52483e-06,0.3835585979067071,-1.0910370003423705e-05,0.3835585979067071,-1.7622329962339253e-05,0.3835585979067071,-1.3594439972610366e-05
0.3843527150866381,-5.202727698894382e-06,0.3843527150866381,-1.0239040920442248e-05,0.3843527150866381,-1.6953040920442248e-05,0.3843527150866381,-1.7790494265177598e-05
0.3851468322665692,-6.881465417019912e-06,0.3851468322665692,-1.225257449788888e-05,0.3851468322665692,-1.2589621921240758e-05,0.3851468322665692,-1.493920278409486e-05
0.3859409494465003,-7.217498626184084e-06,0.3859409494465003,-1.1245964121447749e-05,0.3859409494465003,-1.5609807635656756e-05,0.3859409494465003,-1.5274278626184085e-05
0.3867350666264313,-5.539142676707535e-06,0.3867350666264313,-1.1917215491840007e-05,0.3867350666264313,-1.5609690136746693e-05,0.3867350666264313,-1.577772958072896e-05
0.3875291838063624,-6.881509542961788e-06,0.3875291838063624,-1.091051045935024e-05,0.3875291838063624,-1.1917688074187802e-05,0.3875291838063624,-1.493867761483756e-05
0.3883233009862935,-5.540210664924422e-06,0.3883233009862935,-1.2251819326282952e-05,0.3883233009862935,-1.359432415785369e-05,0.3883233009862935,-1.5274004831570738e-05
0.3891174181662246,-4.3649409894136645e-06,0.3891174181662246,-1.1246637990926e-05,0.3891174181662246,-1.6950340030246675e-05,0.3891174181662246,-1.393248398790133e-05
0.3899115353461556,-3.5253211344318222e-06,0.3899115353461556,-1.158140354622727e-05,0.3899115353461556,-1.6281792907545457e-05,0.3899115353461556,-1.1247471630181833e-05
0.3907056525260867,-3.52483e-06,0.3907056525260867,-1.15816e-05,0.3907056525260867,-1.3596975284561e-05,0.3907056525260867,-9.9036876422805e-06
0.3914997697060178,-2.853634731834661e-06,0.3914997697060178,-1.15816e-05,0.3914997697060178,-1.2421140800288546e-05,0.3914997697060178,-1.1245510530529822e-05
0.3922938868859488,-5.538647408105085e-06,0.3922938868859488,-1.191725217583506e-05,0.3922938868859488,-1.15817195532893e-05,0.3922938868859488,-1.628068263752589e-05
0.3930880040658799,-6.881811404862891e-06,0.3930880040658799,-1.0910203438075326e-05,0.3930880040658799,-1.2253020628451956e-05,0.3930880040658799,-1.762418452866103e-05
0.393882121245811,-5.20333e-06,0.393882121245811,-1.15816e-05,0.393882121245811,-1.628109242655854e-05,0.393882121245811,-1.460274621327927e-05
0.394676238425742,-5.203531354287984e-06,0.394676238425742,-1.15816e-05,0.394676238425742,-1.426740135728705e-05,0.394676238425742,-1.3595296606782376e-05
0.3954703556056732,-5.874175798858995e-06,0.3954703556056732,-1.15816e-05,0.3954703556056732,-1.4938055790753404e-05,0.3954703556056732,-1.1918660523116486e-05
0.3962644727856042,-6.545674191756539e-06,0.3962644727856042,-9.904214520608653e-06,0.3962644727856042,-1.292573742473038e-05,0.3962644727856042,-1.325920838351308e-05
0.3970585899655353,-6.21059336091915e-06,0.3970585899655353,-1.023862663908085e-05,0.3970585899655353,-1.29244e-05,0.3970585899655353,-1.359562663908085e-05
0.3978527071454664,-4.868125267177839e-06,0.3978527071454664,-1.0574376182283456e-05,0.3978527071454664,-1.3931128546850362e-05,0.3978527071454664,-1.3931376182283457e-05
0.3986468243253974,-6.545748629642817e-06,0.3986468243253974,-1.2923880078402403e-05,0.3986468243253974,-1.2924622823541823e-05,0.3986468243253974,-1.2588997098055767e-05
0.3994409415053285,-8.56016161286854e-06,0.3994409415053285,-1.29244e-05,0.3994409415053285,-1.4938451612131833e-05,0.3994409415053285,-1.0910323656556809e-05
0.4002350586852595,-3.525078118173081e-06,0.4002350586852595,-1.1246024059456096e-05,0.4002350586852595,-1.762395188108781e-05,0.4002350586852595,-1.3595874435673657e-05
0.4010291758651906,-6.881671476869194e-06,0.4010291758651906,-1.2924548523130804e-05,0.4010291758651906,-1.4266828692172983e-05,0.4010291758651906,-1.4602677215303792e-05
0.4018232930451217,-6.211017043402886e-06,0.4018232930451217,-1.3595202956597117e-05,0.4018232930451217,-1.2590192608507214e-05,0.4018232930451217,-1.3596695565104329e-05
0.4026174102250527,-5.5395287015136136e-06,0.4026174102250527,-1.4434376650962594e-05,0.4026174102250527,-1.2420924714374856e-05,0.4026174102250527,-1.1583096126824529e-05
0.4034115274049838,-8.223011521758949e-06,0.4034115274049838,-1.158329836601889e-05,0.4034115274049838,-1.359510063080108e-05,0.4034115274049838,-1.2923600754927395e-05
0.4042056445849149,-5.540232135572044e-06,0.4042056445849149,-1.124605026806557e-05,0.4042056445849149,-1.2253601072262282e-05,0.4042056445849149,-1.4434323816086236e-05
0.404999761764846,-4.1966328994519605e-06,0.404999761764846,-1.191709855027402e-05,0.404999761764846,-1.3091948202844738e-05,0.404999761764846,-1.510619855027402e-05
0.4057938789447771,-5.538825273358549e-06,0.4057938789447771,-1.0910353544981088e-05,0.4057938789447771,-1.2924425583207056e-05,0.4057938789447771,-1.460297676486742e-05
0.4065879961247081,-7.553210169302113e-06,0.4065879961247081,-1.0238803276915564e-05,0.4065879961247081,-1.3595796723084434e-05,0.4065879961247081,-1.5777794265641798e-05
0.4073821133046392,-8.22461e-06,0.4073821133046392,-1.2924423945237346e-05,0.4073821133046392,-1.2253431142703185e-05,0.4073821133046392,-1.5945747904744796e-05
0.4081762304845703,-8.223636752084444e-06,0.4081762304845703,-1.3092346002552972e-05,0.4081762304845703,-1.5273618722400263e-05,0.4081762304845703,-1.628062139702887e-05
0.4089703476645013,-4.870384562543589e-06,0.4089703476645013,-1.3595386772129428e-05,0.4089703476645013,-1.292632820526818e-05,0.4089703476645013,-1.3598003663163635e-05
0.4097644648444324,-6.88046243703694e-06,0.4097644648444324,-1.2924852523234352e-05,0.4097644648444324,-1.0911557569703052e-05,0.4097644648444324,-1.4266747476765647e-05
0.4105585820243635,-5.539736868394111e-06,0.4105585820243635,-1.4937539689512568e-05,0.4105585820243635,-1.1748958230284454e-05,0.4105585820243635,-1.594481640792714e-05
0.4113526992042945,-6.881311302940393e-06,0.4113526992042945,-1.3596308700847963e-05,0.4113526992042945,-1.2923954867816237e-05,0.4113526992042945,-1.577786360654779e-05
0.4121468163842256,-4.532473421753171e-06,0.4121468163842256,-1.3931422367990611e-05,0.4121468163842256,-1.4602511839953064e-05,0.4121468163842256,-1.443531052803755e-05
0.4129409335641567,-2.853580443197194e-06,0.4129409335641567,-1.2588812355227134e-05,0.4129409335641567,-1.2924540444033916e-05,0.4129409335641567,-1.4938557862606207e-05
0.4137350507440878,-2.853450727197898e-06,0.4137350507440878,-1.09103823591688e-05,0.4137350507440878,-1.5274321454395796e-05,0.4137350507440878,-1.7624157091208405e-05
0.4145291679240188,-3.021609085207353e-06,0.4145291679240188,-1.3763174550240529e-05,0.4145291679240188,-1.561e-05,0.4145291679240188,-1.6952374550240527e-05
0.4153232851039499,-4.5305715716110985e-06,0.4153232851039499,-1.175121124984174e-05,0.4153232851039499,-1.561e-05,0.4153232851039499,-1.494041124984174e-05
0.416117402283881,-4.867377288033824e-06,0.416117402283881,-1.1581726318343534e-05,0.416117402283881,-1.594544728803382e-05,0.416117402283881,-1.3596810847864707e-05
0.416911519463812,-3.861139506290789e-06,0.416911519463812,-1.2252593662472806e-05,0.416911519463812,-1.5777901614642265e-05,0.416911519463812,-9.569848019111065e-06
0.4177056366437431,-4.196076374438984e-06,0.4177056366437431,-1.0910814502244063e-05,0.4177056366437431,-1.3596798543265228e-05,0.4177056366437431,-9.56741e-06
0.4184997538236742,-4.531825917641612e-06,0.4184997538236742,-1.09102e-05,0.4184997538236742,-1.2924608164716777e-05,0.4184997538236742,-1.292335917951657e-05
0.4192938710036052,-2.8537126941544014e-06,0.4192938710036052,-1.2588427304220958e-05,0.4192938710036052,-1.4266981843376766e-05,0.4192938710036052,-1.4266981843376766e-05
0.4200879881835363,-4.531905020382683e-06,0.4200879881835363,-1.2253004995953229e-05,0.4200879881835363,-1.3595809991906456e-05,0.4200879881835363,-1.560998001618709e-05
0.4208821053634674,-7.552952717830598e-06,0.4208821053634674,-1.0910489550486118e-05,0.4208821053634674,-1.32601445472494e-05,0.4208821053634674,-1.49385109055012e-05
0.4216762225433985,-5.539217941399133e-06,0.4216762225433985,-1.3092340972145256e-05,0.4216762225433985,-1.3595330139503948e-05,0.4216762225433985,-1.4267434916251583e-05
0.4224703397233295,-6.2098623859700965e-06,0.4224703397233295,-1.3595381741721712e-05,0.4224703397233295,-1.1918694055838176e-05,0.4224703397233295,-1.5105703013607749e-05
0.4232644569032606,-5.204018850497784e-06,0.4232644569032606,-1.225391847645039e-05,0.4232644569032606,-1.359465190443701e-05,0.4232644569032606,-1.1248540585594827e-05
0.4240585740831917,-4.532290151820035e-06,0.4240585740831917,-1.2588519924089984e-05,0.4240585740831917,-1.4602359772269947e-05,0.4240585740831917,-1.3259019544539896e-05
0.4248526912631227,-6.3775520739976005e-06,0.4248526912631227,-1.359540840187776e-05,0.4248526912631227,-1.4938469467292586e-05,0.4248526912631227,-1.4937947336462934e-05
0.4256468084430538,-6.210460494752405e-06,0.4256468084430538,-1.1917704947524049e-05,0.4256468084430538,-1.4267361979009618e-05,0.4256468084430538,-1.4267361979009618e-05
0.4264409256229849,-4.532087230574407e-06,0.4264409256229849,-1.19173e-05,0.4264409256229849,-1.3595862892604456e-05,0.4264409256229849,-1.2253188677813371e-05
0.4272350428029159,-4.86766619380075e-06,0.4272350428029159,-1.09102723876015e-05,0.4272350428029159,-1.4602845709298876e-05,0.4272350428029159,-1.42672e-05
0.428029159982847,-5.5393339955824286e-06,0.428029159982847,-1.2253135110042128e-05,0.428029159982847,-1.359552977991574e-05,0.428029159982847,-1.4266524449789352e-05
0.4288232771627781,-7.048296481986384e-06,0.4288232771627781,-1.2923789543508484e-05,0.4288232771627781,-1.2254220912983027e-05,0.4288232771627781,-1.0913252282457573e-05
0.4296173943427092,-6.211060173654057e-06,0.4296173943427092,-1.1582624277846487e-05,0.4296173943427092,-1.4265663583230264e-05,0.4296173943427092,-1.0239312138923244e-05
0.4304115115226402,-4.86845609888406e-06,0.4304115115226402,-1.0910613052518085e-05,0.4304115115226402,-1.242193592518527e-05,0.4304115115226402,-1.3929228211150538e-05
0.4312056287025713,-5.538716033887171e-06,0.4312056287025713,-1.225237206777434e-05,0.4312056287025713,-1.4266336569808269e-05,0.4312056287025713,-1.3763678514909656e-05
0.4319997458825024,-4.196659759415337e-06,0.4319997458825024,-1.2253e-05,0.4319997458825024,-1.5273977680438497e-05,0.4319997458825024,-1.2924668583632224e-05
0.4327938630624334,-4.867514206697492e-06,0.4327938630624334,-9.567873171485376e-06,0.4327938630624334,-1.7120281577041376e-05,0.4327938630624334,-1.4938252620092478e-05
0.4335879802423645,-7.217461526108452e-06,0.4335879802423645,-9.56741e-06,0.4335879802423645,-1.5274345942723262e-05,0.4335879802423645,-1.2588758474140386e-05
0.4343820974222956,-5.706931784630931e-06,0.4343820974222956,-1.1749132273961184e-05,0.4343820974222956,-1.2756479411257928e-05,0.4343820974222956,-1.3595635240984184e-05
0.4351762146022266,-6.210691856481088e-06,0.4351762146022266,-9.567772472608718e-06,0.4351762146022266,-1.2588428143518912e-05,0.4351762146022266,-1.2253271856481087e-05
0.4359703317821577,-7.216673506680622e-06,0.4359703317821577,-1.0909071350646084e-05,0.4359703317821577,-1.1582446493319377e-05,0.4359703317821577,-1.3259253506680625e-05
0.4367644489620888,-5.5401948761001925e-06,0.4367644489620888,-1.2587535116959783e-05,0.4367644489620888,-1.1413816523004142e-05,0.4367644489620888,-1.3763250569788056e-05
0.4375585661420199,-3.190424028373869e-06,0.4375585661420199,-1.0911117167027195e-05,0.4375585661420199,-1.292357452235449e-05,0.4375585661420199,-1.2253825423003446e-05
0.438352683321951,-3.18914e-06,0.438352683321951,-1.023906778040567e-05,0.438352683321951,-1.6783360282609334e-05,0.438352683321951,-1.4266396658782989e-05
0.439146800501882,-5.538439573510786e-06,0.439146800501882,-1.02388e-05,0.439146800501882,-1.896645173193549e-05,0.439146800501882,-1.6280893917998468e-05
0.4399409176818131,-7.21734598204838e-06,0.4399409176818131,-1.2252791177213952e-05,0.4399409176818131,-1.4939017645572094e-05,0.4399409176818131,-1.49387392151907e-05
0.4407350348617442,-4.867644739404953e-06,0.4407350348617442,-1.2924429478809906e-05,0.4407350348617442,-1.4938688436429717e-05,0.4407350348617442,-1.3931544218214858e-05
0.4415291520416752,-5.203651006832064e-06,0.4415291520416752,-1.359554319300437e-05,0.4415291520416752,-1.6952735798251094e-05,0.4415291520416752,-1.4938728403497814e-05
0.4423232692216063,-6.88027710160249e-06,0.4423232692216063,-1.2254234326071752e-05,0.4423232692216063,-1.6617408581517937e-05,0.4423232692216063,-1.5609382836964125e-05
0.4431173864015373,-5.540067700100332e-06,0.4431173864015373,-1.1246678280871204e-05,0.4431173864015373,-1.2927253696527748e-05,0.4431173864015373,-1.393279713478534e-05
0.4439115035814684,-4.868049767508882e-06,0.4439115035814684,-1.1581390116245558e-05,0.4439115035814684,-1.4266360464982236e-05,0.4439115035814684,-1.326051976750888e-05
0.4447056207613995,-3.5254713622074405e-06,0.4447056207613995,-1.426591727558512e-05,0.4447056207613995,-1.292504136220744e-05,0.4447056207613995,-1.225348102165558e-05
0.4454997379413306,-1.511304780795191e-06,0.4454997379413306,-1.2253664784095678e-05,0.4454997379413306,-1.258881079734928e-05,0.4454997379413306,-1.3930946013253602e-05
0.4462938551212617,-5.202656206211236e-06,0.4462938551212617,-1.1581722508293352e-05,0.4462938551212617,-1.3595616237559971e-05,0.4462938551212617,-1.560969372926662e-05
0.4470879723011927,-4.867641710944072e-06,0.4470879723011927,-1.2924353156223712e-05,0.4470879723011927,-1.527424144527964e-05,0.4470879723011927,-1.3595870265664433e-05
0.4478820894811238,-3.5246786720929323e-06,0.4478820894811238,-1.2588662167741492e-05,0.4478820894811238,-1.762397300644895e-05,0.4478820894811238,-1.3763883747573645e-05
0.4486762066610549,-2.182214531109744e-06,0.4486762066610549,-1.2252650937780512e-05,0.4486762066610549,-1.560912734445128e-05,0.4486762066610549,-1.6281225468890254e-05
0.4494703238409859,-2.852868964576053e-06,0.4494703238409859,-1.0911342070847894e-05,0.4494703238409859,-1.2255855177119737e-05,0.4494703238409859,-1.5610571035423948e-05
0.450264441020917,-5.704861174200424e-06,0.450264441020917,-1.09102e-05,0.450264441020917,-1.3594854663586045e-05,0.450264441020917,-1.4939072668206978e-05
0.4510585582008481,-4.197070553489656e-06,0.4510585582008481,-1.3594305672793108e-05,0.4510585582008481,-1.35958e-05,0.4510585582008481,-1.4267573581801722e-05
0.4518526753807791,-6.209596517898718e-06,0.4518526753807791,-1.0911297981586249e-05,0.4518526753807791,-1.1917986238491405e-05,0.4518526753807791,-1.124713522928453e-05
0.4526467925607102,-5.874807704495701e-06,0.4526467925607102,-1.09102e-05,0.4526467925607102,-1.1078319248176324e-05,0.4526467925607102,-9.064430076609468e-06
0.4534409097406413,-5.87472e-06,0.4534409097406413,-1.3763275634692717e-05,0.4534409097406413,-1.1917204602451156e-05,0.4534409097406413,-1.057432827531794e-05
0.4542350269205724,-8.224661218592782e-06,0.4542350269205724,-1.0910245527638028e-05,0.4542350269205724,-1.2253045527638028e-05,0.4542350269205724,-9.735277072525213e-06
0.4550291441005034,-9.73529042242578e-06,0.4550291441005034,-1.2253273809082344e-05,0.4550291441005034,-1.3596104242383632e-05,0.4550291441005034,-1.023898254543018e-05
0.4558232612804345,-9.902944041897013e-06,0.4558232612804345,-1.3762196339904816e-05,0.4558232612804345,-1.5272740326049405e-05,0.4558232612804345,-1.1244964195629643e-05
0.4566173784603656,-6.884185044416499e-06,0.4566173784603656,-1.359593135308647e-05,0.4566173784603656,-1.3597113922262447e-05,0.4566173784603656,-1.0910462784452487e-05
0.4574114956402966,-7.552793517500227e-06,0.4574114956402966,-1.3260313241249886e-05,0.4574114956402966,-1.2589339723749658e-05,0.4574114956402966,-9.903739723749658e-06
0.4582056128202277,-8.224282608781708e-06,0.4582056128202277,-1.1246882188283831e-05,0.4582056128202277,-1.1582091094141916e-05,0.4582056128202277,-1.0909708905858085e-05
0.4589997300001588,-6.378897848245357e-06,0.4589997300001588,-1.1749228784735455e-05,0.4589997300001588,-1.0239256619378806e-05,0.4589997300001588,-1.1581371690310596e-05
0.4597938471800898,-5.539191527180561e-06,0.4597938471800898,-1.2924173849629236e-05,0.4597938471800898,-1.2252612330147412e-05,0.4597938471800898,-1.5273589271936925e-05
0.4605879643600209,-4.531975205318553e-06,0.4605879643600209,-1.29244e-05,0.4605879643600209,-1.4267109589362894e-05,0.4605879643600209,-1.7288409589362895e-05
0.461382081539952,-5.539098948499222e-06,0.461382081539952,-1.0910372373815431e-05,0.461382081539952,-1.561003447476309e-05,0.461382081539952,-1.628107248461592e-05
0.4621761987198831,-6.209496969889382e-06,0.4621761987198831,-1.2589455210544432e-05,0.4621761987198831,-1.5945951736848142e-05,0.4621761987198831,-1.3092577617770322e-05
0.4629703158998141,-2.520917563615629e-06,0.4629703158998141,-1.5607400161142613e-05,0.4629703158998141,-1.6951933387047538e-05,0.4629703158998141,-1.4601600037546136e-05
0.4637644330797452,-1.1758987663955494e-06,0.4637644330797452,-1.3764918339494148e-05,0.4637644330797452,-1.728826030840111e-05,0.4637644330797452,-1.7957503084011127e-05
0.4645585502596763,-2.1814695548110795e-06,0.4645585502596763,-1.326038519427328e-05,0.4645585502596763,-1.7791714805726718e-05,0.4645585502596763,-1.561133103877415e-05
0.4653526674396073,-2.853158789612547e-06,0.4653526674396073,-1.3595659394806274e-05,0.4653526674396073,-1.5778643631162358e-05,0.4653526674396073,-1.3596643631162358e-05
0.4661467846195384,-3.524647878730402e-06,0.4661467846195384,-1.1917755309955496e-05,0.4661467846195384,-1.628126339345035e-05,0.4661467846195384,-1.4267017876017802e-05
0.4669409017994695,-6.210087850928633e-06,0.4669409017994695,-1.0910324556365557e-05,0.4669409017994695,-1.661705848121148e-05,0.4669409017994695,-1.42672e-05
0.4677350189794005,-4.86763e-06,0.4677350189794005,-1.0406695986597791e-05,0.4677350189794005,-1.561e-05,0.4677350189794005,-1.426722808425404e-05
0.4685291361593316,-4.867687495204593e-06,0.4685291361593316,-1.0239144971227556e-05,0.4685291361593316,-1.561017248561378e-05,0.4685291361593316,-1.5442128756165776e-05
0.4693232533392627,-5.203014711937724e-06,0.4693232533392627,-1.225110827162634e-05,0.4693232533392627,-1.661615413581317e-05,0.4693232533392627,-1.5609842309009067e-05
0.4701173705191938,-5.5387638580520885e-06,0.4701173705191938,-1.2253e-05,0.4701173705191938,-1.3598195277531208e-05,0.4701173705191938,-1.6951735432208354e-05
0.4709114876991248,-3.190656184765169e-06,0.4709114876991248,-1.0911066394981326e-05,0.4709114876991248,-1.2253866394981326e-05,0.4709114876991248,-1.4939899592471987e-05
0.4717056048790559,-4.195728838348152e-06,0.4717056048790559,-1.1916798833371816e-05,0.4717056048790559,-1.1581934111085455e-05,0.4717056048790559,-1.2589869388799097e-05
0.472499722058987,-7.552044880099277e-06,0.472499722058987,-1.1581717512340124e-05,0.472499722058987,-8.896950095220474e-06,0.472499722058987,-1.3259864975319753e-05
0.473293839238918,-7.049771953706315e-06,0.473293839238918,-1.4266656246899652e-05,0.473293839238918,-8.224745938275086e-06,0.473293839238918,-1.4938260154312282e-05
0.4740879564188491,-5.539112916158347e-06,0.4740879564188491,-1.2420901345386572e-05,0.4740879564188491,-9.567336296260242e-06,0.4740879564188491,-1.6281326296260243e-05
0.4748820735987802,-6.881944468143626e-06,0.4748820735987802,-9.567783406284754e-06,0.4748820735987802,-9.735368909509809e-06,0.4748820735987802,-1.7624013296394153e-05
0.4756761907787112,-8.224771118021068e-06,0.4756761907787112,-1.3595316645936796e-05,0.4756761907787112,-1.0909797207347062e-05,0.4756761907787112,-1.56095166459368e-05
0.4764703079586423,-8.895425551487424e-06,0.4764703079586423,-1.1583353345537727e-05,0.4764703079586423,-9.23317111257652e-06,0.4764703079586423,-1.359755334553773e-05
0.4772644251385734,-6.212364385514594e-06,0.4772644251385734,-1.0910686098188664e-05,0.4772644251385734,-1.0908984761768405e-05,0.4772644251385734,-1.3931256950905668e-05
0.4780585423185045,-7.55244597643299e-06,0.4780585423185045,-1.1581212988216497e-05,0.4780585423185045,-1.2923238964649483e-05,0.4780585423185045,-1.7118761722849606e-05
0.4788526594984356,-6.88210792537825e-06,0.4788526594984356,-1.3594936223865247e-05,0.4788526594984356,-1.359551207462175e-05,0.4788526594984356,-1.6281759885280647e-05
0.4796467766783666,-5.875003258459634e-06,0.4796467766783666,-1.35958e-05,0.4796467766783666,-1.3931405580513457e-05,0.4796467766783666,-1.1247316292298168e-05
0.4804408938582977,-6.546030247432071e-06,0.4804408938582977,-1.2253179505135856e-05,0.4804408938582977,-1.628108586601225e-05,0.4804408938582977,-1.0910244876283964e-05
0.4812350110382288,-2.5177820021287367e-06,0.4812350110382288,-9.90311400075592e-06,0.4812350110382288,-1.4602942002267758e-05,0.4812350110382288,-1.7959885999244083e-05
0.4820291282181598,-5.538921716135176e-06,0.4820291282181598,-1.0910524851594473e-05,0.4820291282181598,-1.7624308283864822e-05,0.4820291282181598,-1.6952583432270354e-05
0.4828232453980909,-4.868267282668867e-06,0.4828232453980909,-1.2922488151993395e-05,0.4828232453980909,-1.8294962717331132e-05,0.4828232453980909,-1.5611274565337737e-05
0.483617362578022,-5.5384910011133324e-06,0.483617362578022,-1.2588969499443334e-05,0.483617362578022,-1.494129499443334e-05,0.483617362578022,-1.561e-05
0.484411479757953,-3.861629781203768e-06,0.484411479757953,-1.158225986872226e-05,0.484411479757953,-1.49386e-05,0.484411479757953,-1.2255199562407535e-05
0.4852055969378841,-4.196059586961827e-06,0.4852055969378841,-1.359477752177096e-05,0.4852055969378841,-1.6951777521770964e-05,0.4852055969378841,-1.325958876088548e-05
0.4859997141178152,-2.853923475741746e-06,0.4859997141178152,-1.1582325219013415e-05,0.4859997141178152,-1.4939325219013416e-05,0.4859997141178152,-1.5609153911151015e-05
0.4867938312977463,-2.85344e-06,0.4867938312977463,-8.89658061093901e-06,0.4867938312977463,-1.6281114693468138e-05,0.4867938312977463,-1.2253713266329654e-05
0.4875879484776773,-6.545880383563556e-06,0.4875879484776773,-1.2252782166345045e-05,0.4875879484776773,-1.493868713372154e-05,0.4875879484776773,-1.2253e-05
0.4883820656576084,-4.867518960911124e-06,0.4883820656576084,-1.242081388402072e-05,0.4883820656576084,-1.3595855519544438e-05,0.4883820656576084,-1.4938488960911125e-05
0.4891761828375395,-3.5251388229535058e-06,0.4891761828375395,-1.2588391177046496e-05,0.4891761828375395,-1.4267508822953504e-05,0.4891761828375395,-1.3595645588523246e-05
0.4899703000174705,-4.8664476898861246e-06,0.4899703000174705,-1.1247082310113877e-05,0.4899703000174705,-1.5608817689886125e-05,0.4899703000174705,-1.2924991155056938e-05
0.4907644171974016,-5.538537186820443e-06,0.4907644171974016,-1.2923167967051107e-05,0.4907644171974016,-1.4268185626359112e-05,0.4907644171974016,-1.091167843953867e-05
0.4915585343773327,-2.184008628007479e-06,0.4915585343773327,-1.2756598461014914e-05,0.4915585343773327,-1.124767177048457e-05,0.4915585343773327,-1.2923218819676952e-05
0.4923526515572637,-5.537556802542742e-06,0.4923526515572637,-1.1582115598703758e-05,0.4923526515572637,-1.12459e-05,0.4923526515572637,-1.443433708111167e-05
0.4931467687371948,-6.881428894984669e-06,0.4931467687371948,-1.258840666905403e-05,0.4931467687371948,-1.158150222301801e-05,0.4931467687371948,-1.1582431089783769e-05
0.4939408859171259,-7.888765300098654e-06,0.4939408859171259,-1.1581744701338156e-05,0.4939408859171259,-1.3595510597323682e-05,0.4939408859171259,-1.15816e-05
0.494735003097057,-4.8676234529229175e-06,0.494735003097057,-1.2252997381153564e-05,0.494735003097057,-1.29244e-05,0.494735003097057,-1.2253003928269652e-05
0.495529120276988,-3.1895209119258966e-06,0.495529120276988,-1.1581498422679538e-05,0.495529120276988,-1.2924552365980692e-05,0.495529120276988,-1.3260353943301156e-05
0.4963232374569191,-5.704455059634041e-06,0.4963232374569191,-1.0910843989213182e-05,0.4963232374569191,-1.3930534016180228e-05,0.4963232374569191,-1.4936990026967044e-05
0.4971173546368502,-7.551719286836712e-06,0.4971173546368502,-1.023934571387756e-05,0.4971173546368502,-1.493778142918366e-05,0.4971173546368502,-1.577711789829305e-05
0.4979114718167812,-4.198463130709811e-06,0.4979114718167812,-1.09097533725276e-05,0.4979114718167812,-1.4267646627472398e-05,0.4979114718167812,-1.493915825107959e-05
0.4987055889967123,-4.86728245893281e-06,0.4987055889967123,-1.09102e-05,0.4987055889967123,-1.292509508213438e-05,0.4987055889967123,-1.4435260681682212e-05
0.4994997061766434,-5.874347321707572e-06,0.4994997061766434,-1.124577577266901e-05,0.4994997061766434,-1.1582096909323965e-05,0.4994997061766434,-1.3931686322493757e-05
0.5002938233565745,-4.867854050160505e-06,0.5002938233565745,-9.567783418417324e-06,0.5002938233565745,-1.2588475947614769e-05,0.5002938233565745,-1.5609626579357947e-05
0.5010879405365055,-3.6927679932403247e-06,0.5010879405365055,-7.553370844805932e-06,0.5010879405365055,-1.4267074295370965e-05,0.5010879405365055,-1.359595084555484e-05
0.5018820577164366,-4.699902010656842e-06,0.5018820577164366,-1.040680980661084e-05,0.5018820577164366,-1.393157320683025e-05,0.5018820577164366,-9.903368425044248e-06
0.5026761748963677,-6.37778996116953e-06,0.5026761748963677,-1.1917669262331096e-05,0.5026761748963677,-1.4938083032736463e-05,0.5026761748963677,-1.3595947704932438e-05
0.5034702920762988,-4.198173041299371e-06,0.5034702920762988,-1.3594305345996869e-05,0.5034702920762988,-1.2590792515604384e-05,0.5034702920762988,-1.4266602138398748e-05
0.5042644092562298,-5.873471187014214e-06,0.5042644092562298,-1.2589449292255533e-05,0.5042644092562298,-1.4265951179574117e-05,0.5042644092562298,-1.3931749764085176e-05
0.5050585264361609,-6.21021977911738e-06,0.5050585264361609,-1.25887e-05,0.5050585264361609,-1.59446988955869e-05,0.5050585264361609,-1.2254001104413098e-05
0.505852643616092,-4.1971340615916345e-06,0.505852643616092,-1.3595347966959952e-05,0.505852643616092,-1.3596854743760111e-05,0.505852643616092,-1.2588549322319984e-05
0.506646760796023,-4.19623e-06,0.506646760796023,-9.904212479251537e-06,0.506646760796023,-1.1582206806864472e-05,0.506646760796023,-1.4098844909914867e-05
0.507440877975954,-3.860581591274855e-06,0.507440877975954,-1.0406622605403583e-05,0.507440877975954,-1.091030318254971e-05,0.507440877975954,-1.2924580561777858e-05
0.5082349951558852,-3.5248320480722044e-06,0.5082349951558852,-1.1581592832052328e-05,0.5082349951558852,-1.2252991807711182e-05,0.5082349951558852,-1.2588702048072204e-05
0.5090291123358163,-5.5388639761416605e-06,0.5090291123358163,-1.2253426918492871e-05,0.5090291123358163,-1.091053204771668e-05,0.5090291123358163,-1.6281352564611903e-05
0.5098232295157473,-4.365218717575784e-06,0.5098232295157473,-1.5271371869090842e-05,0.5098232295157473,-1.3257822564848434e-05,0.5098232295157473,-1.5946025347878794e-05
0.5106173466956784,-5.538063249480212e-06,0.5106173466956784,-1.2255485929908023e-05,0.5106173466956784,-1.19184048577369e-05,0.5106173466956784,-1.2926885929908024e-05
0.5114114638756094,-8.222796643651423e-06,0.5114114638756094,-1.0911106684926483e-05,0.5114114638756094,-1.1246353342463245e-05,0.5114114638756094,-1.3595346657536757e-05
0.5122055810555405,-4.869401269737885e-06,0.5122055810555405,-1.09102e-05,0.5122055810555405,-1.2923514359854678e-05,0.5122055810555405,-1.2924754256058127e-05
0.5129996982354716,-6.545482079668493e-06,0.5129996982354716,-1.292363449104152e-05,0.5129996982354716,-1.29244e-05,0.5129996982354716,-1.2253255169652826e-05
0.5137938154154027,-6.88174195837619e-06,0.5137938154154027,-1.1749673157307047e-05,0.5137938154154027,-1.3931265875128572e-05,0.5137938154154027,-1.4266731750257144e-05
0.5145879325953338,-5.539143992836085e-06,0.5145879325953338,-1.3595643254438484e-05,0.5145879325953338,-1.4267171501578747e-05,0.5145879325953338,-1.4938543003157495e-05
0.5153820497752648,-5.874698955845542e-06,0.5153820497752648,-1.1749410525525138e-05,0.5153820497752648,-1.4938684179125404e-05,0.5153820497752648,-1.3595926268688108e-05
0.5161761669551959,-5.5386775040298085e-06,0.5161761669551959,-1.1917370499194038e-05,0.5161761669551959,-1.6281118003223846e-05,0.5161761669551959,-1.561e-05
0.5169702841351269,-3.862041420364036e-06,0.5169702841351269,-1.2252697715927193e-05,0.5169702841351269,-1.4939809136291228e-05,0.5169702841351269,-1.561e-05
0.5177644013150581,-5.537764392096888e-06,0.5177644013150581,-1.493657502735502e-05,0.5177644013150581,-1.5609493756838756e-05,0.5177644013150581,-1.3597318729483734e-05
0.5185585184949891,-5.53903e-06,0.5185585184949891,-1.2925621470268113e-05,0.5185585184949891,-1.6280992843243962e-05,0.5185585184949891,-1.35958e-05
0.5193526356749202,-4.86793807035083e-06,0.5193526356749202,-1.359549192964917e-05,0.5193526356749202,-1.5106939146056337e-05,0.5193526356749202,-1.628016771859668e-05
0.5201467528548512,-3.6930457219050015e-06,0.5201467528548512,-1.3260204491972858e-05,0.5201467528548512,-1.7287820786613127e-05,0.5201467528548512,-1.4435574721414014e-05
0.5209408700347823,-4.19614757684462e-06,0.5209408700347823,-1.2253164846310762e-05,0.5209408700347823,-1.7959790102459494e-05,0.5209408700347823,-1.3931582414971171e-05
0.5217349872147133,-6.546082161187474e-06,0.5217349872147133,-1.15816108111353e-05,0.5217349872147133,-1.7120613514724245e-05,0.5217349872147133,-1.628136216102645e-05
0.5225291043946444,-6.210596328463478e-06,0.5225291043946444,-1.2252647344386184e-05,0.5225291043946444,-1.49386e-05,0.5225291043946444,-1.174906939200982e-05
0.5233232215745756,-7.551905195396283e-06,0.5233232215745756,-9.57003959941592e-06,0.5233232215745756,-1.49386e-05,0.5233232215745756,-9.23417519988288e-06
0.5241173387545066,-6.54695871578887e-06,0.5241173387545066,-1.2250763432891038e-05,0.5241173387545066,-1.4267759143859248e-05,0.5241173387545066,-1.0237961292539157e-05
0.5249114559344377,-8.223459863216877e-06,0.5249114559344377,-1.3594879885091734e-05,0.5249114559344377,-1.2925320114908269e-05,0.5249114559344377,-1.2922559770183466e-05
0.5257055731143687,-7.553580965672532e-06,0.5257055731143687,-1.225372194209785e-05,0.5257055731143687,-1.29244e-05,0.5257055731143687,-1.29244e-05
0.5264996902942998,-4.197539419318014e-06,0.5264996902942998,-1.3259707173034423e-05,0.5264996902942998,-1.258883094232186e-05,0.5264996902942998,-1.29244e-05
0.5272938074742308,-6.881168809470341e-06,0.5272938074742308,-1.0910769793835112e-05,0.5272938074742308,-1.2253081399119302e-05,0.5272938074742308,-1.29244e-05
0.528087924654162,-8.224482577282335e-06,0.528087924654162,-1.1078084067296974e-05,0.528087924654162,-1.3260004432250048e-05,0.528087924654162,-1.3595736288166697e-05
0.528882041834093,-8.224415440908276e-06,0.528882041834093,-1.09102e-05,0.528882041834093,-1.4938635374571903e-05,0.528882041834093,-1.091034149828762e-05
0.5296761590140241,-4.532131437765573e-06,0.5296761590140241,-1.09102e-05,0.5296761590140241,-1.5609798562234428e-05,0.5296761590140241,-1.3595934291843714e-05
0.5304702761939551,-5.538113087965037e-06,0.5304702761939551,-1.09102e-05,0.5304702761939551,-1.4603816912034963e-05,0.5304702761939551,-1.4266588725310024e-05
0.5312643933738862,-6.209907049487992e-06,0.5312643933738862,-1.2251974083695728e-05,0.5312643933738862,-1.4938343520923933e-05,0.5312643933738862,-1.42672e-05
0.5320585105538173,-4.532964673203012e-06,0.5320585105538173,-9.90454855111425e-06,0.5320585105538173,-1.6951558384759218e-05,0.5320585105538173,-1.4434896562884815e-05
0.5328526277337483,-5.538557821987279e-06,0.5328526277337483,-1.3090704793068842e-05,0.5328526277337483,-1.7120521327107005e-05,0.5328526277337483,-1.1079673879824152e-05
0.5336467449136795,-3.022098867799248e-06,0.5336467449136795,-1.6951559715051685e-05,0.5336467449136795,-1.359693240335332e-05,0.5336467449136795,-1.3594991145051448e-05
0.5344408620936105,-4.196025929806909e-06,0.5344408620936105,-1.2925099675188392e-05,0.5344408620936105,-1.4602725081202902e-05,0.5344408620936105,-1.7623500324811607e-05
0.5352349792735416,-2.853475051991343e-06,0.5352349792735416,-1.29244e-05,0.5352349792735416,-1.3595826289189283e-05,0.5352349792735416,-1.6952817526126192e-05
0.5360290964534726,-3.525074373062413e-06,0.5360290964534726,-1.2252918542312528e-05,0.5360290964534726,-1.2924155626937586e-05,0.5360290964534726,-1.6281237084625056e-05
0.5368232136334037,-5.53703767346134e-06,0.5368232136334037,-1.158226410884622e-05,0.5368232136334037,-1.091219232653866e-05,0.5368232136334037,-1.493992821769244e-05
0.5376173308133347,-2.855703426972885e-06,0.5376173308133347,-1.2587851211724651e-05,0.5376173308133347,-1.09102e-05,0.5376173308133347,-1.594485121172465e-05
0.5384114479932659,-2.1825067724449306e-06,0.5384114479932659,-9.569510469049962e-06,0.5384114479932659,-9.903800158667396e-06,0.5384114479932659,-1.59457e-05
0.539205565173197,-5.537191575277794e-06,0.539205565173197,-1.2251529261317517e-05,0.539205565173197,-9.567593837543451e-06,0.539205565173197,-1.4603635372079443e-05
0.539999682353128,-6.2101514043659815e-06,0.539999682353128,-1.1581868599634607e-05,0.539999682353128,-1.1245228504914068e-05,0.539999682353128,-1.158280869835574e-05
0.5407937995330591,-5.874804756614701e-06,0.5407937995330591,-9.903523783073504e-06,0.5407937995330591,-1.2923976216926496e-05,0.5407937995330591,-1.12459847566147e-05
0.5415879167129901,-8.560028293752182e-06,0.5415879167129901,-1.1581423932939515e-05,0.5415879167129901,-1.191740564023629e-05,0.5415879167129901,-1.0406788028285468e-05
0.5423820338929212,-6.210334021684102e-06,0.5423820338929212,-1.0910264481922756e-05,0.5423820338929212,-1.225305731916184e-05,0.5423820338929212,-1.091017134041908e-05
0.5431761510728523,-4.196102414700553e-06,0.5431761510728523,-1.2420831905826298e-05,0.5431761510728523,-1.3595927585299448e-05,0.5431761510728523,-1.0238831905826298e-05
0.5439702682527834,-3.525447981234244e-06,0.5439702682527834,-1.2588545458669604e-05,0.5439702682527834,-1.4266582018765756e-05,0.5439702682527834,-1.0406545458669602e-05
0.5447643854327144,-6.879221642025008e-06,0.5447643854327144,-1.0911499182857569e-05,0.5447643854327144,-1.42672e-05,0.5447643854327144,-1.2587011100985872e-05
0.5455585026126455,-4.868891753949134e-06,0.5455585026126455,-1.1077994821993925e-05,0.5455585026126455,-1.359622058673782e-05,0.5455585026126455,-1.4266148533155453e-05
0.5463526197925765,-4.86763e-06,0.5463526197925765,-9.903662649524604e-06,0.5463526197925765,-1.3092441149191991e-05,0.5463526197925765,-1.6280435499002166e-05
0.5471467369725076,-4.196452413927497e-06,0.5471467369725076,-1.2252221551253758e-05,0.5471467369725076,-1.258886679388218e-05,0.5471467369725076,-1.2925512069637489e-05
0.5479408541524387,-5.203145008716566e-06,0.5479408541524387,-1.4434599194736913e-05,0.5479408541524387,-1.3595615008716564e-05,0.5479408541524387,-1.225312332752229e-05
0.5487349713323698,-3.189212722989911e-06,0.5487349713323698,-1.2420872723350963e-05,0.5487349713323698,-1.35958e-05,0.5487349713323698,-1.4267127276649036e-05
0.5495290885123009,-4.8675739366426686e-06,0.5495290885123009,-1.107823080893363e-05,0.5495290885123009,-1.2253168184505184e-05,0.5495290885123009,-1.4602638370999118e-05
0.5503232056922319,-4.364583111542936e-06,0.5503232056922319,-1.2251826123022945e-05,0.5503232056922319,-1.3762090715327656e-05,0.5503232056922319,-1.2255347853867036e-05
0.551117322872163,-6.208845430465227e-06,0.551117322872163,-1.091134514768206e-05,0.551117322872163,-1.7956321370853274e-05,0.551117322872163,-1.4265482278476911e-05
0.551911440052094,-6.545883256282089e-06,0.551911440052094,-1.1245663256282089e-05,0.551911440052094,-1.5611657206025376e-05,0.551911440052094,-1.862822233166716e-05
0.5527055572320251,-5.875094401030708e-06,0.5527055572320251,-1.023936160154606e-05,0.5527055572320251,-1.7623076796907877e-05,0.5527055572320251,-1.6282710403607476e-05
0.5534996744119562,-7.552531713436484e-06,0.5534996744119562,-1.0406631150840624e-05,0.5534996744119562,-1.3597451887752436e-05,0.5534996744119562,-1.1751258394224516e-05
0.5542937915918873,-7.55322e-06,0.5542937915918873,-1.3259351043188094e-05,0.5542937915918873,-1.4602635657669705e-05,0.5542937915918873,-1.0574808386261413e-05
0.5550879087718184,-6.881897141815084e-06,0.5550879087718184,-1.275655786210616e-05,0.5550879087718184,-1.0910624279982964e-05,0.5550879087718184,-1.1245822858184915e-05
0.5558820259517494,-7.888899028031787e-06,0.5558820259517494,-1.0238832916885185e-05,0.5558820259517494,-9.064008125656486e-06,0.5558820259517494,-9.735243541557409e-06
0.5566761431316805,-7.552736486780056e-06,0.5566761431316805,-1.1246202196887714e-05,0.5566761431316805,-1.3596192846952035e-05,0.5566761431316805,-9.23189131633223e-06
0.5574702603116115,-4.87012874181054e-06,0.5574702603116115,-1.2922838280553252e-05,0.5574702603116115,-1.577576981124051e-05,0.5574702603116115,-1.0237862977636209e-05
0.5582643774915427,-8.221978075011193e-06,0.5582643774915427,-1.5104689277765855e-05,0.5582643774915427,-1.6281005169698845e-05,0.5582643774915427,-1.2586857641531616e-05
0.5590584946714737,-8.22461e-06,0.5590584946714737,-1.6280652190153225e-05,0.5590584946714737,-1.4268481905185847e-05,0.5590584946714737,-1.4433824952068e-05
0.5598526118514048,-5.540342851516967e-06,0.5598526118514048,-1.3597112861294007e-05,0.5598526118514048,-1.1582912861294007e-05,0.5598526118514048,-1.628049738341776e-05
0.5606467290313358,-5.70681272118313e-06,0.5606467290313358,-1.225345825783659e-05,0.5606467290313358,-1.2252770871081704e-05,0.5606467290313358,-1.6616985435540854e-05
0.5614408462112669,-6.210322468115185e-06,0.5614408462112669,-1.0574825106282715e-05,0.5614408462112669,-1.2924269957486912e-05,0.5614408462112669,-1.4938925106282716e-05
0.5622349633911979,-5.539060955646905e-06,0.5622349633911979,-1.0238815478053986e-05,0.5622349633911979,-1.4267138087784052e-05,0.5622349633911979,-1.5609969043892027e-05
0.563029080571129,-4.196366089197495e-06,0.563029080571129,-1.1245729889516604e-05,0.563029080571129,-1.2253e-05,0.563029080571129,-1.76242e-05
0.5638231977510602,-5.537674956130301e-06,0.5638231977510602,-9.569103794745942e-06,0.5638231977510602,-1.2253e-05,0.5638231977510602,-1.76242e-05
0.5646173149309912,-4.868209288831827e-06,0.5646173149309912,-1.191527249771668e-05,0.5646173149309912,-1.9632027822849908e-05,0.5646173149309912,-1.5276327510911394e-05
0.5654114321109223,-3.525790404853425e-06,0.5654114321109223,-1.1581840101213355e-05,0.5654114321109223,-1.4941961416986988e-05,0.5654114321109223,-1.52743e-05
0.5662055492908533,-2.853821110345067e-06,0.5662055492908533,-8.729779737414958e-06,0.5662055492908533,-1.275773865545208e-05,0.5662055492908533,-1.5609809441989248e-05
0.5669996664707844,-3.860106959776175e-06,0.5669996664707844,-8.895939492595926e-06,0.5669996664707844,-1.4937683382743934e-05,0.5669996664707844,-1.5274441014808148e-05
0.5677937836507154,-3.524921471605592e-06,0.5677937836507154,-1.1916476758274478e-05,0.5677937836507154,-1.49386e-05,0.5677937836507154,-1.443522869263799e-05
0.5685879008306466,-6.210084574025459e-06,0.5685879008306466,-1.2924274214791175e-05,0.5685879008306466,-1.3260309642014704e-05,0.5685879008306466,-1.426722095795655e-05
