X [s].2,L DELTOID ANTERIOR: EMG 3 [V],X [s].3,L BICEPS BRACHII: EMG 4 [V],X [s].4,L DELTOID POSTERIOR: EMG 5 [V],X [s].7,L DELTOID MEDIUS: EMG 8 [V]
0.0,-3.18914e-06,0.0,-1.42672e-05,0.0,-4.36408e-06,0.0,-1.12459e-05
0.000794117179931,-6.5461165333174735e-06,0.000794117179931,-1.4938599306659365e-05,0.000794117179931,-1.930268457320183e-05,0.000794117179931,-1.3595797573307774e-05
0.0015882343598621,-4.867641921235018e-06,0.0015882343598621,-1.2924414305567249e-05,0.0015882343598621,-2.0309792847216372e-05,0.0015882343598621,-1.4267195231477585e-05
0.0023823515397932,-5.539022514439524e-06,0.0023823515397932,-1.1581598698160024e-05,0.0023823515397932,-2.030979544356008e-05,0.0023823515397932,-1.3931501952759964e-05
0.0031764687197242,-1.6784962239404855e-06,0.0031764687197242,-1.0910201082427236e-05,0.0031764687197242,-1.7959903788495326e-05,0.0031764687197242,-1.4938598376359143e-05
0.0039705858996553,-3.860518733294673e-06,0.0039705858996553,-1.2252993066611102e-05,0.0039705858996553,-2.098118439987498e-05,0.0039705858996553,-1.4267203466694448e-05
0.0047647030795864,-8.392420506183072e-06,0.0047647030795864,-1.0910211701923325e-05,0.0047647030795864,-2.299528244798647e-05,0.0047647030795864,-1.3595805850961662e-05
0.0055588202595174,-9.56740857382372e-06,0.0055588202595174,-9.567410219409474e-06,0.0055588202595174,-1.9638401535856503e-05,0.0055588202595174,-1.4602899122349038e-05
0.0063529374394485,-5.203344071489582e-06,0.0063529374394485,-1.0238797835177772e-05,0.0063529374394485,-2.433808484634113e-05,0.0063529374394485,-1.191730865941789e-05
0.0071470546193796,-5.539027725439157e-06,0.0071470546193796,-1.0574497725439156e-05,0.0071470546193796,-3.071635678334399e-05,0.0071470546193796,-1.2588695450878314e-05
0.0079411717993107,-6.54610960001992e-06,0.0079411717993107,-1.2588679199833303e-05,0.0079411717993107,-3.1723489599916654e-05,0.0079411717993107,-1.577776706691907e-05
0.0087352889792417,-4.196233020575915e-06,0.0087352889792417,-1.1581601294538044e-05,0.0087352889792417,-2.903790345210145e-05,0.0087352889792417,-1.6281399352666708e-05
0.0095294061591728,-1.8463513654376144e-06,0.0095294061591728,-1.0238806494563416e-05,0.0095294061591728,-2.2323932472817087e-05,0.0095294061591728,-1.4602908118204272e-05
0.0103235233391039,-4.196210267127099e-06,0.0103235233391039,-8.560383999449007e-06,0.0103235233391039,-1.7288411202071943e-05,0.0103235233391039,-1.4267160534254195e-05
0.0111176405190349,-3.5249670152545635e-06,0.0111176405190349,-1.107813424883932e-05,0.0111176405190349,-1.426733701576475e-05,0.0111176405190349,-1.292426298423525e-05
0.011911757698966,-6.210276958909919e-06,0.011911757698966,-1.1749364244920567e-05,0.011911757698966,-1.6952656958377296e-05,0.011911757698966,-1.0238943041622705e-05
0.0127058748788971,-6.21042e-06,0.0127058748788971,-8.22472150561917e-06,0.0127058748788971,-1.5610042479054194e-05,0.0127058748788971,-1.1245868140709356e-05
0.0134999920588282,-7.721054893173177e-06,0.0134999920588282,-9.903083214736866e-06,0.0134999920588282,-1.2253033570726271e-05,0.0134999920588282,-1.3931473143418983e-05
0.0142941092387592,-7.888890472024876e-06,0.0142941092387592,-1.091017656640658e-05,0.0142941092387592,-1.577781367024574e-05,0.0142941092387592,-1.6281419528091468e-05
0.0150882264186903,-6.2103753327207214e-06,0.0150882264186903,-8.896088167988223e-06,0.0150882264186903,-1.69528e-05,0.0150882264186903,-1.795988883309702e-05
0.0158823435986214,-4.867725360371638e-06,0.0158823435986214,-1.124573311881701e-05,0.0158823435986214,-1.69528e-05,0.0158823435986214,-1.762422384027045e-05
0.0166764607785524,-4.86763e-06,0.0166764607785524,-1.2588633677673182e-05,0.0166764607785524,-1.561006632232682e-05,0.0166764607785524,-1.4938732644653634e-05
0.0174705779584835,-3.357021930508523e-06,0.0174705779584835,-1.023886522523548e-05,0.0174705779584835,-1.1246021132580178e-05,0.0174705779584835,-1.1917383861017048e-05
0.0182646951384146,-5.8747045860622605e-06,0.0182646951384146,-9.903102055199862e-06,0.0182646951384146,-1.0238806165599584e-05,0.0182646951384146,-9.903112331199169e-06
0.0190588123183456,-7.21749396269983e-06,0.0190588123183456,-1.0910179170190888e-05,0.0190588123183456,-9.567404792508942e-06,0.0190588123183456,-1.15815713589543e-05
0.0198529294982767,-5.539054936852226e-06,0.0198529294982767,-9.567472342687695e-06,0.0198529294982767,-9.231734936852226e-06,0.0198529294982767,-9.735328576993609e-06
0.0206470466782078,-6.210374923548172e-06,0.0206470466782078,-1.1245787307863343e-05,0.0206470466782078,-9.903054923548172e-06,0.0206470466782078,-1.158147603858254e-05
0.0214411638581389,-6.21042e-06,0.0214411638581389,-1.023884583612682e-05,0.0214411638581389,-1.040667707966094e-05,0.0214411638581389,-2.030940275356756e-05
0.0222352810380699,-8.393742556674572e-07,0.0222352810380699,-8.89604206383329e-06,0.0222352810380699,-1.242075190627974e-05,0.0222352810380699,-2.5009387778135588e-05
0.023029398218001,-5.035487533226091e-07,0.023029398218001,-1.1917293220078566e-05,0.023029398218001,-1.4938594349934567e-05,0.023029398218001,-1.863131431299044e-05
0.0238235153979321,-4.5318714159195e-06,0.0238235153979321,-1.3595806509363824e-05,0.0238235153979321,-1.82956e-05,0.0238235153979321,-8.560238397385758e-06
0.0246176325778631,-1.5107226215137943e-06,0.0246176325778631,-1.3931665243847984e-05,0.0246176325778631,-1.829551737807601e-05,0.0246176325778631,-4.867795243027589e-06
0.0254117497577942,-3.524702579516018e-06,0.0254117497577942,-1.7959645157766808e-05,0.0254117497577942,-1.6281527421116596e-05,0.0254117497577942,-8.895755159032036e-06
0.0262058669377253,-6.210308185726943e-06,0.0262058669377253,-1.695284193050853e-05,0.0262058669377253,-1.795983011581912e-05,0.0262058669377253,-5.5391697675290606e-06
0.0269999841176564,-6.21042e-06,0.0269999841176564,-1.091032085461458e-05,0.0269999841176564,-1.8295593285854747e-05,0.0269999841176564,-1.4434822076750792e-05
0.0277941012975874,-3.860529451454333e-06,0.0277941012975874,-9.063865211167496e-06,0.0277941012975874,-1.3931495611634665e-05,0.0277941012975874,-2.5680898902908663e-05
0.0285882184775185,-3.52483e-06,0.0285882184775185,-1.2253031241012206e-05,0.0285882184775185,-1.124593905126526e-05,0.0285882184775185,-2.5009253978192143e-05
0.0293823356574496,-3.52483e-06,0.0293823356574496,-1.359569121231848e-05,0.0293823356574496,-1.2924264015398104e-05,0.0293823356574496,-1.4435856698941176e-05
0.0301764528373806,-4.531870187037005e-06,0.0301764528373806,-1.393148006234567e-05,0.0301764528373806,-1.1581679750617324e-05,0.0301764528373806,-4.868198218397145e-06
0.0309705700173117,-6.210356625560511e-06,0.0309705700173117,-1.0910314074670704e-05,0.0309705700173117,-1.3763517614625664e-05,0.0309705700173117,6.377845390613552e-06
0.0317646871972428,-6.21042e-06,0.0317646871972428,-1.057450541227249e-05,0.0317646871972428,-1.963830528442533e-05,0.0317646871972428,7.721048350910045e-06
0.0325588043771738,-6.881812598381395e-06,0.0325588043771738,-1.1245890747962964e-05,0.0325588043771738,-2.3666737933853448e-05,0.0325588043771738,-2.8534733073663995e-06
0.0333529215571049,-5.5389662165381565e-06,0.0333529215571049,-9.56748745004753e-06,0.0333529215571049,-3.054875945797603e-05,0.0333529215571049,-8.896319806433047e-06
0.034147038737036,-3.1893212657093847e-06,0.034147038737036,-1.2420579895330204e-05,0.034147038737036,-3.642284683765499e-05,0.034147038737036,-2.030891956357909e-05
0.0349411559169671,-3.5248113647735662e-06,0.0349411559169671,-1.292437204355199e-05,0.0349411559169671,-3.3737849086252526e-05,0.0349411559169671,-3.642240548803616e-05
0.0357352730968981,-3.52483e-06,0.0357352730968981,-1.3595777253818708e-05,0.0357352730968981,-2.467410707344744e-05,0.0357352730968981,-2.769539570035679e-05
0.0365293902768292,-4.364069724000692e-06,0.0365293902768292,-9.903145214396953e-06,0.0365293902768292,-1.0574672635563936e-05,0.0365293902768292,-1.4938756193965047e-05
0.0373235074567603,-6.881804238637931e-06,0.0373235074567603,-8.89601945677968e-06,0.0373235074567603,3.86053e-06,0.0373235074567603,-3.5247354317336883e-06
0.0381176246366913,-5.203340413670737e-06,0.0381176246366913,-9.903068759297995e-06,0.0381176246366913,3.860300900484624e-06,0.0381176246366913,6.546161654372739e-06
0.0389117418166224,-5.539005406497303e-06,0.0389117418166224,-8.896083779775488e-06,0.0389117418166224,-3.5242889458710687e-06,0.0389117418166224,7.888811626721814e-06
0.0397058589965535,-9.567201994127066e-06,0.0397058589965535,-1.0910095997063531e-05,0.0397058589965535,-7.888684660218263e-06,0.0397058589965535,-1.2587642636210178e-05
0.0404999761764846,-6.210520711878824e-06,0.0404999761764846,-1.2252959715128468e-05,0.0404999761764846,-8.394574944955214e-07,0.0404999761764846,-3.50798252314019e-05
0.0412940933564156,-4.86764123402418e-06,0.0412940933564156,-1.3595788765892158e-05,0.0412940933564156,1.5945559574103763e-05,0.0412940933564156,-5.387944272332685e-05
0.0420882105363467,-4.196216639323297e-06,0.0420882105363467,-1.4938644536031233e-05,0.0420882105363467,2.2659749195041296e-05,0.0420882105363467,-5.28724265162118e-05
0.0428823277162778,-3.189231659800779e-06,0.0428823277162778,-1.829529446429692e-05,0.0428823277162778,3.390447645994541e-05,0.0428823277162778,-4.733400412935936e-05
0.0436764448962088,-1.0072514150313264e-06,0.0436764448962088,-1.5610186357815682e-05,0.0436764448962088,4.21296292757199e-05,0.0436764448962088,-3.910947071734096e-05
0.0444705620761399,-1.1749319844595515e-06,0.0444705620761399,-1.4602948096108112e-05,0.0444705620761399,2.668873747365772e-05,0.0444705620761399,-1.561112223774691e-05
0.045264679256071,-4.531842306810053e-06,0.045264679256071,-1.829550353720371e-05,0.045264679256071,5.2038912346915774e-06,0.045264679256071,3.188648918240781e-06
0.046058796436002,-3.860533013308389e-06,0.046058796436002,-1.6952806026616778e-05,0.046058796436002,-1.6952700561137336e-05,0.046058796436002,-1.5609915627634397e-05
0.0468529136159331,-5.706878632967945e-06,0.0468529136159331,-2.0309776978752145e-05,0.0468529136159331,-3.3737861148734975e-05,0.0468529136159331,-2.8366620861551236e-05
0.0476470307958642,-6.210376122207803e-06,0.0476470307958642,-1.896711700744586e-05,0.0476470307958642,-4.313648094787898e-05,0.0476470307958642,-3.541558571090924e-05
0.0484411479757953,-6.881776014291611e-06,0.0484411479757953,-1.6617253949979362e-05,0.0484411479757953,-4.179458797141678e-05,0.0484411479757953,-4.179408213577031e-05
0.0492352651557263,-5.874764190489824e-06,0.0492352651557263,-1.359593257146947e-05,0.0492352651557263,-3.1052571365224786e-05,0.0492352651557263,-2.266043961930665e-05
0.0500293823356574,-3.860574804611683e-06,0.0500293823356574,-1.225302986988942e-05,0.0500293823356574,-2.1988501619529124e-05,0.0500293823356574,-1.8468029801717567e-06
0.0508234995155885,-7.217517952191783e-06,0.0508234995155885,-1.0910200819125728e-05,0.0508234995155885,-1.3595805119535791e-05,0.0508234995155885,7.217514470925745e-06
0.0516176166955195,-9.567399414468786e-06,0.0516176166955195,-9.735249414468786e-06,0.0516176166955195,-1.0910383482541048e-05,0.0516176166955195,1.695269414468786e-05
0.0524117338754506,-9.063901925228938e-06,0.0524117338754506,-9.231751925228938e-06,0.0524117338754506,-1.9637673296031763e-05,0.0524117338754506,1.191771925228937e-05
0.0532058510553817,-1.0238727582181352e-05,0.0532058510553817,-1.0238737927672066e-05,0.0532058510553817,-2.198815516313e-05,0.0532058510553817,3.189677963051734e-06
0.0539999682353128,-7.721170711378797e-06,0.0539999682353128,-7.217640853814562e-06,0.0539999682353128,-1.091064313358679e-05,0.0539999682353128,-2.181825148151877e-06
0.0547940854152438,-5.706906993597516e-06,0.0547940854152438,-4.531979324613023e-06,0.0547940854152438,-5.539128649042382e-06,0.0547940854152438,-3.524805337785321e-06
0.0555882025951749,-3.5248190305301244e-06,0.0555882025951749,-9.903104387812784e-06,0.0555882025951749,3.8605365816865e-06,0.0555882025951749,5.5390464541999125e-06
0.056382319775106,-1.6818810028309534e-07,0.056382319775106,-1.124576435911906e-05,0.056382319775106,5.874516539688724e-06,0.056382319775106,1.0573991349726878e-05
0.057176436955037,2.517526786476621e-06,0.057176436955037,-8.224849865402356e-06,0.057176436955037,3.189353212808853e-06,0.057176436955037,8.39263323590339e-06
0.0579705541349681,-8.390521097219715e-07,0.0579705541349681,-9.735172749011016e-06,0.0579705541349681,-1.6765510954869926e-07,0.0579705541349681,1.1581415804045271e-05
0.0587646713148992,-4.867484483565012e-06,0.0587646713148992,-9.903093937152356e-06,0.0587646713148992,-2.1819672418186286e-06,0.0587646713148992,6.378457958752608e-06
0.0595587884948302,-5.539020272546354e-06,0.0595587884948302,-1.1245880545092709e-05,0.0595587884948302,-5.538981362876652e-06,0.0595587884948302,-1.5105257029991885e-06
0.0603529056747613,-8.39236405394726e-07,0.0603529056747613,-1.3595778412041672e-05,0.0603529056747613,-6.546076824283412e-06,0.0603529056747613,-5.539068378378224e-06
0.0611470228546924,5.034175665372355e-07,0.0611470228546924,-1.0574793476602554e-05,0.0611470228546924,-5.041349504853032e-07,0.0611470228546924,-1.0909678266731756e-05
0.0619411400346235,8.392206502242042e-07,0.0619411400346235,-9.567486049025331e-06,0.0619411400346235,-8.224026954552584e-06,0.0619411400346235,-2.232303811003938e-05
0.0627352572145545,-5.538686343810995e-06,0.0627352572145545,-1.0238763826066993e-05,0.0627352572145545,-2.0644830772810484e-05,0.0627352572145545,-3.0380265906338395e-05
0.0635293743944856,-8.224523404285075e-06,0.0635293743944856,-1.1749351291159836e-05,0.0635293743944856,-2.970900774051008e-05,0.0635293743944856,-2.803087577181484e-05
0.0643234915744167,-9.567395752583758e-06,0.0643234915744167,-9.56743315141478e-06,0.0643234915744167,-3.743031807735661e-05,0.0643234915744167,-2.4338139180394663e-05
0.0651176087543477,-1.0238811101112638e-05,0.0651176087543477,-7.553221850185439e-06,0.0651176087543477,-4.213017594703814e-05,0.0651176087543477,-2.1652500089986253e-05
0.0659117259342788,-1.1245806079592328e-05,0.0659117259342788,-7.72105434659872e-06,0.0659117259342788,-3.9948303498879536e-05,0.0659117259342788,-1.2589545283669054e-05
0.0667058431142099,-1.3092067739284476e-05,0.0667058431142099,-1.1581323448811085e-05,0.0667058431142099,-3.57522005970939e-05,0.0667058431142099,-4.196831199202298e-06
0.067499960294141,-1.2924408390181514e-05,0.067499960294141,-8.224777853131364e-06,0.067499960294141,-3.239506785363137e-05,0.067499960294141,-8.224408576642372e-06
0.068294077474072,-1.0238876181377717e-05,0.068294077474072,-1.1917195250889309e-05,0.068294077474072,-3.2730590477327786e-05,0.068294077474072,-1.2252885728217093e-05
0.0690881946540031,-9.903102259981295e-06,0.0690881946540031,-1.3931486440112216e-05,0.0690881946540031,-3.575187966016832e-05,0.0690881946540031,-1.5609977400187026e-05
0.0698823118339342,-7.553480865870887e-06,0.0698823118339342,-1.4267162733129836e-05,0.0698823118339342,-3.910852733129838e-05,0.0698823118339342,-1.6952650932519352e-05
0.0706764290138652,-6.881880017744428e-06,0.0706764290138652,-1.2253180053233288e-05,0.0706764290138652,-3.810189002661664e-05,0.0706764290138652,-1.762413998225557e-05
0.0714705461937963,-5.2034437302288844e-06,0.0714705461937963,-1.1245968238543876e-05,0.0714705461937963,-3.122046629332861e-05,0.0714705461937963,-2.0309618030549665e-05
0.0722646633737274,-1.8464948344425168e-06,0.0722646633737274,-1.2420745810089838e-05,0.0722646633737274,-2.568115547989733e-05,0.0722646633737274,-1.9806223227541716e-05
0.0730587805536585,-2.182031779200554e-06,0.0730587805536585,-1.4938538342779727e-05,0.0730587805536585,-2.098131508874339e-05,0.0730587805536585,-2.36666054620308e-05
0.0738528977335895,-2.18204e-06,0.0738528977335895,-1.1245910539193818e-05,0.0738528977335895,-1.460291820406205e-05,0.0738528977335895,-2.719158993971774e-05
0.0746470149135206,-2.853368069677356e-06,0.0746470149135206,-1.0574571930322643e-05,0.0746470149135206,-1.3595907895483966e-05,0.0746470149135206,-2.8366374127292117e-05
0.0754411320934517,-2.1820974139989035e-06,0.0754411320934517,-1.1245842586001096e-05,0.0754411320934517,-1.712029858078145e-05,0.0754411320934517,-2.58490152982202e-05
0.0762352492733827,-1.510682888617058e-06,0.0762352492733827,-1.12459e-05,0.0762352492733827,-1.896688205310912e-05,0.0762352492733827,-2.5680910725348232e-05
0.0770293664533138,-1.51064e-06,0.0770293664533138,-9.56748090766558e-06,0.0770293664533138,-1.661719927132324e-05,0.0770293664533138,-2.165277017518678e-05
0.0778234836332449,-5.538946973085836e-06,0.0778234836332449,-4.867726864561437e-06,0.0778234836332449,-1.5945713837853378e-05,0.0778234836332449,-1.493873837853378e-05
0.078617600813176,-5.874718281405462e-06,0.078617600813176,-3.692685327654331e-06,0.078617600813176,-1.5610001031162868e-05,0.078617600813176,-1.8967007218037677e-05
0.079411717993107,-4.196403316229836e-06,0.079411717993107,-8.895472718551678e-06,0.079411717993107,-1.6616996009642555e-05,0.079411717993107,-2.6015872077823608e-05
0.0802058351730381,-6.210255570056259e-06,0.0802058351730381,-9.567355189746632e-06,0.0802058351730381,-1.561008221538005e-05,0.0802058351730381,-2.6352272594873318e-05
0.0809999523529692,-5.539070284271519e-06,0.0809999523529692,-9.56741e-06,0.0809999523529692,-1.4938640284871531e-05,0.0809999523529692,-1.6282004267072855e-05
0.0817940695329002,-6.210394240893994e-06,0.0817940695329002,-1.1917209842169807e-05,0.0817940695329002,-1.5106393562045924e-05,0.0817940695329002,-4.196693669663141e-06
0.0825881867128313,-6.881808765892159e-06,0.0825881867128313,-1.4938549446514716e-05,0.0825881867128313,-1.5274297190636422e-05,0.0825881867128313,2.517627659423564e-06
0.0833823038927624,-6.210501247040185e-06,0.0833823038927624,-1.1749785929491443e-05,0.0833823038927624,-1.359600311760046e-05,0.0833823038927624,5.874313767219306e-06
0.0841764210726934,-8.224409805324862e-06,0.0841764210726934,-1.3595616482333751e-05,0.0841764210726934,-1.5777583126328127e-05,0.0841764210726934,3.189406925570903e-06
0.0849705382526245,-6.210576618745911e-06,0.0849705382526245,-1.426714779349217e-05,0.0849705382526245,-2.030944760218427e-05,0.0849705382526245,-8.559396390000875e-06
0.0857646554325556,-3.86066188337975e-06,0.0857646554325556,-1.4938562318874004e-05,0.0857646554325556,-1.6617307246192972e-05,0.0857646554325556,-1.5609604348738285e-05
0.0865587726124866,-1.8464094668875955e-06,0.0865587726124866,-1.1581715778720805e-05,0.0865587726124866,-1.7624165266383758e-05,0.0865587726124866,-1.7624130532767517e-05
0.0873528897924177,-4.19619979386044e-06,0.0873528897924177,-1.15816e-05,0.0873528897924177,-1.0238894933985463e-05,0.0873528897924177,3.1888724595394865e-06
0.0881470069723488,-4.19623e-06,0.0881470069723488,-1.3595564069132489e-05,0.0881470069723488,2.5162457782004508e-06,0.0881470069723488,6.210066106041409e-06
0.0889411241522799,-1.5108965116214562e-06,0.0889411241522799,-1.35958e-05,0.0889411241522799,6.715733517278121e-07,0.0889411241522799,-1.5272247907028353e-05
0.0897352413322109,-4.196031589689536e-06,0.0897352413322109,-1.35958e-05,0.0897352413322109,-3.188854785077122e-06,0.0897352413322109,-2.6351481561809755e-05
0.090529358512142,-2.8535101542384877e-06,0.090529358512142,-1.35958e-05,0.090529358512142,8.390355364486158e-07,0.090529358512142,-2.4338205232141408e-05
0.0913234756920731,-2.517750275999312e-06,0.0913234756920731,-1.4602869172002063e-05,0.0913234756920731,6.881635032808265e-06,0.0913234756920731,-2.43381e-05
0.0921175928720041,-2.1820430133083887e-06,0.0921175928720041,-1.8463365347402335e-05,0.0921175928720041,1.1749912260630878e-06,0.0921175928720041,-2.4505998492896997e-05
0.0929117100519352,-1.5107160402048235e-06,0.0929117100519352,-2.064525286367152e-05,0.0929117100519352,5.2028737599036215e-06,0.0929117100519352,-2.601642891520196e-05
0.0937058272318663,-2.8533169512027526e-06,0.0937058272318663,-1.7288807621993117e-05,0.0937058272318663,1.258802323436422e-05,0.0937058272318663,-2.500959228659793e-05
0.0944999444117974,-3.692621251929043e-06,0.0944999444117974,-1.42674114955755e-05,0.0944999444117974,5.203846987084511e-06,0.0944999444117974,-2.6016529501474835e-05
0.0952940615917284,-2.8534805915600094e-06,0.0952940615917284,-1.4938567526365057e-05,0.0952940615917284,-1.8459990282841008e-06,0.0952940615917284,-2.7023651289547584e-05
0.0960881787716595,-4.19619410376113e-06,0.0960881787716595,-1.5106395514273357e-05,0.0960881787716595,-5.538931284875288e-06,0.0960881787716595,-2.635231794825309e-05
0.0968822959515906,-4.19623e-06,0.0968822959515906,-1.2924685864554628e-05,0.0968822959515906,-1.1748586377335414e-05,0.0968822959515906,-1.8296655510979504e-05
0.0976764131315216,-2.8535868909759405e-06,0.0976764131315216,-1.1246083615087333e-05,0.0976764131315216,-1.5273914402846987e-05,0.0976764131315216,-1.6449401982065684e-05
0.0984705303114527,-5.03528850875501e-06,0.0984705303114527,-1.0910229460326547e-05,0.0984705303114527,-1.9638017015754864e-05,0.0984705303114527,-1.6281414725775378e-05
0.0992646474913838,-7.217375716029664e-06,0.0992646474913838,-1.1917233407093122e-05,0.0992646474913838,-2.299507803025608e-05,0.0992646474913838,-1.292462197635626e-05
0.1000587646713148,-7.21752e-06,0.1000587646713148,-1.158169945844088e-05,0.1000587646713148,-2.433770216623648e-05,0.1000587646713148,-1.2253198916881758e-05
0.1008528818512459,-6.546219905634075e-06,0.1008528818512459,-1.0406874827419534e-05,0.1008528818512459,-2.5009400094365923e-05,0.1008528818512459,-1.091039981126815e-05
0.101646999031177,-4.867632048060026e-06,0.101646999031177,-9.903100614482676e-06,0.101646999031177,-2.6352298361542217e-05,0.101646999031177,-7.888913686517809e-06
0.1024411162111081,-7.217495433205926e-06,0.1024411162111081,-8.560260866411854e-06,0.1024411162111081,-2.836635259923556e-05,0.1024411162111081,-6.881476066346589e-06
0.1032352333910391,-7.049324631232373e-06,0.1032352333910391,-8.225004707163002e-06,0.1032352333910391,-2.736018941432601e-05,0.1032352333910391,-4.53183132320925e-06
0.1040293505709702,-5.875312134212398e-06,0.1040293505709702,-9.566965899340702e-06,0.1040293505709702,-3.004662836908409e-05,0.1040293505709702,-4.198302460923997e-06
0.1048234677509013,-7.216621001145015e-06,0.1048234677509013,-8.560984249141239e-06,0.1048234677509013,-3.3735227753148794e-05,0.1048234677509013,-8.892863517397468e-06
0.1056175849308323,-7.553044510428753e-06,0.1056175849308323,-7.553746463486169e-06,0.1056175849308323,-3.37377e-05,0.1056175849308323,-6.2118239113424025e-06
0.1064117021107634,-7.721007026815674e-06,0.1064117021107634,-8.895506218277158e-06,0.1064117021107634,-3.726117758188796e-05,0.1064117021107634,-4.532559728091491e-06
0.1072058192906945,-5.5395266183033935e-06,0.1072058192906945,-1.0238494389611732e-05,0.1072058192906945,-4.3135962933214434e-05,0.1072058192906945,-3.1894456103882667e-06
0.1079999364706256,-5.53903e-06,0.1079999364706256,-8.224771158980634e-06,0.1079999364706256,-4.078758801974421e-05,0.1079999364706256,6.71088111460381e-07
0.1087940536505566,-5.874765366478268e-06,0.1087940536505566,-9.903213416195669e-06,0.1087940536505566,-3.1722694748389256e-05,0.1087940536505566,-1.511161712472974e-06
0.1095881708304877,-6.546083886779134e-06,0.1095881708304877,-1.15816e-05,0.1095881708304877,-1.9804141557168235e-05,0.1095881708304877,-9.232360035824068e-06
0.1103822880104188,-6.379183268705137e-06,0.1103822880104188,-1.1582208848221649e-05,0.1103822880104188,-1.0234659853856802e-05,0.1103822880104188,-1.225275646071134e-05
0.1111764051903498,-8.896694384339522e-06,0.1111764051903498,-1.3260271097359064e-05,0.1111764051903498,1.1787041266092077e-06,0.1111764051903498,-1.158502194718128e-05
0.1119705223702809,-1.0237993262376794e-05,0.1119705223702809,-1.3595598314092218e-05,0.1119705223702809,8.555872928052573e-06,0.1119705223702809,-1.829156628184437e-05
0.112764639550212,-8.896619582330976e-06,0.112764639550212,-1.393134760328234e-05,0.112764639550212,1.1915776037363052e-05,0.112764639550212,-2.0644433222976367e-05
0.1135587567301431,-7.050235691268998e-06,0.1135587567301431,-1.2253514267575318e-05,0.1135587567301431,2.9032654501370272e-05,0.1135587567301431,-1.527594565624102e-05
0.1143528739100741,-6.881846655156236e-06,0.1143528739100741,-1.46025268278127e-05,0.1143528739100741,5.3540008363069927e-05,0.1143528739100741,-1.3092546524971235e-05
0.1151469910900052,-5.03550071899212e-06,0.1151469910900052,-1.46029e-05,0.1151469910900052,6.428617945248385e-05,0.1151469910900052,-1.7959845376345666e-05
0.1159411082699363,-6.209962241800016e-06,0.1159411082699363,-1.2420594014400773e-05,0.1159411082699363,6.0759591851155615e-05,0.1159411082699363,-2.098055913470194e-05
0.1167352254498673,-2.8529634035234456e-06,0.1167352254498673,-1.0909818725658175e-05,0.1167352254498673,4.749443703913181e-05,0.1167352254498673,-1.6279779571979715e-05
0.1175293426297984,-1.1750846802809304e-06,0.1175293426297984,-9.567265319719067e-06,0.1175293426297984,2.331971500704437e-05,0.1175293426297984,-1.0575802122528373e-05
0.1183234598097295,-1.510411897014085e-06,0.1183234598097295,-9.231938102985916e-06,0.1183234598097295,-2.835648075816159e-06,0.1183234598097295,-1.3593747073126764e-05
0.1191175769896605,-3.1882457646666266e-06,0.1191175769896605,-1.258691153466084e-05,0.1191175769896605,-2.3823422106281103e-05,0.1191175769896605,-2.500341925300892e-05
0.1199116941695916,-2.1824279115922477e-06,0.1199116941695916,-1.527326556908734e-05,0.1199116941695916,-3.3062744162996574e-05,0.1199116941695916,-4.64859245912164e-05
0.1207058113495227,-5.538232395761106e-06,0.1207058113495227,-1.225371784595336e-05,0.1207058113495227,-3.3905300610226044e-05,0.1207058113495227,-5.28709845474318e-05
0.1214999285294538,-5.203360217458893e-06,0.1214999285294538,-1.2924339565082214e-05,0.1214999285294538,-3.0381017278817706e-05,0.1214999285294538,-3.776745977664882e-05
0.1222940457093848,-1.5107366287185286e-06,0.1222940457093848,-1.4267209659993428e-05,0.1222940457093848,-3.373750674256294e-05,0.1222940457093848,-1.913395933475428e-05
0.1230881628893159,-3.189690947467377e-06,0.1230881628893159,-1.4434345755267685e-05,0.1230881628893159,-3.0380562262107404e-05,0.1230881628893159,-4.530793666489091e-06
0.123882280069247,-5.87507523644667e-06,0.123882280069247,-1.1245307942782873e-05,0.123882280069247,-2.971095777008446e-05,0.123882280069247,1.0071592025471243e-06
0.124676397249178,-6.88148451182621e-06,0.124676397249178,-9.567745483176944e-06,0.124676397249178,-3.441077744086895e-05,0.124676397249178,1.1781271276573143e-06
0.1254705144291091,-6.210830078359902e-06,0.1254705144291091,-1.0238389927747908e-05,0.1254705144291091,-3.7764049608200495e-05,0.1254705144291091,7.549324267796559e-06
0.1262646316090402,-5.87487575421309e-06,0.1262646316090402,-1.2923153966295284e-05,0.1262646316090402,-3.810164424578691e-05,0.1262646316090402,1.3592996433443757e-05
0.1270587487889713,-2.854395892766744e-06,0.1270587487889713,-9.73626900143586e-06,0.1270587487889713,-4.0115362733937015e-05,0.1270587487889713,1.1582237266062985e-05
0.1278528659689023,-3.860359998264333e-06,0.1278528659689023,-1.225257499312876e-05,0.1278528659689023,-4.0451643332192094e-05,0.1278528659689023,1.091031333561581e-05
0.1286469831488334,-3.524837124605313e-06,0.1286469831488334,-1.426715725236812e-05,0.1286469831488334,-4.2465857252368125e-05,0.1286469831488334,1.1245892875394688e-05
0.1294411003287645,-3.8607845103201584e-06,0.1294411003287645,-1.0574584837194582e-05,0.1294411003287645,-3.8101078883846056e-05,0.1294411003287645,3.0197841461141103e-06
0.1302352175086955,-5.874628040939522e-06,0.1302352175086955,-1.1247003541598597e-05,0.1302352175086955,-3.239287684040257e-05,0.1302352175086955,-8.898952774856849e-06
0.1310293346886266,-5.536768775858668e-06,0.1310293346886266,-1.527338135339345e-05,0.1310293346886266,-2.500695615594149e-05,0.1310293346886266,-1.964009588200594e-05
0.1318234518685577,-1.7155228702935097e-07,0.1318234518685577,-1.3093704500151225e-05,0.1318234518685577,-1.8971166143698163e-05,0.1318234518685577,-2.3663922593850343e-05
0.1326175690484888,1.1742111877219037e-06,0.1326175690484888,-8.898287524460822e-06,0.1326175690484888,-2.601277375847161e-05,0.1326175690484888,-2.467325338631366e-05
0.1334116862284198,-1.5095787170274827e-06,0.1334116862284198,-1.124497137443521e-05,0.1334116862284198,-2.9036706047764404e-05,0.1334116862284198,-3.239184878873126e-05
0.1342058034083509,-4.866798820906783e-06,0.1342058034083509,-1.158151688184308e-05,0.1342058034083509,-2.4674880536039937e-05,0.1342058034083509,-5.152496228981531e-05
0.134999920588282,-5.203296425045674e-06,0.134999920588282,-1.0910267149908653e-05,0.134999920588282,-2.46738e-05,0.134999920588282,-4.951570144972596e-05
0.135794037768213,-5.874640159234282e-06,0.135794037768213,-1.0238768063979114e-05,0.135794037768213,-2.78632155689734e-05,0.135794037768213,-3.038006127482559e-05
0.1365881549481441,-4.196262755725435e-06,0.1365881549481441,-9.567803066753731e-06,0.1365881549481441,-3.239417937404043e-05,0.1365881549481441,-1.6952275908393043e-05
0.1373822721280752,-4.363792363366344e-06,0.1373822721280752,-1.1582060218613848e-05,0.1373822721280752,-2.8696562356253416e-05,0.1373822721280752,-1.4265704289504993e-05
0.1381763893080062,-3.525158781629452e-06,0.1381763893080062,-1.2924235609185274e-05,0.1381763893080062,-1.2243629762736273e-05,0.1381763893080062,-9.902606832452778e-06
0.1389705064879373,-4.195813215095761e-06,0.1389705064879373,-1.258890839245212e-05,0.1389705064879373,6.869941679890774e-06,0.1389705064879373,-8.89663517114866e-06
0.1397646236678684,-6.880547111071512e-06,0.1397646236678684,-1.560856799462329e-05,0.1397646236678684,2.131005820601289e-05,0.1397646236678684,-1.2251408887654463e-05
0.1405587408477994,-6.546229568505931e-06,0.1405587408477994,-1.3596457411035587e-05,0.1405587408477994,2.534388521056764e-05,0.1405587408477994,-1.0071712178969146e-05
0.1413528580277305,-5.5392100741219534e-06,0.1413528580277305,-1.023940025303339e-05,0.1413528580277305,2.7694679822876625e-05,0.1413528580277305,-5.539840345171206e-06
0.1421469752076616,-7.553157107707834e-06,0.1421469752076616,-9.903110482100736e-06,0.1421469752076616,1.9974341085194447e-05,0.1421469752076616,-8.22452614381861e-06
0.1429410923875927,-8.224570938898155e-06,0.1429410923875927,-8.895951408347232e-06,0.1429410923875927,8.894935824586257e-06,0.1429410923875927,-1.1246095305509226e-05
0.1437352095675237,-7.889087208608899e-06,0.1437352095675237,-8.392504302152225e-06,0.1437352095675237,-3.363625301718569e-07,0.1437352095675237,-1.2925994877480083e-05
0.1445293267474548,-8.559206214217294e-06,0.1445293267474548,-8.559620135427072e-06,0.1445293267474548,-2.85344e-06,0.1445293267474548,-1.896644810505363e-05
0.1453234439273859,-5.876598469247403e-06,0.1453234439273859,-6.882994040656642e-06,0.1453234439273859,-2.85344e-06,0.1453234439273859,-1.7625139238121014e-05
0.146117561107317,-8.223311071124862e-06,0.146117561107317,-1.0236944390479868e-05,0.146117561107317,-1.5113822482301454e-06,0.146117561107317,-8.900834607968331e-06
0.146911678287248,-8.392391990572528e-06,0.146911678287248,-1.1581055924580223e-05,0.146911678287248,-8.22188963505651e-06,0.146911678287248,-6.547072127932811e-06
0.1477057954671791,-6.210982089164308e-06,0.1477057954671791,-1.0407002651903332e-05,0.1477057954671791,-2.332710862397994e-05,0.1477057954671791,-1.3593984016452568e-05
0.1484999126471102,-8.224388406401674e-06,0.1484999126471102,-1.0238818471725684e-05,0.1484999126471102,-2.467365227020101e-05,0.1484999126471102,-1.9637735215904533e-05
0.1492940298270412,-9.063841083870753e-06,0.1492940298270412,-8.56031e-06,0.1492940298270412,-1.8966646899296352e-05,0.1492940298270412,-2.1988136060213182e-05
0.1500881470069723,-8.559999232074293e-06,0.1500881470069723,-8.560620767925708e-06,0.1500881470069723,-9.56815584561376e-06,0.1500881470069723,-1.762134092545583e-05
0.1508822641869034,-6.882043394316056e-06,0.1508822641869034,-1.0238911697158027e-05,0.1508822641869034,-1.3598592428950709e-05,0.1508822641869034,-2.176734421593856e-06
0.1516763813668344,-7.552656368601051e-06,0.1516763813668344,-1.0575144150170227e-05,0.1516763813668344,-2.1989749289912345e-05,0.1516763813668344,1.3761264984415328e-05
0.1524704985467655,-6.37901111003497e-06,0.1524704985467655,-1.1916453017102893e-05,0.1524704985467655,-2.5007594351557384e-05,0.1524704985467655,8.899080275156487e-06
0.1532646157266966,-4.8683611065781466e-06,0.1532646157266966,-1.1581762469203968e-05,0.1532646157266966,-2.2996274815223812e-05,0.1532646157266966,-6.8741839812914585e-06
0.1540587329066277,-5.538804147997271e-06,0.1540587329066277,-1.242051770181607e-05,0.1540587329066277,-2.0981877522369227e-05,0.1540587329066277,-2.5192080312899525e-06
0.1548528500865587,-3.525210296792567e-06,0.1548528500865587,-1.1246121830355271e-05,0.1548528500865587,-2.09812e-05,0.1548528500865587,9.565128228684992e-06
0.1556469672664898,-1.8464091975686429e-06,0.1556469672664898,-1.4267075443634373e-05,0.1556469672664898,-1.896708303757708e-05,0.1556469672664898,1.1078037720168145e-05
0.1564410844464209,-4.196015779425018e-06,0.1564410844464209,-1.5274282142879003e-05,0.1564410844464209,-2.098084296393577e-05,0.1564410844464209,3.187747565730837e-06
0.157235201626352,-2.181784259572954e-06,0.157235201626352,-1.5106357389292366e-05,0.157235201626352,-1.7621983585504974e-05,0.157235201626352,-9.90454919575326e-06
0.158029318806283,-1.1762188904018775e-06,0.158029318806283,-1.493765765674904e-05,0.158029318806283,-8.894461872679419e-06,0.158029318806283,-1.561e-05
0.1588234359862141,-4.361817460471612e-06,0.1588234359862141,-1.2590367139616876e-05,0.1588234359862141,-5.038218858038697e-06,0.1588234359862141,-1.561e-05
0.1596175531661451,-3.860813379329473e-06,0.1596175531661451,-1.3595233241341054e-05,0.1596175531661451,-1.3590982568281851e-05,0.1596175531661451,-1.93006218849172e-05
0.1604116703460762,-3.0216384367241324e-06,0.1604116703460762,-1.141460596703652e-05,0.1604116703460762,-1.7958088107445086e-05,0.1604116703460762,-2.1987184989196976e-05
0.1612057875260073,-4.195915586658785e-06,0.1612057875260073,-1.4937656738568395e-05,0.1612057875260073,-2.1651611835374485e-05,0.1612057875260073,-2.6015522028986666e-05
0.1619999047059384,-2.517941448525791e-06,0.1619999047059384,-1.49386e-05,0.1619999047059384,-2.3330798562275803e-05,0.1619999047059384,-2.131746404723094e-05
0.1627940218858694,-1.6786750643212824e-07,0.1627940218858694,-1.393151850651482e-05,0.1627940218858694,-2.870215836171986e-05,0.1627940218858694,-2.098140356890662e-05
0.1635881390658005,-8.400691476376997e-07,0.1635881390658005,-1.4602723610619992e-05,0.1635881390658005,-2.719039468132724e-05,0.1635881390658005,-2.8367087964600025e-05
0.1643822562457316,-5.53903e-06,0.1643822562457316,-1.3596233358650378e-05,0.1643822562457316,-2.0309095776056755e-05,0.1643822562457316,-3.172122486708552e-05
0.1651763734256627,-5.5385569471888015e-06,0.1651763734256627,-1.4939388421351996e-05,0.1651763734256627,-1.812746349708029e-05,0.1651763734256627,-2.467175015145659e-05
0.1659704906055937,-4.532575296989373e-06,0.1659704906055937,-1.661602450501771e-05,0.1659704906055937,-1.76245226164573e-05,0.1659704906055937,-2.031259622287918e-05
0.1667646077855248,-8.893854262787375e-06,0.1667646077855248,-1.3932826613595128e-05,0.1667646077855248,-1.76242e-05,0.1667646077855248,-2.702038351540947e-05
0.1675587249654559,-4.1978579620273615e-06,0.1675587249654559,-9.568921681994473e-06,0.1675587249654559,-1.1583693102942375e-05,0.1675587249654559,-2.920504413995125e-05
0.1683528421453869,-2.853706959188733e-06,0.1683528421453869,-7.553620439777146e-06,0.1683528421453869,-6.21148784073112e-06,0.1683528421453869,-2.903793338008757e-05
0.169146959325318,-5.874565227200127e-06,0.169146959325318,-8.560258409237468e-06,0.169146959325318,1.845927271850636e-06,0.169146959325318,-2.635243757673282e-05
0.1699410765052491,-4.196359384443958e-06,0.1699410765052491,-1.124596469222198e-05,0.1699410765052491,3.1891076538890104e-06,0.1699410765052491,-2.0645079500557135e-05
0.1707351936851801,-5.538907166029628e-06,0.1707351936851801,-1.1916890553432092e-05,0.1707351936851801,2.851965997234252e-06,0.1707351936851801,-1.6275749656877752e-05
0.1715293108651112,-5.035283099211601e-06,0.1715293108651112,-1.0239587603153594e-05,0.1715293108651112,-3.191896595396568e-06,0.1715293108651112,6.880901133564393e-06
0.1723234280450423,-4.532292274111888e-06,0.1723234280450423,-1.225155090355245e-05,0.1723234280450423,-1.0233728191211186e-05,0.1723234280450423,4.533620605327738e-06
0.1731175452249733,-7.719243373767806e-06,0.1731175452249733,-1.2253e-05,0.1731175452249733,-1.86264930737899e-05,0.1731175452249733,-2.381835265814161e-05
0.1739116624049044,-1.090884403696844e-05,0.1739116624049044,-8.394101434975007e-06,0.1739116624049044,-2.4335673567139476e-05,0.1739116624049044,-2.836457311434068e-05
0.1747057795848355,-9.567782759796867e-06,0.1747057795848355,-8.22465659532161e-06,0.1747057795848355,-3.373509066198985e-05,0.1747057795848355,-1.3599900360541566e-05
0.1754998967647666,-7.5534818833435026e-06,0.1754998967647666,-1.3259445289690955e-05,0.1754998967647666,-4.045082705118768e-05,0.1754998967647666,-1.176554950102016e-06
0.1762940139446976,-5.87472e-06,0.1762940139446976,-1.560993514661826e-05,0.1762940139446976,-3.843733491866466e-05,0.1762940139446976,-2.18231415135127e-06
0.1770881311246287,-5.8745536847577385e-06,0.1770881311246287,-1.1917494028118772e-05,0.1770881311246287,-2.9035377535369343e-05,0.1770881311246287,-1.779413439187867e-05
0.1778822483045598,-4.867420035665679e-06,0.1778822483045598,-1.3091832578051245e-05,0.1778822483045598,-1.376029308987979e-05,0.1778822483045598,-3.071965444718199e-05
0.1786763654844909,-4.197387477889439e-06,0.1786763654844909,-1.1916528345008847e-05,0.1786763654844909,-3.1905289697894946e-06,0.1786763654844909,-4.1125337776487895e-05
0.1794704826644219,-6.712331614492752e-06,0.1794704826644219,-1.0239892261343074e-05,0.1794704826644219,-6.2084539425971954e-06,0.1794704826644219,-4.598753247464191e-05
0.180264599844353,-4.365264284324029e-06,0.180264599844353,-1.02388e-05,0.180264599844353,5.868629399224769e-06,0.180264599844353,-3.676365254015896e-05
0.181058717024284,-3.189558739908888e-06,0.181058717024284,-1.1245541077023304e-05,0.181058717024284,2.9365225173310828e-05,0.181058717024284,-1.9644501654964605e-05
0.1818528342042151,-2.8535100977896286e-06,0.1818528342042151,-1.35953093154726e-05,0.1818528342042151,3.071611960884149e-05,0.1818528342042151,-2.856944881129005e-06
0.1826469513841462,-4.196147782264144e-06,0.1826469513841462,-1.2253082218348143e-05,0.1826469513841462,1.2925489386990036e-05,0.1826469513841462,6.545544474012138e-06
0.1834410685640773,-4.867687977231111e-06,0.1834410685640773,-1.1581788421683474e-05,0.1834410685640773,-2.854570552552559e-06,0.1834410685640773,6.042236632648165e-06
0.1842351857440083,-5.5389514681818524e-06,0.1842351857440083,-1.3763168086696914e-05,0.1842351857440083,-1.5947113572726658e-05,0.1842351857440083,2.1800374479946126e-06
0.1850293029239394,-5.203969565790119e-06,0.1850293029239394,-1.1917555827840191e-05,0.1850293029239394,-2.198919535933704e-05,0.1850293029239394,-6.380892227741253e-06
0.1858234201038705,-6.880595660560546e-06,0.1858234201038705,-1.2588210261306505e-05,0.1858234201038705,-2.4336385987515667e-05,0.1858234201038705,-1.3255080192980233e-05
0.1866175372838016,-7.552828730912323e-06,0.1866175372838016,-1.3595213096368487e-05,0.1866175372838016,-1.897013009442481e-05,0.1866175372838016,-8.227544512329907e-06
0.1874116544637326,-5.875450456706228e-06,0.1874116544637326,-1.1246922639388718e-05,0.1874116544637326,-4.873765823276787e-06,0.1874116544637326,-5.540198722026281e-06
0.1882057716436637,-6.210323451861347e-06,0.1882057716436637,-1.1581503451861346e-05,0.1882057716436637,6.542837377665904e-06,0.1882057716436637,-6.210226906598718e-06
0.1889998888235948,-5.8747670049360496e-06,0.1889998888235948,-7.050304563836255e-06,0.1889998888235948,1.728699584484683e-05,0.1889998888235948,-1.090954193369572e-05
0.1897940060035258,-4.867624923466915e-06,0.1897940060035258,-8.22463030605673e-06,0.1897940060035258,2.064541877547064e-05,0.1897940060035258,-7.888907461809069e-06
0.1905881231834569,-4.19602167567489e-06,0.1905881231834569,-1.091009583706173e-05,0.1905881231834569,9.898829335045236e-06,0.1905881231834569,-7.5536366486502205e-06
0.191382240363388,-2.853846495659708e-06,0.191382240363388,-1.0238241067332684e-05,0.191382240363388,-1.7630094200688376e-05,0.191382240363388,-1.0239917871389124e-05
0.192176357543319,-4.196909395269823e-06,0.192176357543319,-8.392988422041174e-06,0.192176357543319,-3.709907830908144e-05,0.192176357543319,-1.3931047066821853e-05
0.1929704747232501,-5.705871881673726e-06,0.1929704747232501,-9.566633680607254e-06,0.1929704747232501,-4.68234677053898e-05,0.1929704747232501,-1.2925065416622352e-05
0.1937645919031812,-3.525951515846922e-06,0.1937645919031812,-1.2251619671617687e-05,0.1937645919031812,-5.018517458309741e-05,0.1937645919031812,-9.569135411762826e-06
0.1945587090831123,-2.182531990286725e-06,0.1945587090831123,-1.1581845996975332e-05,0.1945587090831123,-5.2200362009074e-05,0.1945587090831123,-1.1748600531813811e-05
0.1953528262630433,-4.531415815192685e-06,0.1953528262630433,-1.2588479634144812e-05,0.1953528262630433,-5.186547345528506e-05,0.1953528262630433,-1.124601017198698e-05
0.1961469434429744,-5.203282175835059e-06,0.1961469434429744,-1.4938432615422708e-05,0.1961469434429744,-4.6158906505402e-05,0.1961469434429744,-1.2924280439587648e-05
0.1969410606229055,-4.1963837859572185e-06,0.1969410606229055,-1.3595812811742498e-05,0.1969410606229055,-3.5415405435276225e-05,0.1969410606229055,-1.3594492818218375e-05
0.1977351778028366,-6.21042e-06,0.1977351778028366,-1.3763562424035287e-05,0.1977351778028366,-2.5008597930520595e-05,0.1977351778028366,3.525957610362225e-06
0.1985292949827676,-6.210669121295832e-06,0.1985292949827676,-1.359455439352084e-05,0.1985292949827676,-2.0982943811966078e-05,0.1985292949827676,8.55557671764205e-06
0.1993234121626987,-6.881323554762164e-06,0.1993234121626987,-1.0241282226189178e-05,0.1993234121626987,-2.5677424957276947e-05,0.1993234121626987,-4.1867975848462e-06
0.2001175293426297,-4.197821930386498e-06,0.2001175293426297,-1.02388e-05,0.2001175293426297,-3.138441713533238e-05,0.2001175293426297,-2.2648655514899835e-05
0.2009116465225608,-4.5317805511633205e-06,0.2009116465225608,-6.88331447946308e-06,0.2009116465225608,-2.7361193386040157e-05,0.2009116465225608,-3.339721763722627e-05
0.2017057637024919,-5.203130188731849e-06,0.2017057637024919,-9.9022008552454e-06,0.2017057637024919,-1.2928695912504854e-05,0.2017057637024919,-3.709360103802517e-05
0.202499880882423,-2.853792535520244e-06,0.202499880882423,-1.1581348187842524e-05,0.202499880882423,2.3475985183683044e-06,0.202499880882423,-3.172430579890392e-05
0.203293998062354,-4.196226723108839e-06,0.203293998062354,-1.4938591807711088e-05,0.203293998062354,1.5609967640556413e-05,0.203293998062354,-1.0910250791947216e-05
0.2040881152422851,-4.19623e-06,0.2040881152422851,-1.4602583286913796e-05,0.2040881152422851,2.668605105556563e-05,0.2040881152422851,-1.511638837106869e-06
0.2048822324222162,-4.19608259923556e-06,0.2048822324222162,-1.2421733552810944e-05,0.2048822324222162,1.3255776261806492e-05,0.2048822324222162,-8.39486754289195e-06
0.2056763496021472,-3.6929014366808383e-06,0.2056763496021472,-1.560926187773054e-05,0.2056763496021472,-1.5159544627500728e-06,0.2056763496021472,-1.6618723868992815e-05
0.2064704667820783,-4.195892261780588e-06,0.2064704667820783,-1.3932625794064709e-05,0.2064704667820783,-1.3587694309562675e-05,0.2064704667820783,-2.0307323253057643e-05
0.2072645839620094,-4.19623e-06,0.2072645839620094,-1.275711567334879e-05,0.2072645839620094,-2.6345615883341423e-05,0.2072645839620094,-1.6954558991856927e-05
0.2080587011419405,-2.350584954143031e-06,0.2080587011419405,-1.1582042227121033e-05,0.2080587011419405,-3.105033101623676e-05,0.2080587011419405,-1.0241327119661768e-05
0.2088528183218715,-4.195807531995343e-06,0.2088528183218715,-9.56787087439491e-06,0.2088528183218715,-2.232589713229321e-05,0.2088528183218715,-6.882588123228804e-06
0.2096469355018026,-1.5108581558109129e-06,0.2096469355018026,-1.0910090922500705e-05,0.2096469355018026,-1.2253818079213924e-05,0.2096469355018026,-8.224500922500704e-06
0.2104410526817337,-3.5250304619588e-06,0.2104410526817337,-1.15815109055012e-05,0.2104410526817337,-6.881909093835301e-06,0.2104410526817337,-4.195739982247099e-06
0.2112351698616647,-6.54619181682728e-06,0.2112351698616647,-1.023887181682728e-05,0.2112351698616647,-8.22618996806085e-06,0.2112351698616647,3.1884218340804453e-06
0.2120292870415958,-6.882062414751516e-06,0.2120292870415958,-1.0575590866381826e-05,0.2120292870415958,-1.56107878298895e-05,0.2120292870415958,-1.7318210684149993e-07
0.2128234042215269,-7.552716848217825e-06,0.2128234042215269,-1.3593535816980215e-05,0.2128234042215269,-1.7790364794178278e-05,0.2128234042215269,-1.4927530697513109e-05
0.2136175214014579,-8.895200607888867e-06,0.2136175214014579,-1.560878590279177e-05,0.2136175214014579,-1.5779014097208233e-05,0.2136175214014579,-3.30553731854028e-05
0.214411638581389,-8.72823640316605e-06,0.214411638581389,-1.3596716837992607e-05,0.214411638581389,-6.8858693359375865e-06,0.214411638581389,-3.8435055098686376e-05
0.2152057557613201,-1.0238335318993208e-05,0.2152057557613201,-1.0911026105036169e-05,0.2152057557613201,-4.197056101960114e-06,0.2152057557613201,-3.541712936816569e-05
0.2159998729412512,-9.567517438253598e-06,0.2159998729412512,-9.567624878107432e-06,0.2159998729412512,-8.223965364077467e-06,0.2159998729412512,-2.971021323875759e-05
0.2167939901211822,-7.04970132530793e-06,0.2167939901211822,-1.023879164667579e-05,0.2167939901211822,-1.7288387228567958e-05,0.2167939901211822,-2.0309916947036585e-05
0.2175881073011133,-6.882001464561669e-06,0.2175881073011133,-1.1581826832391337e-05,0.2175881073011133,-1.9637719502825997e-05,0.2175881073011133,-1.493798755930039e-05
0.2183822244810444,-8.223186363268585e-06,0.2183822244810444,-1.3260194909680872e-05,0.2183822244810444,-1.459981544385334e-05,0.2183822244810444,-1.040608307576547e-05
0.2191763416609755,-3.1884186440913844e-06,0.2191763416609755,-1.359435728818277e-05,0.2191763416609755,-3.6905880807578826e-06,0.2191763416609755,-8.221291779151335e-06
0.2199704588409065,-1.5117825604256122e-06,0.2199704588409065,-1.0241085120851224e-05,0.2199704588409065,1.1716265951868228e-06,0.2199704588409065,-5.088037520910935e-07
0.2207645760208376,-2.8527229732755424e-06,0.2207645760208376,-9.56776850802244e-06,0.2207645760208376,-6.877517861012407e-06,0.2207645760208376,7.548917856740575e-06
0.2215586932007686,-3.524570576906902e-06,0.2215586932007686,-1.1916392009514231e-05,0.2215586932007686,-2.0472346631167163e-05,0.2215586932007686,4.365312274182103e-06
0.2223528103806997,-2.853600338163708e-06,0.2223528103806997,-1.124606034055186e-05,0.2223528103806997,-2.04776e-05,0.2223528103806997,-1.6676670629006388e-07
0.2231469275606308,-5.538784984325632e-06,0.2231469275606308,-1.2252908118779984e-05,0.2231469275606308,-1.2253750358735103e-05,0.2231469275606308,-1.29232361756836e-05
0.2239410447405619,-6.88182e-06,0.2239410447405619,-1.091033241290478e-05,0.2239410447405619,-1.5274129754836714e-05,0.2239410447405619,-3.5081351220181605e-05
0.2247351619204929,-6.881546164711868e-06,0.2247351619204929,-1.3260236918663716e-05,0.2247351619204929,-1.225026163896148e-05,0.2247351619204929,-5.018669462200442e-05
0.225529279100424,-5.53950141290366e-06,0.225529279100424,-1.3931912471809075e-05,0.225529279100424,1.1787113172720711e-06,0.225529279100424,-4.917261093478802e-05
0.2263233962803551,-6.880800290940933e-06,0.2263233962803551,-1.5105507785898392e-05,0.2263233962803551,1.1909142297151635e-05,0.2263233962803551,-2.8717750603019047e-05
0.2271175134602862,-8.223787178007194e-06,0.2271175134602862,-1.4267714236936797e-05,0.2271175134602862,3.865466950339944e-06,0.2271175134602862,-4.211246533539142e-06
0.2279116306402172,-6.882444650658301e-06,0.2279116306402172,-1.3931656163827548e-05,0.2279116306402172,-2.179229065059814e-06,0.2279116306402172,1.1238716496496045e-05
0.2287057478201483,-7.720803448437642e-06,0.2287057478201483,-1.3260313241249886e-05,0.2287057478201483,2.5162473176029343e-06,0.2287057478201483,1.2588273517500228e-05
0.2294998650000794,-5.203758078967381e-06,0.2294998650000794,-1.2588814154844704e-05,0.2294998650000794,5.202873382321445e-06,0.2294998650000794,-2.1795286036180653e-06
0.2302939821800104,-4.196252602659276e-06,0.2302939821800104,-1.3260084931560484e-05,0.2302939821800104,5.539022465780241e-06,0.2302939821800104,1.846249589811762e-06
0.2310880993599415,-4.196061965320004e-06,0.2310880993599415,-1.091036803593138e-05,0.2310880993599415,1.0061127926572925e-06,0.2310880993599415,1.3259259822845864e-05
0.2318822165398726,-2.852982239072813e-06,0.2318822165398726,-1.225263379125825e-05,0.2318822165398726,-6.886855337472624e-06,0.2318822165398726,6.542824134960268e-06
0.2326763337198036,-1.17564458954777e-06,0.2326763337198036,-1.09102e-05,0.2326763337198036,-2.5350977634291717e-05,0.2326763337198036,-5.543821196331636e-06
0.2334704508997347,-2.8522806732135424e-06,0.2334704508997347,-1.09102e-05,0.2334704508997347,-3.909939352035105e-05,0.2334704508997347,-1.6944916598572856e-05
0.2342645680796658,-2.182405228353096e-06,0.2342645680796658,-1.1078008665712712e-05,0.2342645680796658,-4.04509695432938e-05,0.2342645680796658,-1.9804647806698355e-05
0.2350586852595969,-1.510906141947912e-06,0.2350586852595969,-1.0910266555306902e-05,0.2350586852595969,-3.810273149681769e-05,0.2350586852595969,-1.359826179319826e-05
0.2358528024395279,-2.8531058889145445e-06,0.2358528024395279,-1.2252665888914544e-05,0.2358528024395279,-3.843741647222864e-05,0.2358528024395279,-9.232795858539563e-06
0.236646919619459,-2.182107969137543e-06,0.236646919619459,-1.3595664061724911e-05,0.236646919619459,-3.642350390741263e-05,0.236646919619459,-7.721222929547123e-06
0.2374410367993901,-8.393393515248418e-07,0.2374410367993901,-1.0238768883195826e-05,0.2374410367993901,-3.306606662049269e-05,0.2374410367993901,-1.762463563711229e-05
0.2382351539793211,-2.8537655072428355e-06,0.2382351539793211,-9.568191220097806e-06,0.2382351539793211,-2.802780533491734e-05,0.2382351539793211,-2.7024383578978887e-05
0.2390292711592522,-4.5311284975908665e-06,0.2390292711592522,-1.3595170228373148e-05,0.2390292711592522,-1.258194447823267e-05,0.2390292711592522,-3.054837099833716e-05
0.2398233883391833,-2.183847969354129e-06,0.2398233883391833,-1.1750820591864073e-05,0.2398233883391833,7.202281397860688e-06,0.2398233883391833,-2.987771656487085e-05
0.2406175055191144,-1.5110581290511223e-06,0.2406175055191144,-1.057523169470087e-05,0.2406175055191144,8.559473748125475e-06,0.2406175055191144,-2.7025477079605865e-05
0.2414116226990454,-3.188342393385155e-06,0.2414116226990454,-6.212493767694795e-06,0.2414116226990454,2.5206113695577383e-06,0.2414116226990454,-2.7694780957354065e-05
0.2422057398789765,-5.873840181589153e-06,0.2422057398789765,-5.539249952964671e-06,0.2422057398789765,5.042078661013942e-07,0.2422057398789765,-3.004423015315736e-05
0.2429998570589076,-6.042539782541107e-06,0.2429998570589076,-5.874659566882481e-06,0.2429998570589076,-7.048310220110695e-06,0.2429998570589076,-3.0380639565082213e-05
0.2437939742388386,-5.539046337248341e-06,0.2437939742388386,-1.1245725733205815e-05,0.2437939742388386,-1.560972226191149e-05,0.2437939742388386,-2.9037943566860767e-05
0.2445880914187697,-2.8535559533108643e-06,0.2445880914187697,-1.1581329440739487e-05,0.2445880914187697,-2.4338254605949645e-05,0.2445880914187697,-2.3665656421353594e-05
0.2453822085987008,-3.860265418557177e-06,0.2453822085987008,-9.232591944272849e-06,0.2453822085987008,-2.56809e-05,0.2453822085987008,-1.4601488887587133e-05
0.2461763257786318,-2.852614614634397e-06,0.2461763257786318,-1.258925025854954e-05,0.2461763257786318,-2.5681862952461693e-05,0.2461763257786318,-9.230540704680074e-06
0.2469704429585629,-8.406573075726066e-07,0.2469704429585629,-1.3930559125482205e-05,0.2469704429585629,-2.8029153469593857e-05,0.2469704429585629,-6.380269351343505e-06
0.247764560138494,-2.8523241732919283e-06,0.247764560138494,-1.5609070141640034e-05,0.247764560138494,-2.232706151842389e-05,0.247764560138494,-4.868466866984154e-06
0.2485586773184251,-4.19568429018644e-06,0.2485586773184251,-1.1247673570102068e-05,0.2485586773184251,-1.8297237100992683e-05,0.2485586773184251,-4.53206642846939e-06
0.2493527944983561,-2.853787538479009e-06,0.2493527944983561,-9.064424751646002e-06,0.2493527944983561,-1.82956e-05,0.2493527944983561,-1.5114219648129967e-06
0.2501469116782872,-4.5317432907913374e-06,0.2501469116782872,-1.0238669303887645e-05,0.2501469116782872,-1.8966925315871588e-05,0.2501469116782872,1.1746412657110842e-06
0.2509410288582183,-6.545985788204782e-06,0.2509410288582183,-1.1581514592394829e-05,0.2509410288582183,-2.0981322007749212e-05,0.2509410288582183,6.210407798861625e-06
0.2517351460381494,-2.8542426727544877e-06,0.2517351460381494,-9.23195697552474e-06,0.2517351460381494,-2.4338223488682005e-05,0.2517351460381494,5.873979071586515e-06
0.2525292632180804,-7.217853439366834e-06,0.2525292632180804,-1.0574833442677754e-05,0.2525292632180804,-2.500933329521572e-05,0.2525292632180804,1.8452285310293264e-06
0.2533233803980115,-8.223825100670953e-06,0.2533233803980115,-1.1580815092877216e-05,0.2533233803980115,-2.450639241459271e-05,0.2533233803980115,-1.5080236585115283e-06
0.2541174975779426,-1.1076294387510609e-05,0.2541174975779426,-6.884793895638461e-06,0.2541174975779426,-2.735759444446021e-05,0.2541174975779426,-1.0233277052765065e-05
0.2549116147578736,-1.0407025757636828e-05,0.2549116147578736,-7.552894242363171e-06,0.2549116147578736,-3.0043696969452685e-05,0.2549116147578736,-1.7956153787176467e-05
0.2557057319378047,-8.225346695007162e-06,0.2557057319378047,-8.895556660912856e-06,0.2557057319378047,-3.2729693315073515e-05,0.2557057319378047,-2.433594665706058e-05
0.2564998491177358,-8.560246207586793e-06,0.2564998491177358,-1.0574181039834248e-05,0.2564998491177358,-3.105241896206604e-05,0.2564998491177358,-2.836573449104152e-05
0.2572939662976669,-9.063838626184062e-06,0.2572939662976669,-8.896081245628668e-06,0.2572939662976669,-3.1219992873272375e-05,0.2572939662976669,-3.105198600631499e-05
0.2580880834775979,-1.023894117596791e-05,0.2580880834775979,-1.1581952939919775e-05,0.2580880834775979,-2.63519823540722e-05,0.2580880834775979,-3.440832353217649e-05
0.258882200657529,-1.15810061421651e-05,0.258882200657529,-1.4938430325610837e-05,0.258882200657529,-2.3330575839298823e-05,0.258882200657529,-2.702217295576926e-05
0.2596763178374601,-9.232381052828125e-06,0.2596763178374601,-1.4265925012020226e-05,0.2596763178374601,-2.164937892723482e-05,0.2596763178374601,-2.098173680548131e-05
0.2604704350173911,-1.090900714759855e-05,0.2604704350173911,-1.1080366397531985e-05,0.2604704350173911,-1.3601525725639113e-05,0.2604704350173911,-2.232294578346048e-05
0.2612645521973222,-9.568167311029925e-06,0.2612645521973222,-1.091029469278288e-05,0.2612645521973222,-4.201531199768802e-06,0.2612645521973222,-2.8698602745818655e-05
0.2620586693772533,-8.896289571929624e-06,0.2620586693772533,-1.2923561284211127e-05,0.2620586693772533,5.1994160096413264e-06,0.2620586693772533,-2.501103764561293e-05
0.2628527865571843,-9.567229514475537e-06,0.2628527865571843,-1.29244e-05,0.2628527865571843,2.181593300477512e-05,0.2628527865571843,-2.1653502400740348e-05
0.2636469037371154,-1.258833370517552e-05,0.2636469037371154,-1.2253081399119302e-05,0.2636469037371154,2.90370249655294e-05,0.2636469037371154,-3.862687073024364e-06
0.2644410209170465,-1.493857346907107e-05,0.2644410209170465,-1.3763577892209751e-05,0.2644410209170465,2.6351990475130213e-05,0.2644410209170465,2.8030724830351892e-05
0.2652351380969776,-1.3931208065772217e-05,0.2652351380969776,-1.2924516773691112e-05,0.2652351380969776,1.4599513575132503e-05,0.2652351380969776,2.5173517290423784e-05
0.2660292552769086,-1.225321558857414e-05,0.2660292552769086,-1.3595368822851718e-05,0.2660292552769086,-4.871726173275584e-06,0.2660292552769086,2.8485892763480147e-06
0.2668233724568397,-1.2923870022040497e-05,0.2668233724568397,-1.2254059955919003e-05,0.2668233724568397,-1.761413044245031e-05,0.2668233724568397,-1.224107554327292e-05
0.2676174896367708,-1.2421123701413404e-05,0.2676174896367708,-1.4936873763868476e-05,0.2676174896367708,-2.433378447394868e-05,0.2676174896367708,-1.9801344993018832e-05
0.2684116068167018,-8.394454806054455e-06,0.2684116068167018,-1.896500516423396e-05,0.2684116068167018,-2.7357903873175477e-05,0.2684116068167018,-2.634905841663984e-05
0.2692057239966329,-7.217928422413201e-06,0.2692057239966329,-1.762466677244493e-05,0.2692057239966329,-2.4674733544889864e-05,0.2692057239966329,-4.044679888932823e-05
0.269999841176564,-5.539365747542966e-06,0.269999841176564,-1.628166859963461e-05,0.269999841176564,-2.5680698550274044e-05,0.269999841176564,-4.17942314003654e-05
0.270793958356495,-4.196300426824194e-06,0.270793958356495,-1.9302541539645564e-05,0.270793958356495,-2.8702041539645568e-05,0.270793958356495,-3.373812256094516e-05
0.2715880755364261,-4.195974508978896e-06,0.2715880755364261,-2.0981279836484688e-05,0.2715880755364261,-2.4001825152575404e-05,0.2715880755364261,-2.803140679343456e-05
0.2723821927163572,-1.5103140833878984e-06,0.2723821927163572,-2.1819788914392268e-05,0.2723821927163572,-1.7958840763911233e-05,0.2723821927163572,-3.440946664651032e-05
0.2731763098962882,-1.6732557191563944e-07,0.2731763098962882,-1.930178399334859e-05,0.2731763098962882,-1.3591874268902446e-05,0.2731763098962882,-3.59180642933271e-05
0.2739704270762193,1.1739723072320054e-06,0.2739704270762193,-1.6954493476216674e-05,0.2739704270762193,-3.5320877335945484e-06,0.2739704270762193,-3.172652402863969e-05
0.2747645442561504,2.516969253348649e-06,0.2747645442561504,-1.4939756119977028e-05,0.2747645442561504,9.224387941251248e-06,0.2747645442561504,-2.6523186614574752e-05
0.2755586614360815,4.866628000042228e-06,0.2755586614360815,-1.7119669588828472e-05,0.2755586614360815,1.4265052852360168e-05,0.2755586614360815,-2.09835618457741e-05
0.2763527786160125,6.545652001499826e-06,0.2763527786160125,-1.7288453185930102e-05,0.2763527786160125,1.326038080077303e-05,0.2763527786160125,-9.570592405972804e-06
0.2771468957959436,3.5252265121830525e-06,0.2771468957959436,-1.3260628684660597e-05,0.2771468957959436,1.1917476228220198e-05,0.2771468957959436,2.348325981107708e-06
0.2779410129758747,1.1749509722950618e-06,0.2779410129758747,-1.2252961596967284e-05,0.2779410129758747,2.181847985653541e-06,0.2779410129758747,8.391088468673708e-07
0.2787351301558057,1.8465326027253896e-06,0.2787351301558057,-9.903430176100668e-06,0.2787351301558057,-9.569115908214209e-06,0.2787351301558057,-7.554100466323296e-06
0.2795292473357368,3.0204022541732664e-06,0.2795292473357368,-1.1917508882029829e-05,0.2795292473357368,-1.9975875466142107e-05,0.2795292473357368,-1.2923042269917272e-05
0.2803233645156679,1.701299019472643e-07,0.2803233645156679,-1.2588163315496135e-05,0.2803233645156679,-2.5676338261652283e-05,0.2803233645156679,-8.56379844128161e-06
0.2811174816955989,-2.5159869110856395e-06,0.2811174816955989,-9.9048530960949e-06,0.2811174816955989,-2.702282345195255e-05,0.2811174816955989,1.168585059294805e-06
0.2819115988755301,-4.195382036005652e-06,0.2819115988755301,-8.225457963994347e-06,0.2819115988755301,-1.964213101328424e-05,0.2819115988755301,3.859173254577877e-06
0.2827057160554611,-5.538549797573288e-06,0.2827057160554611,-1.040591965675208e-05,0.2827057160554611,-2.299409952969449e-05,0.2827057160554611,5.873999699936059e-06
0.2834998332353922,-3.1896335497282103e-06,0.2834998332353922,-1.0238835264203586e-05,0.2834998332353922,-2.43378179703837e-05,0.2834998332353922,1.2251660363523207e-05
0.2842939504153233,-3.860488072221551e-06,0.2842939504153233,-1.1581516143194118e-05,0.2842939504153233,-2.43381e-05,0.2842939504153233,9.903246749410292e-06
0.2850880675952543,-2.18206857900111e-06,0.2850880675952543,-1.42669142099889e-05,0.2850880675952543,-2.097959957934314e-05,0.2850880675952543,2.180925424064662e-06
0.2858821847751854,-2.518169669793154e-06,0.2858821847751854,-1.0909926574614224e-05,0.2858821847751854,-2.178368270389408e-06,0.2858821847751854,-1.0912543666110711e-05
0.2866763019551165,-4.364526266873153e-06,0.2866763019551165,-9.734813733126846e-06,0.2866763019551165,1.3596055009641802e-05,0.2866763019551165,-2.0981964990943637e-05
0.2874704191350475,-5.538171525439195e-06,0.2874704191350475,-8.561168474560806e-06,0.2874704191350475,1.426670944310811e-05,0.2874704191350475,-2.2993828402389107e-05
0.2882645363149786,-8.223041658413456e-06,0.2882645363149786,-8.224806044158283e-06,0.2882645363149786,9.234650656534388e-06,0.2882645363149786,-1.494330500140018e-05
0.2890586534949096,-6.882405999458767e-06,0.2890586534949096,-9.90236749958553e-06,0.2890586534949096,1.1784560098447373e-06,0.2890586534949096,-8.227540014750013e-06
0.2898527706748408,-7.217423042246901e-06,0.2898527706748408,-9.567506954864872e-06,0.2898527706748408,-1.5098643437516605e-06,0.2898527706748408,-6.211001743630368e-06
0.2906468878547718,-6.881867414550495e-06,0.2906468878547718,-5.875241558643038e-06,0.2906468878547718,4.531076542328314e-06,0.2906468878547718,-1.124518878456739e-05
0.2914410050347029,-6.210424257304171e-06,0.2914410050347029,-4.196249157805359e-06,0.2914410050347029,1.0070755205644282e-06,0.2914410050347029,-2.299542346182095e-05
0.292235122214634,-6.881509970411091e-06,0.292235122214634,-7.218036715468438e-06,0.292235122214634,-2.854111731032505e-06,0.292235122214634,-4.246602917194059e-05
0.293029239394565,-4.867023476554719e-06,0.293029239394565,-1.0574196739782986e-05,0.293029239394565,-7.219845012060875e-06,0.293029239394565,-4.330232010213048e-05
0.2938233565744961,-2.8550701650511363e-06,0.2938233565744961,-9.568225078478867e-06,0.2938233565744961,-1.4932351019132738e-05,0.2938233565744961,-3.408087158644546e-05
0.2946174737544272,-5.537250050569502e-06,0.2946174737544272,-8.225499978029139e-06,0.2946174737544272,-3.2383330351898985e-05,0.2946174737544272,-1.9647967197535455e-05
0.2954115909343582,-4.867975902609409e-06,0.2954115909343582,-8.560137048695296e-06,0.2954115909343582,-4.3467292606944766e-05,0.2954115909343582,-1.016698771651275e-06
0.2962057081142893,-7.887799334433171e-06,0.2962057081142893,-1.0238182963165524e-05,0.2962057081142893,-4.984885528282108e-05,0.2962057081142893,1.728177427681497e-05
0.2969998252942204,-8.560162270201007e-06,0.2969998252942204,-1.124567840530151e-05,0.2969998252942204,-4.9179947729799e-05,0.2969998252942204,1.6617247729798992e-05
0.2977939424741515,-7.217617286063157e-06,0.2977939424741515,-1.3092066234289496e-05,0.2977939424741515,-4.750142160848458e-05,0.2977939424741515,-2.5163536676228342e-06
0.2985880596540825,-5.203254335483007e-06,0.2985880596540825,-1.5945624335483005e-05,0.2985880596540825,-4.90117099489283e-05,0.2985880596540825,-5.874795664516994e-06
0.2993821768340136,-4.196080470583416e-06,0.2993821768340136,-1.493785235291708e-05,0.2993821768340136,-4.514930661043912e-05,0.2993821768340136,-6.881969529416584e-06
0.3001762940139447,-3.525947360240194e-06,0.3001762940139447,-1.15816e-05,0.3001762940139447,-3.574544415644943e-05,0.3001762940139447,-7.552971696902559e-06
0.3009704111938757,-6.543882321943239e-06,0.3009704111938757,-1.15816e-05,0.3009704111938757,-1.830852877527885e-05,0.3009704111938757,-6.88231726343625e-06
0.3017645283738068,-5.53962819902131e-06,0.3017645283738068,-1.1749300328872518e-05,0.3017645283738068,1.8343759364155289e-06,0.3017645283738068,-4.197825207289954e-06
0.3025586455537379,-6.881220570659559e-06,0.3025586455537379,-9.56838405314796e-06,0.3025586455537379,3.5240807122084342e-06,0.3025586455537379,-7.216171278403934e-06
0.3033527627336689,-6.210620630497042e-06,0.3033527627336689,-1.0909798741994156e-05,0.3033527627336689,4.6994288966301765e-06,0.3033527627336689,-1.7117640721086317e-05
0.3041468799136,-6.881718455908119e-06,0.3041468799136,-9.56761308667134e-06,0.3041468799136,6.881489983213809e-06,0.3041468799136,-1.5945877694598675e-05
0.3049409970935311,-5.87472368653001e-06,0.3049409970935311,-8.392464300951678e-06,0.3049409970935311,-6.2103720753295e-06,0.3049409970935311,-9.23173457683013e-06
0.3057351142734621,-8.224416744002144e-06,0.3057351142734621,-9.56741e-06,0.3057351142734621,-1.6281979772311204e-05,0.3057351142734621,-1.5947970760493433e-05
0.3065292314533932,-6.881429065029064e-06,0.3065292314533932,-9.567800934970936e-06,0.3065292314533932,-2.031116825347441e-05,0.3065292314533932,-3.172721388076821e-05
0.3073233486333243,-5.540130186991697e-06,0.3073233486333243,-1.0909099813008302e-05,0.3073233486333243,-2.5005649398785453e-05,0.3073233486333243,-4.446954822767552e-05
0.3081174658132554,-3.0229838832926827e-06,0.3081174658132554,-1.3090731995621218e-05,0.3081174658132554,-1.4274427196809434e-05,0.3081174658132554,-4.313820334073299e-05
0.3089115829931864,-1.1759096984008228e-06,0.3089115829931864,-1.1582393363340795e-05,0.3089115829931864,-3.8659955570487135e-06,0.3089115829931864,-3.0387399734405684e-05
0.3097057001731175,-6.879664992394435e-06,0.3097057001731175,-1.292389293760991e-05,0.3097057001731175,-3.692743382798761e-06,0.3097057001731175,-1.9306883226956664e-05
0.3104998173530486,-5.874951667184826e-06,0.3104998173530486,-1.7623118886470815e-05,0.3104998173530486,-3.524868611197471e-06,0.3104998173530486,-7.388111390419757e-06
0.3112939345329796,-8.396611857416653e-07,0.3112939345329796,-1.76242e-05,0.3112939345329796,-9.2312394553789e-06,0.3112939345329796,1.1742341838928715e-06
0.3120880517129107,-4.196273728020532e-06,0.3120880517129107,-1.7624112543958937e-05,0.3120880517129107,-2.0310160752912907e-05,0.3120880517129107,1.845749674328004e-06
0.3128821688928418,-4.867344371148615e-06,0.3128821688928418,-1.6281471407212845e-05,0.3128821688928418,-2.584919272903509e-05,0.3128821688928418,-7.217877033937117e-06
0.3136762860727728,-3.5251923948296187e-06,0.3136762860727728,-1.6616496008617305e-05,0.3136762860727728,-2.7694375210340763e-05,0.3136762860727728,-8.884655030374884e-06
0.314470403252704,-4.531174045029153e-06,0.314470403252704,-1.4939859924951412e-05,0.314470403252704,-2.568241190994169e-05,0.314470403252704,2.263591355353229e-05
0.315264520432635,-1.5124648263024662e-06,0.315264520432635,-1.2925616554894905e-05,0.315264520432635,-1.1254618583014577e-05,0.315264520432635,2.6014572408508493e-05
0.3160586376125661,-1.175093215946547e-06,0.3160586376125661,-1.2253306431893094e-05,0.3160586376125661,1.1692710373622049e-06,0.3160586376125661,3.870642193139146e-06
0.3168527547924971,-1.5105363272560334e-06,0.3168527547924971,-8.225854069839343e-06,0.3168527547924971,2.349527145396117e-06,0.3168527547924971,-1.157683107539533e-05
0.3176468719724282,-4.867088706198812e-06,0.3176468719724282,-4.868171292188751e-06,0.3176468719724282,-5.030879008333428e-07,0.3176468719724282,-2.6014272445845783e-05
0.3184409891523593,-4.86763e-06,0.3184409891523593,-2.18207669057345e-06,0.3184409891523593,-1.0910057824154252e-05,0.3184409891523593,-3.205911744590234e-05
0.3192351063322903,-6.210554870591466e-06,0.3192351063322903,-1.6829856609374106e-07,0.3192351063322903,-2.5010129396093503e-05,0.3192351063322903,-2.63509063506135e-05
0.3200292235122214,-7.216859334422552e-06,0.3200292235122214,-3.5245468592162222e-06,0.3200292235122214,-2.971024381198417e-05,0.3200292235122214,-1.5944331486680317e-05
0.3208233406921525,-4.8695788061858165e-06,0.3208233406921525,-2.5185751979121038e-06,0.3208233406921525,-3.306351597931572e-05,0.3208233406921525,-1.1082136788526303e-05
0.3216174578720835,-7.215915540340578e-06,0.3216174578720835,-5.201496330842403e-06,0.3216174578720835,-3.17244168379927e-05,0.3216174578720835,-1.6277847286917317e-05
0.3224115750520147,-8.559591340169798e-06,0.3224115750520147,-1.0907145689031649e-05,0.3224115750520147,-2.26644509899798e-05,0.3224115750520147,-2.9031072734289065e-05
0.3232056922319457,-1.0573719265318363e-05,0.3232056922319457,-1.1581339753814065e-05,0.3232056922319457,-1.7290581930725764e-05,0.3232056922319457,-3.306473852288439e-05
0.3239998094118768,-6.379277243829134e-06,0.3239998094118768,-8.561035216613132e-06,0.3239998094118768,-1.5106923781289288e-05,0.3239998094118768,-3.3401919420109614e-05
0.3247939265918079,-4.532100700858273e-06,0.3247939265918079,-1.2252658597358918e-05,0.3247939265918079,-8.896584173176776e-06,0.3247939265918079,-3.54160137798733e-05
0.3255880437717389,-4.196304026059282e-06,0.3255880437717389,-1.5106390749498997e-05,0.3255880437717389,-5.539252077075283e-06,0.3255880437717389,-2.83663149348518e-05
0.32638216095167,-5.538791825989097e-06,0.32638216095167,-1.4938395850847798e-05,0.32638216095167,-9.56809049514691e-06,0.32638216095167,-2.5012017839543828e-05
0.3271762781316011,-4.364138722502191e-06,0.3271762781316011,-1.3931617445004382e-05,0.3271762781316011,-1.2924634890008764e-05,0.3271762781316011,-3.743380587014197e-05
0.3279703953115321,-4.531802330868769e-06,0.3279703953115321,-1.4266944661737537e-05,0.3279703953115321,-1.3595289323475072e-05,0.3279703953115321,-4.715819526645001e-05
0.3287645124914632,-3.860942233289146e-06,0.3287645124914632,-1.2254236699867438e-05,0.3287645124914632,-1.258931834993372e-05,0.3287645124914632,-3.810736508800441e-05
0.3295586296713942,-4.867160279674022e-06,0.3295586296713942,-1.2588543426558009e-05,0.3295586296713942,-1.1582069720325975e-05,0.3295586296713942,-2.367343265800568e-05
0.3303527468513254,-4.196444060478777e-06,0.3303527468513254,-1.1581921090718165e-05,0.3303527468513254,-6.883318416974899e-06,0.3303527468513254,-1.6283754633383844e-05
0.3311468640312564,-2.85366994643478e-06,0.3311468640312564,-1.2588527538889576e-05,0.3311468640312564,-2.182844815090409e-06,0.3311468640312564,-2.5679290380093895e-05
0.3319409812111875,-2.85344e-06,0.3319409812111875,-1.6281312617823754e-05,0.3319409812111875,-2.8534241123315912e-06,0.3319409812111875,-2.836643644932637e-05
0.3327350983911186,-6.546494393076413e-06,0.3327350983911186,-1.49387247981052e-05,0.3327350983911186,1.6794259820714426e-06,0.3327350983911186,-3.94442256056844e-05
0.3335292155710496,-9.566863835154166e-06,0.3335292155710496,-1.594597308377871e-05,0.3335292155710496,9.23079972344922e-06,0.3335292155710496,-3.642111532977032e-05
0.3343233327509807,-7.554910523650583e-06,0.3343233327509807,-1.6951954733978176e-05,0.3343233327509807,5.87753754501302e-06,0.3343233327509807,-2.837326212817461e-05
0.3351174499309118,-6.546817700980792e-06,0.3351174499309118,-1.0914386205884758e-05,0.3351174499309118,6.545654866012804e-06,0.3351174499309118,-1.6289772342491292e-05
0.3359115671108428,-8.39145337460154e-06,0.3359115671108428,-1.2923301857254038e-05,0.3359115671108428,9.901269772994072e-06,0.3359115671108428,-1.5186930249957072e-06
0.3367056842907739,-7.21798717808326e-06,0.3367056842907739,-1.5944498674704278e-05,0.3367056842907739,9.23197695720064e-06,0.3367056842907739,1.0569694722674242e-05
0.337499801470705,-4.532601496586107e-06,0.337499801470705,-1.7959396375685145e-05,0.337499801470705,6.211175433971916e-06,0.337499801470705,1.661558912705543e-05
0.338293918650636,-5.874582424291729e-06,0.338293918650636,-1.6281571970916026e-05,0.338293918650636,-7.216144238819087e-06,0.338293918650636,2.2994646520764605e-05
0.3390880358305671,-3.860378510618531e-06,0.3390880358305671,-1.4938554552941877e-05,0.3390880358305671,-2.736005140783312e-05,0.3390880358305671,4.599127565822358e-05
0.3398821530104982,-5.038714595682264e-07,0.3398821530104982,-1.3931305923334063e-05,0.3398821530104982,-4.179488815333187e-05,0.3398821530104982,5.874438591725019e-05
0.3406762701904293,-2.182382275196674e-06,0.3406762701904293,-1.29234872661422e-05,0.3406762701904293,-4.380938451640713e-05,0.3406762701904293,4.413567199947792e-05
0.3414703873703603,-3.1883639253960677e-06,0.3414703873703603,-1.0240869532277151e-05,0.3414703873703603,-4.582124792785246e-05,0.3414703873703603,1.8483189863870112e-05
0.3422645045502914,-1.1761968448399698e-06,0.3422645045502914,-1.4935667362040067e-05,0.3422645045502914,-4.4480837896559984e-05,0.3422645045502914,-3.1756289866094525e-06
0.3430586217302225,-1.846020138125171e-06,0.3430586217302225,-1.3764159782101466e-05,0.3430586217302225,-3.91114588473576e-05,0.3430586217302225,-1.6275162712497246e-05
0.3438527389101535,-3.1886984490606635e-06,0.3438527389101535,-1.0911138279304664e-05,0.3438527389101535,-3.3739466203757345e-05,0.3438527389101535,-2.534221956404233e-05
0.3446468560900846,-4.531686623683547e-06,0.3446468560900846,-9.232014220848683e-06,0.3446468560900846,-2.031223376316453e-05,0.3446468560900846,-2.517743041320378e-05
0.3454409732700157,-4.867618698670374e-06,0.3454409732700157,-8.392488253324067e-06,0.3454409732700157,-8.896394244870646e-06,0.3454409732700157,-2.9205664384044486e-05
0.3462350904499467,-4.8672475824096274e-06,0.3462350904499467,-6.042359670837921e-06,0.3462350904499467,-6.042512638329737e-06,0.3462350904499467,-3.507931450193842e-05
0.3470292076298778,-1.51064e-06,0.3470292076298778,-4.19675604531278e-06,0.3470292076298778,-5.538328605379063e-06,0.3470292076298778,-2.467230955699762e-05
0.3478233248098089,-1.51064e-06,0.3478233248098089,-6.208709356816361e-06,0.3478233248098089,-2.855720860409171e-06,0.3478233248098089,-1.897184676148744e-05
0.34861744198974,-2.1815681510219604e-06,0.34861744198974,-7.72000833979941e-06,0.34861744198974,5.011887635432073e-07,0.34861744198974,-1.9637928151021963e-05
0.349411559169671,-3.859598099119823e-06,0.349411559169671,-8.559844052335922e-06,0.349411559169671,-6.877719629464798e-06,0.349411559169671,-6.217875240353532e-06
0.3502056763496021,-7.551714785154012e-06,0.3502056763496021,-1.1915931623237847e-05,0.3502056763496021,-9.7340968803636e-06,0.3502056763496021,5.198677525530606e-06
0.3509997935295332,-8.22443541283792e-06,0.3509997935295332,-9.568021061568236e-06,0.3509997935295332,-1.5127787167890193e-06,0.3509997935295332,-8.221118220353044e-06
0.3517939107094642,-8.22461e-06,0.3517939107094642,-1.0238724497767265e-05,0.3517939107094642,1.1746379888199231e-06,0.3517939107094642,-2.450416905033282e-05
0.3525880278893953,-1.0910117459683582e-05,0.3525880278893953,-1.09102e-05,0.3525880278893953,-4.196536578569019e-06,0.3525880278893953,-3.5416541950682113e-05
0.3533821450693264,-8.560156665010679e-06,0.3533821450693264,-1.0910138665273442e-05,0.3533821450693264,-1.2926270700024633e-05,0.3533821450693264,-4.5152504025078026e-05
0.3541762622492574,-7.721900531852863e-06,0.3541762622492574,-1.0575496646140396e-05,0.3541762622492574,-2.316624529115754e-05,0.3541762622492574,-5.119256040001943e-05
0.3549703794291886,-1.0236834679561008e-05,0.3549703794291886,-1.3593441596738995e-05,0.3549703794291886,-3.238769380684321e-05,0.3549703794291886,-4.683330658248811e-05
0.3557644966091196,-9.232348488566387e-06,0.3557644966091196,-1.3092519279152838e-05,0.3557644966091196,-3.440782301018736e-05,0.3557644966091196,-3.575892338057018e-05
0.3565586137890507,-6.882963014165902e-06,0.3565586137890507,-1.359555504303012e-05,0.3565586137890507,-3.77644671156714e-05,0.3565586137890507,-1.4948723834196149e-05
0.3573527309689818,-6.210647490460466e-06,0.3573527309689818,-1.4938145019079068e-05,0.3573527309689818,-4.548448389358765e-05,0.3573527309689818,6.5388403323715054e-06
0.3581468481489128,-4.867886806198127e-06,0.3581468481489128,-1.5274235797972348e-05,0.3581468481489128,-4.380902099101344e-05,0.3581468481489128,1.4265723357188962e-05
0.3589409653288439,-4.196259317650144e-06,0.3589409653288439,-1.6449148696295573e-05,0.3589409653288439,-3.709499317650144e-05,0.3589409653288439,7.217827834453179e-06
0.3597350825087749,-6.2105595375100345e-06,0.3597350825087749,-1.628112092497993e-05,0.3597350825087749,-2.29926488039358e-05,0.3597350825087749,-6.21097814796183e-06
0.360529199688706,-7.552714074220276e-06,0.360529199688706,-1.3595842148131923e-05,0.360529199688706,2.5231365332776963e-06,0.360529199688706,-1.1581852964145764e-05
0.3613233168686371,-5.540760762716694e-06,0.3613233168686371,-1.3763455812021775e-05,0.3613233168686371,2.398393855966475e-05,0.3613233168686371,-1.2587834614345227e-05
0.3621174340485681,-5.53903e-06,0.3621174340485681,-1.4937762477415112e-05,0.3621174340485681,1.7293285568410785e-05,0.3621174340485681,-2.03042965143573e-05
0.3629115512284993,-6.881061050524589e-06,0.3629115512284993,-1.4267579477563725e-05,0.3629115512284993,1.1840474389212071e-06,0.3629115512284993,-1.6954697387818616e-05
0.3637056684084303,-5.875140586737773e-06,0.3637056684084303,-1.3931640195579255e-05,0.3637056684084303,-4.865106492102016e-06,0.3637056684084303,-5.104175633377786e-07
0.3644997855883614,-4.53229260680631e-06,0.3644997855883614,-1.1246625219013416e-05,0.3644997855883614,-5.203239347623323e-06,0.3644997855883614,7.551044351601027e-06
0.3652939027682925,-4.196271109174073e-06,0.3652939027682925,-1.12459e-05,0.3652939027682925,-1.376255172585778e-05,0.3652939027682925,1.0238471129056577e-05
0.3660880199482235,-3.524897471976821e-06,0.3660880199482235,-1.158157048215641e-05,0.3660880199482235,-2.601662530208552e-05,0.3660880199482235,1.527413131968109e-05
0.3668821371281546,-6.210651908924445e-06,0.3668821371281546,-1.0406323141089558e-05,0.3668821371281546,-2.7023815954462225e-05,0.3668821371281546,8.559556299449665e-06
0.3676762543080857,-7.552790459248453e-06,0.3676762543080857,-8.225576463492135e-06,0.3676762543080857,-2.7695851696315204e-05,0.3676762543080857,4.19440446140246e-06
0.3684703714880167,-6.2114815923158364e-06,0.3684703714880167,-1.124351142519518e-05,0.3684703714880167,-3.0043142213447287e-05,0.3684703714880167,-1.5061282563751304e-06
0.3692644886679478,-5.203978560952708e-06,0.3692644886679478,-1.3929770486952912e-05,0.3692644886679478,-2.031606942039619e-05,0.3692644886679478,-1.2917049595309676e-05
0.3700586058478789,-6.209920067179287e-06,0.3700586058478789,-1.2253833229641413e-05,0.3700586058478789,-1.041161603006366e-05,0.3700586058478789,-1.762186695700405e-05
0.3708527230278099,-2.519028123005831e-06,0.3708527230278099,-9.568346818317113e-06,0.3708527230278099,1.1708999594524152e-06,0.3708527230278099,-1.8295365794548647e-05
0.371646840207741,-2.1821075595230977e-06,0.371646840207741,-9.9030324424894e-06,0.371646840207741,6.209406611178527e-06,0.371646840207741,-1.9302497321430703e-05
0.3724409573876721,-2.853403967358965e-06,0.3724409573876721,-1.258855586943586e-05,0.3724409573876721,-2.181589594133781e-06,0.3724409573876721,-3.0715787450469204e-05
0.3732350745676032,-2.18197694623578e-06,0.3732350745676032,-1.3595563553079868e-05,0.3732350745676032,-4.532119160353521e-06,0.3732350745676032,-4.649438916129266e-05
0.3740291917475342,-1.5109638724389645e-06,0.3740291917475342,-1.107773563385849e-05,0.3740291917475342,-6.5480632298099485e-06,0.3740291917475342,-4.850580904460747e-05
0.3748233089274653,-2.8522727393715824e-06,0.3748233089274653,-9.568723202977915e-06,0.3748233089274653,-1.4595896453614969e-05,0.3748233089274653,-3.777543799809997e-05
0.3756174261073964,-4.1952594493083175e-06,0.3756174261073964,-9.231952639479888e-06,0.3756174261073964,-1.812515232160052e-05,0.3756174261073964,-2.9715123347517292e-05
0.3764115432873274,-6.8802752355335936e-06,0.3764115432873274,-6.883171668189099e-06,0.3764115432873274,-2.366351394018468e-05,0.3764115432873274,-2.1657234253134874e-05
0.3772056604672585,-4.197378420321392e-06,0.3772056604672585,-7.217376446925296e-06,0.3772056604672585,-2.635115157540237e-05,0.3772056604672585,-1.4270358167643463e-05
0.3779997776471896,-4.867441980255802e-06,0.3779997776471896,-1.0909165897007737e-05,0.3779997776471896,-3.1721995842046415e-05,0.3779997776471896,-1.0239928118465188e-05
0.3787938948271206,-2.182395732031553e-06,0.3787938948271206,-1.4938066399965777e-05,0.3787938948271206,-3.642267746662674e-05,0.3787938948271206,-1.3931010866635295e-05
0.3795880120070517,-1.5106552295992558e-06,0.3795880120070517,-1.62814126905766e-05,0.3795880120070517,-3.508037816320595e-05,0.3795880120070517,-2.1652683762039795e-05
0.3803821291869828,-2.516811467747364e-06,0.3803821291869828,-1.7120463458795977e-05,0.3803821291869828,-2.70211875084287e-05,0.3803821291869828,-2.7191955020146777e-05
0.3811762463669139,3.187007355024897e-06,0.3811762463669139,-1.6281191936168587e-05,0.3811762463669139,-1.1579311307151338e-05,0.3811762463669139,-2.9374640319157052e-05
0.3819703635468449,-3.687170621318736e-06,0.3819703635468449,-1.561053750270228e-05,0.3819703635468449,-4.202142505707975e-06,0.3819703635468449,-3.2727912486488604e-05
0.382764480726776,-7.21521476696373e-06,0.382764480726776,-1.6280960906747384e-05,0.382764480726776,-7.383284313590038e-06,0.382764480726776,-2.300166685216293e-05
0.3835585979067071,-2.85565003437986e-06,0.3835585979067071,-1.460375001711852e-05,0.3835585979067071,-6.54654500855926e-06,0.3835585979067071,4.5179898053467625e-06
0.3843527150866381,-4.531327702482711e-06,0.3843527150866381,-1.2589422761326742e-05,0.3843527150866381,-6.210540460221124e-06,0.3843527150866381,1.1914649885900264e-05
0.3851468322665692,-9.734160790437966e-06,0.3851468322665692,-1.359558724894444e-05,0.3851468322665692,-3.525397334035647e-06,0.3851468322665692,-4.192825997898628e-06
0.3859409494465003,-6.882001676798591e-06,0.3859409494465003,-1.2924442747631833e-05,0.3859409494465003,-3.52483e-06,0.3859409494465003,-1.7623345049273442e-05
0.3867350666264313,-6.881876338773329e-06,0.3867350666264313,-9.90307183145246e-06,0.3867350666264313,-5.203358169386665e-06,0.3867350666264313,-2.299552535509332e-05
0.3875291838063624,-7.5536856867133315e-06,0.3875291838063624,-9.566944313286667e-06,0.3875291838063624,-5.54135843819072e-06,0.3875291838063624,-2.568027908129952e-05
0.3883233009862935,-9.565638998217055e-06,0.3883233009862935,-7.554991001782945e-06,0.3883233009862935,-1.5601144973500024e-05,0.3883233009862935,-2.2997661347434096e-05
0.3891174181662246,-8.561047990926e-06,0.3891174181662246,-8.559572016401884e-06,0.3891174181662246,-2.969896820031484e-05,0.3891174181662246,-1.7628135878326512e-05
0.3899115353461556,-1.0237817736988418e-05,0.3899115353461556,-9.566820638681812e-06,0.3899115353461556,-3.943890284059086e-05,0.3899115353461556,-1.5275675176409104e-05
0.3907056525260867,-8.56104454847438e-06,0.3907056525260867,-8.89630382114025e-06,0.3907056525260867,-3.94446e-05,0.3907056525260867,-1.8965383983728625e-05
0.3914997697060178,-7.553512099202205e-06,0.3914997697060178,-7.55360946656975e-06,0.3914997697060178,-2.9712123653658797e-05,0.3914997697060178,-2.1316218428427188e-05
0.3922938868859488,-6.210611296659763e-06,0.3922938868859488,-8.560166528929788e-06,0.3922938868859488,-1.6283312952351523e-05,0.3922938868859488,-2.198820435167012e-05
0.3930880040658799,-4.867633438075327e-06,0.3930880040658799,-1.0910213752301306e-05,0.3930880040658799,-5.539019685774021e-06,0.3930880040658799,-1.5274270776410933e-05
0.393882121245811,-5.539337571914437e-06,0.393882121245811,-1.3596466409123168e-05,0.393882121245811,-3.524983786720731e-06,0.393882121245811,-9.567102428085563e-06
0.394676238425742,-7.553421354287983e-06,0.394676238425742,-1.79607054291482e-05,0.394676238425742,-4.534245599803875e-06,0.394676238425742,-7.552313895207342e-06
0.3954703556056732,-8.224065798858994e-06,0.3954703556056732,-2.0643323163013624e-05,0.3954703556056732,-1.2246741617980932e-05,0.3954703556056732,-4.534378933504085e-06
0.3962644727856042,-6.88271160984694e-06,0.3962644727856042,-2.031002290412173e-05,0.3962644727856042,-2.5671983901530597e-05,0.3962644727856042,-2.854554513968671e-06
0.3970585899655353,-2.855520320701472e-06,0.3970585899655353,-1.82966401655149e-05,0.3970585899655353,-2.8365113112646803e-05,0.3970585899655353,-1.3590252471243858e-05
0.3978527071454664,-1.6789233620079104e-06,0.3978527071454664,-1.4939838177165458e-05,0.3978527071454664,-2.635304290629927e-05,0.3978527071454664,-2.2488518848953255e-05
0.3986468243253974,-1.1750514117709129e-06,0.3986468243253974,-1.2924845647083653e-05,0.3986468243253974,-1.7290505389751166e-05,0.3986468243253974,-1.7960902694875586e-05
0.3994409415053285,8.390976131632233e-07,0.3994409415053285,-1.0238997850490891e-05,0.3994409415053285,-9.567978819424603e-06,0.3994409415053285,-1.829557526868864e-05
0.4002350586852595,2.852819704936853e-06,0.4002350586852595,-8.895861129391795e-06,0.4002350586852595,-6.378431276553814e-06,0.4002350586852595,-1.1916555646219868e-05
0.4010291758651906,-5.539921134360554e-06,0.4010291758651906,-6.881522955950529e-06,0.4010291758651906,-8.561869490661321e-06,0.4010291758651906,-1.8458201716967483e-06
0.4018232930451217,-9.56382775736772e-06,0.4018232930451217,-5.540224077913256e-06,0.4018232930451217,-1.560373105316222e-05,0.4018232930451217,5.014583587609188e-07
0.4026174102250527,-6.883814828338142e-06,0.4026174102250527,-6.377646621251009e-06,0.4026174102250527,-2.0977210328467925e-05,0.4026174102250527,6.3739063175599e-06
0.4034115274049838,-7.217320188731849e-06,0.4034115274049838,-7.217020471829622e-06,0.4034115274049838,-2.366510156937558e-05,0.4034115274049838,1.1914003125979667e-05
0.4042056445849149,-3.0231683418671105e-06,0.4042056445849149,-5.539781335851592e-06,0.4042056445849149,-2.2324501072262284e-05,0.4042056445849149,1.0575101072262282e-05
0.404999761764846,-4.867076016253997e-06,0.404999761764846,-3.861033624314951e-06,0.404999761764846,-1.4940815916981354e-05,0.404999761764846,1.6279687677329168e-05
0.4057938789447771,-5.538927636679275e-06,0.4057938789447771,-4.196178818339637e-06,0.4057938789447771,-3.5265701718784576e-06,0.4057938789447771,1.728834645501891e-05
0.4065879961247081,-4.8676332769155645e-06,0.4065879961247081,-5.035475903855544e-06,0.4065879961247081,-8.392591075841666e-07,0.4065879961247081,-5.538918585212456e-06
0.4073821133046392,-5.706941857117197e-06,0.4073821133046392,-4.196613236531375e-06,0.4073821133046392,-2.5175004771322155e-06,0.4073821133046392,-2.6688910190151163e-05
0.4081762304845703,-6.210809301485565e-06,0.4081762304845703,-6.883377200143902e-06,0.4081762304845703,-8.390513501269712e-07,0.4081762304845703,-3.306678662685695e-05
0.4089703476645013,-7.552118168418182e-06,0.4089703476645013,-1.2248592690083685e-05,0.4089703476645013,-1.6839991332926558e-07,0.4089703476645013,-3.474342271052273e-05
0.4097644648444324,-8.559631221888468e-06,0.4097644648444324,-1.5607737383828244e-05,0.4097644648444324,-4.528988611782706e-06,0.4097644648444324,-3.139006261617175e-05
0.4105585820243635,-8.224786718414572e-06,0.4105585820243635,-1.6281046563170856e-05,0.4105585820243635,-1.9630447687136803e-05,0.4105585820243635,-1.4611735868086822e-05
0.4113526992042945,-9.566901299152034e-06,0.4113526992042945,-1.4267963051271948e-05,0.4113526992042945,-2.3329601110551688e-05,0.4113526992042945,-9.065958387209498e-06
0.4121468163842256,-7.050252237757865e-06,0.4121468163842256,-1.2253465792056324e-05,0.4121468163842256,-1.1584317097203148e-05,0.4121468163842256,-1.090977302626091e-05
0.4129409335641567,-1.511103463638481e-06,0.4129409335641567,-1.1581656177613569e-05,0.4129409335641567,2.516560275135432e-06,0.4129409335641567,-8.224834709617545e-06
0.4137350507440878,-1.6785650903852891e-06,0.4137350507440878,-1.4938642908791593e-05,0.4137350507440878,-1.6789083588007563e-06,0.4137350507440878,-7.050989437672377e-06
0.4145291679240188,-2.853156366827017e-06,0.4145291679240188,-1.561021272487974e-05,0.4145291679240188,-8.223475473644827e-06,0.4145291679240188,-2.7698219964902803e-05
0.4153232851039499,-1.5118474998944934e-06,0.4153232851039499,-1.661619437507913e-05,0.4153232851039499,-2.858269972600764e-06,0.4153232851039499,-4.2452617501160576e-05
0.416117402283881,-2.852429152135292e-06,0.416117402283881,-1.829433644016912e-05,0.416117402283881,-1.6987068895429554e-07,0.416117402283881,-4.179500542393236e-05
0.416911519463812,-2.182446337527193e-06,0.416911519463812,-1.82956e-05,0.416911519463812,-3.187311486574516e-06,0.416911519463812,-3.508456337527193e-05
0.4177056366437431,-4.866401000088147e-06,0.4177056366437431,-1.3933497132293209e-05,0.4177056366437431,-6.54458375354239e-06,0.4177056366437431,-3.105394350673219e-05
0.4184997538236742,-3.525246329433555e-06,0.4184997538236742,-1.158232857650872e-05,0.4184997538236742,-8.895281426591736e-06,0.4184997538236742,-1.5111343896521176e-05
0.4192938710036052,-4.196120921688383e-06,0.4192938710036052,-1.15816e-05,0.4192938710036052,-3.1900671607748205e-06,0.4192938710036052,-4.198002509566649e-06
0.4200879881835363,-2.1820699755705447e-06,0.4200879881835363,-1.4938550040467722e-05,0.4200879881835363,-2.8534449959532275e-06,0.4200879881835363,-7.2174750365697715e-06
0.4208821053634674,-4.531707265079999e-06,0.4208821053634674,-1.5609732716503603e-05,0.4208821053634674,-8.896633660164598e-06,0.4208821053634674,-6.210174991455299e-06
0.4216762225433985,-2.852876169084312e-06,0.4216762225433985,-1.3594672337608765e-05,0.4216762225433985,-1.3598901051281056e-05,0.4216762225433985,-4.366664224330416e-06
0.4224703397233295,-8.409188620225915e-07,0.4224703397233295,-9.570755725706255e-06,0.4224703397233295,-2.4664599314521705e-05,0.4224703397233295,-1.358813271780613e-05
0.4232644569032606,-6.206746111982462e-06,0.4232644569032606,-9.902870387727411e-06,0.4232644569032606,-2.50092703808874e-05,0.4232644569032606,-2.2317929971472554e-05
0.4240585740831917,-8.559049473994072e-06,0.4240585740831917,-1.225173946862988e-05,0.4240585740831917,-2.031232100909833e-05,0.4240585740831917,-2.165296009817812e-05
0.4248526912631227,-8.895879467292586e-06,0.4248526912631227,-1.325970840187776e-05,0.4248526912631227,-1.930309159812224e-05,0.4248526912631227,-8.229831304408163e-06
0.4256468084430538,-7.5535439556066815e-06,0.4256468084430538,-1.359571901049519e-05,0.4256468084430538,-2.030955703148557e-05,0.4256468084430538,1.392615471439558e-05
0.4264409256229849,-8.224547108332279e-06,0.4264409256229849,-1.4267137107395542e-05,0.4264409256229849,-2.299504843894955e-05,0.4264409256229849,2.165187673504873e-05
0.4272350428029159,-1.0910073322236456e-05,0.4272350428029159,-1.3260118096900376e-05,0.4272350428029159,-2.87022e-05,0.4272350428029159,1.980599188834109e-05
0.428029159982847,-8.560141114459701e-06,0.428029159982847,-1.359607022008426e-05,0.428029159982847,-2.8701659559831483e-05,0.428029159982847,1.594232225981352e-05
0.4288232771627781,-7.7218330615221e-06,0.4288232771627781,-1.493737908701697e-05,0.4288232771627781,-2.601904182596606e-05,0.4288232771627781,-8.239846368105104e-07
0.4296173943427092,-3.695752825911543e-06,0.4296173943427092,-1.695126358323027e-05,0.4296173943427092,-2.8700151444307025e-05,0.4296173943427092,-1.3586069395546807e-05
0.4304115115226402,-1.7001751403093565e-07,0.4304115115226402,-2.2320595641376408e-05,0.4304115115226402,-2.903769347374096e-05,0.4304115115226402,-2.030566947481916e-05
0.4312056287025713,-2.852184139757344e-06,0.4312056287025713,-2.2491721485090345e-05,0.4312056287025713,-2.6353555864451317e-05,0.4312056287025713,-2.836273245340895e-05
0.4319997458825024,-1.8466623195615024e-06,0.4319997458825024,-1.7961350422024402e-05,0.4319997458825024,-2.1654104125948955e-05,0.4319997458825024,-3.407157352248481e-05
0.4327938630624334,-1.681384817040799e-07,0.4327938630624334,-1.3764323716763945e-05,0.4327938630624334,-1.896746317321003e-05,0.4327938630624334,-3.709417893013872e-05
0.4335879802423645,-2.853373172634942e-06,0.4335879802423645,-8.224747830409315e-06,0.4335879802423645,-1.3260242008626648e-05,0.4335879802423645,-3.340209188793489e-05
0.4343820974222956,-4.532074162911858e-06,0.4343820974222956,-8.895845242211165e-06,0.4343820974222956,-7.551901932781395e-06,0.4343820974222956,-2.265931168399213e-05
0.4351762146022266,-5.707549638503321e-06,0.4351762146022266,-7.552676289737222e-06,0.4351762146022266,3.190227420525554e-06,0.4351762146022266,-2.0310253094135148e-05
0.4359703317821577,-8.222493775106811e-06,0.4359703317821577,-5.5407229782335e-06,0.4359703317821577,7.214134043533e-06,0.4359703317821577,-2.198688917780104e-05
0.4367644489620888,-9.566478093567829e-06,0.4367644489620888,-1.848902735748451e-06,0.4367644489620888,-2.3432501944308662e-06,0.4367644489620888,-1.7627228695904563e-05
0.4375585661420199,-9.902916572058766e-06,0.4375585661420199,-5.872518810063141e-06,0.4375585661420199,-4.19522112173429e-06,0.4375585661420199,4.184306866895887e-06
0.438352683321951,-8.896411666620119e-06,0.438352683321951,-7.049201384290076e-06,0.438352683321951,9.226354415816916e-06,0.438352683321951,2.8021293847447736e-05
0.439146800501882,-7.553557385488449e-06,0.439146800501882,-4.868178252989087e-06,0.439146800501882,1.728647567450645e-05,0.439146800501882,1.7962430384881944e-05
0.4399409176818131,-1.090985196409676e-05,0.4399409176818131,-4.86763e-06,0.4399409176818131,7.218564111856732e-06,0.4399409176818131,2.8550061667483446e-06
0.4407350348617442,-8.22440364920879e-06,0.4407350348617442,-6.5463116113862565e-06,0.4407350348617442,-1.0575074832402512e-05,0.4407350348617442,-1.0910774832402513e-05
0.4415291520416752,-3.5254078138276927e-06,0.4415291520416752,-1.0910488898307713e-05,0.4415291520416752,-2.3666443193004374e-05,0.4415291520416752,-2.4004069245471596e-05
0.4423232692216063,-6.543342775530738e-06,0.4423232692216063,-1.2419411429130185e-05,0.4423232692216063,-2.2325134326071757e-05,0.4423232692216063,-3.2722576880533614e-05
0.4431173864015373,-4.533486554014467e-06,0.4431173864015373,-1.1582248528752969e-05,0.4431173864015373,-2.2994781146085865e-05,0.4431173864015373,-3.977485203390158e-05
0.4439115035814684,-3.18997952876564e-06,0.4439115035814684,-1.091061976750888e-05,0.4439115035814684,-2.7021181394946712e-05,0.4439115035814684,-4.112226046498224e-05
0.4447056207613995,-2.85360034055186e-06,0.4447056207613995,-1.2923437956688838e-05,0.4447056207613995,-2.769477931889628e-05,0.4447056207613995,-3.910986204331116e-05
0.4454997379413306,-3.524608408601928e-06,0.4454997379413306,-1.1246453986746398e-05,0.4454997379413306,-2.568156478409568e-05,0.4454997379413306,-3.709536478409568e-05
0.4462938551212617,-2.182285014762033e-06,0.4462938551212617,-8.896438777202061e-06,0.4462938551212617,-2.232451254146676e-05,0.4462938551212617,-2.8703731353666897e-05
0.4470879723011927,-2.18204e-06,0.4470879723011927,-8.89601e-06,0.4470879723011927,-1.829574052784035e-05,0.4470879723011927,-3.138770631244742e-05
0.4478820894811238,-3.189045419353729e-06,0.4478820894811238,-7.72135373968488e-06,0.4478820894811238,-1.6952648670965967e-05,0.4478820894811238,-3.5919075773369444e-05
0.4486762066610549,-2.34967183611282e-06,0.4486762066610549,-1.023932359332923e-05,0.4486762066610549,-1.5611308983323082e-05,0.4486762066610549,-3.037939101667692e-05
0.4494703238409859,-1.5113537942799335e-06,0.4494703238409859,-1.2251286893728158e-05,0.4494703238409859,-2.06412172343204e-05,0.4494703238409859,-2.5349482765679603e-05
0.450264441020917,-1.6879433007792e-07,0.450264441020917,-9.90475433872442e-06,0.450264441020917,-2.8361064386020148e-05,0.450264441020917,-1.5616853618600787e-05
0.4510585582008481,-1.5098928414043535e-06,0.4510585582008481,-7.051257711528879e-06,0.4510585582008481,-3.306368492738794e-05,0.4510585582008481,-8.228719394254728e-06
0.4518526753807791,-1.6784213761508597e-06,0.4518526753807791,-8.55969238944614e-06,0.4518526753807791,-3.6757490275318906e-05,0.4518526753807791,-6.211243482101282e-06
0.4526467925607102,-3.5243476278862327e-06,0.4526467925607102,-1.1748566822966358e-05,0.4526467925607102,-3.206042786293981e-05,0.4526467925607102,-5.539205406378816e-06
0.4534409097406413,-4.196153677413854e-06,0.4534409097406413,-1.2588604591083478e-05,0.4534409097406413,-3.0380890806465363e-05,0.4534409097406413,-1.1754360956731828e-06
0.4542350269205724,-5.538961708542957e-06,0.4542350269205724,-1.2253136582914086e-05,0.4542350269205724,-3.038044959799084e-05,0.4542350269205724,-3.524989346055002e-06
0.4550291441005034,-3.524890848476727e-06,0.4550291441005034,-1.62814e-05,0.4550291441005034,-2.29933528668706e-05,0.4550291441005034,-8.225340179908135e-06
0.4558232612804345,-3.860218065209881e-06,0.4558232612804345,-1.62814e-05,0.4558232612804345,-1.2262981820363104e-05,0.4558232612804345,-1.2249256791810642e-05
0.4566173784603656,-5.873143301113015e-06,0.4566173784603656,-1.678450586246104e-05,0.4566173784603656,-3.531662372280873e-06,0.4566173784603656,-8.898637836696944e-06
0.4574114956402966,-4.197296199897293e-06,0.4574114956402966,-1.2255878725112775e-05,0.4574114956402966,1.1719546415580067e-06,0.4574114956402966,-7.5540729586474065e-06
0.4582056128202277,-5.538375207810778e-06,0.4582056128202277,-1.0910854792189222e-05,0.4582056128202277,3.188157811716166e-06,0.4582056128202277,-9.734195967568833e-06
0.4589997300001588,-4.867858309689403e-06,0.4589997300001588,-1.493723014186358e-05,0.4589997300001588,9.900816916707972e-06,0.4589997300001588,-8.896295387111754e-06
0.4597938471800898,-5.874526166998391e-06,0.4597938471800898,-1.49386e-05,0.4597938471800898,1.4266360048652727e-05,0.4597938471800898,-7.889103834926294e-06
0.4605879643600209,-6.210404931560483e-06,0.4605879643600209,-1.5274284931560483e-05,0.4605879643600209,1.3931515068439518e-05,0.4605879643600209,-1.5609653426339965e-05
0.461382081539952,-5.539202372788481e-06,0.461382081539952,-1.896689657571074e-05,0.461382081539952,-3.1903810873633065e-06,0.461382081539952,-1.6448217476440697e-05
0.4621761987198831,-7.218149339620738e-06,0.4621761987198831,-1.7959312614021e-05,0.4621761987198831,-1.5276733431202514e-05,0.4621761987198831,-6.881316528803333e-06
0.4629703158998141,-9.733093476223876e-06,0.4629703158998141,-1.5612022096889083e-05,0.4629703158998141,-2.500112282750986e-05,0.4629703158998141,-4.869363217299892e-06
0.4637644330797452,-6.212936754648264e-06,0.4637644330797452,-1.6280920616802226e-05,0.4637644330797452,-3.440238863523116e-05,0.4637644330797452,-1.4428168846552142e-05
0.4645585502596763,-4.197370884713605e-06,0.4645585502596763,-1.426834089037784e-05,0.4645585502596763,-3.675766896122585e-05,0.4645585502596763,-2.030647237474345e-05
0.4653526674396073,-5.202908184418821e-06,0.4653526674396073,-1.0240487262324715e-05,0.4653526674396073,-3.7765678184418815e-05,0.4653526674396073,-1.3598612103874529e-05
0.4661467846195384,-7.552582568774906e-06,0.4661467846195384,-9.9031910619911e-06,0.4661467846195384,-3.77661e-05,0.4661467846195384,-7.890458051136086e-06
0.4669409017994695,-1.0909784814588378e-05,0.4669409017994695,-9.063963795734516e-06,0.4669409017994695,-3.659124532194373e-05,0.4669409017994695,-2.8540627781174324e-06
0.4677350189794005,-8.22461e-06,0.4677350189794005,-7.217511975585938e-06,0.4677350189794005,-4.045157160937501e-05,0.4677350189794005,8.395990731191549e-07
0.4685291361593316,-8.22483998081837e-06,0.4685291361593316,-6.881877495204593e-06,0.4685291361593316,-3.507811395757288e-05,0.4685291361593316,1.561166734380623e-05
0.4693232533392627,-9.566148847750895e-06,0.4693232533392627,-7.217204711937723e-06,0.4693232533392627,-2.116208440762467e-05,0.4693232533392627,2.5336056740113577e-05
0.4701173705191938,-8.225674567791648e-06,0.4701173705191938,-3.6954744825251062e-06,0.4701173705191938,-2.197076948705301e-06,0.4701173705191938,1.1927945598636784e-05
0.4709114876991248,-7.553653191038511e-06,0.4709114876991248,-3.1894648916658453e-06,0.4709114876991248,1.0230785885135645e-05,0.4709114876991248,-1.3579338559876316e-05
0.4717056048790559,-6.882154111085455e-06,0.4717056048790559,-8.222104181788088e-06,0.4717056048790559,-4.189046646497048e-06,0.4717056048790559,-2.3661688383481517e-05
0.472499722058987,-2.8548501410804527e-06,0.472499722058987,-8.895774975319752e-06,0.472499722058987,-1.7619499516896598e-05,0.472499722058987,-2.6519201127606365e-05
0.473293839238918,-2.517807969137543e-06,0.473293839238918,-9.735090077156142e-06,0.473293839238918,-2.232294845232138e-05,0.473293839238918,-2.031105741892106e-05
0.4740879564188491,-6.210217315813428e-06,0.4740879564188491,-1.2588543380101896e-05,0.4740879564188491,-1.1582189624429254e-05,0.4740879564188491,-8.560954907174002e-06
0.4748820735987802,-7.552939945518168e-06,0.4748820735987802,-1.426716888273236e-05,0.4748820735987802,7.218515750710636e-06,0.4748820735987802,-1.107979587718238e-05
0.4756761907787112,-4.531527207347063e-06,0.4756761907787112,-1.3932225031094803e-05,0.4756761907787112,1.795861105583146e-05,0.4756761907787112,-2.9376258447347617e-05
0.4764703079586423,-2.854901112576518e-06,0.4764703079586423,-1.6950169981693406e-05,0.4764703079586423,1.2593375588100612e-05,0.4764703079586423,-4.0442056599542487e-05
0.4772644251385734,1.0043049426552412e-06,0.4772644251385734,-1.9971912558151e-05,0.4772644251385734,8.563226581891927e-06,0.4772644251385734,-4.313535560724534e-05
0.4780585423185045,3.691131964394482e-06,0.4780585423185045,-1.9303087011783505e-05,0.4780585423185045,1.0573338970413736e-05,0.4780585423185045,-4.917631695159096e-05
0.4788526594984356,2.5182438651235047e-06,0.4788526594984356,-1.8296031888067378e-05,0.4788526594984356,2.198340526856975e-05,0.4788526594984356,-4.515312755226951e-05
0.4796467766783666,3.860152324866437e-06,0.4796467766783666,-1.8966811161026912e-05,0.4796467766783666,3.843287347328546e-05,0.4796467766783666,-1.0919830731375252e-05
0.4804408938582977,-5.029646112494196e-07,0.4804408938582977,-1.8967e-05,0.4804408938582977,3.944446537114811e-05,0.4804408938582977,1.09072830549103e-05
0.4812350110382288,-5.20332533308136e-06,0.4812350110382288,-1.52742766654068e-05,0.4812350110382288,2.803068332842421e-05,0.4812350110382288,7.888625319214164e-06
0.4820291282181598,-4.867332220984542e-06,0.4820291282181598,-1.3595718779037349e-05,0.4820291282181598,1.963639675172638e-05,0.4820291282181598,-1.2593247906194524e-05
0.4828232453980909,-3.023042517847537e-06,0.4828232453980909,-1.309267800946089e-05,0.4828232453980909,7.229309710390349e-06,0.4828232453980909,-4.076063422282605e-05
0.483617362578022,-6.543290271900961e-06,0.483617362578022,-1.0911951706241747e-05,0.483617362578022,-7.541362072661208e-06,0.483617362578022,-4.246455250278333e-05
0.484411479757953,-5.875159912481508e-06,0.484411479757953,-1.2252120175036986e-05,0.484411479757953,-1.3591840800770768e-05,0.484411479757953,-2.4685457680759944e-05
0.4852055969378841,-5.539200407961824e-06,0.4852055969378841,-1.4937236695694614e-05,0.4852055969378841,-2.8359001877083867e-05,0.4852055969378841,-8.51345251595602e-07
0.4859997141178152,-5.706809568682747e-06,0.4859997141178152,-1.2253966958684556e-05,0.4859997141178152,-3.977619042559065e-05,0.4859997141178152,6.375671310777066e-06
0.4867938312977463,-1.0237837094704392e-05,0.4867938312977463,-7.218589895245054e-06,0.4867938312977463,-4.4982494447812606e-05,0.4867938312977463,4.532322294356596e-06
0.4875879484776773,-7.553394266145289e-06,0.4875879484776773,-6.881841783430385e-06,0.4875879484776773,-4.313741980562264e-05,0.4875879484776773,1.846514266794184e-06
0.4883820656576084,-5.539085518717516e-06,0.4883820656576084,-1.0910033442193609e-05,0.4883820656576084,-4.246584448045556e-05,0.4883820656576084,-1.6783650817692448e-06
0.4891761828375395,-6.209802356392832e-06,0.4891761828375395,-8.895855588523246e-06,0.4891761828375395,-4.179334191392436e-05,0.4891761828375395,-1.6692253596915329e-07
0.4899703000174705,-3.5271946114229404e-06,0.4899703000174705,-8.225201155056938e-06,0.4899703000174705,-3.676343366292704e-05,0.4899703000174705,3.8569830881484766e-06
0.4907644171974016,-2.8539328058394734e-06,0.4907644171974016,-9.566424373640886e-06,0.4907644171974016,-3.373991765930801e-05,0.4907644171974016,7.215055941442299e-06
0.4915585343773327,-4.195442552315568e-06,0.4915585343773327,-1.0238406279089916e-05,0.4915585343773327,-3.172468118032305e-05,0.4915585343773327,2.520496075691912e-06
0.4923526515572637,-1.6961683387679645e-07,0.4923526515572637,-9.567704635980691e-06,0.4923526515572637,-2.920690487944204e-05,0.4923526515572637,-7.548800412016672e-06
0.4931467687371948,-8.390504469098087e-07,0.4931467687371948,-6.379198878416276e-06,0.4931467687371948,-2.9709153349090163e-05,0.4931467687371948,-2.2655200070762e-05
0.4939408859171259,-3.5244441320638096e-06,0.4939408859171259,-7.553051181772148e-06,0.4939408859171259,-2.903799646755877e-05,0.4939408859171259,-3.0043938856853504e-05
0.494735003097057,-8.224603452922917e-06,0.494735003097057,-9.5674178565003e-06,0.494735003097057,-2.568089476230713e-05,0.494735003097057,-3.642326726441956e-05
0.495529120276988,-6.5461707886602304e-06,0.495529120276988,-1.1582412618563696e-05,0.495529120276988,-2.433784605669885e-05,0.495529120276988,-2.8029301742087773e-05
0.4963232374569191,-6.881498005393408e-06,0.4963232374569191,-1.6947648086294546e-05,0.4963232374569191,-2.2661209973032958e-05,0.4963232374569191,-1.813719879293575e-05
0.4971173546368502,-8.558945723434103e-06,0.4971173546368502,-2.0642498573673425e-05,0.4971173546368502,-2.7020152859795865e-05,0.4971173546368502,-1.661832781558451e-05
0.4979114718167812,-8.8957866862638e-06,0.4979114718167812,-1.5277873019779186e-05,0.4979114718167812,-2.5010839882417198e-05,0.4979114718167812,-1.62816233137362e-05
0.4987055889967123,-8.22495754106719e-06,0.4987055889967123,-1.108027210578812e-05,0.4987055889967123,-2.2325290164268763e-05,0.4987055889967123,-2.0978767212529663e-05
0.4994997061766434,-5.540023811246839e-06,0.4994997061766434,-1.258814099551327e-05,0.4994997061766434,-1.846482859580367e-05,0.4994997061766434,-2.6685888172378606e-05
0.5002938233565745,-6.210270633967906e-06,0.5002938233565745,-1.1581824052385233e-05,0.5002938233565745,-1.0576255065894016e-05,0.5002938233565745,-2.635237468412841e-05
0.5010879405365055,-7.3852820067596755e-06,0.5010879405365055,-1.3595649154445158e-05,0.5010879405365055,-7.553446266834442e-06,0.5010879405365055,-2.114938968060545e-05
0.5018820577164366,-6.881722391619907e-06,0.5018820577164366,-1.2924155977959409e-05,0.5018820577164366,-6.21042e-06,0.5018820577164366,-1.158091673915863e-05
0.5026761748963677,-5.539620815329844e-06,0.5026761748963677,-9.567188442601343e-06,0.5026761748963677,-6.211453930127159e-06,0.5026761748963677,-2.1823354076649218e-06
0.5034702920762988,-8.22221857140439e-06,0.5034702920762988,-8.56120679240188e-06,0.5034702920762988,-1.0906014986600631e-05,0.5034702920762988,-3.523634285702195e-06
0.5042644092562298,-6.547368812985786e-06,0.5042644092562298,-8.224859764085177e-06,0.5042644092562298,-1.09102e-05,0.5042644092562298,-1.0233804740616752e-05
0.5050585264361609,-6.88161977911738e-06,0.5050585264361609,-6.882620877566199e-06,0.5050585264361609,-1.627819646587808e-05,0.5050585264361609,-1.292279823293904e-05
0.505852643616092,-7.72069330579996e-06,0.505852643616092,-6.88182e-06,0.505852643616092,-2.0307991867839808e-05,0.505852643616092,-1.2253301355360031e-05
0.506646760796023,-7.88885943577394e-06,0.506646760796023,-9.90218979572858e-06,0.506646760796023,-2.265889208878456e-05,0.506646760796023,-9.568219072806652e-06
0.507440877975954,-7.553271589738028e-06,0.507440877975954,-1.057439681745029e-05,0.507440877975954,-1.9303215897380284e-05,0.507440877975954,-7.050056933024588e-06
0.5082349951558852,-6.378277168252715e-06,0.5082349951558852,-1.4267177471205752e-05,0.5082349951558852,-1.3931532769155272e-05,0.5082349951558852,-9.23169668759168e-06
0.5090291123358163,-7.552935389084446e-06,0.5090291123358163,-1.2924257693835709e-05,0.5090291123358163,-6.880349510034135e-06,0.5090291123358163,-1.4267792935286068e-05
0.5098232295157473,-5.540982077581146e-06,0.5098232295157473,-1.1918276043636386e-05,0.5098232295157473,3.5147442642154768e-06,0.5098232295157473,-1.8459333199973188e-05
0.5106173466956784,-5.53903e-06,0.5106173466956784,-1.2252723785565774e-05,0.5106173466956784,4.19567757113155e-06,0.5106173466956784,-3.322204656489409e-05
0.5114114638756094,-4.868083342463242e-06,0.5114114638756094,-1.1917526671231622e-05,0.5114114638756094,-4.358299910602445e-06,0.5114114638756094,-3.373736002691355e-05
0.5122055810555405,-5.538675743941872e-06,0.5122055810555405,-1.426596010379655e-05,0.5122055810555405,-6.880491545058397e-06,0.5122055810555405,-1.310309334740556e-05
0.5129996982354716,-5.53903e-06,0.5129996982354716,-1.3763791396242423e-05,0.5129996982354716,-8.224099664494906e-06,0.5129996982354716,2.365272955652175e-05
0.5137938154154027,-6.881507835829504e-06,0.5137938154154027,-1.1246485300554856e-05,0.5137938154154027,-1.1748580576898458e-05,0.5137938154154027,1.9639336476238286e-05
0.5145879325953338,-8.895839010321409e-06,0.5145879325953338,-1.0910228498421252e-05,0.5145879325953338,-1.2252957248123494e-05,0.5145879325953338,-8.37507600887791e-07
0.5153820497752648,-7.55314634326527e-06,0.5153820497752648,-1.0070779027915134e-05,0.5153820497752648,-1.2924694626938916e-05,0.5153820497752648,-4.196735072871755e-06
0.5161761669551959,-6.377988005323912e-06,0.5161761669551959,-6.54548550935372e-06,0.5161761669551959,-1.762617395643242e-05,0.5161761669551959,-1.2253563993552306e-05
0.5169702841351269,-5.036689127286639e-06,0.5169702841351269,-3.5275505476506752e-06,0.5169702841351269,-2.701523613600729e-05,0.5169702841351269,-1.4936181727417542e-05
0.5177644013150581,-4.196862803951556e-06,0.5177644013150581,-4.866617513677511e-06,0.5177644013150581,-3.742255323100071e-05,0.5177644013150581,-1.2255024972644978e-05
0.5185585184949891,-1.5122686209598535e-06,0.5185585184949891,-5.87410927093024e-06,0.5185585184949891,-3.910788210810991e-05,0.5185585184949891,-2.466626766065626e-05
0.5193526356749202,5.026237944536844e-07,0.5193526356749202,-6.210265964824586e-06,0.5193526356749202,-2.7364791231139518e-05,0.5193526356749202,-3.859890756316268e-05
0.5201467528548512,-1.5100130518980446e-06,0.5201467528548512,-1.04053938410013e-05,0.5201467528548512,-8.230566008213637e-06,0.5201467528548512,-5.001554727292284e-05
0.5209408700347823,-4.195790411474812e-06,0.5209408700347823,-1.1581407687488318e-05,0.5209408700347823,5.872412163107232e-06,0.5209408700347823,-6.092751417315096e-05
0.5217349872147133,-4.19623e-06,0.5217349872147133,-1.1917294594432353e-05,0.5217349872147133,1.057442432237495e-05,0.5217349872147133,-5.455110270578535e-05
0.5225291043946444,-4.867321426502055e-06,0.5225291043946444,-1.527425591788413e-05,0.5225291043946444,9.902615099351717e-06,0.5225291043946444,-4.447903020658228e-05
0.5233232215745756,-2.520040898264989e-06,0.5233232215745756,-1.493892870115093e-05,0.5233232215745756,6.214035693077192e-06,0.5233232215745756,-3.7101931327405295e-05
0.5241173387545066,-8.406438546513013e-07,0.5241173387545066,-1.5777101111816085e-05,0.5241173387545066,-6.200075888572099e-06,0.5241173387545066,-2.9380030154381345e-05
0.5249114559344377,-2.18111988920306e-06,0.5249114559344377,-1.561011498010248e-05,0.5249114559344377,-1.5771244229244076e-05,0.5249114559344377,-1.696131099437936e-05
0.5257055731143687,-2.8530790289510744e-06,0.5257055731143687,-1.795863660132876e-05,0.5257055731143687,-9.570748949944202e-06,0.5257055731143687,-1.7687324987881341e-07
0.5264996902942998,-1.6789482981265065e-06,0.5264996902942998,-1.762433094232186e-05,0.5264996902942998,1.1237781611149924e-05,0.5264996902942998,-4.194658699548787e-06
0.5272938074742308,-4.195619509029993e-06,0.5272938074742308,-1.460363259207372e-05,0.5272938074742308,3.272539048061225e-05,0.5272938074742308,-1.3929139432814515e-05
0.528087924654162,-1.5108948463842692e-06,0.528087924654162,-1.0910550415083165e-05,0.528087924654162,3.004525484733321e-05,0.528087924654162,-1.2253159279583256e-05
0.528882041834093,-7.553158094499165e-06,0.528882041834093,-9.56741e-06,0.528882041834093,1.4602121762105156e-05,0.528882041834093,-5.202923194003721e-06
0.5296761590140241,-6.378236427039071e-06,0.5296761590140241,-9.567342854078144e-06,0.5296761590140241,-1.713405781357246e-07,0.5296761590140241,2.519888661498733e-06
0.5304702761939551,-6.210572818672495e-06,0.5304702761939551,-9.23201563734499e-06,0.5304702761939551,-1.7608306902672568e-05,0.5304702761939551,1.32503196413783e-05
0.5312643933738862,-7.552194083695727e-06,0.5312643933738862,-1.4263352821499109e-05,0.5312643933738862,-2.1649522251087183e-05,0.5312643933738862,3.003217612259788e-05
0.5320585105538173,-5.875754679367321e-06,0.5320585105538173,-2.0473771717162465e-05,0.5320585105538173,-2.534292376703499e-05,0.5320585105538173,3.457410639652978e-05
0.5328526277337483,-3.525931744007858e-06,0.5328526277337483,-1.6954452599602067e-05,0.5328526277337483,-3.104942432459458e-05,0.5328526277337483,1.998094651085708e-05
0.5336467449136795,-6.377353282732495e-06,0.5336467449136795,-1.3596878494682562e-05,0.5336467449136795,-3.038091569893651e-05,0.5336467449136795,-4.188464860774265e-06
0.5344408620936105,-8.895572704744111e-06,0.5344408620936105,-1.42670833874686e-05,0.5344408620936105,-2.90381332250628e-05,0.5344408620936105,-2.7019735196511577e-05
0.5352349792735416,-8.560318763063096e-06,0.5352349792735416,-1.2253052578378572e-05,0.5352349792735416,-2.702375257837857e-05,0.5352349792735416,-4.515092679720323e-05
0.5360290964534726,-1.0070653801188497e-05,0.5360290964534726,-9.902977814682044e-06,0.5360290964534726,-2.0644563236594084e-05,0.5360290964534726,-5.320860728843736e-05
0.5368232136334037,-7.220342492270645e-06,0.5368232136334037,-8.897006153377927e-06,0.5368232136334037,-1.293203725173153e-05,0.5368232136334037,-5.65618794557689e-05
0.5376173308133347,-8.223761220152695e-06,0.5376173308133347,-1.124391950245223e-05,0.5376173308133347,-8.89940514467335e-06,0.5376173308133347,-4.7173522023903255e-05
0.5384114479932659,-6.882753537937635e-06,0.5384114479932659,-1.627789920666302e-05,0.5384114479932659,-1.0908799689617434e-05,0.5384114479932659,-1.697380462097736e-05
0.539205565173197,-3.694426503212275e-06,0.539205565173197,-1.963656156980139e-05,0.539205565173197,-1.6278458511682217e-05,0.539205565173197,5.86221871846069e-06
0.539999682353128,-2.18264434517728e-06,0.539999682353128,-1.7121607268632736e-05,0.539999682353128,-2.165045120292313e-05,0.539999682353128,1.9129495185220603e-05
0.5407937995330591,-2.18204e-06,0.5407937995330591,-1.4267920418601091e-05,0.5407937995330591,-2.2323730512018325e-05,0.5407937995330591,2.3329940554940104e-05
0.5415879167129901,-1.5107104268241932e-06,0.5415879167129901,-1.4434982398538726e-05,0.5415879167129901,-2.1652670416334645e-05,0.5415879167129901,3.272961402446129e-05
0.5423820338929212,-1.0072361321556468e-06,0.5423820338929212,-1.4267099691466778e-05,0.5423820338929212,-2.4338300617066443e-05,0.5423820338929212,3.0715626195583776e-05
0.5431761510728523,-4.196740339297501e-06,0.5431761510728523,-1.1916470699354167e-05,0.5431761510728523,-2.9038793097096127e-05,0.5431761510728523,1.2585510380815834e-05
0.5439702682527834,-6.879348084267391e-06,0.5439702682527834,-7.55723685961385e-06,0.5439702682527834,-3.3733374131360296e-05,0.5439702682527834,-4.1807805335744775e-06
0.5447643854327144,-2.8565580233778773e-06,0.5447643854327144,-7.55322e-06,0.5447643854327144,-3.239593934628605e-05,0.5447643854327144,-1.7613806560359885e-05
0.5455585026126455,-4.195388832788687e-06,0.5455585026126455,-6.882240586737819e-06,0.5455585026126455,-2.971098234695128e-05,0.5455585026126455,-3.0372708914624675e-05
0.5463526197925765,-6.209455503790673e-06,0.5463526197925765,-5.5396729958767164e-06,0.5463526197925765,-3.189035509997648e-05,0.5463526197925765,-2.8367464500997837e-05
0.5471467369725076,-4.196897238469804e-06,0.5471467369725076,-4.867852413927497e-06,0.5471467369725076,-3.0549044827855e-05,0.5471467369725076,-1.997688014096683e-05
0.5479408541524387,-4.19623e-06,0.5479408541524387,-2.8538099807299983e-06,0.5479408541524387,-2.7024347478676377e-05,0.5479408541524387,-1.7624631646328015e-05
0.5487349713323698,-4.19623e-06,0.5487349713323698,-6.378142734857919e-06,0.5487349713323698,-2.4338196964467952e-05,0.5487349713323698,-1.661713636167548e-05
0.5495290885123009,-5.53903e-06,0.5495290885123009,-1.158154394220948e-05,0.5495290885123009,-2.2995001006561184e-05,0.5495290885123009,-1.7960628818078507e-05
0.5503232056922319,-5.53903e-06,0.5503232056922319,-1.1078603061586472e-05,0.5503232056922319,-2.03124831616494e-05,0.5503232056922319,-2.449945959989829e-05
0.551117322872163,-7.886906008612515e-06,0.551117322872163,-1.158117061225952e-05,0.551117322872163,-1.829731772152309e-05,0.551117322872163,-2.13196196831046e-05
0.551911440052094,-7.721188364806715e-06,0.551911440052094,-1.1917063256282089e-05,0.551911440052094,-1.2257261386922396e-05,0.551911440052094,-1.812994910058136e-05
0.5527055572320251,-7.553313600257676e-06,0.5527055572320251,-1.1581787200515353e-05,0.5527055572320251,-5.207261194093163e-06,0.5527055572320251,-2.097960876773738e-05
0.5534996744119562,-8.224334689475198e-06,0.5534996744119562,-1.1246037657312703e-05,0.5534996744119562,3.856813268959438e-06,0.5534996744119562,-2.8363471580126585e-05
0.5542937915918873,-9.567057543559603e-06,0.5542937915918873,-1.2588347543559604e-05,0.5542937915918873,7.720056690358646e-06,0.5542937915918873,-2.83665e-05
0.5550879087718184,-9.56741e-06,0.5550879087718184,-9.56775713701891e-06,0.5550879087718184,8.392382859333885e-06,0.5550879087718184,-1.896807997392149e-05
0.5558820259517494,-1.1581534166556478e-05,0.5558820259517494,-1.225313166754074e-05,0.5558820259517494,3.021021179751533e-06,0.5558820259517494,-1.2252934166229629e-05
0.5566761431316805,-9.566442973560114e-06,0.5566761431316805,-1.6281702196887712e-05,0.5566761431316805,-5.203632195087315e-06,0.5566761431316805,-1.0238135170447829e-05
0.5574702603116115,-4.2012274836210805e-06,0.5574702603116115,-1.795833828055325e-05,0.5574702603116115,-6.880258289857508e-06,0.5574702603116115,-6.549555764174332e-06
0.5582643774915427,-2.854492768427491e-06,0.5582643774915427,-1.8463005248100412e-05,0.5582643774915427,-5.204645962494404e-06,0.5582643774915427,-4.533509156561316e-06
0.5590584946714737,-1.511494603457233e-06,0.5590584946714737,-2.752153142666368e-05,0.5590584946714737,-5.20333e-06,0.5590584946714737,-1.090614065267116e-05
0.5598526118514048,-3.188319461691244e-06,0.5598526118514048,-3.373466403270021e-05,0.5598526118514048,-5.538865892338249e-06,0.5598526118514048,-2.248613831011219e-05
0.5606467290313358,-2.8535545644591478e-06,0.5606467290313358,-3.407328543554085e-05,0.5606467290313358,-9.901610672269195e-06,0.5606467290313358,-2.786116696865364e-05
0.5614408462112669,5.028977897588282e-07,0.5614408462112669,-3.105268519130889e-05,0.5614408462112669,-1.4937624681151848e-05,0.5614408462112669,-2.568132264785196e-05
0.5622349633911979,-1.6781804403034745e-07,0.5622349633911979,-1.8631872683386816e-05,0.5622349633911979,-2.0309552351136216e-05,0.5622349633911979,-1.577825660028726e-05
0.563029080571129,-2.1819719554012523e-06,0.563029080571129,-4.53111346886892e-06,0.563029080571129,-2.198819793310188e-05,0.563029080571129,3.0211028773534435e-06
0.5638231977510602,-1.5113175219348497e-06,0.5638231977510602,3.5166997771465342e-06,0.5638231977510602,-2.098221628290228e-05,0.5638231977510602,1.176803185320836e-06
0.5646173149309912,-4.193912853300767e-06,0.5646173149309912,7.885144639849275e-06,0.5646173149309912,-2.165202071116817e-05,0.5646173149309912,-1.0899772852795558e-05
0.5654114321109223,-4.867149797573288e-06,0.5654114321109223,1.023711929865876e-05,0.5654114321109223,-2.2994339666669127e-05,0.5654114321109223,-1.896123757087945e-05
