X [s].2,L DELTOID ANTERIOR: EMG 3 [V],X [s].3,L BICEPS BRACHII: EMG 4 [V],X [s].4,L DELTOID POSTERIOR: EMG 5 [V],X [s].7,L DELTOID MEDIUS: EMG 8 [V]
0.0,-4.86763e-06,0.0,-1.561e-05,0.0,5.85794e-05,0.0,1.96384e-05
0.000794117179931,1.678437999669157e-07,0.000794117179931,-1.561e-05,0.000794117179931,2.56809339735879e-05,0.000794117179931,2.182058026815229e-06
0.0015882343598621,-1.1749304630332929e-06,0.0015882343598621,-1.695279046295517e-05,0.0015882343598621,-1.0238544885471188e-05,0.0015882343598621,-5.538975162205282e-06
0.0023823515397932,-1.5106360945033375e-06,0.0023823515397932,-1.510638925993653e-05,0.0023823515397932,-3.709470130183998e-05,0.0023823515397932,-1.2924411716559791e-05
0.0031764687197242,5.035447527376376e-07,0.0031764687197242,-9.567418929927966e-06,0.0031764687197242,-3.776609891757276e-05,0.0031764687197242,-1.896699025815488e-05
0.0039705858996553,1.8463330666524084e-06,0.0039705858996553,-6.210437333420613e-06,0.0039705858996553,-3.9444591333263874e-05,0.0039705858996553,-3.474471853319678e-05
0.0047647030795864,-1.6783144721087345e-07,0.0047647030795864,-5.539035850874517e-06,0.0047647030795864,-3.776611462740415e-05,0.0047647030795864,-4.313722686297922e-05
0.0055588202595174,-5.874721261619992e-06,0.0055588202595174,8.392467679426318e-07,0.0055588202595174,-3.575189714763437e-05,0.0055588202595174,-1.896699391131213e-05
0.0063529374394485,-9.73524755211903e-06,0.0063529374394485,3.1891324230286937e-06,0.0063529374394485,-2.702372814310814e-05,0.0063529374394485,-3.3575807455683224e-07
0.0071470546193796,-9.56741113728042e-06,0.0071470546193796,-1.510608156283711e-06,0.0071470546193796,-2.0981240941417616e-05,0.0071470546193796,-5.874682469935809e-06
0.0079411717993107,-1.091018613332547e-05,0.0079411717993107,-6.881764533095346e-06,0.0079411717993107,-2.8702120267060343e-05,0.0079411717993107,-2.8534712000435087e-06
0.0087352889792417,-8.896012589063234e-06,0.0087352889792417,-5.203332157550553e-06,0.0087352889792417,-3.575189093823369e-05,0.0087352889792417,7.217507054670977e-06
0.0095294061591728,-8.224613247281709e-06,0.0095294061591728,-6.881811881844094e-06,0.0095294061591728,-3.776609025815487e-05,0.0095294061591728,-3.0212404791474074e-06
0.0103235233391039,-8.560403729382844e-06,0.0103235233391039,-5.539010267127099e-06,0.0103235233391039,-4.515151839723741e-05,0.0103235233391039,-1.829573812717125e-05
0.0111176405190349,-1.174940856603623e-05,0.0111176405190349,-4.8677327613133765e-06,0.0111176405190349,-4.918002265061772e-05,0.0111176405190349,-2.299625911035325e-05
0.011911757698966,-1.191729105723546e-05,0.011911757698966,-6.881712719315595e-06,0.011911757698966,-5.354366755736311e-05,0.011911757698966,-4.179349870864106e-05
0.0127058748788971,-1.2924368140709356e-05,0.0127058748788971,-8.392412211380381e-06,0.0127058748788971,-7.133533715569543e-05,0.0127058748788971,-4.985094512883832e-05
0.0134999920588282,-1.4938579857564235e-05,0.0134999920588282,-1.0910174822055296e-05,0.0134999920588282,-6.596475371316204e-05,0.0134999920588282,-2.635253499408388e-05
0.0142941092387592,-1.1245802360008032e-05,0.0142941092387592,-1.4267301544912205e-05,0.0142941092387592,-6.495743832473776e-05,0.0142941092387592,-1.158170154607563e-05
0.0150882264186903,-2.8533729987817006e-06,0.0150882264186903,-2.2995590339477507e-05,0.0150882264186903,-4.246440364032287e-05,0.0150882264186903,-2.030966599716423e-05
0.0158823435986214,-8.39389041196606e-07,0.0158823435986214,-3.172288015296828e-05,0.0158823435986214,2.514545415122229e-06,0.0158823435986214,-1.628168608324541e-05
0.0166764607785524,-2.181973677969529e-06,0.0166764607785524,-3.17235e-05,0.0166764607785524,7.233955125579845e-05,0.0166764607785524,-1.1917515547562157e-05
0.0174705779584835,-8.39283271396592e-07,0.0174705779584835,-2.870228386101705e-05,0.0174705779584835,0.0001404881084709,0.0174705779584835,6.545607518227464e-06
0.0182646951384146,-5.539001227299894e-06,0.0182646951384146,-2.3331032883197783e-05,0.0182646951384146,0.000160631876688,0.0182646951384146,-2.1819865650484866e-06
0.0190588123183456,-8.22458396269983e-06,0.0190588123183456,-1.2924267209443378e-05,0.0190588123183456,0.0001373003829099,0.0190588123183456,-2.2995487469678104e-05
0.0198529294982767,-6.5460202514768325e-06,0.0198529294982767,-4.364030125924127e-06,0.0198529294982767,9.751831775296813e-05,0.0198529294982767,-3.508089899186413e-05
0.0206470466782078,-3.860710307821484e-06,0.0206470466782078,-3.0213801535750467e-06,0.0206470466782078,4.146256391964703e-05,0.0206470466782078,-4.58220787727424e-05
0.0214411638581389,-5.706785967555959e-06,0.0214411638581389,-4.196176524973839e-06,0.0214411638581389,-2.0978358169239752e-05,0.0214411638581389,-4.380879166770234e-05
0.0222352810380699,-5.203342023788243e-06,0.0222352810380699,-6.881755872094636e-06,0.0222352810380699,-6.126403808261347e-05,0.0222352810380699,-3.306655651257659e-05
0.023029398218001,-1.6784979099120805e-06,0.023029398218001,-1.2252987946811323e-05,0.023029398218001,-7.603566685383212e-05,0.023029398218001,-2.7191613183112e-05
0.0238235153979321,-1.510626981388697e-06,0.0238235153979321,-2.131695858233536e-05,0.0238235153979321,-8.15750222125397e-05,0.0238235153979321,-2.299554084646144e-05
0.0246176325778631,-8.392184594817287e-07,0.0246176325778631,-2.433812754064133e-05,0.0246176325778631,-9.819204784936408e-05,0.0246176325778631,-3.5416413437919324e-05
0.0254117497577942,-1.6789147351574777e-07,0.0254117497577942,-2.5009457526294463e-05,0.0254117497577942,-0.0001042336177619,0.0254117497577942,-4.0619170831945193e-05
0.0262058669377253,-3.189014208849132e-06,0.0262058669377253,-2.50095e-05,0.0262058669377253,-7.536550198709366e-05,0.0262058669377253,-2.836701015243867e-05
0.0269999841176564,-4.196209857764242e-06,0.0269999841176564,-1.963850742432403e-05,0.0269999841176564,-2.568189368949757e-05,0.0269999841176564,-2.0981347709195557e-05
0.0277941012975874,-3.189137805817332e-06,0.0277941012975874,-1.2252992320393342e-05,0.0277941012975874,3.390556143695131e-05,0.0277941012975874,-1.3260097805817332e-05
0.0285882184775185,-1.84634e-06,0.0285882184775185,-7.553282481559102e-06,0.0285882184775185,7.150401868475888e-05,0.0285882184775185,-1.191692120435558e-05
0.0293823356574496,-1.84634e-06,0.0293823356574496,-1.0238582426257274e-05,0.0293823356574496,8.090253849433093e-05,0.0293823356574496,4.362760955032684e-06
0.0301764528373806,-1.5106599376543315e-06,0.0301764528373806,-1.02388e-05,0.0301764528373806,6.0259126156832695e-05,0.0301764528373806,5.037772819557693e-07
0.0309705700173117,-3.5247539505970987e-06,0.0309705700173117,-8.896060699476078e-06,0.0309705700173117,1.5611685762582377e-05,0.0309705700173117,-8.89565510261026e-06
0.0317646871972428,-8.224534228507606e-06,0.0317646871972428,-8.89601e-06,0.0317646871972428,-4.817167167306385e-05,0.0317646871972428,-1.3595724228346384e-05
0.0325588043771738,-7.049680177246251e-06,0.0325588043771738,-4.531942952873898e-06,0.0325588043771738,-8.14069240554396e-05,0.0325588043771738,-1.930271295292902e-05
0.0333529215571049,-8.896046447576153e-06,0.0333529215571049,-6.8818473356142575e-06,0.0333529215571049,-8.577166517050413e-05,0.0333529215571049,-2.1653055595380504e-05
0.034147038737036,-1.0238696419925228e-05,0.034147038737036,-7.888832315136767e-06,0.034147038737036,-0.0001102751096572,0.034147038737036,-3.843620524713691e-05
0.0349411559169671,-1.1749316141758614e-05,0.0349411559169671,-7.5532386352264335e-06,0.0349411559169671,-0.0001200114595789,0.0349411559169671,-7.166975506872763e-05
0.0357352730968981,-1.258867156557945e-05,0.0357352730968981,-9.06380882143088e-06,0.0357352730968981,-9.819253924072836e-05,0.0357352730968981,-6.327948432387827e-05
0.0365293902768292,-1.359578766880083e-05,0.0365293902768292,-1.158156917212452e-05,0.0365293902768292,-6.395101925832288e-05,0.0365293902768292,-2.534566447394426e-05
0.0373235074567603,-1.6281352715632088e-05,0.0373235074567603,-1.1581565324890766e-05,0.0373235074567603,-4.78369054322032e-05,0.0373235074567603,8.22493783725126e-06
0.0381176246366913,-1.12457229685281e-05,0.0381176246366913,-7.888691314031278e-06,0.0381176246366913,-3.776526690944314e-05,0.0381176246366913,4.313815391479625e-05
0.0389117418166224,-5.539448087348047e-06,0.0389117418166224,-8.397624609192745e-07,0.0389117418166224,-1.0912167472889768e-05,0.0389117418166224,7.066248334743087e-05
0.0397058589965535,-3.5249340034528184e-06,0.0397058589965535,-1.6788366766270074e-07,0.0397058589965535,5.085511057627077e-05,0.0397058589965535,7.905656665227992e-05
0.0404999761764846,-1.510700427007292e-06,0.0404999761764846,-2.3498245373537657e-06,0.0404999761764846,0.0001394803412014,0.0404999761764846,6.881850717064541e-05
0.0412940933564156,-4.86760191481406e-06,0.0412940933564156,-2.51773859573652e-06,0.0412940933564156,0.0001884945899567,0.0412940933564156,4.414460642547664e-05
0.0420882105363467,-6.546133360809369e-06,0.0420882105363467,-3.5248878965752697e-06,0.0420882105363467,0.0001851377728622,0.0420882105363467,3.2058879342034454e-05
0.0428823277162778,-7.5531283392890756e-06,0.0428823277162778,-7.888512805406286e-06,0.0428823277162778,0.0001680185582593,0.0428823277162778,7.89110984705058e-06
0.0436764448962088,-9.567270232332154e-06,0.0436764448962088,-1.1581343758697351e-05,0.0436764448962088,0.000113637773718,0.0436764448962088,-1.6279722785904104e-05
0.0444705620761399,-5.87489635191884e-06,0.0444705620761399,-1.4434863730081536e-05,0.0444705620761399,3.105604386653807e-05,0.0444705620761399,-2.9205182769000417e-05
0.045264679256071,-2.517827692928722e-06,0.045264679256071,-1.6952734228605493e-05,0.045264679256071,-3.507877244684866e-05,0.045264679256071,-2.165279730895901e-05
0.046058796436002,-6.210403426893623e-06,0.046058796436002,-1.8631292466729025e-05,0.046058796436002,-8.140669208261878e-05,0.046058796436002,-9.063916499487413e-06
0.0468529136159331,-8.22457546829966e-06,0.0468529136159331,-1.8295692083277e-05,0.0468529136159331,-0.0001183348172474,0.0468529136159331,-9.5675135954439e-06
0.0476470307958642,-6.210595510297421e-06,0.0476470307958642,-2.3666231978930253e-05,0.0476470307958642,-0.0001659988462705,0.0476470307958642,-1.5609473467365004e-05
0.0484411479757953,-7.553132028583221e-06,0.0484411479757953,-2.601644605002064e-05,0.0484411479757953,-0.0002079622509259,0.0484411479757953,7.887370506102592e-06
0.0492352651557263,-9.735164254377504e-06,0.0492352651557263,-2.1652791487734675e-05,0.0492352651557263,-0.0002156856612106,0.0492352651557263,2.131631079390781e-05
0.0500293823356574,-8.224643603625596e-06,0.0500293823356574,-2.030982986988942e-05,0.0500293823356574,-0.000205280231476,0.0500293823356574,5.040109822182482e-07
0.0508234995155885,-8.56030979521857e-06,0.0508234995155885,-1.4938603276502906e-05,0.0508234995155885,-0.0001848020124918,0.0508234995155885,-1.6952789351397274e-05
0.0516176166955195,-1.1245716518299825e-05,0.0516176166955195,-4.531887658085361e-06,0.0516176166955195,-0.0001592878214754,0.0516176166955195,-2.635265285104048e-05
0.0524117338754506,-2.5184667006378662e-06,0.0524117338754506,-2.517907700083154e-06,0.0524117338754506,-0.0001032316676838,0.0524117338754506,-4.313590249236877e-05
0.0532058510553817,-5.036721453954899e-07,0.0532058510553817,-6.881551018474133e-06,0.0532058510553817,-4.985448983522951e-05,0.0532058510553817,-7.754417918981238e-05
0.0539999682353128,-8.39232571789493e-07,0.0539999682353128,-1.1581412004732892e-05,0.0539999682353128,-6.547852240675448e-06,0.0539999682353128,-0.0001102756907436
0.0547940854152438,-1.8463215033114409e-06,0.0547940854152438,-1.3595763006402485e-05,0.0547940854152438,6.227083605722748e-05,0.0547940854152438,-0.0001049060986459
0.0555882025951749,7.553229324200196e-06,0.0555882025951749,-1.6952795612187216e-05,0.0555882025951749,0.0001247122215832,0.0555882025951749,-6.025784679793337e-05
0.056382319775106,1.0406411760097598e-05,0.056382319775106,-1.561013564088094e-05,0.056382319775106,0.0001925161501759,0.056382319775106,-4.3978144640630736e-05
0.057176436955037,1.17567292528253e-06,0.057176436955037,-1.6281346696400828e-05,0.057176436955037,0.0002616715097451,0.057176436955037,-1.89689855471604e-05
0.0579705541349681,-6.712903606531975e-07,0.0579705541349681,-1.62814e-05,0.0579705541349681,0.0002321367062646,0.0579705541349681,2.5342640649207924e-05
0.0587646713148992,-6.210219915082507e-06,0.0587646713148992,-1.4938648505670984e-05,0.0587646713148992,0.0001586206556385,0.0587646713148992,3.004483023015156e-05
0.0595587884948302,-1.1917217316933774e-05,0.0595587884948302,-1.158164863726823e-05,0.0595587884948302,8.442927488507674e-05,0.0595587884948302,-3.692191197917292e-06
0.0603529056747613,-1.158158081077516e-05,0.0603529056747613,-1.0238807195986107e-05,0.0603529056747613,2.51725067551687e-06,0.0603529056747613,-4.951566550696598e-05
0.0611470228546924,-8.896270867119801e-06,0.0611470228546924,-1.1245802174465816e-05,0.0611470228546924,-6.595804789864437e-05,0.0611470228546924,-7.267645002242734e-05
0.0619411400346235,-5.203608847684782e-06,0.0619411400346235,-9.903201399707292e-06,0.0619411400346235,-0.0001055740087312,0.0619411400346235,-7.167167604978047e-05
0.0627352572145545,-5.5390119127641e-06,0.0627352572145545,-7.5533466095737184e-06,0.0627352572145545,-9.349265112971658e-05,0.0627352572145545,-3.7767926800050096e-05
0.0635293743944856,-1.678614481944793e-06,0.0635293743944856,-7.72106458772751e-06,0.0635293743944856,-5.153105306167323e-05,0.0635293743944856,3.5234985864493823e-06
0.0643234915744167,-3.5248104099087707e-06,0.0643234915744167,-9.56739040990877e-06,0.0643234915744167,1.5273591194225066e-05,0.0643234915744167,-4.196148077781022e-06
0.0651176087543477,-4.867622599258241e-06,0.0651176087543477,-8.224632202115048e-06,0.0651176087543477,5.354371498255831e-05,0.0651176087543477,-8.89600259925824e-06
0.0659117259342788,-4.196292613605115e-06,0.0659117259342788,-1.0238612160117237e-05,0.0659117259342788,3.676056533080205e-05,0.0659117259342788,-8.224672613605115e-06
0.0667058431142099,1.1745552332841942e-06,0.0667058431142099,-1.091015190389189e-05,0.0667058431142099,8.226654076714722e-06,0.0667058431142099,3.350847776303041e-07
0.067499960294141,1.846306429273725e-06,0.067499960294141,-1.2252932858547449e-05,0.067499960294141,-8.895153950480075e-06,0.067499960294141,2.2322800566114656e-05
0.068294077474072,-3.8603681154233504e-06,0.068294077474072,-1.3931452386638928e-05,0.068294077474072,-1.4267047637528232e-05,0.068294077474072,3.1387542887850203e-05
0.0690881946540031,-4.531925480037405e-06,0.0690881946540031,-1.443499661036466e-05,0.0690881946540031,-2.433803220123429e-05,0.0690881946540031,2.165266553878441e-05
0.0698823118339342,-5.538918199389513e-06,0.0698823118339342,-1.3595893161624785e-05,0.0698823118339342,-5.991824972286404e-05,0.0698823118339342,2.184201474028912e-06
0.0706764290138652,-6.881699965405061e-06,0.0706764290138652,-1.1581780053233288e-05,0.0706764290138652,-7.200621968953947e-05,0.0706764290138652,-3.524319851854109e-06
0.0714705461937963,-8.224519015952408e-06,0.0714705461937963,-7.217815699001642e-06,0.0714705461937963,-7.418925214643374e-05,0.0714705461937963,-5.53889352291225e-06
0.0722646633737274,-1.1581445165557482e-05,0.0722646633737274,-6.546150966980749e-06,0.0722646633737274,-7.368582322754171e-05,0.0722646633737274,-2.182194834442517e-06
0.0730587805536585,-1.2924367116802216e-05,0.0730587805536585,-1.1245784909297527e-05,0.0730587805536585,-7.016108631716976e-05,0.0730587805536585,-4.19618067544821e-06
0.0738528977335895,-1.2253001916217056e-05,0.0738528977335895,-1.1917298083782942e-05,0.0738528977335895,-7.687498083782942e-05,0.0738528977335895,-1.7624161675744464e-05
0.0746470149135206,-1.057467982580661e-05,0.0746470149135206,-1.4266948243870743e-05,0.0746470149135206,-7.301481360471195e-05,0.0746470149135206,-2.299472456813233e-05
0.0754411320934517,-9.567496120143216e-06,0.0754411320934517,-1.661689905100384e-05,0.0754411320934517,-6.865067319099287e-05,0.0754411320934517,-2.836604068800877e-05
0.0762352492733827,-6.881991553829437e-06,0.0762352492733827,-1.1581921664627932e-05,0.0762352492733827,-5.824436476717646e-05,0.0762352492733827,-2.7695142888617057e-05
0.0770293664533138,-5.035557998474383e-06,0.0770293664533138,-1.2252971636764787e-05,0.0770293664533138,-7.066397528437306e-05,0.0770293664533138,-1.561051053400933e-05
0.0778234836332449,-7.553168108255937e-06,0.0778234836332449,-1.4267158486439866e-05,0.0778234836332449,-8.761695059523273e-05,0.0778234836332449,-1.4267227675706756e-05
0.078617600813176,-1.0910196562810923e-05,0.078617600813176,-1.1581600343720957e-05,0.078617600813176,-7.939264844206147e-05,0.078617600813176,-3.105210343720956e-05
0.079411717993107,-7.553566632459673e-06,0.079411717993107,-1.1917265336547518e-05,0.079411717993107,-2.9043099497220805e-05,0.079411717993107,-3.440875336547519e-05
0.0802058351730381,-6.210529620506734e-06,0.0802058351730381,-1.292431778461995e-05,0.0802058351730381,3.876766418890073e-05,0.0802058351730381,-1.947171952405561e-05
0.0809999523529692,-7.553139430256935e-06,0.0809999523529692,-1.560983886051387e-05,0.0809999523529692,7.435506491380904e-05,0.0809999523529692,1.090837711856336e-05
0.0817940695329002,-5.539107278085356e-06,0.0817940695329002,-1.9638245443061956e-05,0.0817940695329002,6.562943486952909e-05,0.0817940695329002,3.541525978246355e-05
0.0825881867128313,-7.217491914897722e-06,0.0825881867128313,-1.6281456170539204e-05,0.0825881867128313,1.7960697618310224e-05,0.0825881867128313,3.1052173021700964e-05
0.0833823038927624,-7.21752e-06,0.0833823038927624,-6.882957456142356e-06,0.0833823038927624,-1.5605937660091912e-05,0.0833823038927624,7.891713009575111e-06
0.0841764210726934,-3.189540389350276e-06,0.0841764210726934,-2.014673804212385e-06,0.0841764210726934,-4.044923093002081e-05,0.0841764210726934,-2.63488966925105e-05
0.0849705382526245,5.032608651400325e-07,0.0849705382526245,-1.8463530516269571e-06,0.0849705382526245,-7.133349851619141e-05,0.0849705382526245,-5.052072057349392e-05
0.0857646554325556,-2.853251595043504e-06,0.0857646554325556,-6.881537392677502e-06,0.0857646554325556,-7.402134927549602e-05,0.0857646554325556,-4.380907680564763e-05
0.0865587726124866,-3.1891284221279194e-06,0.0865587726124866,-1.3931256865376086e-05,0.0865587726124866,-5.925130942292267e-05,0.0865587726124866,-3.474511260254617e-05
0.0873528897924177,-6.210381163626667e-06,0.0873528897924177,-1.3595804315181157e-05,0.0873528897924177,-3.3066636582844866e-05,0.0873528897924177,-2.7359494933985465e-05
0.0881470069723488,-6.881741356377496e-06,0.0881470069723488,-1.2924478643622504e-05,0.0881470069723488,-5.206593695106522e-06,0.0881470069723488,-2.299581118354628e-05
0.0889411241522799,-6.042650160180187e-06,0.0889411241522799,-1.1917396192216224e-05,0.0889411241522799,6.544997762253092e-06,0.0889411241522799,-1.3261029848538757e-05
0.0897352413322109,-3.525016009619886e-06,0.0897352413322109,-1.2252975198618844e-05,0.0897352413322109,1.3595279172473282e-05,0.0897352413322109,-1.460280079447537e-05
0.090529358512142,-2.1821101542384872e-06,0.090529358512142,-1.0910270154760938e-05,0.090529358512142,3.4072330145120194e-05,0.090529358512142,-1.2924487693451174e-05
0.0913234756920731,-3.356944034308515e-06,0.0913234756920731,-9.56745110369114e-06,0.0913234756920731,7.435596688620472e-05,0.0913234756920731,-3.189438002755616e-06
0.0921175928720041,-3.524828493345805e-06,0.0921175928720041,-8.896016026616778e-06,0.0921175928720041,8.375671562736511e-05,0.0921175928720041,-3.524826986781373e-06
0.0929117100519352,-2.8535160390722614e-06,0.0929117100519352,-9.567333959795177e-06,0.0929117100519352,4.381322436953576e-05,0.0929117100519352,-9.231063660524125e-06
0.0937058272318663,-3.189109237800688e-06,0.0937058272318663,-9.56741e-06,0.0937058272318663,-6.8771749243983936e-06,0.0937058272318663,-1.577720014261158e-05
0.0944999444117974,-4.867512503158071e-06,0.0944999444117974,-1.2588488505124514e-05,0.0944999444117974,-4.246340906051095e-05,0.0944999444117974,-2.2323441763086493e-05
0.0952940615917284,-2.853537420421161e-06,0.0952940615917284,-1.661690515819034e-05,0.0952940615917284,-5.052221032121738e-05,0.0952940615917284,-2.651999703736325e-05
0.0960881787716595,-5.203267181381483e-06,0.0960881787716595,-1.628140897412655e-05,0.0960881787716595,-5.589365641397521e-05,0.0960881787716595,-5.539590880770706e-06
0.0968822959515906,-3.525049900850112e-06,0.0968822959515906,-2.0477050254425235e-05,0.0968822959515906,-7.401912508391982e-05,0.0968822959515906,3.406821036220913e-05
0.0976764131315216,2.349247350476114e-06,0.0976764131315216,-1.7792293784139728e-05,0.0976764131315216,-9.416119662989128e-05,0.0976764131315216,2.8031461014314387e-05
0.0984705303114527,2.8533958095101764e-06,0.0984705303114527,-1.2924827170347066e-05,0.0984705303114527,-9.14780356826124e-05,0.0984705303114527,-2.8507296639987554e-06
0.0992646474913838,-8.390018269338398e-07,0.0992646474913838,-1.5609822418914992e-05,0.0992646474913838,-7.536536547989771e-05,0.0992646474913838,-1.1750509881781309e-06
0.1000587646713148,-4.530835961890672e-06,0.1000587646713148,-1.561e-05,0.1000587646713148,-4.583155231317025e-05,0.1000587646713148,-1.6276924382011282e-05
0.1008528818512459,-3.1893398097801317e-06,0.1008528818512459,-5.5405285800470735e-06,0.1008528818512459,-2.031359638433448e-05,0.1008528818512459,-4.346895383670014e-05
0.101646999031177,-4.364078566361642e-06,0.101646999031177,-4.196231638457783e-06,0.101646999031177,1.174913784748697e-06,0.101646999031177,-3.642330860190336e-05
0.1024411162111081,-5.874081266281327e-06,0.1024411162111081,-9.568097868770436e-06,0.1024411162111081,3.67609653288897e-05,0.1024411162111081,-3.0546708364174435e-05
0.1032352333910391,-1.5092585308083608e-06,0.1032352333910391,-1.4268186767907503e-05,0.1032352333910391,5.01878867679075e-05,0.1032352333910391,-1.7624594707163e-05
0.1040293505709702,3.187955735102962e-06,0.1040293505709702,-1.76243480335531e-05,0.1040293505709702,5.355515050593858e-05,0.1040293505709702,-1.896581573157521e-05
0.1048234677509013,5.053459923540026e-07,0.1048234677509013,-1.7959675250286254e-05,0.1048234677509013,7.903991908870487e-05,0.1048234677509013,-1.6283197997709967e-05
0.1056175849308323,-5.703623459660164e-06,0.1056175849308323,-1.4269130385283714e-05,0.1056175849308323,8.710958825029008e-05,0.1056175849308323,-1.510701423963722e-05
0.1064117021107634,-1.0237099731526748e-05,0.1064117021107634,-1.829408864357621e-05,0.1064117021107634,8.073789298100432e-05,0.1064117021107634,-1.3092955678211891e-05
0.1072058192906945,-1.1581294387335796e-05,0.1072058192906945,-1.8631223596833948e-05,0.1072058192906945,6.731055612664203e-05,0.1072058192906945,9.897866417264563e-06
0.1079999364706256,-1.3595638840219248e-05,0.1079999364706256,-1.0910817779159549e-05,0.1079999364706256,5.858009835104874e-05,0.1079999364706256,1.175638355849451e-06
0.1087940536505566,-1.52741979220454e-05,0.1087940536505566,-2.853258534695061e-06,0.1087940536505566,4.682839157473311e-05,0.1087940536505566,-1.896856513674322e-05
0.1095881708304877,-1.3763130538886333e-05,0.1095881708304877,-1.6691006077567538e-07,0.1095881708304877,2.4500258021549025e-05,0.1095881708304877,-4.21324389981785e-05
0.1103822880104188,-1.15816e-05,0.1103822880104188,4.196717078577319e-06,0.1103822880104188,-2.1912944421863613e-06,0.1103822880104188,-5.2538991853597935e-05
0.1111764051903498,-1.1582626584154384e-05,0.1111764051903498,5.535094776031728e-06,0.1111764051903498,-2.770605018001276e-05,0.1111764051903498,-5.856964750150069e-05
0.1119705223702809,-1.3594589884553312e-05,0.1119705223702809,-2.1774012421447907e-06,0.1119705223702809,-4.91668921619812e-05,0.1119705223702809,-3.945609603666433e-05
0.112764639550212,-1.3260252396717662e-05,0.112764639550212,-9.89959489365246e-06,0.112764639550212,-5.924622809847015e-05,0.112764639550212,-1.9647391360945343e-05
0.1135587567301431,-1.1582114267575318e-05,0.1135587567301431,-1.5608251490243917e-05,0.1135587567301431,-5.790841141406026e-05,0.1135587567301431,-2.702143725330712e-05
0.1143528739100741,-3.0226494066158878e-06,0.1143528739100741,-1.6952586758750114e-05,0.1143528739100741,-5.455153310312472e-05,0.1143528739100741,-3.9778274208126086e-05
0.1151469910900052,-8.392704861468861e-07,0.1151469910900052,-2.500940959048506e-05,0.1151469910900052,-4.213033938194337e-05,0.1151469910900052,-2.031001849125084e-05
0.1159411082699363,3.860438449178164e-06,0.1159411082699363,-2.9877177105135637e-05,0.1159411082699363,-3.0382164834967e-05,0.1159411082699363,3.340529586503973e-05
0.1167352254498673,3.1874242583632428e-06,0.1167352254498673,-2.9709681277181245e-05,0.1167352254498673,-4.1138541640657786e-05,0.1167352254498673,5.756867786677819e-05
0.1175293426297984,-2.8540187168139125e-06,0.1175293426297984,-3.105188300112765e-05,0.1175293426297984,-9.552457435258008e-05,0.1175293426297984,4.480470438484547e-05
0.1183234598097295,-4.1953175948511855e-06,0.1183234598097295,-3.054894212050464e-05,0.1183234598097295,-0.0001381110309887,0.1183234598097295,1.9320035691032627e-05
0.1191175769896605,-1.6999515467768233e-07,0.1191175769896605,-2.5012451003238065e-05,0.1191175769896605,-0.0001331066829723,0.1191175769896605,2.1911611790900635e-06
0.1199116941695916,2.0133495291204085e-06,0.1199116941695916,-1.4942479077404792e-05,0.1199116941695916,-0.0001106216630122,0.1199116941695916,-5.5360560226814085e-06
0.1207058113495227,-2.181042996483344e-06,0.1207058113495227,-6.2124937724466965e-06,0.1207058113495227,-8.812624401183848e-05,0.1207058113495227,-2.567611439119829e-05
0.1214999285294538,-9.734580109875322e-06,0.1214999285294538,-1.0075683679124328e-06,0.1214999285294538,-4.0791660643701165e-05,0.1214999285294538,-1.426822738460101e-05
0.1222940457093848,-1.0574480674256294e-05,0.1222940457093848,-3.525293816121882e-06,0.1222940457093848,-6.208796642134201e-06,0.1222940457093848,1.930239078810071e-05
0.1230881628893159,-1.0237904707801132e-05,0.1230881628893159,-1.1581737737892595e-05,0.1230881628893159,2.1997252921988667e-05,0.1230881628893159,1.3926954668007868e-05
0.123882280069247,-5.873062236970181e-06,0.123882280069247,-1.22501581190086e-05,0.123882280069247,6.564165158196272e-05,0.123882280069247,-8.2279255366416e-06
0.124676397249178,-1.1766174358721048e-06,0.124676397249178,-4.192539645078846e-06,0.124676397249178,0.0001012272579975,0.124676397249178,-1.762185158278347e-05
0.1254705144291091,-4.529879614308305e-06,0.1254705144291091,3.1846291563645184e-06,0.1254705144291091,0.000129729571975,0.1254705144291091,-1.2927270548519308e-05
0.1262646316090402,-1.124278492965726e-05,0.1262646316090402,7.383423081615747e-06,0.1262646316090402,0.0001592752934436,0.1262646316090402,-2.76882468610209e-05
0.1270587487889713,-1.15814937889895e-05,0.1270587487889713,2.8548738423139817e-06,0.1270587487889713,0.0001287496652968,0.1270587487889713,-4.33001612038312e-05
0.1278528659689023,-9.23210667296729e-06,0.1278528659689023,-2.852476650641708e-06,0.1278528659689023,7.537331008017399e-05,0.1278528659689023,-3.810267834258229e-05
0.1286469831488334,-5.8747912458409e-06,0.1286469831488334,-4.867587252580353e-06,0.1286469831488334,2.5346261561947036e-05,0.1286469831488334,-2.500977785960721e-05
0.1294411003287645,-3.021947484467247e-06,0.1294411003287645,-7.889037255791873e-06,0.1294411003287645,-3.861265959504029e-05,0.1294411003287645,-3.608967849863138e-05
0.1302352175086955,-8.22571353885919e-06,0.1302352175086955,-8.895458231940106e-06,0.1302352175086955,-9.685948369997472e-05,0.1302352175086955,-5.252944308340341e-05
0.1310293346886266,-1.2252152037947432e-05,0.1310293346886266,-6.880972042157352e-06,0.1310293346886266,-0.0001351216143602,0.1310293346886266,-2.5675246961748747e-05
0.1318234518685577,-1.0240188737548504e-05,0.1318234518685577,-4.869018730653771e-06,0.1318234518685577,-0.0001413247183694,0.1318234518685577,-1.2262258181376017e-05
0.1326175690484888,-1.0406608870580936e-05,0.1326175690484888,-8.558305760671944e-06,0.1326175690484888,-0.0001458585402112,0.1326175690484888,-4.177846605280995e-05
0.1334116862284198,-6.883212956130208e-06,0.1334116862284198,-1.023813669715423e-05,0.1334116862284198,-0.0001465317348353,0.1334116862284198,-6.293514237386868e-05
0.1342058034083509,-1.5119698855587614e-06,0.1342058034083509,-1.0910033763686165e-05,0.1342058034083509,-0.0001413302882447,0.1342058034083509,-5.656677924498145e-05
0.134999920588282,1.174671402365686e-06,0.134999920588282,-1.2924198550274045e-05,0.134999920588282,-0.0001146436691938,0.134999920588282,-5.320853574954326e-05
0.135794037768213,-1.0070600793317383e-06,0.135794037768213,-1.3931659682482776e-05,0.135794037768213,-2.5676029708058787e-05,0.135794037768213,-4.582149061315462e-05
0.1365881549481441,-1.667353094333358e-07,0.1365881549481441,-1.7289024091606958e-05,0.1365881549481441,7.671800762729752e-05,0.1365881549481441,-1.828917989732963e-05
0.1373822721280752,5.538454726732689e-06,0.1373822721280752,-1.9976170949489255e-05,0.1373822721280752,0.0001325943842717,0.1373822721280752,1.4608997862360434e-05
0.1381763893080062,3.858886100667263e-06,0.1381763893080062,-2.601972342547979e-05,0.1381763893080062,0.0001132809035511,0.1381763893080062,3.2397694643850336e-05
0.1389705064879373,5.056319133473376e-07,0.1389705064879373,-3.239094054340972e-05,0.1389705064879373,7.840727256671248e-05,0.1389705064879373,3.809825732831397e-05
0.1397646236678684,-8.386095560097259e-07,0.1397646236678684,-2.8032868452210805e-05,0.1397646236678684,7.62046342024069e-05,0.1397646236678684,2.635786890979832e-05
0.1405587408477994,-3.5239534571747608e-06,0.1405587408477994,-2.165468176897388e-05,0.1405587408477994,0.0001079166458577,0.1405587408477994,1.4103299234147084e-05
0.1413528580277305,-6.881219748754672e-06,0.1413528580277305,-2.4673259790150583e-05,0.1413528580277305,0.000109269759863,0.1413528580277305,5.204920656233975e-06
0.1421469752076616,-1.2924211322811255e-05,0.1421469752076616,-2.165269433578416e-05,0.1421469752076616,6.596605219099484e-05,0.1421469752076616,-8.8955697536426e-06
0.1429410923875927,-1.1245939061101843e-05,0.1429410923875927,-1.3931167986452174e-05,0.1429410923875927,-1.897469500215636e-05,0.1429410923875927,-1.695287812220369e-05
0.1437352095675237,-1.1581156978477754e-05,0.1437352095675237,-1.107787847604193e-05,0.1437352095675237,-8.509995441721779e-05,0.1437352095675237,-1.7620744440044654e-05
0.1445293267474548,-9.90103040628121e-06,0.1445293267474548,-1.02388e-05,0.1445293267474548,-8.643439756437796e-05,0.1445293267474548,-4.5293085113348415e-06
0.1453234439273859,-4.871152121969928e-06,0.1453234439273859,-1.02388e-05,0.1453234439273859,-6.698551888280845e-05,0.1453234439273859,1.8418786399090589e-06
0.146117561107317,-4.86763e-06,0.146117561107317,-6.548161171577668e-06,0.146117561107317,-5.053169254081928e-05,0.146117561107317,-3.5218610236622644e-06
0.146911678287248,-5.706529956914437e-06,0.146911678287248,-6.54612e-06,0.146911678287248,-5.7905007585191226e-05,0.146911678287248,-1.8457347193369367e-05
0.1477057954671791,-6.210290286521473e-06,0.1477057954671791,-6.378313237826176e-06,0.1477057954671791,-9.14691524862844e-05,0.1477057954671791,-3.0042016602873757e-05
0.1484999126471102,-1.1916672150554606e-05,0.1484999126471102,-6.210438466224875e-06,0.1484999126471102,-0.0001089320795346,0.1484999126471102,-2.9373673864899497e-05
0.1492940298270412,-8.89599108387075e-06,0.1492940298270412,-6.210375862740743e-06,0.1492940298270412,-0.0001119547982354,0.1492940298270412,-2.299557743656231e-05
0.1500881470069723,-8.392211386029729e-06,0.1500881470069723,-5.0356975369925535e-06,0.1500881470069723,-0.0001065835649037,0.1500881470069723,-3.0383807679257077e-05
0.1508822641869034,-7.048553031747008e-06,0.1508822641869034,-6.211536968252993e-06,0.1508822641869034,-0.0001042344468551,0.1508822641869034,-4.716492981705183e-05
0.1516763813668344,-3.694048814314666e-06,0.1516763813668344,-9.56692688737233e-06,0.1516763813668344,-0.0001055673378913,0.1516763813668344,-4.514850137220465e-05
0.1524704985467655,-6.544320167651233e-06,0.1524704985467655,-8.560945237172831e-06,0.1524704985467655,-8.5448004554229e-05,0.1524704985467655,-3.9112711359961104e-05
0.1532646157266966,-7.552732592388093e-06,0.1532646157266966,-1.1580137782003994e-05,0.1532646157266966,-2.4703206829124096e-05,0.1532646157266966,-1.763459798065687e-05
0.1540587329066277,-6.546458778004095e-06,0.1540587329066277,-1.426629659198908e-05,0.1540587329066277,4.1436553678647975e-05,0.1540587329066277,5.8668152068156205e-06
0.1548528500865587,-7.888656470693035e-06,0.1548528500865587,-1.5609746468804957e-05,0.1548528500865587,6.612794139261223e-05,0.1548528500865587,2.1313984395033143e-05
0.1556469672664898,-5.539126876348744e-06,0.1556469672664898,-1.4602941518788542e-05,0.1556469672664898,4.4816578812296174e-05,0.1556469672664898,1.997415535838472e-05
0.1564410844464209,-4.196301407212846e-06,0.1564410844464209,-9.734849409589693e-06,0.1564410844464209,2.434063494542048e-05,0.1564410844464209,1.5944896669919035e-05
0.157235201626352,-4.8672890127639385e-06,0.157235201626352,-5.874890493618031e-06,0.157235201626352,4.818471974928367e-05,0.157235201626352,8.388410794347394e-06
0.158029318806283,-3.523349183312644e-06,0.158029318806283,-6.546254620464423e-06,0.158029318806283,9.551091183655908e-05,0.158029318806283,-7.550594912974175e-06
0.1588234359862141,1.6522922407196037e-07,0.1588234359862141,-6.881581837197589e-06,0.1588234359862141,0.000107247664089,0.1588234359862141,-1.0117441533634698e-06
0.1596175531661451,1.1743732464059218e-06,0.1596175531661451,-1.2585488378854568e-05,0.1596175531661451,9.78613899163124e-05,0.1596175531661451,6.541869326940798e-06
0.1604116703460762,-8.384097477102701e-07,0.1604116703460762,-1.426650311824811e-05,0.1604116703460762,4.013997260771064e-05,0.1604116703460762,3.861645006651211e-06
0.1612057875260073,-3.1885111695711783e-06,0.1612057875260073,-1.191792883203442e-05,0.1612057875260073,-5.19120257054241e-06,0.1612057875260073,1.1756586625061977e-06
0.1619999047059384,-4.867428551474209e-06,0.1619999047059384,-1.292427913016442e-05,0.1619999047059384,-1.258781362480627e-05,0.1619999047059384,7.216794783386867e-06
0.1627940218858694,-5.874757013029641e-06,0.1627940218858694,-1.191721672095895e-05,0.1627940218858694,2.5175179226490767e-06,0.1627940218858694,7.88882672123459e-06
0.1635881390658005,-7.217696387628547e-06,0.1635881390658005,-8.896068796460002e-06,0.1635881390658005,-5.545615180751306e-06,0.1635881390658005,4.862867516514602e-06
0.1643822562457316,-8.22569339339867e-06,0.1643822562457316,-9.232251695085698e-06,0.1643822562457316,-4.3142391931869176e-05,0.1643822562457316,-2.233300049938518e-05
0.1651763734256627,-1.1583334526974392e-05,0.1651763734256627,-1.0910988421351996e-05,0.1651763734256627,-5.8913207788755206e-05,0.1651763734256627,-5.052685747530079e-05
0.1659704906055937,-1.5271933911038964e-05,0.1659704906055937,-1.2587624505017711e-05,0.1659704906055937,-5.488928118795749e-05,0.1659704906055937,-5.9580692327095645e-05
0.1667646077855248,-1.493876582669939e-05,0.1667646077855248,-1.25887e-05,0.1667646077855248,-5.320902913349696e-05,0.1667646077855248,-5.4217953227190255e-05
0.1675587249654559,-1.0911595401961584e-05,0.1675587249654559,-1.25887e-05,0.1675587249654559,-5.25370325669936e-05,0.1675587249654559,-6.059139061356083e-05
0.1683528421453869,-4.197564799919853e-06,0.1683528421453869,-8.561110881542387e-06,0.1683528421453869,-4.582413480588413e-05,0.1683528421453869,-4.851080265059144e-05
0.169146959325318,1.0068334461047083e-06,0.169146959325318,-8.56031e-06,0.169146959325318,-5.4047078668694354e-05,0.169146959325318,-2.6353435002923022e-05
0.1699410765052491,-2.18204e-06,0.1699410765052491,-9.903391114998905e-06,0.1699410765052491,-6.99954936025778e-05,0.1699410765052491,-8.894101588123505e-06
0.1707351936851801,-2.18257227809892e-06,0.1707351936851801,-1.292546456107656e-05,0.1707351936851801,-9.48366015161116e-05,0.1707351936851801,1.0913639326776824e-05
0.1715293108651112,-4.364933232839474e-06,0.1715293108651112,-1.7286793526500545e-05,0.1715293108651112,-0.0001022202627689,0.1715293108651112,2.5010418870345855e-05
0.1723234280450423,-6.544550152709557e-06,0.1723234280450423,-1.2927539708969688e-05,0.1723234280450423,-0.0001028915165361,0.1723234280450423,2.735770938747786e-05
0.1731175452249733,-9.901177240971253e-06,0.1731175452249733,-1.2588892277048404e-05,0.1731175452249733,-8.091589434713805e-05,0.1731175452249733,3.205650812132235e-05
0.1739116624049044,-1.4265344460004446e-05,0.1739116624049044,-1.5608715395387695e-05,0.1739116624049044,-3.140885313596156e-05,0.1739116624049044,3.4072543596925125e-05
0.1747057795848355,-1.493841361871356e-05,0.1747057795848355,-1.3260752334502536e-05,0.1747057795848355,-3.440826128421102e-05,0.1747057795848355,1.7293159504400883e-05
0.1754998967647666,-1.49386e-05,0.1754998967647666,-8.560921062868429e-06,0.1754998967647666,-8.022594215686073e-05,0.1754998967647666,-1.0235220922871423e-05
0.1762940139446976,-1.2253023583047905e-05,0.1762940139446976,-1.2924512019477552e-05,0.1762940139446976,-0.0001290761296997,0.1762940139446976,-5.690085283390419e-05
0.1770881311246287,-1.3594691224011516e-05,0.1770881311246287,-1.9302866316893702e-05,0.1770881311246287,-0.0001364527951488,0.1770881311246287,-5.4211585605888346e-05
0.1778822483045598,-6.879300440497187e-06,0.1778822483045598,-2.031126971906764e-05,0.1778822483045598,-8.676193280880247e-05,0.1778822483045598,-3.1740507048534816e-05
0.1786763654844909,1.175865985989382e-06,0.1786763654844909,-2.501135197197876e-05,0.1786763654844909,-3.505688744921654e-05,0.1786763654844909,-8.612290466286841e-05
0.1794704826644219,3.187829286388309e-06,0.1794704826644219,-2.9035278572776618e-05,0.1794704826644219,1.6247976933049196e-05,0.1794704826644219,-0.0001213320626419
0.180264599844353,5.53784571567597e-06,0.180264599844353,-2.36694069471172e-05,0.180264599844353,9.915711170546804e-05,0.180264599844353,-0.0001250461388226
0.181058717024284,5.371239820496116e-06,0.181058717024284,-1.6619612425197626e-05,0.181058717024284,0.00018208644896,0.181058717024284,-0.0001028998962342
0.1818528342042151,1.3929712512628794e-05,0.1818528342042151,-1.5274580391158514e-05,0.1818528342042151,0.0002487390854739,0.1818528342042151,-7.151035419553298e-05
0.1826469513841462,1.963805057202038e-05,0.1826469513841462,-1.695269722706482e-05,0.1826469513841462,0.0002576484553065,0.1826469513841462,-2.937617959148873e-05
0.1834410685640773,1.3259578206647054e-05,0.1834410685640773,-6.209782253911887e-06,0.1834410685640773,0.0002066154486765,0.1834410685640773,6.059803519773309e-05
0.1842351857440083,7.216067168382301e-06,0.1842351857440083,1.1751363295453695e-06,0.1842351857440083,0.0001307430631168,0.1842351857440083,0.0001119539007416
0.1850293029239394,1.0051173418592305e-06,0.1850293029239394,2.0118236039093044e-06,0.1850293029239394,7.972046937505764e-05,0.1850293029239394,0.0001072401386358
0.1858234201038705,-4.192434539713975e-06,0.1858234201038705,-4.191699938968019e-06,0.1858234201038705,5.893028182655552e-05,0.1858234201038705,6.565946387193976e-05
0.1866175372838016,-2.8542225323476902e-06,0.1866175372838016,-9.89977423023774e-06,0.1866175372838016,8.273581000566412e-05,0.1866175372838016,2.7214000067854523e-05
0.1874116544637326,-4.19564563898686e-06,0.1874116544637326,-1.2587531269270037e-05,0.1874116544637326,0.0001104329474425,0.1874116544637326,1.0184950810987326e-06
0.1882057716436637,-8.391253154018881e-06,0.1882057716436637,-1.2924303451861346e-05,0.1882057716436637,9.51748929834491e-05,0.1882057716436637,-2.7351241725424155e-05
0.1889998888235948,-1.2923765434763535e-05,0.1889998888235948,-6.2113600959205776e-06,0.1889998888235948,4.885058665317071e-05,0.1889998888235948,-5.8575028554949455e-05
0.1897940060035258,-1.2253e-05,0.1897940060035258,-3.189152691257102e-06,0.1897940060035258,-1.8967459423975883e-05,0.1897940060035258,-7.133584923542526e-05
0.1905881231834569,-1.2253312488814807e-05,0.1905881231834569,-4.867109186860081e-06,0.1905881231834569,-7.973699345792153e-05,0.1905881231834569,-6.46190053232819e-05
0.191382240363388,-1.4266488627297829e-05,0.191382240363388,-1.5104367524728706e-06,0.191382240363388,-0.0001351305849703,0.191382240363388,-4.530786727589259e-05
0.192176357543319,-1.19169980445479e-05,0.192176357543319,-8.409067477907046e-07,0.192176357543319,-0.000173388,0.192176357543319,-7.537216441991953e-06
0.1929704747232501,-1.124634361108157e-05,0.1929704747232501,-4.529490149622981e-06,0.1929704747232501,-0.000173388,0.1929704747232501,2.800728873160745e-05
0.1937645919031812,-1.2923537291548709e-05,0.1937645919031812,-8.558239509996415e-06,0.1937645919031812,-0.0001784214116176,0.1937645919031812,4.17874257906994e-05
0.1945587090831123,-1.6280170015123335e-05,0.1945587090831123,-1.2587224021811945e-05,0.1945587090831123,-0.0001898328183445,0.1945587090831123,4.0787768995463e-05
0.1953528262630433,-1.35963876422805e-05,0.1953528262630433,-1.5105849096302646e-05,0.1953528262630433,-0.0001906768161976,0.1953528262630433,3.071860365855188e-05
0.1961469434429744,-1.0239039120824704e-05,0.1961469434429744,-1.2588879337057002e-05,0.1961469434429744,-0.0001750681119082,0.1961469434429744,3.608721740668048e-05
0.1969410606229055,-1.2253179417840852e-05,0.1969410606229055,-1.3596005048960976e-05,0.1969410606229055,-0.0001508945390948,0.1969410606229055,4.817198233627172e-05
0.1977351778028366,-1.4602599302709098e-05,0.1977351778028366,-1.6281888621901064e-05,0.1977351778028366,-0.0001317559860541,0.1977351778028366,3.876432946440405e-05
0.1985292949827676,-1.3259477196760422e-05,0.1985292949827676,-1.8466638576845813e-05,0.1985292949827676,-0.0001048898071157,0.1985292949827676,-8.551897087602896e-07
0.1993234121626987,-1.158284111309459e-05,0.1993234121626987,-2.718514621190813e-05,0.1993234121626987,-6.129726894045933e-05,0.1993234121626987,-4.377692761273353e-05
0.2001175293426297,-9.568603946307956e-06,0.2001175293426297,-2.7694801541579464e-05,0.2001175293426297,2.529386029097492e-05,0.2001175293426297,-7.534559486686198e-05
0.2009116465225608,-6.3796897594965975e-06,0.2009116465225608,-1.913861092307604e-05,0.2009116465225608,9.648161698017967e-05,0.2009116465225608,-9.885273862595102e-05
0.2017057637024919,-3.1900890975716387e-06,0.2017057637024919,-1.661784927737537e-05,0.2017057637024919,0.0001225222573282,0.2017057637024919,-9.147999792394966e-05
0.202499880882423,-5.039508982517832e-07,0.202499880882423,-2.064489565082206e-05,0.202499880882423,8.141306937535481e-05,0.202499880882423,-7.687719074326671e-05
0.203293998062354,2.182033446198155e-06,0.203293998062354,-1.997410163845778e-05,0.203293998062354,6.009005202091258e-05,0.203293998062354,-5.857944464785255e-05
0.2040881152422851,7.217398190065718e-06,0.2040881152422851,-1.762400510410515e-05,0.2040881152422851,9.651276403628917e-05,0.2040881152422851,-2.6349668921385068e-05
0.2048822324222162,6.375567664360866e-06,0.2048822324222162,-1.6280466447189054e-05,0.2048822324222162,9.281136294397308e-05,0.2048822324222162,-8.223823868444118e-06
0.2056763496021472,-2.854030493418057e-06,0.2056763496021472,-1.30906499696192e-05,0.2056763496021472,6.125333771211763e-05,0.2056763496021472,-5.531501183634079e-06
0.2064704667820783,-4.195329371455377e-06,0.2064704667820783,-9.569774127293024e-06,0.2064704667820783,3.476258747915095e-05,0.2064704667820783,1.157011694748998e-05
0.2072645839620094,1.1721256287482411e-06,0.2072645839620094,-2.185909766365912e-06,0.2072645839620094,1.293583339467227e-05,0.2072645839620094,1.5943413310586e-05
0.2080587011419405,-2.180776447697026e-06,0.2080587011419405,-4.531045511882336e-06,0.2080587011419405,-1.001856245521608e-06,0.2080587011419405,-8.329282211709379e-07
0.2088528183218715,-4.867015500044074e-06,0.2088528183218715,-8.55938825121018e-06,0.2088528183218715,-1.5606658655488592e-05,0.2088528183218715,-3.5242155014169565e-06
0.2096469355018026,-6.881656383344894e-06,0.2096469355018026,-6.881956347077201e-06,0.2096469355018026,-3.239353652922799e-05,0.2096469355018026,-5.538866382532575e-06
0.2104410526817337,-8.8962104619588e-06,0.2104410526817337,-4.1962522736247e-06,0.2104410526817337,-5.3545080495474106e-05,0.2104410526817337,-2.5345779114242196e-05
0.2112351698616647,-1.191708454951816e-05,0.2112351698616647,-4.533043156544212e-06,0.2112351698616647,-7.133611545048184e-05,0.2112351698616647,-3.407074279878379e-05
0.2120292870415958,-1.091007879262424e-05,0.2120292870415958,-9.734714566809088e-06,0.2120292870415958,-7.23393031930923e-05,0.2120292870415958,-2.165235758524848e-05
0.2128234042215269,-1.0574751575891087e-05,0.2128234042215269,-8.225742091509892e-06,0.2128234042215269,-6.21118730272078e-05,0.2128234042215269,-2.0981703151782176e-05
0.2136175214014579,-5.542065224937511e-06,0.2136175214014579,-8.560107650465295e-06,0.2136175214014579,-4.851659512601712e-05,0.2136175214014579,-2.4671574215395137e-05
0.214411638581389,-3.5257468379926086e-06,0.214411638581389,-9.063630790501848e-06,0.214411638581389,-5.823926861636906e-05,0.214411638581389,-1.8969597662127007e-05
0.2152057557613201,-8.223164322338814e-06,0.2152057557613201,-1.107748040891866e-05,0.2152057557613201,-7.200306624245017e-05,0.2152057557613201,-1.5611032631295212e-05
0.2159998729412512,-8.22461e-06,0.2159998729412512,-8.896359185925905e-06,0.2159998729412512,-4.247062732156399e-05,0.2159998729412512,-1.561e-05
0.2167939901211822,-5.539063413545669e-06,0.2167939901211822,-6.8818450602214605e-06,0.2167939901211822,-2.182541205175734e-06,0.2167939901211822,-1.4267216706897252e-05
0.2175881073011133,-7.5533560980834016e-06,0.2175881073011133,-8.22442853543833e-06,0.2175881073011133,3.810202683239134e-05,0.2175881073011133,-1.1918933179703626e-05
0.2183822244810444,-8.560594729042614e-06,0.2183822244810444,-6.882009819361742e-06,0.2183822244810444,3.976938542628086e-05,0.2183822244810444,-2.4006148918258323e-05
0.2191763416609755,-9.566255834843835e-06,0.2191763416609755,-7.552931457636553e-06,0.2191763416609755,1.1661394837006262e-06,0.2191763416609755,-3.726228361471552e-05
0.2199704588409065,-6.8836480898739465e-06,0.2199704588409065,-6.882277024170244e-06,0.2199704588409065,-1.9288760803649727e-05,0.2199704588409065,-3.675934273409252e-05
0.2207645760208376,-3.526622561471356e-06,0.2207645760208376,-6.210778513362229e-06,0.2207645760208376,-3.976936539584991e-05,0.2207645760208376,-1.1595044197685696e-05
0.2215586932007686,-4.195970573042932e-06,0.2215586932007686,-7.552701146085864e-06,0.2215586932007686,-6.528354181427112e-05,0.2215586932007686,2.767992360029093e-05
0.2223528103806997,-3.52499034055186e-06,0.2223528103806997,-1.4265596599257702e-05,0.2223528103806997,-7.267693627781107e-05,0.2223528103806997,5.320210708291084e-05
0.2231469275606308,-1.0073297012253651e-06,0.2231469275606308,-1.8966571220973267e-05,0.2231469275606308,-6.495840441356343e-05,0.2231469275606308,5.589355498341329e-05
0.2239410447405619,-1.67849e-07,0.2239410447405619,-2.400262699355105e-05,0.2239410447405619,-4.649243135036697e-05,0.2239410447405619,5.488556503787957e-05
0.2247351619204929,-1.6764362302407606e-07,0.2247351619204929,-2.803038924400885e-05,0.2247351619204929,-1.509951986773777e-05,0.2247351619204929,3.4737406424788135e-05
0.225529279100424,8.390102928460305e-07,0.225529279100424,-2.6012475141481343e-05,0.225529279100424,1.8642849631937812e-05,0.225529279100424,-1.5208932578625147e-06
0.2263233962803551,1.683588560483248e-07,0.2263233962803551,-1.4276122444774386e-05,0.2263233962803551,5.150471709388006e-05,0.2263233962803551,-3.0694221269112124e-05
0.2271175134602862,-3.1870829364392013e-06,0.2271175134602862,-1.2254234242180763e-05,0.2271175134602862,6.427848313285516e-05,0.2271175134602862,-3.3064860050789105e-05
0.2279116306402172,-5.537936857859058e-06,0.2279116306402172,-1.2588543836172453e-05,0.2279116306402172,4.482475750199772e-05,0.2279116306402172,-3.776391370641434e-05
0.2287057478201483,-5.53903e-06,0.2287057478201483,-1.1581919861874828e-05,0.2287057478201483,1.1888006050169431e-06,0.2287057478201483,-5.3203295483013314e-05
0.2294998650000794,-2.853896617678556e-06,0.2294998650000794,-1.527367214835414e-05,0.2294998650000794,-3.6752550278478366e-05,0.2294998650000794,-5.018741369680116e-05
0.2302939821800104,-3.189132465780241e-06,0.2302939821800104,-1.6281377397340723e-05,0.2302939821800104,-3.440915273953831e-05,0.2302939821800104,-4.481582054751613e-05
0.2310880993599415,-4.196314017965691e-06,0.2310880993599415,-9.567073929388624e-06,0.2310880993599415,-1.762205754788154e-05,0.2310880993599415,-3.390589909159396e-05
0.2318822165398726,-4.867172241800016e-06,0.2318822165398726,-6.881636895629125e-06,0.2318822165398726,-4.994739555655031e-07,0.2318822165398726,-3.70967141208076e-05
0.2326763337198036,-3.190267334880965e-06,0.2326763337198036,-6.211406421169145e-06,0.2326763337198036,1.4435915987400768e-05,0.2326763337198036,-4.44770407658767e-05
0.2334704508997347,-5.872865090955511e-06,0.2334704508997347,-8.558686949405883e-06,0.2334704508997347,1.6615592840642997e-05,0.2334704508997347,-3.74352691034339e-05
0.2342645680796658,-3.19060090253278e-06,0.2342645680796658,-8.56031e-06,0.2342645680796658,-7.2045544369834975e-06,0.2342645680796658,-1.1595661237196176e-05
0.2350586852595969,-7.551490085266542e-06,0.2350586852595969,-9.063660393539066e-06,0.2350586852595969,-3.9096258305042e-05,0.2350586852595969,1.5934788219775454e-05
0.2358528024395279,-9.566908835859985e-06,0.2358528024395279,-1.007074940673324e-05,0.2358528024395279,-5.924578835859984e-05,0.2358528024395279,2.2657929469454395e-05
0.236646919619459,-8.560411953706315e-06,0.236646919619459,-1.1413564071848408e-05,0.236646919619459,-6.395012421603719e-05,0.236646919619459,1.8967373820132997e-05
0.2374410367993901,-5.874673324562007e-06,0.2374410367993901,-1.2253e-05,0.2374410367993901,-5.656615685366261e-05,0.2374410367993901,1.863055318743049e-05
0.2382351539793211,-4.86841121815852e-06,0.2382351539793211,-1.2253e-05,0.2382351539793211,-7.721743791401632e-05,0.2382351539793211,2.512531884114629e-06
0.2390292711592522,-8.896467999914873e-06,0.2390292711592522,-1.225277099833716e-05,0.2390292711592522,-0.0001119608396447,0.2390292711592522,-2.4339932013302725e-05
0.2398233883391833,-1.0237766877952146e-05,0.2398233883391833,-1.1582116564870847e-05,0.2398233883391833,-0.0001290628273649,0.2398233883391833,-2.97051674810332e-05
0.2406175055191144,-9.064591719611745e-06,0.2406175055191144,-1.15816e-05,0.2406175055191144,-0.0001176691083184,0.2406175055191144,-1.4276816905898626e-05
0.2414116226990454,-8.225008803307423e-06,0.2414116226990454,-1.15816e-05,0.2414116226990454,-0.0001002142949187,0.2414116226990454,-1.695152382941625e-05
0.2422057398789765,-1.0238140134553822e-05,0.2422057398789765,-1.4266320175036984e-05,0.2422057398789765,-4.0471276007144575e-05,0.2422057398789765,-1.8966340131277734e-05
0.2429998570589076,-9.567530868035304e-06,0.2429998570589076,-1.3595920869835568e-05,0.2429998570589076,3.523467198904885e-05,0.2429998570589076,-1.0911650438026832e-05
0.2437939742388386,-1.2252912866602909e-05,0.2437939742388386,-1.0238908917151923e-05,0.2437939742388386,4.615814602087848e-05,0.2437939742388386,-3.440833758318101e-05
0.2445880914187697,-1.3595645394050354e-05,0.2445880914187697,-6.210535954462234e-06,0.2445880914187697,2.1815471952625594e-05,0.2445880914187697,-3.910828157620142e-05
0.2453822085987008,-1.2252470831859978e-05,0.2453822085987008,-7.218137360202837e-06,0.2453822085987008,-2.0987814549206514e-05,0.2453822085987008,-3.373373126522172e-05
0.2461763257786318,-1.0236461413457987e-05,0.2461763257786318,-9.566378269317458e-06,0.2461763257786318,-4.616565336114402e-05,0.2461763257786318,-1.861823140042688e-05
0.2469704429585629,-4.535928695680199e-06,0.2469704429585629,-7.051434132714056e-06,0.2469704429585629,-6.360266863126866e-05,0.2469704429585629,1.323775430027046e-05
0.247764560138494,2.513834611507585e-06,0.247764560138494,-3.526782697016116e-06,0.247764560138494,-6.462144208498402e-05,0.247764560138494,3.943009426498267e-05
0.2485586773184251,1.1754857138775591e-06,0.2485586773184251,-1.8470221382829496e-06,0.2485586773184251,-7.911966325982881e-06,0.2485586773184251,7.199406651974918e-05
0.2493527944983561,-2.8523973819747923e-06,0.2493527944983561,-4.866848035187003e-06,0.2493527944983561,6.2067708369117735e-06,0.2493527944983561,3.6096896671783706e-05
0.2501469116782872,-3.0212713289678973e-06,0.2501469116782872,-1.124519050411719e-05,0.2501469116782872,2.668572214743184e-05,0.2501469116782872,-4.178583667447525e-05
0.2509410288582183,-8.391727936785854e-07,0.2509410288582183,-1.896729282368646e-05,0.2509410288582183,8.812296198511629e-05,0.2509410288582183,-0.0001166556954685
0.2517351460381494,1.175186977364009e-06,0.2517351460381494,-2.7024440932092027e-05,0.2517351460381494,0.0001448654226111,0.2517351460381494,-0.0001357854308819
0.2525292632180804,2.5188514689706734e-06,0.2525292632180804,-3.105021049149273e-05,0.2525292632180804,0.0002069892322323,0.2525292632180804,-0.0001109422204593
0.2533233803980115,5.872103658511529e-06,0.2533233803980115,-2.5349647807029103e-05,0.2533233803980115,0.0003012154809117,0.2533233803980115,-9.350560474504548e-05
0.2541174975779426,5.87472e-06,0.2541174975779426,-3.17194639816011e-05,0.2541174975779426,0.0003425538721546,0.2541174975779426,-3.914331217756917e-05
0.2549116147578736,1.057221970624603e-05,0.2549116147578736,-3.054917005160487e-05,0.2549116147578736,0.0002972829883978,0.2549116147578736,4.058081645044361e-05
0.2557057319378047,1.3762523328530287e-05,0.2557057319378047,-2.870282336276745e-05,0.2557057319378047,0.0001945716806309,0.2557057319378047,7.401022315686831e-05
0.2564998491177358,9.23257118617661e-06,0.2564998491177358,-2.4003293093784893e-05,0.2564998491177358,0.000111635756555,0.2564998491177358,5.958924305476509e-05
0.2572939662976669,8.3960222873759e-07,0.2572939662976669,-1.3596241721284788e-05,0.2572939662976669,8.275092543635849e-05,0.2572939662976669,3.541722593892047e-05
0.2580880834775979,-6.881961174916555e-06,0.2580880834775979,-1.2924611763951865e-05,0.2580880834775979,4.0109647102471134e-05,0.2580880834775979,2.5678517670260483e-05
0.258882200657529,-8.22596739258613e-06,0.258882200657529,-1.4936224566133236e-05,0.258882200657529,-2.0323373875317853e-05,0.258882200657529,3.017769271587905e-06
0.2596763178374601,-1.359673947955651e-05,0.2596763178374601,-5.538090524441445e-06,0.2596763178374601,-7.403612911876763e-05,0.2596763178374601,-1.0909663158537092e-05
0.2604704350173911,-1.594402999668859e-05,0.2604704350173911,-3.190809996204708e-06,0.2604704350173911,-0.0001105869955205,0.2604704350173911,-9.56836428049982e-06
0.2612645521973222,-1.628121067083256e-05,0.2612645521973222,-2.853629329167439e-06,0.2612645521973222,-0.0001408089603749,0.2612645521973222,-1.0909442688970076e-05
0.2620586693772533,-1.2925797859648118e-05,0.2620586693772533,1.1732625767502866e-06,0.2620586693772533,-0.0001693481184011,0.2620586693772533,-1.6614723638598198e-05
0.2628527865571843,-1.242093537758433e-05,0.2628527865571843,-1.8455278205163105e-06,0.2628527865571843,-0.0001811058416377,0.2628527865571843,-1.3596612184860085e-05
0.2636469037371154,-1.258867964415828e-05,0.2636469037371154,-1.680524967071141e-07,0.2636469037371154,-0.0001856404505498,0.2636469037371154,2.1801271279706764e-06
0.2644410209170465,-1.2253008843642975e-05,0.2644410209170465,2.51766040752934e-06,0.2644410209170465,-0.0001807733190368,0.2644410209170465,1.5945355098977675e-05
0.2652351380969776,-1.2588991934227784e-05,0.2652351380969776,-5.039567065274922e-07,0.2652351380969776,-0.0001549188110291,0.2652351380969776,2.848360372264665e-06
0.2660292552769086,-1.4265475294617904e-05,0.2660292552769086,-2.854086762511392e-06,0.2660292552769086,-0.0001193286036569,0.2660292552769086,-2.6360923510855325e-05
0.2668233724568397,-8.900249815782403e-06,0.2668233724568397,-4.866040074015114e-06,0.2668233724568397,-8.076597373267144e-05,0.2668233724568397,-5.318700096055612e-05
0.2676174896367708,-7.050856780912674e-06,0.2676174896367708,-4.5321457795164406e-06,0.2676174896367708,-6.865806806259185e-05,0.2676174896367708,-6.897585842700478e-05
0.2684116068167018,-1.0908288292294742e-05,0.2684116068167018,-7.048423232598157e-06,0.2684116068167018,-8.106504925638804e-05,0.2684116068167018,-6.8986e-05
0.2692057239966329,-1.3594866455110138e-05,0.2692057239966329,-6.881878346555616e-06,0.2692057239966329,-8.140678330688877e-05,0.2692057239966329,-6.99927499206663e-05
0.269999841176564,-1.0910737199269215e-05,0.269999841176564,-1.0405994919958266e-05,0.269999841176564,-7.3687344447899e-05,0.269999841176564,-6.059548017743931e-05
0.270793958356495,-6.210666492835722e-06,0.270793958356495,-2.181980137723913e-05,0.270793958356495,-7.670694153964557e-05,0.270793958356495,-2.568273109218425e-05
0.2715880755364261,-6.042729682482778e-06,0.2715880755364261,-2.5680165470092623e-05,0.2715880755364261,-7.872042175110143e-05,0.2715880755364261,-1.4938232735046313e-05
0.2723821927163572,-7.721721844874562e-06,0.2723821927163572,-1.7959207410421553e-05,0.2723821927163572,-6.94860149175096e-05,0.2723821927163572,-1.107414823944622e-05
0.2731763098962882,-1.0405980264895912e-05,0.2731763098962882,-1.510659630662992e-05,0.2731763098962882,-5.4714777989559e-05,0.2731763098962882,5.215107177700395e-06
0.2739704270762193,-8.561640617282312e-06,0.2739704270762193,-1.5609637076206343e-05,0.2739704270762193,-4.415202060694208e-05,0.2739704270762193,3.539442682804271e-05
0.2747645442561504,-7.889295373325676e-06,0.2747645442561504,-1.9636087760045948e-05,0.2747645442561504,-4.313787805998851e-05,0.2747645442561504,4.145533164006892e-05
0.2755586614360815,-4.868918282614258e-06,0.2755586614360815,-2.366498232111721e-05,0.2755586614360815,-3.5083935443046174e-05,0.2755586614360815,8.406559583931032e-06
0.2763527786160125,-4.86763e-06,0.2763527786160125,-2.36667e-05,0.2763527786160125,-2.098513118294032e-05,0.2763527786160125,-1.1743784023574344e-05
0.2771468957959436,1.1741469769462887e-06,0.2771468957959436,-2.23240762282202e-05,0.2771468957959436,-1.5610704912880794e-05,0.2771468957959436,-4.868533159129368e-06
0.2779410129758747,5.7067630206787904e-06,0.2779410129758747,-1.6281290277212808e-05,0.2779410129758747,-1.762421097229506e-05,0.2779410129758747,1.0574683785125163e-05
0.2787351301558057,-8.40401610451066e-07,0.2787351301558057,-9.567134853249444e-06,0.2787351301558057,-1.829529733037818e-05,0.2787351301558057,2.1818171321155945e-05
0.2795292473357368,-7.88849223905149e-06,0.2795292473357368,-7.888701121081316e-06,0.2795292473357368,-1.6447476738809644e-05,0.2795292473357368,8.213225988486167e-06
0.2803233645156679,-6.547193361014216e-06,0.2803233645156679,-7.218056676510351e-06,0.2803233645156679,-1.0914627607189316e-05,0.2803233645156679,-2.8337250846416115e-05
0.2811174816955989,-3.1913313570630984e-06,0.2811174816955989,-1.2249712957877588e-05,0.2811174816955989,-4.200612720653961e-06,0.2811174816955989,-4.883073270755402e-05
0.2819115988755301,-4.531251629814912e-06,0.2819115988755301,-1.493724324952593e-05,0.2819115988755301,3.8564597687855765e-06,0.2819115988755301,-4.8508569593809256e-05
0.2827057160554611,-3.5251901518200347e-06,0.2827057160554611,-1.0911640607280138e-05,0.2827057160554611,4.531689898786644e-06,0.2827057160554611,-5.723347868422637e-05
0.2834998332353922,-3.0213957590058013e-06,0.2834998332353922,-5.204528619568333e-06,0.2834998332353922,1.8469040571322844e-06,0.2834998332353922,-4.481830877395075e-05
0.2842939504153233,-3.524798554322287e-06,0.2842939504153233,1.678060235743334e-06,0.2842939504153233,7.217184574025458e-06,0.2842939504153233,-1.661886098043367e-05
0.2850880675952543,1.678204211691551e-07,0.2850880675952543,-1.6837770905169138e-07,0.2850880675952543,1.326004284199778e-05,0.2850880675952543,-8.223666897219998e-06
0.2858821847751854,-1.686302176153322e-07,0.2858821847751854,-6.379090278484463e-06,0.2858821847751854,1.2587606291475476e-05,0.2858821847751854,2.8557836568021405e-06
0.2866763019551165,-3.5244474893354745e-06,0.2866763019551165,-9.9031e-06,0.2866763019551165,7.890440054052636e-06,0.2866763019551165,1.2919172322853216e-05
0.2874704191350475,-2.518475828031356e-06,0.2874704191350475,-9.9031e-06,0.2874704191350475,1.1914356665955144e-05,0.2874704191350475,-8.291896231712554e-07
0.2882645363149786,-2.51774e-06,0.2882645363149786,-9.56760603831842e-06,0.2882645363149786,1.0575284176633134e-05,0.2882645363149786,-7.884793093699552e-06
0.2890586534949096,-4.8666044976741245e-06,0.2890586534949096,-6.211885005192986e-06,0.2890586534949096,6.547878002740347e-06,0.2890586534949096,-1.3928862987161391e-05
0.2898527706748408,-4.86763e-06,0.2898527706748408,-1.0405488019421584e-05,0.2898527706748408,1.0573336512739264e-05,0.2898527706748408,-1.6280721295728305e-05
0.2906468878547718,-6.210230343210428e-06,0.2906468878547718,-1.225273922703432e-05,0.2906468878547718,9.903194829100993e-06,0.2906468878547718,-1.6952705170899012e-05
0.2914410050347029,-7.217515742695829e-06,0.2914410050347029,-1.292439574269583e-05,0.2914410050347029,5.87469658495388e-06,0.2914410050347029,-1.7624157426958293e-05
0.292235122214634,-6.545758298556402e-06,0.292235122214634,-1.2253103343709378e-05,0.292235122214634,2.182298357734219e-06,0.292235122214634,-1.0909011553499057e-05
0.293029239394565,-4.196331087742756e-06,0.293029239394565,-1.2924298912257244e-05,0.293029239394565,3.86012565204023e-06,0.293029239394565,-3.189645435702526e-06
0.2938233565744961,-4.53165830447591e-06,0.2938233565744961,-1.258897169552409e-05,0.2938233565744961,2.5188267740029564e-06,0.2938233565744961,-4.866271530472954e-06
0.2946174737544272,-5.538362516478147e-06,0.2946174737544272,-1.25887e-05,0.2946174737544272,-1.5079700791681411e-06,0.2946174737544272,-9.228817584660858e-06
0.2954115909343582,-6.881128199933144e-06,0.2954115909343582,-1.2253172951304704e-05,0.2954115909343582,-2.181694097390592e-06,0.2954115909343582,-1.2251443443409622e-05
0.2962057081142893,-8.224116371267648e-06,0.2962057081142893,-1.3595306367591504e-05,0.2962057081142893,-1.007531924681291e-06,0.2962057081142893,-1.393088295948938e-05
0.2969998252942204,-8.560236135100505e-06,0.2969998252942204,-1.258892159469849e-05,0.2969998252942204,-1.0236768726265472e-05,0.2969998252942204,-7.722436496240033e-06
0.2977939424741515,-6.378428090305447e-06,0.2977939424741515,-1.2253024321696917e-05,0.2977939424741515,-2.601545688749002e-05,0.2977939424741515,-1.5110899499439298e-06
0.2985880596540825,-4.867579556988671e-06,0.2985880596540825,-1.2756563057520716e-05,0.2985880596540825,-3.0380851329033985e-05,0.2985880596540825,5.033462288562569e-07
0.2993821768340136,-4.196678586022623e-06,0.2993821768340136,-1.359662241179121e-05,0.2993821768340136,-3.239841391901843e-05,0.2993821768340136,-2.18540440296462e-06
0.3001762940139447,-6.21029584845128e-06,0.3001762940139447,-1.7287879242256397e-05,0.3001762940139447,-4.818052151058649e-05,0.3001762940139447,-1.7293590176514645e-05
0.3009704111938757,-5.874968631718125e-06,0.3009704111938757,-1.5611243158590627e-05,0.3009704111938757,-6.930603627582177e-05,0.3009704111938757,-3.104190617362053e-05
0.3017645283738068,-7.887713596017504e-06,0.3017645283738068,-1.4938998803307456e-05,0.3017645283738068,-7.97222185487344e-05,0.3017645283738068,-4.212361974542695e-05
0.3025586455537379,-9.734435778518814e-06,0.3025586455537379,-1.3931949575353376e-05,0.3025586455537379,-6.731304476269162e-05,0.3025586455537379,-5.3035529622658734e-05
0.3033527627336689,-7.218272361375667e-06,0.3033527627336689,-1.1582302206739646e-05,0.3033527627336689,-4.264107312594268e-05,0.3033527627336689,-3.1729870003339885e-05
0.3041468799136,-5.53928385871728e-06,0.3041468799136,-1.2924196911816238e-05,0.3041468799136,-2.5012165524849765e-05,0.3041468799136,-4.536042516059685e-06
0.3049409970935311,-6.881815084663258e-06,0.3049409970935311,-8.896024746083435e-06,0.3049409970935311,-1.3595841780307397e-05,0.3049409970935311,-5.874715084663259e-06
0.3057351142734621,-6.378753142153459e-06,0.3057351142734621,-7.553896398151315e-06,0.3057351142734621,-6.881240230567218e-06,0.3057351142734621,-1.6778860733875852e-06
0.3065292314533932,-9.735748654884694e-06,0.3065292314533932,-1.22533909378823e-05,0.3065292314533932,-2.8492374352334627e-06,0.3065292314533932,2.5155409831461564e-06
0.3073233486333243,-1.1412324805178511e-05,0.3073233486333243,-1.359469980481501e-05,0.3073233486333243,1.156977295092112e-05,0.3073233486333243,-5.029291426664312e-06
0.3081174658132554,-6.884868954942306e-06,0.3081174658132554,-1.527317073998635e-05,0.3081174658132554,5.083187545023644e-05,0.3081174658132554,-1.77834176777186e-05
0.3089115829931864,-6.2107726176003e-06,0.3089115829931864,-1.560982369119985e-05,0.3089115829931864,3.877954706428563e-05,0.3089115829931864,-3.532323081990558e-06
0.3097057001731175,-5.539283527418888e-06,0.3097057001731175,-1.25898408903777e-05,0.3097057001731175,-3.4381465213024856e-05,0.3097057001731175,1.2918188512154512e-05
0.3104998173530486,-8.223992225441144e-06,0.3104998173530486,-9.064670832846553e-06,0.3104998173530486,-6.528629556266875e-05,0.3104998173530486,-1.6778065852552734e-05
0.3112939345329796,-6.210586074329648e-06,0.3112939345329796,-4.867975988255475e-06,0.3112939345329796,-4.481738843073405e-05,0.3112939345329796,-3.776437005460001e-05
0.3120880517129107,-7.2176949107795345e-06,0.3120880517129107,-4.867695591379502e-06,0.3120880517129107,-6.878518546173173e-06,0.3120880517129107,-3.642227239803046e-05
0.3128821688928418,-9.90331422163854e-06,0.3128821688928418,-5.876647990492625e-06,0.3128821688928418,4.382101775485157e-05,0.3128821688928418,-2.064828486002987e-05
0.3136762860727728,-1.0909354415662623e-05,0.3136762860727728,-1.4942586307141804e-05,0.3136762860727728,0.0001017243079898,0.3136762860727728,-3.374253189507758e-05
0.314470403252704,-8.562073887425723e-06,0.314470403252704,-2.6008284570383228e-05,0.314470403252704,0.0001220107555461,0.314470403252704,-4.715552067545125e-05
0.315264520432635,-2.8568868874158907e-06,0.315264520432635,-3.037806413106104e-05,0.315264520432635,0.0001284011471533,0.315264520432635,-1.0261103385608772e-05
0.3160586376125661,5.535199615028546e-06,0.3160586376125661,-1.964330286464877e-05,0.3160586376125661,8.847483274327983e-05,0.3160586376125661,-1.0909893568106905e-05
0.3168527547924971,1.1747482078942664e-05,0.3168527547924971,-1.6282436727439664e-05,0.3168527547924971,1.932405649260944e-05,0.3168527547924971,1.5098365408666426e-05
0.3176468719724282,6.379136061374737e-06,0.3176468719724282,-2.0476923388795157e-05,0.3176468719724282,-1.4933078802905384e-05,0.3176468719724282,5.3537702191700544e-05
0.3184409891523593,-2.8533138762306134e-06,0.3184409891523593,-1.443508255409766e-05,0.3184409891523593,1.9302232194812808e-05,0.3184409891523593,3.306657976529808e-05
0.3192351063322903,-7.553309912388446e-06,0.3192351063322903,-1.2588655043136178e-05,0.3192351063322903,7.738510860541388e-05,0.3192351063322903,6.207317987109887e-06
0.3200292235122214,-8.22461e-06,0.3200292235122214,-1.225337752479367e-05,0.3200292235122214,0.0001267297752479,0.3200292235122214,-1.695676398221879e-05
0.3208233406921525,-8.22461e-06,0.3208233406921525,-1.3594686391726287e-05,0.3208233406921525,0.0001401428639172,0.3208233406921525,-3.1040407196057825e-05
0.3216174578720835,-4.869922081326141e-06,0.3216174578720835,-1.292485841899635e-05,0.3216174578720835,0.0001163362733964,0.3216174578720835,-1.7633368311648946e-05
0.3224115750520147,-3.190038326125752e-06,0.3224115750520147,-1.0911277997773287e-05,0.3224115750520147,7.572173978232102e-05,0.3224115750520147,4.184551728253293e-06
0.3232056922319457,-2.1824303692789034e-06,0.3232056922319457,-6.883381469363269e-06,0.3232056922319457,3.2172464562912e-06,0.3232056922319457,-9.058720161084806e-06
0.3239998094118768,-4.19574652305803e-06,0.3239998094118768,-5.050790111963683e-07,0.3239998094118768,-8.474278815513126e-05,0.3239998094118768,-2.7690627842487395e-05
0.3247939265918079,-5.035402408280541e-06,0.3247939265918079,2.8531296342316093e-06,0.3247939265918079,-0.0001480371496167,0.3247939265918079,-4.447844817485619e-05
0.3255880437717389,-1.1917466558633385e-05,0.3255880437717389,1.846080909895077e-06,0.3255880437717389,-0.0001881594626353,0.3255880437717389,-5.052252597394072e-05
0.32638216095167,-1.4936694613994074e-05,0.32638216095167,-2.85344e-06,0.32638216095167,-0.0001965425619972,0.32638216095167,-4.918435931079487e-05
0.3271762781316011,-5.5383253299737074e-06,0.3271762781316011,-2.854379556536546e-06,0.3271762781316011,-0.0001549035075991,0.3271762781316011,-7.168005600533041e-05
0.3279703953115321,-3.5263620295747805e-06,0.3279703953115321,-5.536987301506437e-06,0.3279703953115321,-9.353872682596936e-05,0.3279703953115321,-9.582351572116408e-05
0.3287645124914632,-1.5118766937275318e-06,0.3287645124914632,-1.761677981921509e-05,0.3287645124914632,-4.216173566242248e-05,0.3287645124914632,-4.51825234905324e-05
0.3295586296713942,3.5224814123623773e-06,0.3295586296713942,-2.3999425151243023e-05,0.3295586296713942,-2.333976811275158e-05,0.3295586296713942,-1.5309944355209088e-06
0.3303527468513254,2.518061087529895e-06,0.3303527468513254,-2.40024e-05,0.3303527468513254,-3.876827660898812e-05,0.3303527468513254,1.174083764461432e-06
0.3311468640312564,-2.8525202108359746e-06,0.3311468640312564,-2.7023182616668727e-05,0.3311468640312564,-5.488394063935773e-05,0.3311468640312564,8.559045290327578e-06
0.3319409812111875,-1.5106717753368171e-06,0.3319409812111875,-2.299539532601045e-05,0.3319409812111875,-4.582301448352352e-05,0.3319409812111875,2.534480281089277e-05
0.3327350983911186,-1.6805699572673345e-07,0.3327350983911186,-1.7791646411564517e-05,0.3327350983911186,-2.971036077769828e-05,0.3327350983911186,3.071473603765585e-05
0.3335292155710496,-1.8474323296916688e-06,0.3335292155710496,-1.4938144860368816e-05,0.3335292155710496,-3.826473004662012e-05,0.3335292155710496,1.7283584506625782e-05
0.3343233327509807,-5.871338952698833e-06,0.3343233327509807,-1.3261508776703045e-05,0.3343233327509807,-2.032487378482653e-05,0.3343233327509807,-8.240312569296999e-07
0.3351174499309118,-9.732585486501448e-06,0.3351174499309118,-1.2253697700980792e-05,0.3351174499309118,1.6256050266976083e-05,0.3351174499309118,-1.3586962486111272e-05
0.3359115671108428,-9.903008493556508e-06,0.3359115671108428,-1.0910932095163974e-05,0.3359115671108428,3.741886955568744e-05,0.3359115671108428,-2.2654658412163214e-05
0.3367056842907739,-6.547454797931759e-06,0.3367056842907739,-9.90350044176524e-06,0.3367056842907739,3.541700088353048e-05,0.3367056842907739,-2.7189797992175485e-05
0.337499801470705,-1.1580340944213596e-05,0.337499801470705,-9.23187787227125e-06,0.337499801470705,8.567024963360695e-06,0.337499801470705,-1.8969056453450487e-05
0.338293918650636,-1.2252931211633588e-05,0.338293918650636,-9.567375605816794e-06,0.338293918650636,-9.565552722303311e-06,0.338293918650636,-1.4939012730198466e-05
0.3390880358305671,-1.0406571231981511e-05,0.3390880358305671,-9.735191829412814e-06,0.3390880358305671,-3.843846953272733e-05,0.3390880358305671,-1.2253015149019374e-05
0.3398821530104982,-7.553996302809577e-06,0.3398821530104982,-8.2250305071512e-06,0.3398821530104982,-5.992388197850061e-05,0.3398821530104982,-1.2589152845553852e-05
0.3406762701904293,-1.1581428879394772e-05,0.3406762701904293,-1.0405958390146052e-05,0.3406762701904293,-6.86503e-05,0.3406762701904293,-1.49381436330711e-05
0.3414703873703603,-1.10784879987718e-05,0.3414703873703603,-8.22629152579932e-06,0.3414703873703603,-6.86503e-05,0.3414703873703603,-1.3596834766138576e-05
0.3422645045502914,-8.89737160686965e-06,0.3422645045502914,-7.218148416180064e-06,0.3422645045502914,-6.697294730830077e-05,0.3422645045502914,-1.0408689973130348e-05
0.3430586217302225,-7.889389792812245e-06,0.3430586217302225,-6.378669827343537e-06,0.3430586217302225,-6.260987910218639e-05,0.3430586217302225,-1.1581040265539565e-05
0.3438527389101535,-5.539802707567269e-06,0.3438527389101535,-6.881654418397748e-06,0.3438527389101535,-5.690277659149218e-05,0.3438527389101535,-1.1078265565160824e-05
0.3446468560900846,-6.210298312748008e-06,0.3446468560900846,-8.560005779151317e-06,0.3446468560900846,-5.0188116890644605e-05,0.3446468560900846,-1.25884262086673e-05
0.3454409732700157,-3.0213973619581506e-06,0.3454409732700157,-9.56737609601112e-06,0.3454409732700157,-4.716570171196664e-05,0.3454409732700157,-1.309218304968881e-05
0.3462350904499467,-2.8536694500985563e-06,0.3462350904499467,-8.895971758127046e-06,0.3462350904499467,-4.548660286704328e-05,0.3462350904499467,-9.56794538508219e-06
0.3470292076298778,-4.86763e-06,0.3470292076298778,-8.560485349308159e-06,0.3470292076298778,-4.112178488018881e-05,0.3470292076298778,-1.426833977050303e-05
0.3478233248098089,-4.86763e-06,0.3478233248098089,-9.231139782774469e-06,0.3478233248098089,-3.6091876629191496e-05,0.3478233248098089,-1.862759358803404e-05
0.34861744198974,-9.564107071209395e-06,0.34861744198974,-1.0909020384582738e-05,0.34861744198974,-2.5688213659159608e-05,0.34861744198974,-1.762490777346706e-05
0.349411559169671,-8.225355525145758e-06,0.349411559169671,-1.4936363424562727e-05,0.349411559169671,-2.0312782045062834e-05,0.349411559169671,-1.4940091050291514e-05
0.3502056763496021,-6.211241024426811e-06,0.3502056763496021,-1.5945289485748494e-05,0.3502056763496021,-1.9974236838083835e-05,0.3502056763496021,-1.426747367616767e-05
0.3509997935295332,-6.378226352559384e-06,0.3509997935295332,-1.2925185653931082e-05,0.3509997935295332,-1.4604296718099704e-05,0.3509997935295332,-6.883740482186325e-06
0.3517939107094642,-6.210438875839326e-06,0.3517939107094642,-1.1581751006714604e-05,0.3517939107094642,-6.547026038038494e-06,0.3517939107094642,3.859321951905998e-06
0.3525880278893953,-4.196277166095812e-06,0.3525880278893953,-1.2252988208476048e-05,0.3525880278893953,-8.390101707151993e-07,0.3525880278893953,6.209889383880885e-06
0.3533821450693264,-5.539091332899488e-06,0.3533821450693264,-1.191711599582033e-05,0.3533821450693264,5.875486689563169e-06,0.3533821450693264,-8.898708707870732e-06
0.3541762622492574,-5.87527369230022e-06,0.3541762622492574,-1.0909092621997024e-05,0.3541762622492574,1.0067511739168365e-05,0.3541762622492574,-2.366924698458101e-05
0.3549703794291886,-7.551909775966109e-06,0.3549703794291886,-7.555840432455936e-06,0.3549703794291886,-4.952935901476726e-07,0.3549703794291886,-3.13817729694441e-05
0.3557644966091196,-5.037076230925868e-06,0.3557644966091196,-8.391927927251335e-06,0.3557644966091196,-8.890689233205744e-06,0.3557644966091196,-3.574913318873927e-05
0.3565586137890507,-3.1900380815166125e-06,0.3565586137890507,-1.3593269034154789e-05,0.3565586137890507,-1.0238146851132677e-05,0.3565586137890507,-3.8100656980969984e-05
0.3573527309689818,-5.538233786776671e-06,0.3573527309689818,-1.2589041235690698e-05,0.3573527309689818,-1.393024880246744e-05,0.3573527309689818,-3.843738625476976e-05
0.3581468481489128,-3.5252152121659137e-06,0.3581468481489128,-1.2924335797972348e-05,0.3581468481489128,-1.4267135797972348e-05,0.3581468481489128,-2.3669524889216702e-05
0.3589409653288439,-2.8534693172134797e-06,0.3589409653288439,-1.6281253411749283e-05,0.3589409653288439,-1.1246031929425646e-05,0.3589409653288439,-5.539821570877243e-06
0.3597350825087749,-8.390366951897633e-07,0.3597350825087749,-1.5274195346867476e-05,0.3597350825087749,-8.224121620793187e-06,0.3597350825087749,3.356456737454832e-07
0.360529199688706,1.174096791204396e-06,0.360529199688706,-1.42672e-05,0.360529199688706,-3.5223846924833025e-06,0.360529199688706,-1.662890622210481e-07
0.3613233168686371,-2.179155398336459e-06,0.3613233168686371,-1.42672e-05,0.3613233168686371,6.202054648301455e-06,0.3613233168686371,6.03723348176674e-06
0.3621174340485681,8.370924721188055e-07,0.3621174340485681,-1.493812143603107e-05,0.3621174340485681,1.1913232220519795e-05,0.3621174340485681,1.191311257952756e-05
0.3629115512284993,-3.522363409400685e-06,0.3629115512284993,-1.4267579477563725e-05,0.3629115512284993,2.2653528415500776e-05,0.3629115512284993,1.6614443657053942e-05
0.3637056684084303,-4.531509413262228e-06,0.3637056684084303,-1.1247161760213317e-05,0.3637056684084303,3.390080346897596e-05,0.3637056684084303,9.234794298567447e-06
0.3644997855883614,-6.209966740817014e-06,0.3644997855883614,-1.225272804286997e-05,0.3644997855883614,3.340213596506302e-05,0.3644997855883614,-4.192603921135311e-06
0.3652939027682925,-8.56002223700607e-06,0.3652939027682925,-9.567738872168003e-06,0.3652939027682925,2.8031457746785168e-05,0.3652939027682925,-1.2587672274321916e-05
0.3660880199482235,-8.895984697914478e-06,0.3660880199482235,-8.56035638816174e-06,0.3660880199482235,2.064531445137284e-05,0.3660880199482235,-1.963849277180121e-05
0.3668821371281546,-7.888794047264833e-06,0.3668821371281546,-1.0406844934442504e-05,0.3668821371281546,1.325891147021633e-05,0.3668821371281546,-2.3331173931693332e-05
0.3676762543080857,-7.218486460293291e-06,0.3676762543080857,-1.1246436925939433e-05,0.3676762543080857,6.373383996343069e-06,0.3676762543080857,-2.4337885229624227e-05
0.3684703714880167,-1.0236411433100993e-05,0.3684703714880167,-1.2923073009605204e-05,0.3684703714880167,-8.883934442748043e-06,0.3684703714880167,-2.366723079615792e-05
0.3692644886679478,-1.0909767621738228e-05,0.3692644886679478,-1.4266335243476454e-05,0.3692644886679478,-2.0973417197728056e-05,0.3692644886679478,-2.383449187323481e-05
0.3700586058478789,-8.225943162462125e-06,0.3700586058478789,-1.577705011814339e-05,0.3700586058478789,-2.5343033652573656e-05,0.3700586058478789,-2.165368317371317e-05
0.3708527230278099,-6.882288407414398e-06,0.3708527230278099,-1.3932144047549657e-05,0.3708527230278099,-2.9036611870017534e-05,0.3708527230278099,-1.963910261635407e-05
0.371646840207741,-6.210555119046196e-06,0.371646840207741,-1.3763633789824034e-05,0.371646840207741,-3.440801904763044e-05,0.371646840207741,-1.4268280952369564e-05
0.3724409573876721,-3.52497413002746e-06,0.3724409573876721,-1.4267172972835829e-05,0.3724409573876721,-3.44091e-05,0.3724409573876721,-1.3595836032641034e-05
0.3732350745676032,-5.53903e-06,0.3732350745676032,-1.225312610752844e-05,0.3732350745676032,-3.4409604430113764e-05,0.3732350745676032,-1.661706847311789e-05
0.3740291917475342,-5.5391919338075634e-06,0.3740291917475342,-1.3595192751236534e-05,0.3740291917475342,-3.978507709435554e-05,0.3740291917475342,-1.6282047744877927e-05
0.3748233089274653,-6.209836378378528e-06,0.3748233089274653,-1.10802885702146e-05,0.3748233089274653,-5.956928299265821e-05,0.3748233089274653,-1.8964665478743167e-05
0.3756174261073964,-4.53314319017157e-06,0.3756174261073964,-9.903949274318938e-06,0.3756174261073964,-8.273295794816645e-05,0.3756174261073964,-2.2321473677479797e-05
0.3764115432873274,-3.8609161925546135e-06,0.3764115432873274,-9.567603090525258e-06,0.3764115432873274,-8.27497e-05,0.3764115432873274,-1.158777902335333e-05
0.3772056604672585,-2.8538706549478777e-06,0.3772056604672585,-8.56074065922411e-06,0.3772056604672585,-5.9260848672466895e-05,0.3772056604672585,-8.897158420321393e-06
0.3779997776471896,-4.195853963312017e-06,0.3779997776471896,-6.378881061368231e-06,0.3779997776471896,-1.4279797266853004e-05,0.3779997776471896,-2.855132169296543e-06
0.3787938948271206,-1.0909310670583412e-05,0.3787938948271206,-8.560020967972726e-06,0.3787938948271206,2.3661675292836308e-05,0.3787938948271206,-6.881286402614967e-06
0.3795880120070517,-1.2252931467105793e-05,0.3795880120070517,-1.158164061226468e-05,0.3795880120070517,4.330472687708657e-05,0.3795880120070517,-1.1077914706693607e-05
0.3803821291869828,-7.72071497334506e-06,0.3803821291869828,-1.426780081709258e-05,0.3803821291869828,1.8625619563758725e-05,0.3803821291869828,1.1774525013335414e-06
0.3811762463669139,-5.537573558138448e-06,0.3811762463669139,-1.795922377705314e-05,0.3811762463669139,-1.628706969292164e-05,0.3811762463669139,1.6612314544273355e-05
0.3819703635468449,-8.430085061068366e-07,0.3819703635468449,-1.577954692381091e-05,0.3819703635468449,-3.4562253171448384e-05,0.3819703635468449,1.1873025301296309e-06
0.382764480726776,-1.510200910671363e-06,0.382764480726776,-1.091338339338164e-05,0.382764480726776,-4.413814288845039e-05,0.382764480726776,-3.103102362851387e-05
0.3835585979067071,-3.523809984521922e-06,0.3835585979067071,-1.0239140006847409e-05,0.3835585979067071,-5.152595997531999e-05,0.3835585979067071,-4.581531989999849e-05
0.3843527150866381,-3.692619769889438e-06,0.3843527150866381,-1.2252277238673258e-05,0.3843527150866381,-4.918064322154786e-05,0.3843527150866381,-3.8775729628760303e-05
0.3851468322665692,-2.1823591244708275e-06,0.3851468322665692,-1.124611275105556e-05,0.3851468322665692,-3.642599482557864e-05,0.3851468322665692,-2.1152723132909733e-05
0.3859409494465003,-4.196101757741199e-06,0.3859409494465003,-1.12459e-05,0.3859409494465003,-8.415116151913615e-07,0.3859409494465003,-1.8967138926619984e-05
0.3867350666264313,-4.195694784170747e-06,0.3867350666264313,-1.8295994363022064e-05,0.3867350666264313,7.620829014833659e-05,0.3867350666264313,-2.450457745184731e-05
0.3875291838063624,2.1825833015508924e-06,0.3875291838063624,-2.299421341539445e-05,0.3875291838063624,0.0001320928089837,0.3875291838063624,-7.5494945039813135e-06
0.3883233009862935,4.529863829787793e-06,0.3883233009862935,-1.829973227008341e-05,0.3883233009862935,0.0001139859383917,0.3883233009862935,8.546141976943815e-06
0.3891174181662246,1.177399962425446e-06,0.3891174181662246,-1.5108737007905068e-05,0.3891174181662246,6.365179961957874e-05,0.3891174181662246,7.889401993950667e-06
0.3899115353461556,-3.348139650451961e-07,0.3899115353461556,-1.024164855044425e-05,0.3899115353461556,2.771612049516136e-05,0.3899115353461556,-5.195668337975954e-06
0.3907056525260867,-6.8789552561360505e-06,0.3907056525260867,-1.1245459268289626e-05,0.3907056525260867,4.480820760468608e-05,0.3907056525260867,-2.567193851211357e-05
0.3914997697060178,-7.55302526526491e-06,0.3914997697060178,-1.4266323693692098e-05,0.3914997697060178,0.0001146207476745,0.3914997697060178,-3.373536318317893e-05
0.3922938868859488,-3.5254038885546777e-06,0.3922938868859488,-1.359589564832988e-05,0.3922938868859488,0.0001226968521915,0.3922938868859488,-4.716368704764848e-05
0.3930880040658799,-3.5248265619758813e-06,0.3930880040658799,-1.0238777652612792e-05,0.3930880040658799,4.011577308789898e-05,0.3930880040658799,-5.7907979371548046e-05
0.393882121245811,-2.85344e-06,0.393882121245811,-5.874771262240244e-06,0.393882121245811,-4.194897187861767e-06,0.393882121245811,-5.387652428085563e-05
0.394676238425742,-2.8540440688620838e-06,0.394676238425742,-6.212030852298267e-06,0.394676238425742,4.53495035030855e-06,0.394676238425742,-3.372924303293177e-05
0.3954703556056732,-4.865997380365806e-06,0.3954703556056732,-1.1577246342238423e-05,0.3954703556056732,1.4594736885617854e-05,0.3954703556056732,-5.561886682984299e-06
0.3962644727856042,-9.899756458093988e-06,0.3962644727856042,-1.292350838351308e-05,0.3962644727856042,1.5609331287634813e-05,0.3962644727856042,4.995357404168136e-07
0.3970585899655353,-8.896530077593287e-06,0.3970585899655353,-1.1246766804595749e-05,0.3970585899655353,-3.5149484637576e-06,0.3970585899655353,4.194323039184845e-06
0.3978527071454664,-9.567162364566907e-06,0.3978527071454664,-1.0910323817716545e-05,0.3978527071454664,-3.33909802711759e-05,0.3978527071454664,-3.1864160213010246e-06
0.3986468243253974,-9.231784274513942e-06,0.3986468243253974,-9.903322823541826e-06,0.3986468243253974,-4.7833806218025765e-05,0.3986468243253974,-6.881002984771692e-06
0.3994409415053285,-1.1077963974840676e-05,0.3994409415053285,-1.0238775268688638e-05,0.3994409415053285,-5.824293332934779e-05,0.3994409415053285,5.202439676474531e-06
0.4002350586852595,-1.2252801505609355e-05,0.4002350586852595,-1.1917225564326343e-05,0.4002350586852595,-8.207926765636646e-05,0.4002350586852595,1.1916654893784744e-05
0.4010291758651906,-9.56741e-06,0.4010291758651906,-1.0909828694385123e-05,0.4010291758651906,-9.516931181495356e-05,0.4010291758651906,3.186763638755669e-06
0.4018232930451217,-9.56741e-06,0.4018232930451217,-9.2332025996147e-06,0.4018232930451217,-8.980407634722308e-05,0.4018232930451217,-7.543667341123896e-06
0.4026174102250527,-6.883814828338142e-06,0.4026174102250527,-8.393083386176887e-06,0.4026174102250527,-9.04702012910585e-05,0.4026174102250527,-1.1578607761206736e-05
0.4034115274049838,-9.733561610172795e-06,0.4034115274049838,-9.566710660561471e-06,0.4034115274049838,-9.382570188731848e-05,0.4034115274049838,-9.065358578559054e-06
0.4042056445849149,-9.567485134032784e-06,0.4042056445849149,-9.90294973641069e-06,0.4042056445849149,-9.684764758740986e-05,0.4042056445849149,-1.0238274066246762e-05
0.404999761764846,-5.540238692354996e-06,0.404999761764846,-9.567510721862549e-06,0.404999761764846,-9.06404633949631e-05,0.404999761764846,-1.5943987677329167e-05
0.4057938789447771,-5.53903e-06,0.4057938789447771,-1.0574346456543536e-05,0.4057938789447771,-8.409349803475395e-05,0.4057938789447771,-1.7959592910037824e-05
0.4065879961247081,-6.210416723133243e-06,0.4065879961247081,-1.0910198361542218e-05,0.4065879961247081,-7.972842129995116e-05,0.4065879961247081,-1.896699508462665e-05
0.4073821133046392,-3.3568362871926164e-06,0.4073821133046392,-1.225347904744798e-05,0.4073821133046392,-7.133403172922299e-05,0.4073821133046392,-1.7623529333572828e-05
0.4081762304845703,-2.3508145881290374e-06,0.4081762304845703,-1.560961069851444e-05,0.4081762304845703,-5.824068291348688e-05,0.4081762304845703,-1.2923232098442484e-05
0.4089703476645013,-5.53641315819866e-06,0.4089703476645013,-1.4268301831581816e-05,0.4089703476645013,-4.784553919475909e-05,0.4089703476645013,-8.899315486539976e-06
0.4097644648444324,-3.861661308085879e-06,0.4097644648444324,-1.2925305046468702e-05,0.4097644648444324,-4.532099692842884e-05,0.4097644648444324,-1.023789496027129e-05
0.4105585820243635,-2.182923586808681e-06,0.4105585820243635,-1.5944109534268854e-05,0.4105585820243635,-3.642798301166527e-05,0.4105585820243635,-7.051348814410077e-06
0.4113526992042945,-6.208893905032823e-06,0.4113526992042945,-1.5610127175211993e-05,0.4113526992042945,-2.300038700847965e-05,0.4113526992042945,-4.197310985513568e-06
0.4121468163842256,-5.539185261706234e-06,0.4121468163842256,-1.2253776320093872e-05,0.4121468163842256,-1.0577372361221922e-05,0.4121468163842256,-1.0908647366749877e-05
0.4129409335641567,-6.3781997788197644e-06,0.4129409335641567,-1.0910312355227131e-05,0.4129409335641567,-7.217800886394388e-06,0.4129409335641567,-1.9805455650803856e-05
0.4137350507440878,-8.224352548528625e-06,0.4137350507440878,-9.903078546243298e-06,0.4137350507440878,-1.6282022171087165e-05,0.4137350507440878,-2.500928546243297e-05
0.4145291679240188,-4.196513633172982e-06,0.4145291679240188,-9.567268183413507e-06,0.4145291679240188,-2.6017521807812195e-05,0.4145291679240188,-2.165330906180994e-05
0.4153232851039499,-5.537822500105507e-06,0.4153232851039499,-8.896613749947247e-06,0.4153232851039499,-3.0376775625342892e-05,0.4153232851039499,-2.50064813401878e-05
0.416117402283881,-4.364964491881619e-06,0.416117402283881,-1.0237789159663202e-05,0.416117402283881,-2.467809610342501e-05,0.416117402283881,-3.171844576067646e-05
0.416911519463812,-1.8478637596748803e-06,0.416911519463812,-1.0406598385357737e-05,0.416911519463812,-7.563581534318301e-06,0.416911519463812,-3.843343662472807e-05
0.4177056366437431,-2.8529791233169515e-06,0.4177056366437431,-1.0909969584539852e-05,0.4177056366437431,6.8752141283339625e-06,0.4177056366437431,-2.85389319311686e-05
0.4184997538236742,-3.5246218383836804e-06,0.4184997538236742,-1.4266159176416113e-05,0.4184997538236742,5.03605244987068e-06,0.4184997538236742,-5.042765740283543e-06
0.4192938710036052,-4.363943652110479e-06,0.4192938710036052,-1.628107276506515e-05,0.4192938710036052,1.8468581203555389e-06,0.4192938710036052,1.1739310304914672e-06
0.4200879881835363,-5.874697518359297e-06,0.4200879881835363,-1.62814e-05,0.4200879881835363,7.888820073288366e-06,0.4200879881835363,-8.22447011405373e-06
0.4208821053634674,-5.203018170581199e-06,0.4208821053634674,-1.10780109055012e-05,0.4208821053634674,1.2419708603005677e-05,0.4208821053634674,-8.559196323940295e-06
0.4216762225433985,-2.854003829795973e-06,0.4216762225433985,-1.040801558139606e-05,0.4216762225433985,4.19533727065608e-06,0.4216762225433985,-1.6582860854477385e-07
0.4224703397233295,-4.865957141299556e-06,0.4224703397233295,-1.5102496726706776e-05,0.4224703397233295,1.0097486894818014e-06,0.4224703397233295,7.043675585642478e-06
0.4232644569032606,-3.525748476450391e-06,0.4232644569032606,-1.5777340761774804e-05,0.4232644569032606,7.213272066936971e-06,0.4232644569032606,5.875523666894092e-06
0.4240585740831917,-3.52483e-06,0.4240585740831917,-1.2925930618414187e-05,0.4240585740831917,1.9296217277967763e-05,0.4240585740831917,4.197130374185894e-06
0.4248526912631227,-6.880514676814239e-06,0.4248526912631227,-1.0575413728951892e-05,0.4248526912631227,2.131611680375552e-05,0.4248526912631227,-1.6615208296921133e-07
0.4256468084430538,-8.224286044393319e-06,0.4256468084430538,-1.1916976041980764e-05,0.4256468084430538,1.175170821294985e-05,0.4256468084430538,-9.565142303274305e-06
0.4264409256229849,-6.210608676876637e-06,0.4264409256229849,-1.4266979875884395e-05,0.4264409256229849,1.4266964148049593e-05,0.4264409256229849,-1.6280771074892155e-05
0.4272350428029159,-4.532165258626714e-06,0.4272350428029159,-1.49385276123985e-05,0.4272350428029159,4.867376644419003e-06,0.4272350428029159,-1.980629953564746e-05
0.428029159982847,-8.896347773092961e-06,0.428029159982847,-1.359566488995787e-05,0.428029159982847,1.6818677329419725e-07,0.428029159982847,-2.16527350899185e-05
0.4288232771627781,-1.0572973867863506e-05,0.4288232771627781,-1.2925010456491512e-05,0.4288232771627781,1.844813866954276e-06,0.4288232771627781,-2.2323289634431408e-05
0.4296173943427092,-8.897290339680186e-06,0.4296173943427092,-1.2253512138923244e-05,0.4296173943427092,-5.533396494728084e-06,0.4296173943427092,-2.567833930538377e-05
0.4304115115226402,-7.218552625143101e-06,0.4304115115226402,-1.1246519578777128e-05,0.4304115115226402,-1.0235908650829735e-05,0.4304115115226402,-2.4506722811146107e-05
0.4312056287025713,-5.875347932225659e-06,0.4312056287025713,-1.0910356983056414e-05,0.4312056287025713,-1.1916515084717928e-05,0.4312056287025713,-2.2996006447135318e-05
0.4319997458825024,-8.223857924223632e-06,0.4319997458825024,-1.2923755360876996e-05,0.4319997458825024,-9.568162075776367e-06,0.4319997458825024,-2.29953e-05
0.4327938630624334,-2.183082134548604e-06,0.4327938630624334,-1.2253115793302507e-05,0.4327938630624334,-1.1581252621817131e-05,0.4327938630624334,-1.7289484225824768e-05
0.4335879802423645,-3.5247965864543318e-06,0.4335879802423645,-6.881953654680349e-06,0.4335879802423645,-1.4938516465513736e-05,0.4335879802423645,-8.224835542864077e-06
0.4343820974222956,-4.3641417846309305e-06,0.4343820974222956,-4.867218103687441e-06,0.4343820974222956,-1.561028832827768e-05,0.4343820974222956,-5.2038654643474406e-06
0.4351762146022266,-4.8681737102627775e-06,0.4351762146022266,-1.5117274232249534e-06,0.4351762146022266,-1.7960715569443266e-05,0.4351762146022266,-9.568225566743866e-06
0.4359703317821577,-6.8801270217665e-06,0.4359703317821577,-5.535644035127744e-06,0.4359703317821577,-2.097866052004187e-05,0.4359703317821577,-1.2586160528447122e-05
0.4367644489620888,-6.210885953216087e-06,0.4367644489620888,-8.55821322440766e-06,0.4367644489620888,-2.634857244367155e-05,0.4367644489620888,-2.189262247089242e-06
0.4375585661420199,-4.53284716156299e-06,0.4375585661420199,-9.566859699783682e-06,0.4375585661420199,-2.668781656659456e-05,0.4375585661420199,7.212383886504524e-06
0.438352683321951,-4.196363890202836e-06,0.438352683321951,-1.1580796662771375e-05,0.438352683321951,-2.836583054898582e-05,0.438352683321951,1.2250991654934244e-05
0.439146800501882,-3.189393038488194e-06,0.439146800501882,-1.4602140876997705e-05,0.439146800501882,-2.5010343470002547e-05,0.439146800501882,6.547553893979193e-06
0.4399409176818131,-5.203121178250706e-06,0.4399409176818131,-1.8630882354427905e-05,0.4399409176818131,-3.306546470885581e-05,0.4399409176818131,-1.5098047130028225e-06
0.4407350348617442,-7.217475781785141e-06,0.4407350348617442,-1.9974173697024763e-05,0.4407350348617442,-4.179420521190095e-05,0.4407350348617442,-1.5610530614187654e-05
0.4415291520416752,-6.210227396665752e-06,0.4415291520416752,-2.1651957982510925e-05,0.4415291520416752,-3.5079857982510926e-05,0.4415291520416752,-2.7697860675203012e-05
0.4423232692216063,-5.2042557353616334e-06,0.4423232692216063,-1.8298685815179383e-05,0.4423232692216063,-3.172658581517938e-05,0.4423232692216063,-4.211693099472866e-05
0.4431173864015373,-2.855255980971535e-06,0.4431173864015373,-1.3934872550441883e-05,0.4431173864015373,-4.4470141852910826e-05,0.4431173864015373,-5.521228242595376e-05
0.4439115035814684,-2.182459767508881e-06,0.4439115035814684,-9.905618605053288e-06,0.4439115035814684,-5.286725290613898e-05,0.4439115035814684,-5.0190048256316605e-05
0.4447056207613995,-5.537426599257704e-06,0.4447056207613995,-1.124525863779256e-05,0.4447056207613995,-5.723451557282582e-05,0.4447056207613995,-4.5153805108277904e-05
0.4454997379413306,-1.0908427252312984e-05,0.4454997379413306,-7.5544387642411025e-06,0.4454997379413306,-4.112841823976055e-05,0.4454997379413306,-6.964931182650746e-05
0.4462938551212617,-8.896377523055385e-06,0.4462938551212617,-1.0573948716329257e-05,0.4462938551212617,-1.5279016551047344e-05,0.4462938551212617,-7.469198118779987e-05
0.4470879723011927,-7.553266843427436e-06,0.4470879723011927,-1.4938447757727065e-05,0.4470879723011927,-8.22485592947666e-06,0.4470879723011927,-6.227253330144214e-05
0.4478820894811238,-5.538878670965966e-06,0.4478820894811238,-1.6281343245977406e-05,0.4478820894811238,-1.644728948244038e-05,0.4478820894811238,-3.776241136944598e-05
0.4486762066610549,-4.1965790622194885e-06,0.4486762066610549,-1.5778629035768834e-05,0.4486762066610549,5.117509236852192e-07,0.4486762066610549,-5.025313607049082e-06
0.4494703238409859,-5.5378879291521065e-06,0.4494703238409859,-1.8964287539210527e-05,0.4494703238409859,3.203236146095064e-05,0.4494703238409859,3.404013733114255e-05
0.450264441020917,-1.8489396680983368e-06,0.450264441020917,-2.097978199537907e-05,0.450264441020917,5.688341134674222e-05,0.450264441020917,7.63416220437612e-05
0.4510585582008481,3.521841362278881e-06,0.4510585582008481,-2.165222641819828e-05,0.4510585582008481,8.441288320177158e-05,0.4510585582008481,8.660450290534484e-05
0.4518526753807791,7.216010279407312e-06,0.4518526753807791,-1.5109076350558495e-05,0.4518526753807791,0.0001251993243024,0.4518526753807791,5.322185608465291e-05
0.4526467925607102,3.022386300971086e-06,0.4526467925607102,-1.0911296293133328e-05,0.4526467925607102,0.0001589441859202,0.4526467925607102,1.5284210555762453e-05
0.4534409097406413,-5.034564132376548e-06,0.4534409097406413,-8.224915289207817e-06,0.4534409097406413,0.0001300862818484,0.4534409097406413,-1.2585532624042607e-05
0.4542350269205724,-1.0910165854271478e-05,0.4542350269205724,-7.21752e-06,0.4542350269205724,6.613105775973801e-05,0.4542350269205724,-2.9709391055276055e-05
0.4550291441005034,-9.902674064288084e-06,0.4550291441005034,-7.217398303046546e-06,0.4550291441005034,2.0638928382639375e-05,0.4550291441005034,-3.239325709112838e-05
0.4558232612804345,-7.555403524946691e-06,0.4558232612804345,-6.546743869580237e-06,0.4558232612804345,-1.557631113558786e-05,0.4558232612804345,-2.333942223933321e-05
0.4566173784603656,-6.88234556890498e-06,0.4566173784603656,-8.223296085565505e-06,0.4566173784603656,-3.640700744222517e-05,0.4566173784603656,-1.82995416885078e-05
0.4574114956402966,-6.546333241249886e-06,0.4574114956402966,-8.560096758750115e-06,0.4574114956402966,-5.420399827727741e-05,0.4574114956402966,-1.7960113241249888e-05
0.4582056128202277,-7.217192603905388e-06,0.4582056128202277,-9.23138260390539e-06,0.4582056128202277,-8.340685831864761e-05,0.4582056128202277,-1.494007328242575e-05
0.4589997300001588,-6.378555387111754e-06,0.4589997300001588,-9.063917077422352e-06,0.4589997300001588,-0.0001176503563758,0.4589997300001588,-1.515206180186063e-06
0.4597938471800898,-8.559890026251049e-06,0.4597938471800898,-8.224771529105245e-06,0.4597938471800898,-0.000151897409497,0.4597938471800898,9.900903215716776e-06
0.4605879643600209,-1.0238724658251278e-05,0.4605879643600209,-7.553250136430168e-06,0.4605879643600209,-0.000174729975373,0.4605879643600209,1.5274058904967722e-05
0.461382081539952,-9.735070388803024e-06,0.461382081539952,-5.874788949526173e-06,0.461382081539952,-0.0001659967945426,0.461382081539952,7.88718627006129e-06
0.4621761987198831,-7.888658265651479e-06,0.4621761987198831,-6.547210854676048e-06,0.4621761987198831,-0.000105555350781,0.4621761987198831,-8.901883832294192e-06
0.4629703158998141,-6.882686604347429e-06,0.4629703158998141,-1.090644469441606e-05,0.4629703158998141,-1.9041528197609765e-05,0.4629703158998141,-3.237467912576457e-05
0.4637644330797452,-4.869068142453271e-06,0.4637644330797452,-1.1581120616802224e-05,0.4637644330797452,3.873197318779244e-05,0.4637644330797452,-5.453518042587397e-05
0.4645585502596763,-5.203139851603693e-06,0.4645585502596763,-9.568550884713606e-06,0.4645585502596763,6.82978670544097e-05,0.4645585502596763,-6.629374486277162e-05
0.4653526674396073,-2.18330544255512e-06,0.4653526674396073,-1.0909637583413512e-05,0.4653526674396073,9.885040496925507e-05,0.4653526674396073,-7.066267213248154e-05
0.4661467846195384,-1.683953695052547e-07,0.4661467846195384,-1.2252635752035605e-05,0.4661467846195384,7.637750112627764e-05,0.4661467846195384,-6.596597486787539e-05
0.4669409017994695,-3.860073295676181e-06,0.4669409017994695,-1.4266950887268888e-05,0.4669409017994695,1.9309758156944703e-05,0.4669409017994695,-4.666448731178809e-05
0.4677350189794005,-4.867617963378907e-06,0.4677350189794005,-1.091029629296874e-05,0.4677350189794005,-5.539158389907882e-06,0.4677350189794005,-2.4337730879582548e-05
0.4685291361593316,-4.364683696222831e-06,0.4685291361593316,-1.4939174952045928e-05,0.4685291361593316,-1.0911896099972004e-05,0.4685291361593316,-8.894860101046235e-06
0.4693232533392627,-7.885599494130017e-06,0.4693232533392627,-1.829244711937724e-05,0.4693232533392627,-2.080399904912264e-05,0.4693232533392627,-2.188345733069648e-06
0.4701173705191938,-8.559777716104177e-06,0.4701173705191938,-1.628299685168747e-05,0.4701173705191938,-2.5677040981395125e-05,0.4701173705191938,-4.194633156240498e-06
0.4709114876991248,-1.0237717012725493e-05,0.4709114876991248,-1.510715812786942e-05,0.4709114876991248,-3.037766761756536e-05,0.4709114876991248,-4.867196802509337e-06
0.4717056048790559,-9.903267055542727e-06,0.4717056048790559,-1.5945282336261508e-05,0.4717056048790559,-3.574922711131635e-05,0.4717056048790559,-5.538695888914545e-06
0.472499722058987,-9.567527508839608e-06,0.472499722058987,-1.4938952537020372e-05,0.472499722058987,-6.891926019244452e-06,0.472499722058987,-4.196700049360495e-06
0.473293839238918,-1.0238664063749613e-05,0.473293839238918,-1.091101562965052e-05,0.473293839238918,2.265361875234076e-05,0.473293839238918,-7.720356326080493e-06
0.4740879564188491,-6.882004258251633e-06,0.4740879564188491,-1.057451842593494e-05,0.4740879564188491,1.3596297494754556e-05,0.4740879564188491,-9.735149444939245e-06
0.4748820735987802,-5.539154468143627e-06,0.4748820735987802,-1.393146888273236e-05,0.4748820735987802,-5.540103538318118e-06,0.4748820735987802,-3.52483e-06
0.4756761907787112,-6.881578322968398e-06,0.4756761907787112,-1.3595155527915727e-05,0.4756761907787112,-1.712410430495956e-05,0.4756761907787112,-3.5242660893259954e-06
0.4764703079586423,-5.875596672768865e-06,0.4764703079586423,-1.0912537794050303e-05,0.4764703079586423,-3.171078828837608e-05,0.4764703079586423,-1.1769855610890945e-06
0.4772644251385734,-3.1910843782745256e-06,0.4772644251385734,-8.226554385514594e-06,0.4772644251385734,-4.312903633079268e-05,0.4772644251385734,-5.8713173271594775e-06
0.4780585423185045,-1.6959054783794658e-07,0.4780585423185045,-6.547087523694511e-06,0.4780585423185045,-4.649226499872498e-05,0.4780585423185045,-1.4597868858342942e-05
0.4788526594984356,-5.201170567811147e-06,0.4788526594984356,-8.223890190842807e-06,0.4788526594984356,-4.64942e-05,0.4788526594984356,-2.164957678352837e-05
0.4796467766783666,-5.538935580513456e-06,0.4796467766783666,-1.174840861226697e-05,0.4796467766783666,-4.448056651691927e-05,0.4796467766783666,-2.7190042092535087e-05
0.4804408938582977,-6.88164049620094e-06,0.4804408938582977,-1.2252932678890068e-05,0.4804408938582977,-4.179485899690375e-05,0.4804408938582977,-2.601675707367786e-05
0.4812350110382288,-6.88182466691864e-06,0.4812350110382288,-8.560277331708543e-06,0.4812350110382288,-3.843747199848816e-05,0.4812350110382288,-2.6687836659237812e-05
0.4820291282181598,-7.217249291950747e-06,0.4820291282181598,-6.210528283864824e-06,0.4820291282181598,-3.6422704438743473e-05,0.4820291282181598,-1.4936217762876632e-05
0.4828232453980909,-5.540623197180321e-06,0.4828232453980909,-6.8811827173311325e-06,0.4828232453980909,-3.273410505467877e-05,0.4828232453980909,-1.8186917220502466e-07
0.483617362578022,-4.1973079977733366e-06,0.483617362578022,-7.217250500556666e-06,0.483617362578022,-3.507861350389666e-05,0.483617362578022,5.03130277548709e-06
0.484411479757953,-6.209100269107646e-06,0.484411479757953,-8.223950137829905e-06,0.484411479757953,-3.99449106672699e-05,0.484411479757953,-2.848271047998789e-06
0.4852055969378841,-6.21042e-06,0.4852055969378841,-9.231198760885482e-06,0.4852055969378841,-4.078697394202282e-05,0.4852055969378841,-1.5603524324854814e-05
0.4859997141178152,-4.868113475741746e-06,0.4859997141178152,-1.1916333044915975e-05,0.4859997141178152,-3.8438346088848986e-05,0.4859997141178152,-1.7623474780986584e-05
0.4867938312977463,-4.364186989949448e-06,0.4867938312977463,-9.903527959797793e-06,0.4867938312977463,-2.97111544924571e-05,0.4867938312977463,-1.2254141226127448e-05
0.4875879484776773,-3.860562675145577e-06,0.4875879484776773,-8.560397133072646e-06,0.4875879484776773,-2.0981766362701056e-05,0.4875879484776773,-2.182693500315968e-06
0.4883820656576084,-4.1964798371230485e-06,0.4883820656576084,-1.0910422078177753e-05,0.4883820656576084,-2.2995633117266627e-05,0.4883820656576084,-6.883041428323787e-06
0.4891761828375395,-7.217056767869584e-06,0.4891761828375395,-1.3596803674598894e-05,0.4891761828375395,-2.7023545588523248e-05,0.4891761828375395,-2.165151911966273e-05
0.4899703000174705,-5.205103456366002e-06,0.4899703000174705,-1.7956057492129905e-05,0.4899703000174705,-2.635289115505693e-05,0.4899703000174705,-1.6956938085398567e-05
0.4907644171974016,-5.069976790447472e-07,0.4907644171974016,-2.4333418348195044e-05,0.4907644171974016,-2.2997764065897784e-05,0.4907644171974016,1.0218841139628784e-05
0.4915585343773327,1.844961963326897e-06,0.4915585343773327,-2.198967798506757e-05,0.4915585343773327,-5.549266819897625e-06,0.4915585343773327,5.541786069827647e-06
0.4923526515572637,2.517445359630859e-06,0.4923526515572637,-1.62839044431377e-05,0.4923526515572637,2.365388321854597e-05,0.4923526515572637,-7.547474534743985e-06
0.4931467687371948,-8.382682342577803e-07,0.4931467687371948,-1.6952604446036022e-05,0.4931467687371948,2.4673506669054032e-05,0.4931467687371948,-1.846022226847373e-05
0.4939408859171259,-5.538354729387492e-06,0.4939408859171259,-1.8966710597323684e-05,0.4939408859171259,9.233928738046835e-06,0.4939408859171259,-2.232334531872112e-05
0.494735003097057,-6.378277201788691e-06,0.494735003097057,-1.7120582322981592e-05,0.494735003097057,1.2924430116734005e-05,0.494735003097057,-2.2995294762697187e-05
0.495529120276988,-8.22501630776893e-06,0.495529120276988,-1.258859842267954e-05,0.495529120276988,2.0646109448793597e-05,0.495529120276988,-2.1653209448793596e-05
0.4963232374569191,-1.0907624052739008e-05,0.4963232374569191,-1.1917943989213185e-05,0.4963232374569191,2.466993616063828e-05,0.4963232374569191,-2.567703616063828e-05
0.4971173546368502,-9.56850141962712e-06,0.4971173546368502,-1.158187285693878e-05,0.4971173546368502,2.601550857224488e-05,0.4971173546368502,-3.842713143632638e-05
0.4979114718167812,-7.219083189501212e-06,0.4979114718167812,-1.2923506745055202e-05,0.4979114718167812,2.1990979698312572e-05,0.4979114718167812,-2.988289446701217e-05
0.4987055889967123,-5.707651967401179e-06,0.4987055889967123,-1.1246768852667978e-05,0.4987055889967123,4.540966052217863e-06,0.4987055889967123,-1.511404590347819e-05
0.4994997061766434,-4.196789019288916e-06,0.4994997061766434,-1.091032422733099e-05,0.4994997061766434,-1.0233334023340202e-05,0.4994997061766434,-1.2254055913810696e-05
0.5002938233565745,-7.5524731609406175e-06,0.5002938233565745,-8.560832786674149e-06,0.5002938233565745,-1.4937554422202246e-05,0.5002938233565745,-9.56800747080256e-06
0.5010879405365055,-1.1581298310388135e-05,0.5010879405365055,-9.56733457722258e-06,0.5010879405365055,-8.22511281776723e-06,0.5010879405365055,-1.1077986862838226e-05
0.5018820577164366,-9.567458803826592e-06,0.5018820577164366,-1.1413785411603162e-05,0.5018820577164366,7.217703016348717e-06,0.5018820577164366,-9.56723918478966e-06
0.5026761748963677,-1.0238172258437043e-05,0.5026761748963677,-1.2588330737668905e-05,0.5026761748963677,9.734558403770874e-06,0.5026761748963677,-7.218480077660939e-06
0.5034702920762988,-7.387910893995923e-06,0.5034702920762988,-1.0911694654003132e-05,0.5034702920762988,6.54895983370125e-06,0.5034702920762988,-1.1577713917401258e-05
0.5042644092562298,-5.540403695028376e-06,0.5042644092562298,-1.1245650235914823e-05,0.5042644092562298,5.080437327009112e-07,0.5042644092562298,-1.493610235914823e-05
0.5050585264361609,-6.8810191224338e-06,0.5050585264361609,-9.56841109844882e-06,0.5050585264361609,-1.627138898688326e-05,0.5050585264361609,-1.359660088353048e-05
0.505852643616092,-9.566204583048334e-06,0.505852643616092,-9.56741e-06,0.505852643616092,-4.4467343164647895e-05,0.505852643616092,-8.898119483031764e-06
0.506646760796023,-9.56741e-06,0.506646760796023,-7.889415672387061e-06,0.506646760796023,-7.703298998581746e-05,0.506646760796023,-1.5128649494651348e-06
0.507440877975954,-8.560464773824566e-06,0.507440877975954,-6.881974772287739e-06,0.507440877975954,-0.0001072513567545,0.507440877975954,2.1814724990502456e-06
0.5082349951558852,-9.735252831747286e-06,0.5082349951558852,-6.88182e-06,0.5082349951558852,-0.0001384758095298,0.5082349951558852,-1.0574422173622286e-05
0.5090291123358163,-6.882389221831106e-06,0.5090291123358163,-5.874957176940486e-06,0.5090291123358163,-0.0001498876956328,0.5090291123358163,-2.601792819086672e-05
0.5098232295157473,-1.090629584483771e-05,0.5098232295157473,-7.551593260606024e-06,0.5098232295157473,-0.0001406669463397,0.5098232295157473,-3.540709025939374e-05
0.5106173466956784,-1.0239352428868447e-05,0.5106173466956784,-1.0236590300982228e-05,0.5106173466956784,-0.0001022516268406,0.5106173466956784,-4.111840435461817e-05
0.5114114638756094,-7.890496691869153e-06,0.5114114638756094,-1.292258663014703e-05,0.5114114638756094,-6.19636002777067e-05,0.5114114638756094,-2.8710586835569987e-05
0.5122055810555405,-7.050112814796282e-06,0.5122055810555405,-1.2253354256058127e-05,0.5122055810555405,-3.341705582970667e-05,0.5122055810555405,-1.8301090916137208e-05
0.5129996982354716,-4.3651006748107465e-06,0.5129996982354716,-1.426643449104152e-05,0.5129996982354716,5.188657809571989e-06,0.5129996982354716,7.8789584177448e-06
0.5137938154154027,1.173652320181372e-06,0.5137938154154027,-1.997277329239524e-05,0.5137938154154027,5.75601255601548e-05,0.5137938154154027,4.749209113721008e-05
0.5145879325953338,2.517626006314989e-06,0.5145879325953338,-2.433772952901297e-05,0.5145879325953338,0.0001292379156082,0.5145879325953338,1.8969422348827963e-05
0.5153820497752648,7.88891e-06,0.5153820497752648,-2.433784746889271e-05,0.5153820497752648,0.0001670094739118,0.5153820497752648,-1.8967441934139454e-05
0.5161761669551959,7.887993514677633e-06,0.5161761669551959,-2.0309659001611925e-05,0.5161761669551959,0.0001586120074635,0.5161761669551959,-2.601934946856749e-05
0.5169702841351269,3.528759674937315e-06,0.5169702841351269,-1.9639004568145612e-05,0.5169702841351269,0.0001301086945964,0.5169702841351269,-3.909711092116052e-05
0.5177644013150581,6.2083950348951335e-06,0.5177644013150581,-1.7625718729483733e-05,0.5177644013150581,8.010181481390825e-05,0.5177644013150581,-3.994746723374901e-05
0.5185585184949891,1.6812382959746611e-06,0.5185585184949891,-1.5611221470268113e-05,0.5185585184949891,6.161189675014807e-05,0.5185585184949891,-2.7199335917721755e-05
0.5193526356749202,-1.509176675010515e-06,0.5193526356749202,-1.3596724211052488e-05,0.5193526356749202,7.351253177421517e-05,0.5193526356749202,-1.1253216647889812e-05
0.5201467528548512,-4.195394067329799e-06,0.5201467528548512,-9.233068392534492e-06,0.5201467528548512,6.99941971812783e-05,0.5201467528548512,1.056770805289084e-05
0.5209408700347823,-8.223950618030637e-06,0.5209408700347823,-8.896064948770253e-06,0.5209408700347823,4.951885185861706e-05,0.5209408700347823,6.5467793819693625e-06
0.5217349872147133,-8.560304594432351e-06,0.5217349872147133,-8.2246208111353e-06,0.5217349872147133,4.3473097298607466e-05,0.5217349872147133,-2.517594050317548e-06
0.5225291043946444,-1.0910244082115868e-05,0.5225291043946444,-6.882172655613815e-06,0.5225291043946444,2.601122200812673e-05,0.5225291043946444,-6.212139199892628e-06
0.5233232215745756,-1.124557129884907e-05,0.5233232215745756,-9.564780400584082e-06,0.5233232215745756,-1.4898498655416936e-05,0.5233232215745756,-1.928988067469679e-05
0.5241173387545066,-1.1581320428070375e-05,0.5241173387545066,-8.561148715788871e-06,0.5241173387545066,-4.57970795490352e-05,0.5241173387545066,-3.188091609427925e-05
0.5249114559344377,-1.2252539942545866e-05,0.5249114559344377,-6.547500165510188e-06,0.5249114559344377,-5.5215959195642136e-05,0.5249114559344377,-3.1723615048624594e-05
0.5257055731143687,-8.226775820917162e-06,0.5257055731143687,-6.881639514475536e-06,0.5257055731143687,-5.119616582629355e-05,0.5257055731143687,-3.138798048552446e-05
0.5264996902942998,-4.5333703577392976e-06,0.5264996902942998,-6.88182e-06,0.5264996902942998,-4.850944753857487e-05,0.5264996902942998,-3.172336905767814e-05
0.5272938074742308,-2.853846993171752e-06,0.5272938074742308,-8.22428440594755e-06,0.5272938074742308,-5.253582321056838e-05,0.5272938074742308,-3.004540699559651e-05
0.528087924654162,-1.681038464791635e-07,0.528087924654162,-7.385449638842688e-06,0.528087924654162,-7.200545236632363e-05,0.528087924654162,-2.0646391956176837e-05
0.528882041834093,-4.196336123188839e-06,0.528882041834093,-8.224724969466203e-06,0.528882041834093,-8.342065781785119e-05,0.528882041834093,-1.3092235374571903e-05
0.5296761590140241,-6.210621437765573e-06,0.5296761590140241,-1.0406733562960049e-05,0.5296761590140241,-7.502678706010984e-05,0.5296761590140241,-1.3762928560783187e-05
0.5304702761939551,-7.216603087965035e-06,0.5304702761939551,-1.05743472268499e-05,0.5304702761939551,-6.597295220831468e-05,0.5304702761939551,-1.0409756282405094e-05
0.5312643933738862,-7.21752e-06,0.5312643933738862,-1.225171760461966e-05,0.5312643933738862,-6.931913520923932e-05,0.5312643933738862,-5.5427489618832406e-06
0.5320585105538173,-7.553013064126535e-06,0.5320585105538173,-1.2253e-05,0.5320585105538173,-7.150245488600093e-05,0.5320585105538173,-4.532550807620392e-06
0.5328526277337483,-8.895380434004864e-06,0.5328526277337483,-1.2588542607329093e-05,0.5328526277337483,-6.747728871205088e-05,0.5328526277337483,-4.867472607329093e-06
0.5336467449136795,-1.0909552906403137e-05,0.5336467449136795,-1.1581923548404768e-05,0.5336467449136795,-6.361614025282157e-05,0.5336467449136795,-6.545580755871392e-06
0.5344408620936105,-8.225076448388739e-06,0.5344408620936105,-9.903391531328495e-06,0.5344408620936105,-6.025848306265699e-05,0.5344408620936105,-4.867921529591641e-06
0.5352349792735416,-8.22461e-06,0.5352349792735416,-9.231727525865153e-06,0.5352349792735416,-6.126497371081071e-05,0.5352349792735416,-8.392367988359575e-06
0.5360290964534726,-9.903303644218676e-06,0.5360290964534726,-7.553260727630484e-06,0.5360290964534726,-6.126455198271892e-05,0.5360290964534726,-1.0406435257662716e-05
0.5368232136334037,-1.1579939727884449e-05,0.5368232136334037,-7.888577955468294e-06,0.5368232136334037,-5.757595259865421e-05,0.5368232136334037,-8.22676839331583e-06
0.5376173308133347,-1.3929519494024189e-05,0.5376173308133347,-7.050377315134747e-06,0.5376173308133347,-5.472130485797327e-05,0.5376173308133347,-8.895444141149767e-06
0.5384114479932659,-1.1247767089779725e-05,0.5384114479932659,-8.894726382728667e-06,0.5384114479932659,-5.304156693111233e-05,0.5384114479932659,-1.3592532599837711e-05
0.539205565173197,-9.5683292096229e-06,0.539205565173197,-1.1580129261317517e-05,0.539205565173197,-5.455017273379267e-05,0.539205565173197,-2.5338765549068928e-05
0.539999682353128,-7.889581499086523e-06,0.539999682353128,-1.242046427045969e-05,0.539999682353128,-5.52221314003654e-05,0.539999682353128,-2.702302850091348e-05
0.5407937995330591,-6.210843780548731e-06,0.5407937995330591,-1.4266733825995284e-05,0.5407937995330591,-5.052378659260581e-05,0.5407937995330591,-3.709215730155899e-05
0.5415879167129901,-4.196441279423625e-06,0.5415879167129901,-2.064483094517017e-05,0.5415879167129901,-4.850861128047258e-05,0.5415879167129901,-5.21995154069452e-05
0.5423820338929212,-1.5104107246332246e-06,0.5423820338929212,-2.433821463832368e-05,0.5423820338929212,-3.3736567951675995e-05,0.5423820338929212,-2.9036610325688383e-05
0.5431761510728523,3.860912753998054e-06,0.5431761510728523,-2.7022806902903872e-05,0.5431761510728523,-7.211906281029501e-06,0.5431761510728523,1.1736003619569552e-06
0.5439702682527834,5.872866065501637e-06,0.5439702682527834,-2.232822586863971e-05,0.5439702682527834,2.229670899137189e-05,0.5439702682527834,-5.86823123385791e-06
0.5447643854327144,6.545600326856972e-06,0.5447643854327144,-1.5279756490600364e-05,0.5447643854327144,4.614005168082397e-05,0.5447643854327144,-1.6273345081763364e-05
0.5455585026126455,2.5202635078982667e-06,0.5455585026126455,-1.2254892640320186e-05,0.5455585026126455,3.726807274295448e-05,0.5455585026126455,-8.900636447851689e-06
0.5463526197925765,-1.5087110075813444e-06,0.5463526197925765,-1.1246382250498915e-05,0.5463526197925765,1.1258358066061096e-05,0.5463526197925765,2.3445048933712927e-06
0.5471467369725076,-1.6829382487357513e-07,0.5471467369725076,-9.064582841951678e-06,0.5471467369725076,4.534154129336909e-06,0.5471467369725076,6.88031871261477e-06
0.5479408541524387,-1.5103933466086046e-06,0.5479408541524387,-9.567317504358285e-06,0.5479408541524387,1.2587220075243138e-05,0.5479408541524387,-2.180375085796573e-06
0.5487349713323698,-3.524757277010089e-06,0.5487349713323698,-1.22529030358931e-05,0.5487349713323698,4.750003946913768e-05,0.5487349713323698,-2.2323172771545107e-05
0.5495290885123009,-8.22468475114311e-06,0.5495290885123009,-9.567484750029747e-06,0.5495290885123009,8.274872823513958e-05,0.5495290885123009,-2.467305249970253e-05
0.5503232056922319,-8.895339184609419e-06,0.5503232056922319,-1.023812919460071e-05,0.5503232056922319,7.403022060007756e-05,0.5503232056922319,-1.796660805399289e-05
0.551117322872163,-8.22518257384103e-06,0.551117322872163,-7.220096565228516e-06,0.551117322872163,6.429460223541433e-05,0.551117322872163,-6.891267451320872e-06
0.551911440052094,-9.063268140705225e-06,0.551911440052094,-8.559363032180598e-06,0.551911440052094,4.113943524601344e-05,0.551911440052094,3.517490980005966e-06
0.5527055572320251,-9.902632004288038e-06,0.5527055572320251,-1.392850479733076e-05,0.5527055572320251,-1.4482342081546373e-07,0.5527055572320251,2.5183015959696385e-06
0.5534996744119562,-1.0238662342687296e-05,0.5534996744119562,-1.4267062342687296e-05,0.5534996744119562,-1.1241357328773764e-05,0.5534996744119562,1.846615314625406e-06
0.5542937915918873,-8.896362453815609e-06,0.5542937915918873,-1.1917916798770694e-05,0.5542937915918873,-9.567850567925708e-06,0.5542937915918873,-6.879529043636572e-06
0.5550879087718184,-8.89601e-06,0.5550879087718184,-1.3259945716369832e-05,0.5550879087718184,-1.1581368575703716e-05,0.5550879087718184,-1.930127287871888e-05
0.5558820259517494,-9.56734416655648e-06,0.5558820259517494,-1.628132319393457e-05,0.5558820259517494,-1.6617615694599417e-05,0.5558820259517494,-2.568069152966231e-05
0.5566761431316805,-7.552615608024971e-06,0.5566761431316805,-1.3931681318132628e-05,0.5566761431316805,-3.239677362070382e-05,0.5566761431316805,-1.9301914288091945e-05
0.5574702603116115,-4.19935342958924e-06,0.5574702603116115,-1.493766296833195e-05,0.5574702603116115,-4.279191733943016e-05,0.5574702603116115,-1.4942660470561545e-05
0.5582643774915427,-2.183619156561316e-06,0.5582643774915427,-1.158423194066912e-05,0.5582643774915427,-5.118742022672876e-05,0.5582643774915427,-1.695122083559853e-05
0.5590584946714737,-4.1949481011784895e-06,0.5590584946714737,-5.5428756964645305e-06,0.5590584946714737,-4.918108190518585e-05,0.5590584946714737,-1.359793650864308e-05
0.5598526118514048,-5.538373569352995e-06,0.5598526118514048,-3.5258146459705078e-06,0.5598526118514048,-5.287069481572073e-05,0.5598526118514048,-6.885102143457982e-06
0.5606467290313358,-5.53903e-06,0.5606467290313358,-5.202757177704263e-06,0.5606467290313358,-5.253691456445915e-05,0.5606467290313358,-7.888566310035263e-06
0.5614408462112669,-4.867760042513087e-06,0.5614408462112669,-1.158036460193633e-05,0.5614408462112669,-4.615973540387433e-05,0.5614408462112669,-1.62797744705233e-05
0.5622349633911979,-4.196260956107973e-06,0.5622349633911979,-1.3931391653622097e-05,0.5622349633911979,-3.642374885895493e-05,0.5622349633911979,-2.970868088245122e-05
0.563029080571129,-3.5249320668981217e-06,0.563029080571129,-1.2588495866203755e-05,0.563029080571129,-3.843828250275087e-05,0.563029080571129,-3.440875977700626e-05
0.5638231977510602,-4.530913717097726e-06,0.5638231977510602,-1.0576532565804548e-05,0.5638231977510602,-4.615070859866105e-05,0.5638231977510602,-3.105548760967425e-05
0.5646173149309912,-2.854888213451493e-06,0.5646173149309912,-8.226637502283319e-06,0.5646173149309912,-3.995345837855403e-05,0.5646173149309912,-2.4511648022969943e-05
0.5654114321109223,-2.1825202024267124e-06,0.5654114321109223,-9.063259746966607e-06,0.5654114321109223,-3.374214183668582e-05,0.5654114321109223,-2.9034658669380967e-05
0.5662055492908533,-6.543642757213093e-06,0.5662055492908533,-1.1580170820595791e-05,0.5662055492908533,-3.776381330387097e-05,0.5662055492908533,-2.232771116021505e-05
0.5669996664707844,-9.566140870927282e-06,0.5669996664707844,-1.3594953911151108e-05,0.5669996664707844,-5.152391843487211e-05,0.5669996664707844,-9.9083175058953e-06
0.5677937836507154,-8.896192943211183e-06,0.5677937836507154,-1.3931408528394408e-05,0.5677937836507154,-4.918044030123914e-05,0.5677937836507154,7.548463498307649e-06
0.5685879008306466,-5.875097354377483e-06,0.5685879008306466,-1.4938474214791175e-05,0.5685879008306466,-1.2928928242537916e-05,0.5685879008306466,1.191675493325974e-05
