X [s].2,L DELTOID ANTERIOR: EMG 3 [V],X [s].3,L BICEPS BRACHII: EMG 4 [V],X [s].4,L DELTOID POSTERIOR: EMG 5 [V],X [s].7,L DELTOID MEDIUS: EMG 8 [V]
0.0,-5.53903e-06,0.0,-1.2253e-05,0.0,-1.2253e-05,0.0,-1.39315e-05
0.000794117179931,-3.524832080021908e-06,0.000794117179931,-8.560313813363173e-06,0.000794117179931,-1.4938597226637456e-05,0.000794117179931,-1.560999826664841e-05
0.0015882343598621,-2.853444768451393e-06,0.0015882343598621,-8.224612384261208e-06,0.0015882343598621,-1.5274297615738792e-05,0.0015882343598621,-1.4267209537044832e-05
0.0023823515397932,-1.510644556420529e-06,0.0023823515397932,-5.539032603660564e-06,0.0023823515397932,-1.5609998698160025e-05,0.0023823515397932,-1.3260099023523068e-05
0.0031764687197242,-3.860526211520796e-06,0.0031764687197242,-6.881817835161649e-06,0.0031764687197242,-1.4938601082427237e-05,0.0031764687197242,-1.2756500811901037e-05
0.0039705858996553,-5.874709599968286e-06,0.0039705858996553,-6.210423466694449e-06,0.0039705858996553,-1.5274298266652777e-05,0.0039705858996553,-1.2420801733347223e-05
0.0047647030795864,-4.531941701836179e-06,0.0047647030795864,-3.860550478278672e-06,0.0047647030795864,-1.52743e-05,0.0047647030795864,-1.2924395611343024e-05
0.0055588202595174,-5.874719670884157e-06,0.0055588202595174,-4.8676300548531855e-06,0.0055588202595174,-1.225300021941274e-05,0.0055588202595174,-1.359580021941274e-05
0.0063529374394485,-4.8676332472494645e-06,0.0063529374394485,-5.035479458786382e-06,0.0063529374394485,-1.2924397835145527e-05,0.0063529374394485,-1.4267197835145527e-05
0.0071470546193796,-5.203327725439157e-06,0.0071470546193796,-2.8534547845777232e-06,0.0071470546193796,-1.4938586352634942e-05,0.0071470546193796,-1.2588711372804217e-05
0.0079411717993107,-6.2104096000199205e-06,0.0079411717993107,-2.1820469333888986e-06,0.0079411717993107,-1.2588724266861146e-05,0.0079411717993107,-1.2420801733863564e-05
0.0087352889792417,-4.867631726037872e-06,0.0087352889792417,-6.2104148218735325e-06,0.0087352889792417,-1.0910202157563408e-05,0.0087352889792417,-1.493859676359062e-05
0.0095294061591728,-6.210413505484949e-06,0.0095294061591728,-9.567393763639825e-06,0.0095294061591728,-8.224622989078468e-06,0.0095294061591728,-1.3595806494563416e-05
0.0103235233391039,-6.546080534548103e-06,0.0103235233391039,-1.2588729599309352e-05,0.0103235233391039,-8.895970534548104e-06,0.0103235233391039,-1.4267150667817746e-05
0.0111176405190349,-5.203244365147031e-06,0.0111176405190349,-1.359566298423525e-05,0.0111176405190349,-7.553357014744376e-06,0.0111176405190349,-1.2588682873029406e-05
0.011911757698966,-3.524919401014191e-06,0.011911757698966,-1.0910343041622703e-05,0.011911757698966,-1.0238656959442544e-05,0.011911757698966,-1.2253017880202838e-05
0.0127058748788971,-1.8463930985013929e-06,0.0127058748788971,-1.2924336281418712e-05,0.0127058748788971,-1.359569380236452e-05,0.0127058748788971,-1.1581621239527096e-05
0.0134999920588282,-1.5106433570726272e-06,0.0134999920588282,-1.3595793285854745e-05,0.0134999920588282,-1.124592349950839e-05,0.0134999920588282,-1.0910206714145254e-05
0.0142941092387592,-3.52483e-06,0.0142941092387592,-1.6281415622473174e-05,0.0142941092387592,-8.22461e-06,0.0142941092387592,-9.903129291555487e-06
0.0150882264186903,-3.5247964996237024e-06,0.0150882264186903,-1.762436750021826e-05,0.0150882264186903,-8.224587666526682e-06,0.0150882264186903,-1.2420816752017696e-05
0.0158823435986214,-2.5178115201011867e-06,0.0158823435986214,-2.2659242403044897e-05,0.0158823435986214,-7.553267679830735e-06,0.0158823435986214,-1.2924364236043494e-05
0.0166764607785524,-3.0212651291274435e-06,0.0166764607785524,-2.433801709709148e-05,0.0166764607785524,-9.567310517003684e-06,0.0166764607785524,-1.359576683883659e-05
0.0174705779584835,-2.8534446589453918e-06,0.0174705779584835,-1.8967149083476863e-05,0.0174705779584835,-1.3092102163812176e-05,0.0174705779584835,-1.4938562728436868e-05
0.0182646951384146,-4.8676176688620525e-06,0.0182646951384146,-1.7624208220799444e-05,0.0182646951384146,-1.4938588696094654e-05,0.0182646951384146,-1.44350030831059e-05
0.0190588123183456,-6.881861659773344e-06,0.0190588123183456,-1.4267179170035766e-05,0.0190588123183456,-1.292444426289838e-05,0.0190588123183456,-1.2924415622473177e-05
0.0198529294982767,-9.567360125552704e-06,0.0198529294982767,-1.29244e-05,0.0198529294982767,-1.5777831173386667e-05,0.0198529294982767,-1.3931437656940885e-05
0.0206470466782078,-8.224700154246437e-06,0.0206470466782078,-1.29244e-05,0.0206470466782078,-1.661704365023903e-05,0.0206470466782078,-1.2253112692808044e-05
0.0214411638581389,-5.87482695050745e-06,0.0214411638581389,-1.158166111483576e-05,0.0214411638581389,-1.6281415278708938e-05,0.0214411638581389,-1.695258609807484e-05
0.0222352810380699,-8.224553888112655e-06,0.0222352810380699,-1.0238832064072074e-05,0.0222352810380699,-1.644919599318492e-05,0.0222352810380699,-1.5945724048054054e-05
0.023029398218001,-7.888910753327097e-06,0.023029398218001,-6.210429039880286e-06,0.023029398218001,-1.7624197363242956e-05,0.023029398218001,-1.359580527328968e-05
0.0238235153979321,-6.881859055989032e-06,0.0238235153979321,-1.6783760867148149e-06,0.0238235153979321,-1.628140650936382e-05,0.0238235153979321,-1.4267206509363825e-05
0.0246176325778631,-8.896051310551798e-06,0.0246176325778631,4.196271310961996e-06,0.0246176325778631,-1.6617168851603327e-05,0.0246176325778631,-1.4602913770320666e-05
0.0254117497577942,-9.903036290074315e-06,0.0254117497577942,5.203266289441702e-06,0.0254117497577942,-1.8295493815736173e-05,0.0254117497577942,-1.4938578763147234e-05
0.0262058669377253,-1.0910158069491472e-05,0.0262058669377253,3.692742895762791e-06,0.0262058669377253,-2.0309716138982945e-05,0.0262058669377253,-1.49386e-05
0.0269999841176564,-7.888970427107287e-06,0.0269999841176564,-5.034640736243306e-07,0.0269999841176564,-1.896702685658102e-05,0.0269999841176564,-1.3260133570726272e-05
0.0277941012975874,-1.1413702742728335e-05,0.0277941012975874,-7.217526033969656e-06,0.0277941012975874,-1.8463400822900203e-05,0.0277941012975874,-1.5274299451454332e-05
0.0285882184775185,-1.3092149234518444e-05,0.0285882184775185,-1.0910262482024413e-05,0.0285882184775185,-1.8967e-05,0.0285882184775185,-1.4938654671771362e-05
0.0293823356574496,-1.0910376775931688e-05,0.0293823356574496,-1.3595582424636964e-05,0.0293823356574496,-1.8967e-05,0.0293823356574496,-1.7288309621557344e-05
0.0301764528373806,-8.896129625332075e-06,0.0301764528373806,-1.4938520249382674e-05,0.0301764528373806,-1.8967e-05,0.0301764528373806,-1.6281459812962993e-05
0.0309705700173117,-4.867782098805803e-06,0.0309705700173117,-1.6281349300146352e-05,0.0309705700173117,-1.7120669714186606e-05,0.0309705700173117,-1.2924526749634115e-05
0.0317646871972428,-4.86763e-06,0.0317646871972428,-1.829556752636507e-05,0.0317646871972428,-1.4938635178965058e-05,0.0317646871972428,-1.4938567526365068e-05
0.0325588043771738,-8.224613700836863e-06,0.0325588043771738,-2.0981187047070986e-05,0.0325588043771738,-1.7624207401673726e-05,0.0325588043771738,-1.6449202775903254e-05
0.0333529215571049,-8.89608289542374e-06,0.0333529215571049,-1.863127266411431e-05,0.0333529215571049,-1.896695444019052e-05,0.0333529215571049,-1.6952836447847586e-05
0.034147038737036,-1.1581392839079076e-05,0.034147038737036,-1.7624277685634614e-05,0.034147038737036,-1.728862947605769e-05,0.034147038737036,-1.829549641915385e-05
0.0349411559169671,-1.4267050913747472e-05,0.0349411559169671,-1.6952837271563133e-05,0.0349411559169671,-1.695281863578157e-05,0.0349411559169671,-1.661719317890783e-05
0.0357352730968981,-1.023893647708775e-05,0.0357352730968981,-1.69528e-05,0.0357352730968981,-1.527435686545323e-05,0.0357352730968981,-1.66171e-05
0.0365293902768292,-8.224634662275895e-06,0.0365293902768292,-1.7624191779200555e-05,0.0365293902768292,-1.6952779448001388e-05,0.0365293902768292,-1.6952795889600277e-05
0.0373235074567603,-1.0238793695511513e-05,0.0373235074567603,-1.695279684770881e-05,0.0373235074567603,-1.7624207880258474e-05,0.0373235074567603,-1.82955952710937e-05
0.0381176246366913,-9.567394379493896e-06,0.0381176246366913,-1.6617172895695157e-05,0.0381176246366913,-1.846340520838641e-05,0.0381176246366913,-1.7792036449398616e-05
0.0389117418166224,-9.063896890254047e-06,0.0389117418166224,-1.896682784548112e-05,0.0389117418166224,-1.8631287699585636e-05,0.0389117418166224,-1.896691391907754e-05
0.0397058589965535,-7.217615335982066e-06,0.0397058589965535,-2.1652461328729577e-05,0.0397058589965535,-1.89669826660912e-05,0.0397058589965535,-1.6281538671270423e-05
0.0404999761764846,-6.8818300712178825e-06,0.0404999761764846,-2.198828992878212e-05,0.0404999761764846,-1.6281480569743063e-05,0.0404999761764846,-1.527433021365365e-05
0.0412940933564156,-6.88182e-06,0.0412940933564156,-2.232389719230966e-05,0.0412940933564156,-1.359582246821568e-05,0.0412940933564156,-1.426720842558088e-05
0.0420882105363467,-4.86759437130768e-06,0.0420882105363467,-2.19883e-05,0.0420882105363467,-1.1581608907206244e-05,0.0420882105363467,-1.527428663919063e-05
0.0428823277162778,-2.1822844276523198e-06,0.0428823277162778,-2.19883e-05,0.0428823277162778,-1.2252938892859384e-05,0.0428823277162778,-1.4267291660710924e-05
0.0436764448962088,-2.18204e-06,0.0436764448962088,-2.03099164736348e-05,0.0436764448962088,-1.493841364218432e-05,0.0436764448962088,-1.25888164736348e-05
0.0444705620761399,-1.6794519178641066e-07,0.0444705620761399,-1.6281592384432447e-05,0.0444705620761399,-1.3931548096108112e-05,0.0444705620761399,-1.2253016032036036e-05
0.045264679256071,-2.853369845474164e-06,0.045264679256071,-1.1749518387465212e-05,0.045264679256071,-1.3595808769345116e-05,0.045264679256071,-1.0910235077380468e-05
0.046058796436002,-1.8463445199625835e-06,0.046058796436002,-6.881841846171652e-06,0.046058796436002,-1.2253006026616778e-05,0.046058796436002,-1.09102e-05
0.0468529136159331,-4.5319472659358905e-06,0.0468529136159331,-1.8463256118915336e-06,0.0468529136159331,-1.191728273406411e-05,0.0468529136159331,-9.903082734235553e-06
0.0476470307958642,-5.538942244415606e-06,0.0476470307958642,-1.0071731287822932e-06,0.0476470307958642,-1.0910287755584394e-05,0.0476470307958642,-8.896097754713025e-06
0.0484411479757953,-1.846581920741005e-06,0.0484411479757953,-1.679039822009996e-07,0.0484411479757953,-8.728302952897129e-06,0.0484411479757953,-9.56736601429161e-06
0.0492352651557263,-2.182025269836725e-06,0.0492352651557263,-6.881525398006998e-06,0.0492352651557263,-7.553271555132671e-06,0.0492352651557263,-1.1581511619459144e-05
0.0500293823356574,-4.867570260443609e-06,0.0500293823356574,-9.567350260443608e-06,0.0500293823356574,-1.0238740260666051e-05,0.0500293823356574,-1.225298506505529e-05
0.0508234995155885,-4.196230409562864e-06,0.0508234995155885,-9.903099795224667e-06,0.0508234995155885,-1.426719754262282e-05,0.0508234995155885,-1.057450102390716e-05
0.0516176166955195,-2.85348234191464e-06,0.0516176166955195,-1.0910228228083238e-05,0.0516176166955195,-1.4267136486812713e-05,0.0516176166955195,-1.225298588595838e-05
0.0524117338754506,-4.867462299916846e-06,0.0524117338754506,-1.22528881993895e-05,0.0524117338754506,-1.1246151551373622e-05,0.0524117338754506,-1.1581655900305248e-05
0.0532058510553817,-4.531950690981429e-06,0.0532058510553817,-1.2588679309018573e-05,0.0532058510553817,-1.0910220690981429e-05,0.0532058510553817,-1.3595675854111426e-05
0.0539999682353128,-3.1891937127620264e-06,0.0539999682353128,-1.1245953713162036e-05,0.0539999682353128,-1.09102e-05,0.0539999682353128,-1.3092220144435809e-05
0.0547940854152438,-5.5389868409865625e-06,0.0547940854152438,-1.0238818496798756e-05,0.0547940854152438,-1.3595750675203313e-05,0.0547940854152438,-1.4267178419483127e-05
0.0555882025951749,-6.378269451523402e-06,0.0555882025951749,-2.1652639489988296e-05,0.0555882025951749,-1.2253002742219606e-05,0.0555882025951749,-1.2253003290859589e-05
0.056382319775106,-6.210436955110118e-06,0.056382319775106,-3.3736479242172887e-05,0.056382319775106,-1.3092115229500084e-05,0.056382319775106,-1.3259998269339296e-05
0.057176436955037,-3.860716561803185e-06,0.057176436955037,-3.239500660719834e-05,0.057176436955037,-1.0910373232727722e-05,0.057176436955037,-1.4602793392801656e-05
0.0579705541349681,-2.1821369449657425e-06,0.0579705541349681,-2.9877345415427108e-05,0.0579705541349681,-1.1917241832674011e-05,0.0579705541349681,-1.1917455112869304e-05
0.0587646713148992,-4.196157241854752e-06,0.0587646713148992,-2.366692434053444e-05,0.0587646713148992,-1.3595739367911269e-05,0.0587646713148992,-1.3260051494329015e-05
0.0595587884948302,-2.182069182216056e-06,0.0595587884948302,-1.393164104662904e-05,0.0595587884948302,-1.2924409727453646e-05,0.0595587884948302,-1.628135622645859e-05
0.0603529056747613,-2.182049594576693e-06,0.0603529056747613,-3.52478202697363e-06,0.0603529056747613,-1.2253002398662037e-05,0.0603529056747613,-1.1917297601337965e-05
0.0611470228546924,-3.5246995669257797e-06,0.0611470228546924,3.188487832686179e-06,0.0611470228546924,-1.2588667391488606e-05,0.0611470228546924,-1.1581632608511394e-05
0.0619411400346235,-3.52483e-06,0.0619411400346235,9.902593004484082e-06,0.0619411400346235,-1.4267073250365884e-05,0.0619411400346235,-1.3259973250365885e-05
0.0627352572145545,-4.867557651056399e-06,0.0627352572145545,1.0910145738292298e-05,0.0627352572145545,-1.15817446978872e-05,0.0627352572145545,-1.6281237214876897e-05
0.0635293743944856,-5.539008350910045e-06,0.0635293743944856,4.532135665387229e-06,0.0635293743944856,-1.426711340364018e-05,0.0635293743944856,-1.3260197420904796e-05
0.0643234915744167,-4.867637123708121e-06,0.0643234915744167,-1.6779913426597082e-07,0.0643234915744167,-1.7120569724770997e-05,0.0643234915744167,-1.258870712370812e-05
0.0651176087543477,-5.203311498145602e-06,0.0651176087543477,-5.706901453042248e-06,0.0651176087543477,-1.426719259925824e-05,0.0651176087543477,-1.7959874097403845e-05
0.0659117259342788,-3.524986534012788e-06,0.0659117259342788,-8.560043893110844e-06,0.0659117259342788,-1.3595862613605116e-05,0.0659117259342788,-1.5610219147617904e-05
0.0667058431142099,-5.203209759729728e-06,0.0667058431142099,-4.867894527161888e-06,0.0667058431142099,-1.2588772144162164e-05,0.0667058431142099,-1.5945675951945944e-05
0.067499960294141,-5.706844822455304e-06,0.067499960294141,2.181687508874145e-06,0.067499960294141,-1.0910283926815688e-05,0.067499960294141,-1.3595917497541962e-05
0.068294077474072,-4.531963329069085e-06,0.068294077474072,8.224438592751135e-06,0.068294077474072,-1.3595723818622282e-05,0.068294077474072,-1.2924419045344428e-05
0.0690881946540031,-7.049653050207589e-06,0.0690881946540031,9.56740096007481e-06,0.0690881946540031,-1.1581613559887784e-05,0.0690881946540031,-1.1245911299906488e-05
0.0698823118339342,-8.224479567064556e-06,0.0698823118339342,3.1898480672027097e-06,0.0698823118339342,-1.0238949067480649e-05,0.0698823118339342,-1.2588550932519353e-05
0.0706764290138652,-7.55328001685051e-06,0.0706764290138652,-1.510219877576834e-06,0.0706764290138652,-1.2252819946766712e-05,0.0706764290138652,-1.25887e-05
0.0714705461937963,-3.525102953497926e-06,0.0714705461937963,-1.0238208601996714e-05,0.0714705461937963,-1.1245968238543876e-05,0.0714705461937963,-9.735453341863406e-06
0.0722646633737274,-2.1821019335002686e-06,0.0722646633737274,-1.6281121297173256e-05,0.0722646633737274,-1.191726903301925e-05,0.0722646633737274,-1.0574461291735293e-05
0.0730587805536585,-3.860488896247656e-06,0.0730587805536585,-2.3666519144861045e-05,0.0730587805536585,-1.4938526012804987e-05,0.0730587805536585,-1.225295889600277e-05
0.0738528977335895,-7.385359939888987e-06,0.0738528977335895,-3.038068083782942e-05,0.0738528977335895,-1.6617095209457357e-05,0.0738528977335895,-1.3931495209457357e-05
0.0746470149135206,-7.553202017419339e-06,0.0746470149135206,-3.373734034838678e-05,0.0746470149135206,-1.6952764034838678e-05,0.0746470149135206,-1.1917515790967931e-05
0.0754411320934517,-5.5392022411415725e-06,0.0754411320934517,-3.23950148279978e-05,0.0754411320934517,-1.6281457413998902e-05,0.0754411320934517,-1.2252971293000548e-05
0.0762352492733827,-6.8817342234046775e-06,0.0762352492733827,-2.9206003717737057e-05,0.0762352492733827,-1.359597155446823e-05,0.0762352492733827,-1.2924357111382942e-05
0.0770293664533138,-6.88182e-06,0.0770293664533138,-2.836653545615626e-05,0.0770293664533138,-1.4938543273529577e-05,0.0770293664533138,-1.4938514910294365e-05
0.0778234836332449,-8.224582324499349e-06,0.0778234836332449,-2.53452622703402e-05,0.0778234836332449,-1.6952758486439868e-05,0.0778234836332449,-1.49386e-05
0.078617600813176,-6.210419828139523e-06,0.078617600813176,-2.0645498453204503e-05,0.078617600813176,-1.5106402062325732e-05,0.078617600813176,-1.7624201374883822e-05
0.079411717993107,-6.042587331726241e-06,0.079411717993107,-1.9134955990699028e-05,0.079411717993107,-1.7120392019285108e-05,0.079411717993107,-1.8966861346190077e-05
0.0802058351730381,-5.539071106873667e-06,0.0802058351730381,-1.5610287749748387e-05,0.0802058351730381,-1.8966849267721453e-05,0.0802058351730381,-1.6281619241013466e-05
0.0809999523529692,-4.867670284871533e-06,0.0809999523529692,-1.4938640284871531e-05,0.0809999523529692,-1.628156113948613e-05,0.0809999523529692,-1.62814e-05
0.0817940695329002,-5.874681361149156e-06,0.0817940695329002,-1.3092270840514949e-05,0.0817940695329002,-1.5274338639234513e-05,0.0817940695329002,-1.62814e-05
0.0825881867128313,-8.22457068078988e-06,0.0825881867128313,-8.896080212170062e-06,0.0825881867128313,-1.6281383148838237e-05,0.0825881867128313,-1.510641966052534e-05
0.0833823038927624,-5.035865921020648e-06,0.0833823038927624,-2.85417121973132e-06,0.0833823038927624,-1.661705937647991e-05,0.0833823038927624,-1.4267301552749662e-05
0.0841764210726934,-4.867646682972422e-06,0.0841764210726934,4.531195952195214e-06,0.0841764210726934,-1.4267433561613902e-05,0.0841764210726934,-1.42672e-05
0.0849705382526245,-6.881663381254089e-06,0.0849705382526245,8.895670659254266e-06,0.0849705382526245,-1.3595852206507829e-05,0.0849705382526245,-1.5609895586984343e-05
0.0857646554325556,-8.560215797746246e-06,0.0857646554325556,5.2035372450705084e-06,0.0857646554325556,-1.4267162318874004e-05,0.0857646554325556,-1.6281362318874005e-05
0.0865587726124866,-6.210501044759676e-06,0.0865587726124866,-4.867282665217136e-06,0.0865587726124866,-1.560995368851168e-05,0.0865587726124866,-1.4267269467232484e-05
0.0873528897924177,-2.8534831515544896e-06,0.0873528897924177,-8.895958218083194e-06,0.0873528897924177,-1.4938608630362314e-05,0.0873528897924177,-1.2588721575905788e-05
0.0881470069723488,-2.85344e-06,0.0881470069723488,-3.18980846727727e-06,0.0881470069723488,-1.3595957287245007e-05,0.0881470069723488,-9.903414574490016e-06
0.0889411241522799,-1.5107682562882983e-06,0.0889411241522799,3.188530784540862e-06,0.0889411241522799,-1.1917460320360373e-05,0.0889411241522799,-1.0238767935927924e-05
0.0897352413322109,-1.6794820485971397e-07,0.0897352413322109,2.1821144041434725e-06,0.0897352413322109,-1.0238924006905789e-05,0.0897352413322109,-1.1413613198859928e-05
0.090529358512142,-1.8462523070190327e-06,0.090529358512142,-9.734637379108924e-06,0.090529358512142,-9.7352863075129e-06,0.090529358512142,-1.0910226305423097e-05
0.0913234756920731,-3.524778620309548e-06,0.0913234756920731,-1.6281199618319526e-05,0.0913234756920731,-8.560345965997593e-06,0.0913234756920731,-8.560381931689077e-06
0.0921175928720041,-4.531920960074833e-06,0.0921175928720041,-2.433802768149629e-05,0.0921175928720041,-8.896006986691611e-06,0.0921175928720041,-1.091017890693104e-05
0.0929117100519352,-7.049384850364474e-06,0.0929117100519352,-2.333111406030724e-05,0.0929117100519352,-8.224686040204823e-06,0.0929117100519352,-1.376327683479231e-05
0.0937058272318663,-5.874827667697592e-06,0.0937058272318663,-2.031007685063021e-05,0.0937058272318663,-1.0909953903321865e-05,0.0937058272318663,-1.460282308991992e-05
0.0944999444117974,-4.532023997333541e-06,0.0944999444117974,-2.299511201093304e-05,0.0944999444117974,-1.5609671006882557e-05,0.0944999444117974,-1.661695900294967e-05
0.0952940615917284,-4.196246236817472e-06,0.0952940615917284,-2.1652664942433186e-05,0.0952940615917284,-1.561e-05,0.0952940615917284,-1.7959835052730115e-05
0.0960881787716595,-7.217439233128384e-06,0.0960881787716595,-2.03098358965062e-05,0.0960881787716595,-1.4938617948253098e-05,0.0960881787716595,-1.6281444870632745e-05
0.0968822959515906,-5.539249899540008e-06,0.0968822959515906,-1.829586388102013e-05,0.0968822959515906,-1.4267287960340044e-05,0.0968822959515906,-1.4938775920680089e-05
0.0976764131315216,-6.378178193550258e-06,0.0976764131315216,-1.3596314122244524e-05,0.0976764131315216,-1.6281179661895203e-05,0.0976764131315216,-1.6281253107930135e-05
0.0984705303114527,-4.532092030918441e-06,0.0984705303114527,-1.326012946032655e-05,0.0984705303114527,-1.3931706222285844e-05,0.0984705303114527,-1.7624082158693805e-05
0.0992646474913838,-7.553020221940599e-06,0.0992646474913838,-1.2588744395271253e-05,0.0992646474913838,-1.5945566814186242e-05,0.0992646474913838,-1.6281488790542504e-05
0.1000587646713148,-9.56681325231744e-06,0.1000587646713148,-1.393110216623648e-05,0.1000587646713148,-1.6952501624677363e-05,0.1000587646713148,-1.661700054155912e-05
0.1008528818512459,-9.23175995281704e-06,0.1008528818512459,-1.2588899811268151e-05,0.1008528818512459,-1.7624100094365924e-05,0.1008528818512459,-1.7624050141548885e-05
0.101646999031177,-8.224611228843336e-06,0.101646999031177,-1.1581601228843336e-05,0.101646999031177,-1.4938603276915565e-05,0.101646999031177,-1.4938603276915565e-05
0.1024411162111081,-6.881770866411853e-06,0.1024411162111081,-1.3595406931294826e-05,0.1024411162111081,-1.6952701732823708e-05,0.1024411162111081,-1.628125259923556e-05
0.1032352333910391,-6.54542926540418e-06,0.1032352333910391,-1.0909953322720292e-05,0.1032352333910391,-1.6281449323698205e-05,0.1032352333910391,-1.52743e-05
0.1040293505709702,-4.19623e-06,0.1040293505709702,-1.0072110229599758e-05,0.1040293505709702,-1.644882993816574e-05,0.1040293505709702,-1.5272671630915907e-05
0.1048234677509013,-4.19623e-06,0.1048234677509013,-1.2587014410621691e-05,0.1048234677509013,-1.5610561840809582e-05,0.1048234677509013,-1.1584072246851205e-05
0.1056175849308323,-3.5251809791424937e-06,0.1056175849308323,-1.1246601958284986e-05,0.1056175849308323,-1.6952098041715015e-05,0.1056175849308323,-1.242036130220974e-05
0.1064117021107634,-4.867126214525405e-06,0.1064117021107634,-1.2923770268156756e-05,0.1064117021107634,-1.69528e-05,0.1064117021107634,-1.4266507276213663e-05
0.1072058192906945,-4.86763e-06,0.1072058192906945,-1.4266894387335798e-05,0.1072058192906945,-1.4939058418996303e-05,0.1072058192906945,-1.1246587628494457e-05
0.1079999364706256,-5.538976280073083e-06,0.1079999364706256,-1.42672e-05,0.1079999364706256,-1.5609946280073084e-05,0.1079999364706256,-1.0910226859963458e-05
0.1087940536505566,-4.867766098759102e-06,0.1087940536505566,-1.39312958508478e-05,0.1087940536505566,-1.3595754633521732e-05,0.1087940536505566,-1.2253090732956534e-05
0.1095881708304877,-6.881892226441732e-06,0.1095881708304877,-1.0909983320674804e-05,0.1095881708304877,-1.292396664134961e-05,0.1095881708304877,-1.3596088905766926e-05
0.1103822880104188,-7.217459115177834e-06,0.1103822880104188,-9.904074157154637e-06,0.1103822880104188,-1.0911174157154636e-05,0.1103822880104188,-1.4938904405974148e-05
0.1111764051903498,-7.050097738300926e-06,0.1111764051903498,-1.2590667594145566e-05,0.1111764051903498,-1.3596826584154384e-05,0.1111764051903498,-1.5777201184726947e-05
0.1119705223702809,-7.888405791238468e-06,0.1119705223702809,-1.644688064210012e-05,0.1119705223702809,-1.5608789884553314e-05,0.1119705223702809,-1.460360587063763e-05
0.112764639550212,-7.553372392177991e-06,0.112764639550212,-1.4939285762531128e-05,0.112764639550212,-1.5274452396717662e-05,0.112764639550212,-1.2254066777023632e-05
0.1135587567301431,-4.8684528250566575e-06,0.1135587567301431,-1.4603002853515064e-05,0.1135587567301431,-1.4938702853515064e-05,0.1135587567301431,-1.0910611414060254e-05
0.1143528739100741,-4.86763e-06,0.1143528739100741,-1.2924666551562357e-05,0.1143528739100741,-1.4267306620624945e-05,0.1143528739100741,-1.3595373517500229e-05
0.1151469910900052,-5.874708698782579e-06,0.1151469910900052,-1.326009623289012e-05,0.1151469910900052,-1.1581630136879032e-05,0.1151469910900052,-1.242081318544566e-05
0.1159411082699363,-6.2101453448072895e-06,0.1159411082699363,-1.0910131342678928e-05,0.1159411082699363,-1.0239097537784664e-05,0.1159411082699363,-1.35958e-05
0.1167352254498673,-4.196706593637135e-06,0.1167352254498673,-1.04058897774716e-05,0.1167352254498673,-1.2420561715958818e-05,0.1167352254498673,-1.35958e-05
0.1175293426297984,-5.875154040842791e-06,0.1175293426297984,-7.552641278876278e-06,0.1175293426297984,-1.1580876598595349e-05,0.1175293426297984,-1.359551063943814e-05
0.1183234598097295,-6.881135691042254e-06,0.1183234598097295,-6.211332411943661e-06,0.1183234598097295,-9.904240514929576e-06,0.1183234598097295,-1.292485620597183e-05
0.1191175769896605,-5.539745382939113e-06,0.1191175769896605,-7.552504611733301e-06,0.1191175769896605,-1.3929353835199904e-05,0.1191175769896605,-1.4434195214837894e-05
0.1199116941695916,-5.53903e-06,0.1199116941695916,-4.533093730924974e-06,0.1199116941695916,-1.4938212088407753e-05,0.1199116941695916,-1.4602835328809118e-05
0.1207058113495227,-3.189698322254441e-06,0.1207058113495227,-6.545641438407043e-06,0.1207058113495227,-1.2589258324630391e-05,0.1207058113495227,-1.225355832463039e-05
0.1214999285294538,-5.706643370858573e-06,0.1214999285294538,-8.895798478687887e-06,0.1214999285294538,-1.3595709347623322e-05,0.1214999285294538,-1.4434803591017863e-05
0.1222940457093848,-7.721079662296167e-06,0.1222940457093848,-9.903196628718527e-06,0.1222940457093848,-1.4267084045537766e-05,0.1222940457093848,-1.6281245394050355e-05
0.1230881628893159,-7.888565657320014e-06,0.1230881628893159,-1.1581875475785191e-05,0.1230881628893159,-1.2253137737892595e-05,0.1230881628893159,-1.3595731131053702e-05
0.123882280069247,-6.21065682429778e-06,0.123882280069247,-1.292463682429778e-05,0.123882280069247,-1.29255841214889e-05,0.123882280069247,-1.325915270280888e-05
0.124676397249178,-6.88182e-06,0.124676397249178,-1.3596219335233012e-05,0.124676397249178,-1.628173548817379e-05,0.124676397249178,-1.0575338720434475e-05
0.1254705144291091,-6.88182e-06,0.1254705144291091,-1.4434487432589174e-05,0.1254705144291091,-1.69523899216401e-05,0.1254705144291091,-1.2251974804100248e-05
0.1262646316090402,-5.539653012212674e-06,0.1262646316090402,-1.6280543328629585e-05,0.1262646316090402,-1.661725575421309e-05,0.1262646316090402,-1.1749633654518058e-05
0.1270587487889713,-6.210207581142872e-06,0.1270587487889713,-1.5610212422020998e-05,0.1270587487889713,-1.5945912422020995e-05,0.1270587487889713,-1.2252840667664918e-05
0.1278528659689023,-6.21042e-06,0.1278528659689023,-1.2924853342463242e-05,0.1278528659689023,-1.59457e-05,0.1278528659689023,-1.443463166768886e-05
0.1286469831488334,-6.21042e-06,0.1286469831488334,-1.0406753433478692e-05,0.1286469831488334,-1.5777803563363814e-05,0.1286469831488334,-1.1917353433478693e-05
0.1294411003287645,-8.39235395477036e-06,0.1294411003287645,-1.1917724185972907e-05,0.1294411003287645,-1.4938260651221674e-05,0.1294411003287645,-1.2253254511583744e-05
0.1302352175086955,-7.552300384740575e-06,0.1302352175086955,-1.527462185260257e-05,0.1302352175086955,-1.2252632152800467e-05,0.1302352175086955,-1.426692411460035e-05
0.1310293346886266,-4.195806023183636e-06,0.1310293346886266,-1.6449694665580265e-05,0.1310293346886266,-1.0909988030536455e-05,0.1310293346886266,-1.3260311969463544e-05
0.1318234518685577,-3.189834361879517e-06,0.1318234518685577,-1.762338986862303e-05,0.1318234518685577,-1.040704714991345e-05,0.1318234518685577,-1.376325285008655e-05
0.1326175690484888,-2.853622204562114e-06,0.1326175690484888,-1.594661102281057e-05,0.1326175690484888,-1.107773559087577e-05,0.1326175690484888,-1.5944515643208252e-05
0.1334116862284198,-4.1956993585137415e-06,0.1334116862284198,-1.4267863306797553e-05,0.1334116862284198,-1.2252535705000629e-05,0.1334116862284198,-1.493899798407853e-05
0.1342058034083509,-4.867463763686164e-06,0.1342058034083509,-1.661651817290157e-05,0.1342058034083509,-1.3595467527372329e-05,0.1342058034083509,-1.3092657162242878e-05
0.134999920588282,-6.88161855127419e-06,0.134999920588282,-1.6281433574954326e-05,0.134999920588282,-1.3931466425045674e-05,0.134999920588282,-1.2924416782476424e-05
0.135794037768213,-8.895850318468563e-06,0.135794037768213,-1.2924623555475888e-05,0.135794037768213,-1.393157984124139e-05,0.135794037768213,-1.644916008175766e-05
0.1365881549481441,-5.53896448854913e-06,0.1365881549481441,-1.7623970700164516e-05,0.1365881549481441,-1.561e-05,0.1365881549481441,-1.5610196534352613e-05
0.1373822721280752,-5.203445054653462e-06,0.1373822721280752,-1.6448337107235565e-05,0.1373822721280752,-1.5610115054653462e-05,0.1373822721280752,-1.6616294617425767e-05
0.1381763893080062,-5.540345116723895e-06,0.1381763893080062,-1.3930020482667468e-05,0.1381763893080062,-1.594438487348219e-05,0.1381763893080062,-1.42672e-05
0.1389705064879373,-8.222942872798441e-06,0.1389705064879373,-1.0912075532069075e-05,0.1389705064879373,-1.3261767139616958e-05,0.1389705064879373,-1.42672e-05
0.1397646236678684,-6.211374665511442e-06,0.1397646236678684,-8.225882888928487e-06,0.1397646236678684,-1.2589018223417047e-05,0.1397646236678684,-1.42672e-05
0.1405587408477994,-5.874829568505932e-06,0.1405587408477994,-4.533135247037481e-06,0.1405587408477994,-1.1246338274023724e-05,0.1405587408477994,-1.393160956850593e-05
0.1413528580277305,-6.545999949393322e-06,0.1413528580277305,-4.196290025303339e-06,0.1413528580277305,-1.2588459898786644e-05,0.1413528580277305,-1.2253300126516697e-05
0.1421469752076616,-4.1963033743929e-06,0.1421469752076616,-1.8464133743929e-06,0.1421469752076616,-1.2253010482100737e-05,0.1421469752076616,-1.3931447589496324e-05
0.1429410923875927,-3.692894836060149e-06,0.1429410923875927,3.5251424876511905e-06,0.1429410923875927,-1.4267512488814762e-05,0.1429410923875927,-1.6281165633388927e-05
0.1437352095675237,-5.538675582782203e-06,0.1437352095675237,6.211217436100653e-06,0.1437352095675237,-1.695191395695551e-05,0.1437352095675237,-1.4266934187086652e-05
0.1445293267474548,-4.195954052526816e-06,0.1445293267474548,9.230054323380956e-06,0.1445293267474548,-1.359524810505363e-05,0.1445293267474548,-1.3260513921209776e-05
0.1453234439273859,-3.5252996190605065e-06,0.1453234439273859,5.206147700373792e-06,0.1453234439273859,-1.2253939238121012e-05,0.1453234439273859,-1.426649557140924e-05
0.146117561107317,-2.8538111185874567e-06,0.146117561107317,2.5192244909326752e-06,0.146117561107317,-1.5272629941482172e-05,0.146117561107317,-1.527374331382739e-05
0.146911678287248,-4.531249909777077e-06,0.146911678287248,-1.1734438006992089e-06,0.146911678287248,-1.678428793541174e-05,0.146911678287248,-1.4938736018854943e-05
0.1477057954671791,-5.203157048695296e-06,0.1477057954671791,-6.20912287036668e-06,0.1477057954671791,-1.2254167408426853e-05,0.1477057954671791,-1.3596145902609408e-05
0.1484999126471102,-4.196340797349245e-06,0.1484999126471102,-9.902693745253096e-06,0.1484999126471102,-1.0239021594698489e-05,0.1484999126471102,-1.2924473864899495e-05
0.1492940298270412,-2.853515664141338e-06,0.1492940298270412,-1.2924526107528325e-05,0.1492940298270412,-1.3092332414783016e-05,0.1492940298270412,-1.1917312610752832e-05
0.1500881470069723,-4.868002921881144e-06,0.1500881470069723,-1.628273630078451e-05,0.1500881470069723,-1.661691353813369e-05,0.1500881470069723,-1.2253248615821744e-05
0.1508822641869034,-6.880926426063064e-06,0.1508822641869034,-2.3500631289312985e-05,0.1508822641869034,-1.5610502620574675e-05,0.1508822641869034,-1.3595353211367889e-05
0.1516763813668344,-4.196874150170227e-06,0.1516763813668344,-2.87022e-05,0.1516763813668344,-1.7120197430128942e-05,0.1516763813668344,-1.2252677924914888e-05
0.1524704985467655,-5.538183017102892e-06,0.1524704985467655,-2.87022e-05,0.1524704985467655,-1.6281929332772753e-05,0.1524704985467655,-1.1582023491448551e-05
0.1532646157266966,-8.894385317639738e-06,0.1532646157266966,-2.568236222283572e-05,0.1532646157266966,-1.4939249876815876e-05,0.1532646157266966,-1.3930362715572218e-05
0.1540587329066277,-7.218084626642929e-06,0.1540587329066277,-2.1653955078377412e-05,0.1540587329066277,-1.49386e-05,0.1540587329066277,-1.6448353071809246e-05
0.1548528500865587,-8.224419853491794e-06,0.1548528500865587,-1.829623382798761e-05,0.1548528500865587,-1.2924780296792566e-05,0.1548528500865587,-1.577792676559752e-05
0.1556469672664898,-6.546189197568643e-06,0.1556469672664898,-1.82956e-05,0.1556469672664898,-1.3092193082263214e-05,0.1556469672664898,-1.292451763450623e-05
0.1564410844464209,-3.5253298483628107e-06,0.1564410844464209,-1.4938528592787153e-05,0.1564410844464209,-1.2756517857120997e-05,0.1564410844464209,-1.4267235703606422e-05
0.157235201626352,-8.22478049361803e-06,0.157235201626352,-1.426702950638197e-05,0.157235201626352,-1.292354753444922e-05,0.157235201626352,-1.4602644259572954e-05
0.158029318806283,-8.894933040294757e-06,0.158029318806283,-1.359485765674904e-05,0.158029318806283,-9.568083098311973e-06,0.158029318806283,-1.3595396138606733e-05
0.1588234359862141,-6.2123252953247725e-06,0.1588234359862141,-1.1247567139616876e-05,0.1588234359862141,-1.124470919308246e-05,0.1588234359862141,-1.2589414488407232e-05
0.1596175531661451,-3.861852431243244e-06,0.1596175531661451,-1.49365218849172e-05,0.1596175531661451,-1.3091160970596751e-05,0.1596175531661451,-1.3930744321788071e-05
0.1604116703460762,-5.53833311824811e-06,0.1604116703460762,-1.661640311824811e-05,0.1604116703460762,-1.3931151538364992e-05,0.1604116703460762,-1.4267060623649622e-05
0.1612057875260073,-8.223891340169797e-06,0.1612057875260073,-1.5274659332591098e-05,0.1612057875260073,-1.3595889833147771e-05,0.1612057875260073,-1.4602810166852229e-05
0.1619999047059384,-6.546321448525791e-06,0.1619999047059384,-1.4938640289945193e-05,0.1619999047059384,-1.4938438840219224e-05,0.1619999047059384,-1.5441999281137902e-05
0.1627940218858694,-4.36408e-06,0.1627940218858694,-2.1652637010273237e-05,0.1627940218858694,-1.493863701302964e-05,0.1627940218858694,-1.4267223131765322e-05
0.1635881390658005,-4.364168194690003e-06,0.1635881390658005,-2.299553518584001e-05,0.1635881390658005,-1.6281458796460003e-05,0.1635881390658005,-1.5106282407079996e-05
0.1643822562457316,-4.868280034748291e-06,0.1643822562457316,-2.43381e-05,0.1643822562457316,-1.6616124943036648e-05,0.1643822562457316,-1.4435e-05
0.1651763734256627,-6.88182e-06,0.1651763734256627,-2.4336444338646696e-05,0.1651763734256627,-1.3595957684270398e-05,0.1651763734256627,-1.443507886562109e-05
0.1659704906055937,-6.88182e-06,0.1659704906055937,-2.0815558507425424e-05,0.1659704906055937,-1.3931284901003543e-05,0.1659704906055937,-1.4602792418464388e-05
0.1667646077855248,-6.54628582669939e-06,0.1667646077855248,-1.6619172809043745e-05,0.1667646077855248,-1.5776887977851994e-05,0.1667646077855248,-1.426736582669939e-05
0.1675587249654559,-3.525876548007278e-06,0.1675587249654559,-8.22751708395606e-06,0.1675587249654559,-1.3596555825409636e-05,0.1675587249654559,-1.3260448850490396e-05
0.1683528421453869,-5.874252819928648e-06,0.1683528421453869,-2.18324131933144e-06,0.1683528421453869,-1.6280866077646347e-05,0.1683528421453869,-1.4434766418910744e-05
0.169146959325318,-4.867681590762533e-06,0.169146959325318,2.517499241742112e-06,0.169146959325318,-1.5106460192381988e-05,0.169146959325318,-1.3595842990167628e-05
0.1699410765052491,-4.867597653889011e-06,0.1699410765052491,4.531994692221979e-06,0.1699410765052491,-1.309250729287211e-05,0.1699410765052491,-1.6449248523984196e-05
0.1707351936851801,-4.5320528339703725e-06,0.1707351936851801,5.201774110360031e-06,0.1707351936851801,-1.62814e-05,0.1707351936851801,-1.695263622137284e-05
0.1715293108651112,-5.035283099211601e-06,0.1715293108651112,-1.1758588664356071e-06,0.1715293108651112,-1.6280612396846405e-05,0.1715293108651112,-1.6280678010891273e-05
0.1723234280450423,-4.532292274111888e-06,0.1723234280450423,-3.523139394672262e-06,0.1723234280450423,-1.4268649096447549e-05,0.1723234280450423,-1.4436328374382263e-05
0.1731175452249733,-5.538453168854788e-06,0.1731175452249733,-2.1828091024659705e-06,0.1731175452249733,-1.5609230891806385e-05,0.1731175452249733,-1.3092969108193616e-05
0.1739116624049044,-6.210134536560205e-06,0.1739116624049044,-5.705371303122631e-06,0.1739116624049044,-1.5106614122027854e-05,0.1739116624049044,-1.2253356813355392e-05
0.1747057795848355,-3.189978710236957e-06,0.1747057795848355,-8.895124691665422e-06,0.1747057795848355,-1.376397276257288e-05,0.1747057795848355,-1.1581786381286438e-05
0.1754998967647666,-4.867411764097113e-06,0.1754998967647666,-9.73515088139846e-06,0.1754998967647666,-1.3931478169778734e-05,0.1754998967647666,-1.2588569057678151e-05
0.1762940139446976,-8.560286417127721e-06,0.1762940139446976,-1.292446485338174e-05,0.1762940139446976,-1.3260129478809885e-05,0.1762940139446976,-1.0238755782136428e-05
0.1770881311246287,-7.2170764899348945e-06,0.1770881311246287,-1.661665648828345e-05,0.1770881311246287,-1.4938821755858274e-05,0.1770881311246287,-7.72129175420683e-06
0.1778822483045598,-4.533084797584246e-06,0.1778822483045598,-1.393160498216716e-05,0.1778822483045598,-1.628082258244431e-05,0.1778822483045598,-9.064437398792124e-06
0.1786763654844909,-8.223375361208735e-06,0.1786763654844909,-1.4265965352014156e-05,0.1786763654844909,-1.4435231519483792e-05,0.1786763654844909,-1.0909582680604369e-05
0.1794704826644219,-5.54077760513419e-06,0.1794704826644219,-1.158334761814892e-05,0.1794704826644219,-1.4938272289060248e-05,0.1794704826644219,-9.568283802567095e-06
0.180264599844353,-4.196906736779299e-06,0.180264599844353,-8.226301836908504e-06,0.180264599844353,-1.62807232632207e-05,0.180264599844353,-8.89634836838965e-06
0.181058717024284,-3.525069281984465e-06,0.181058717024284,-1.0909242875626064e-05,0.181058717024284,-1.5610239281984466e-05,0.181058717024284,-8.392639461488349e-06
0.1818528342042151,-4.867349608841485e-06,0.1818528342042151,-1.5273388728734827e-05,0.1818528342042151,-1.6281259804420743e-05,0.1818528342042151,-1.292345368192812e-05
0.1826469513841462,-4.3641108318805546e-06,0.1826469513841462,-1.7624056117890743e-05,0.1826469513841462,-1.5610041109174073e-05,0.1826469513841462,-1.191736166376111e-05
0.1834410685640773,-3.0216233673518348e-06,0.1834410685640773,-1.963848696584667e-05,0.1834410685640773,-1.1581773931693332e-05,0.1834410685640773,-1.4267344943077778e-05
0.1842351857440083,-6.8813488114304586e-06,0.1842351857440083,-2.064447908636408e-05,0.1842351857440083,-1.3596271190908886e-05,0.1842351857440083,-1.594534659512161e-05
0.1850293029239394,-4.868269565790119e-06,0.1850293029239394,-1.6279992946878936e-05,0.1850293029239394,-1.56101279139201e-05,0.1850293029239394,-1.443570354561235e-05
0.1858234201038705,-6.544895660560546e-06,0.1858234201038705,-1.2591393562814235e-05,0.1858234201038705,-1.594545513065325e-05,0.1858234201038705,-1.6280053182121426e-05
0.1866175372838016,-8.223631833108471e-06,0.1866175372838016,-1.3259708730912324e-05,0.1866175372838016,-1.158414324906989e-05,0.1866175372838016,-1.862993055819313e-05
0.1874116544637326,-6.88240436101314e-06,0.1874116544637326,-1.4602315634635018e-05,0.1874116544637326,-1.15816e-05,0.1874116544637326,-1.7960192182682492e-05
0.1882057716436637,-4.868209285955896e-06,0.1882057716436637,-1.2924882740693266e-05,0.1882057716436637,-1.2924013807445386e-05,0.1882057716436637,-1.6617486192554614e-05
0.1889998888235948,-5.538935990127901e-06,0.1889998888235948,-9.567880047960289e-06,0.1889998888235948,-1.42670119802558e-05,0.1889998888235948,-1.561014101480815e-05
0.1897940060035258,-5.874717461809069e-06,0.1897940060035258,-9.567417614724016e-06,0.1897940060035258,-1.6449178425112444e-05,0.1897940060035258,-1.4938611421821386e-05
0.1905881231834569,-5.5391341613868406e-06,0.1905881231834569,-1.057429167567489e-05,0.1905881231834569,-1.359559167412346e-05,0.1905881231834569,-1.6449382292899117e-05
0.191382240363388,-6.210724874015217e-06,0.191382240363388,-9.23201487098797e-06,0.191382240363388,-1.2253508123358693e-05,0.191382240363388,-1.7623996750656524e-05
0.192176357543319,-7.2158592495108546e-06,0.192176357543319,-1.0239101955452098e-05,0.192176357543319,-1.393195293317815e-05,0.192176357543319,-1.69524980445479e-05
0.1929704747232501,-3.5272698543413723e-06,0.1929704747232501,-1.090975638891843e-05,0.1929704747232501,-1.4937934583377648e-05,0.1929704747232501,-1.6281843611081567e-05
0.1937645919031812,-6.544567129927431e-06,0.1937645919031812,-1.1581254916619482e-05,0.1937645919031812,-1.2254380333522068e-05,0.1937645919031812,-1.5945872541690258e-05
0.1945587090831123,-9.566303017274944e-06,0.1945587090831123,-1.0910445996975332e-05,0.1945587090831123,-8.897239981212724e-06,0.1945587090831123,-1.5610122998487668e-05
0.1953528262630433,-6.882407640092377e-06,0.1953528262630433,-1.2923959268289624e-05,0.1953528262630433,-1.3930398172912184e-05,0.1953528262630433,-1.3931867276425312e-05
0.1961469434429744,-7.21749608791753e-06,0.1961469434429744,-1.225304782416494e-05,0.1961469434429744,-1.2588795648329882e-05,0.1961469434429744,-1.4938528263752588e-05
0.1969410606229055,-6.210189321445929e-06,0.1969410606229055,-1.628181009792195e-05,0.1969410606229055,-1.0239005048960974e-05,0.1969410606229055,-1.4938523106639634e-05
0.1977351778028366,-3.1892151720833958e-06,0.1977351778028366,-2.1652675174322726e-05,0.1977351778028366,-1.2924174477031822e-05,0.1977351778028366,-1.3931951045936354e-05
0.1985292949827676,-3.525577363887495e-06,0.1985292949827676,-2.1989670130022324e-05,0.1985292949827676,-1.191792280323958e-05,0.1985292949827676,-1.5944952636112503e-05
0.1993234121626987,-5.537540664286492e-06,0.1993234121626987,-2.5678169625133703e-05,0.1993234121626987,-1.359455888690541e-05,0.1993234121626987,-1.3932989335713508e-05
0.2001175293426297,-4.532526976117815e-06,0.2001175293426297,-2.56809e-05,0.2001175293426297,-1.4434502549540196e-05,0.2001175293426297,-1.4267001007960728e-05
0.2009116465225608,-4.19637944883668e-06,0.2009116465225608,-2.333204614185676e-05,0.2009116465225608,-1.5273926355649017e-05,0.2009116465225608,-1.5273851653489963e-05
0.2017057637024919,-4.19623e-06,0.2017057637024919,-1.963949893221444e-05,0.2017057637024919,-1.5945500188731848e-05,0.2017057637024919,-1.225389915070668e-05
0.202499880882423,-8.2240056538225e-06,0.202499880882423,-1.3932356161335416e-05,0.202499880882423,-1.6281349637568506e-05,0.202499880882423,-1.091040144972598e-05
0.203293998062354,-7.721071228818933e-06,0.203293998062354,-6.210438842215689e-06,0.203293998062354,-1.6449199590507575e-05,0.203293998062354,-1.2924395084626653e-05
0.2040881152422851,-5.539224894443437e-06,0.2040881152422851,-8.388562102422779e-07,0.2040881152422851,-1.6280620416420597e-05,0.2040881152422851,-1.1581697447947424e-05
0.2048822324222162,-6.882114798601647e-06,0.2048822324222162,1.8480596697306668e-06,0.2048822324222162,-1.091088787023405e-05,0.2048822324222162,-1.2254031790714916e-05
0.2056763496021472,-7.888245694354998e-06,0.2056763496021472,7.721291432283326e-06,0.2056763496021472,-1.326091191250885e-05,0.2056763496021472,-1.5777873834214503e-05
0.2064704667820783,-6.379283207951093e-06,0.2064704667820783,8.224272268487732e-06,0.2064704667820783,-1.510516166006454e-05,0.2064704667820783,-1.594558738705781e-05
0.2072645839620094,-6.546032050407153e-06,0.2072645839620094,6.546999490688688e-06,0.2072645839620094,-1.2254495116879516e-05,0.2072645839620094,-1.4268079495928462e-05
0.2080587011419405,-6.210546355983089e-06,0.2080587011419405,2.51925626426915e-06,0.2080587011419405,-1.1246279067949266e-05,0.2080587011419405,-1.2924905423932352e-05
0.2088528183218715,-7.217289561658476e-06,0.2088528183218715,-1.672345002728874e-07,0.2088528183218715,-1.4266508684975427e-05,0.2088528183218715,-1.0910660876683049e-05
0.2096469355018026,-8.560200922500704e-06,0.2096469355018026,-3.5245573057643665e-06,0.2096469355018026,-1.4938545460844192e-05,0.2096469355018026,-1.1581545460844191e-05
0.2104410526817337,-6.2104422736247006e-06,0.2104410526817337,-7.5535763766682e-06,0.2104410526817337,-1.49385331791259e-05,0.2104410526817337,-1.39314777263753e-05
0.2112351698616647,-6.545473650693794e-06,0.2112351698616647,-1.292483090096368e-05,0.2112351698616647,-1.393200271779096e-05,0.2112351698616647,-1.359558454951816e-05
0.2120292870415958,-3.524708796234828e-06,0.2120292870415958,-1.493932724425455e-05,0.2120292870415958,-1.628049092662888e-05,0.2120292870415958,-1.2589063622127277e-05
0.2128234042215269,-3.189391568397018e-06,0.2128234042215269,-1.695129054465348e-05,0.2128234042215269,-1.3765486856653496e-05,0.2128234042215269,-1.3595045272326738e-05
0.2136175214014579,-5.537613559284752e-06,0.2136175214014579,-2.248846126281581e-05,0.2136175214014579,-1.5608887047420675e-05,0.2136175214014579,-1.091181879627764e-05
0.214411638581389,-2.8546624461049392e-06,0.214411638581389,-2.1652981993070896e-05,0.214411638581389,-1.6281094387335796e-05,0.214411638581389,-8.22583244610494e-06
0.2152057557613201,-5.042708394458038e-07,0.2152057557613201,-2.0981406526259044e-05,0.2152057557613201,-1.4939013052518083e-05,0.2152057557613201,-1.0238180424298929e-05
0.2159998729412512,-1.5104788414994375e-06,0.2159998729412512,-2.131684628007308e-05,0.2159998729412512,-1.49386e-05,0.2159998729412512,-1.2252677680438496e-05
0.2167939901211822,-2.349879558189217e-06,0.2167939901211822,-1.6952854297416072e-05,0.2167939901211822,-1.292442506034588e-05,0.2167939901211822,-1.5609958232756868e-05
0.2175881073011133,-4.196456831039937e-06,0.2175881073011133,-1.8631073167608665e-05,0.2175881073011133,-1.3595437068173862e-05,0.2175881073011133,-1.3931295844090802e-05
0.2183822244810444,-5.8750047290426136e-06,0.2183822244810444,-1.6952135632233905e-05,0.2183822244810444,-1.0910579638723484e-05,0.2183822244810444,-1.2421369458085226e-05
0.2191763416609755,-6.88182e-06,0.2191763416609755,-1.4604198440635509e-05,0.2191763416609755,-1.2253721355908616e-05,0.2191763416609755,-1.443536069944242e-05
0.2199704588409065,-6.88182e-06,0.2199704588409065,-1.76221433912339e-05,0.2199704588409065,-1.3930357439574387e-05,0.2199704588409065,-1.5273728685752032e-05
0.2207645760208376,-6.210778513362229e-06,0.2207645760208376,-1.7120868911720613e-05,0.2207645760208376,-1.4434731141677267e-05,0.2207645760208376,-1.3596696283405571e-05
0.2215586932007686,-6.21042e-06,0.2215586932007686,-1.493944311829062e-05,0.2215586932007686,-1.225384311829062e-05,0.2215586932007686,-1.5441386595187913e-05
0.2223528103806997,-7.217279489172209e-06,0.2223528103806997,-1.426736034055186e-05,0.2223528103806997,-1.359547931889628e-05,0.2223528103806997,-1.4938720243473132e-05
0.2231469275606308,-5.539183134454356e-06,0.2231469275606308,-1.3595861254146676e-05,0.2231469275606308,-1.2253122508293352e-05,0.2231469275606308,-1.3763707199318356e-05
0.2239410447405619,-5.874852412341297e-06,0.2239410447405619,-1.4267124335482982e-05,0.2239410447405619,-1.4267313496775523e-05,0.2239410447405619,-1.5610018916129254e-05
0.2247351619204929,-8.224541540668141e-06,0.2247351619204929,-1.2924126162672567e-05,0.2247351619204929,-1.62805784880177e-05,0.2247351619204929,-1.5946110755991146e-05
0.225529279100424,-7.888320732992751e-06,0.225529279100424,-1.158077502478557e-05,0.225529279100424,-1.225252858358564e-05,0.225529279100424,-1.7959664291792823e-05
0.2263233962803551,-6.211694638222323e-06,0.2263233962803551,-9.233494496548836e-06,0.2263233962803551,-1.0911219716653023e-05,0.2263233962803551,-1.728900985832651e-05
0.2271175134602862,-5.539441407932551e-06,0.2271175134602862,-1.0909171470977066e-05,0.2271175134602862,-1.1748885763063204e-05,0.2271175134602862,-1.494003994921089e-05
0.2279116306402172,-6.881195349341698e-06,0.2279116306402172,-1.1581287672344906e-05,0.2279116306402172,-9.568425036967736e-06,0.2279116306402172,-1.5274143836172454e-05
0.2287057478201483,-7.217413379375057e-06,0.2287057478201483,-8.39347289276089e-06,0.2287057478201483,-1.2923333796926638e-05,0.2287057478201483,-1.628108013812517e-05
0.2294998650000794,-6.210591232267053e-06,0.2294998650000794,-8.560281461288825e-06,0.2294998650000794,-1.4938257535465894e-05,0.2294998650000794,-1.3596256619378806e-05
0.2302939821800104,-6.21042e-06,0.2302939821800104,-1.1581532192246604e-05,0.2302939821800104,-1.5609984931560484e-05,0.2302939821800104,-1.326010753421976e-05
0.2310880993599415,-7.552715893457242e-06,0.2310880993599415,-1.2252915982034309e-05,0.2310880993599415,-1.4938179910171548e-05,0.2310880993599415,-1.2252915982034309e-05
0.2318822165398726,-3.525104656556312e-06,0.2318822165398726,-1.1582149313112623e-05,0.2318822165398726,-1.1582515521854372e-05,0.2318822165398726,-1.1582149313112623e-05
0.2326763337198036,-4.531577705226115e-06,0.2326763337198036,-1.3596363671638216e-05,0.2326763337198036,-1.4938318164180892e-05,0.2326763337198036,-1.3595236328361783e-05
0.2334704508997347,-3.693259663393229e-06,0.2334704508997347,-1.4937672538570834e-05,0.2334704508997347,-1.4267663730714584e-05,0.2334704508997347,-1.2253927461429164e-05
0.2342645680796658,-7.551119942409497e-06,0.2342645680796658,-1.3093204405170028e-05,0.2342645680796658,-1.1583060913412383e-05,0.2342645680796658,-1.4601621700764164e-05
0.2350586852595969,-5.8753853548697806e-06,0.2350586852595969,-1.5609001947875406e-05,0.2350586852595969,-1.0910466141947913e-05,0.2350586852595969,-1.4267333070973956e-05
0.2358528024395279,-2.8541917449659405e-06,0.2358528024395279,-1.3596301166628182e-05,0.2358528024395279,-1.3595131777829088e-05,0.2358528024395279,-1.3931583527771365e-05
0.236646919619459,-4.363927070452876e-06,0.236646919619459,-1.5274130077156142e-05,0.236646919619459,-1.2253135938275086e-05,0.236646919619459,-1.3260167969137544e-05
0.2374410367993901,-4.532007792705634e-06,0.2374410367993901,-2.1652615558633825e-05,0.2374410367993901,-1.493867001153485e-05,0.2374410367993901,-1.225303111726764e-05
0.2382351539793211,-6.210224696430013e-06,0.2382351539793211,-2.198764898163576e-05,0.2382351539793211,-1.6449232560614644e-05,0.2382351539793211,-1.29244e-05
0.2390292711592522,-5.202871996674319e-06,0.2390292711592522,-1.8629696988360115e-05,0.2390292711592522,-1.661698549916858e-05,0.2390292711592522,-1.2925316006651362e-05
0.2398233883391833,-3.861563129741701e-06,0.2398233883391833,-1.3935115954095953e-05,0.2398233883391833,-1.6281658282435424e-05,0.2398233883391833,-1.56079337405166e-05
0.2406175055191144,-3.6927845322627808e-06,0.2406175055191144,-7.724937681267443e-06,0.2406175055191144,-1.62814e-05,0.2406175055191144,-1.4939018129051122e-05
0.2414116226990454,-4.195990718015547e-06,0.2414116226990454,-2.855753049679248e-06,0.2414116226990454,-1.9636804786770316e-05,0.2414116226990454,-1.5777401220452083e-05
0.2422057398789765,-8.223290269107645e-06,0.2422057398789765,1.844800312866892e-06,0.2422057398789765,-1.8463784939801738e-05,0.2422057398789765,-1.4938874928920524e-05
0.2429998570589076,-6.882061737870873e-06,0.2429998570589076,4.867086087540204e-06,0.2429998570589076,-1.644956260950671e-05,0.2429998570589076,-1.3260402174588925e-05
0.2437939742388386,-6.3782863375727885e-06,0.2437939742388386,5.203319108284807e-06,0.2437939742388386,-1.5610027227665744e-05,0.2437939742388386,-1.1581654458575962e-05
0.2445880914187697,-5.538836742562943e-06,0.2445880914187697,2.517469440624353e-06,0.2445880914187697,-1.5610115954462237e-05,0.2445880914187697,-1.2924477302974822e-05
0.2453822085987008,-3.8604418053099965e-06,0.2453822085987008,1.675844172435832e-07,0.2453822085987008,-1.661683541592999e-05,0.2453822085987008,-1.359632916814002e-05
0.2461763257786318,-3.525242693912155e-06,0.2461763257786318,-8.412406765876856e-07,0.2461763257786318,-1.5610275129274772e-05,0.2461763257786318,-1.5610550258549542e-05
0.2469704429585629,-4.5312243441116535e-06,0.2469704429585629,-5.703459348090699e-06,0.2469704429585629,-1.6280929562741102e-05,0.2469704429585629,-1.6951859125482206e-05
0.247764560138494,-7.551546260491874e-06,0.247764560138494,-9.900775365179714e-06,0.247764560138494,-1.7623456113312023e-05,0.247764560138494,-1.4268687773375949e-05
0.2485586773184251,-6.21096571387756e-06,0.2485586773184251,-1.5607680716020374e-05,0.2485586773184251,-1.695307285693878e-05,0.2485586773184251,-1.3092677519962862e-05
0.2493527944983561,-3.525525079546199e-06,0.2493527944983561,-1.7959291803132417e-05,0.2493527944983561,-1.7624026229466403e-05,0.2493527944983561,-1.292444342969249e-05
0.2501469116782872,-5.706627277695028e-06,0.2501469116782872,-1.8631225315871587e-05,0.2501469116782872,-1.628154936825682e-05,0.2501469116782872,-1.3763506650401309e-05
0.2509410288582183,-5.8747688045535004e-06,0.2509410288582183,-1.8295587798861627e-05,0.2509410288582183,-1.3763447487951035e-05,0.2509410288582183,-1.426712679316975e-05
0.2517351460381494,-7.217643486842733e-06,0.2517351460381494,-1.7959591278294988e-05,0.2517351460381494,-9.56707040796376e-06,0.2517351460381494,-1.2252567789612984e-05
0.2525292632180804,-7.888576560633166e-06,0.2525292632180804,-1.6282844918270264e-05,0.2525292632180804,-7.721792452513294e-06,0.2525292632180804,-9.903655737796256e-06
0.2533233803980115,-6.882604899329047e-06,0.2533233803980115,-2.064209873580128e-05,0.2533233803980115,-9.90139938348811e-06,0.2533233803980115,-1.1580291821462027e-05
0.2541174975779426,-4.868904525798236e-06,0.2541174975779426,-1.896806211010497e-05,0.2541174975779426,-1.2251513045853036e-05,0.2541174975779426,-1.359452546787403e-05
0.2549116147578736,-5.538704242363171e-06,0.2549116147578736,-1.829592575763683e-05,0.2549116147578736,-1.0910851515273656e-05,0.2549116147578736,-1.2589188636455244e-05
0.2557057319378047,-5.874606667760288e-06,0.2557057319378047,-1.7960013335615812e-05,0.2557057319378047,-1.2252546657536756e-05,0.2557057319378047,-1.5105549999761912e-05
0.2564998491177358,-7.720719141727363e-06,0.2564998491177358,-1.628171896206603e-05,0.2564998491177358,-1.2253e-05,0.2564998491177358,-1.829499396257313e-05
0.2572939662976669,-8.89596012818727e-06,0.2572939662976669,-1.6617085750789374e-05,0.2572939662976669,-1.0910256996842504e-05,0.2572939662976669,-1.6952856996842506e-05
0.2580880834775979,-7.553043530040112e-06,0.2580880834775979,-1.7624270587983954e-05,0.2580880834775979,-1.2252858824032089e-05,0.2580880834775979,-1.594555882403209e-05
0.258882200657529,-5.874465490943429e-06,0.258882200657529,-1.829483646524877e-05,0.258882200657529,-1.0910539348778323e-05,0.258882200657529,-1.4602857568766843e-05
0.2596763178374601,-4.86763e-06,0.2596763178374601,-1.527309209771306e-05,0.2596763178374601,-1.2254342113652156e-05,0.2596763178374601,-1.44352013370376e-05
0.2604704350173911,-4.86763e-06,0.2604704350173911,-1.2255147147114669e-05,0.2604704350173911,-1.5607614280983703e-05,0.2604704350173911,-1.4938242106614055e-05
0.2612645521973222,-6.880684030635197e-06,0.2612645521973222,-9.904425304172074e-06,0.2612645521973222,-1.4938978658334878e-05,0.2612645521973222,-1.4267578658334878e-05
0.2620586693772533,-5.539589139695234e-06,0.2620586693772533,-4.869726776980135e-06,0.2620586693772533,-1.577745055590804e-05,0.2620586693772533,-1.1582718287718494e-05
0.2628527865571843,-3.5253714565733883e-06,0.2628527865571843,-5.538849514475537e-06,0.2628527865571843,-1.393199632175129e-05,0.2628527865571843,-1.4937697572377684e-05
0.2636469037371154,-4.196148600880698e-06,0.2636469037371154,-5.53903e-06,0.2636469037371154,-1.5274137201761396e-05,0.2636469037371154,-1.6281237201761395e-05
0.2644410209170465,-3.524900748880372e-06,0.2644410209170465,-5.539056530665491e-06,0.2644410209170465,-1.7624182312714048e-05,0.2644410209170465,-1.7624080609502623e-05
0.2652351380969776,-6.210244841202586e-06,0.2652351380969776,-6.547346120278179e-06,0.2652351380969776,-1.6952157744698878e-05,0.2652351380969776,-1.3091937267891277e-05
0.2660292552769086,-5.202683237488608e-06,0.2660292552769086,-1.3597955885741409e-05,0.2660292552769086,-1.3260854560009492e-05,0.2660292552769086,-1.1582785737157774e-05
0.2668233724568397,-3.1907299259848853e-06,0.2668233724568397,-2.0304500220404968e-05,0.2668233724568397,-1.560814507714174e-05,0.2668233724568397,-1.527138512122273e-05
0.2676174896367708,-5.537519549812665e-06,0.2676174896367708,-1.6954957795164405e-05,0.2676174896367708,-1.527451577951644e-05,0.2676174896367708,-1.493881577951644e-05
0.2684116068167018,-5.53903e-06,0.2684116068167018,-1.0913192253649058e-05,0.2684116068167018,-1.326109741788302e-05,0.2684116068167018,-1.5274133763686163e-05
0.2692057239966329,-6.377978270698031e-06,0.2692057239966329,-6.883220310382566e-06,0.2692057239966329,-1.460243322755507e-05,0.2692057239966329,-1.4267550079333696e-05
0.269999841176564,-5.539197872771336e-06,0.269999841176564,-2.854245794903237e-06,0.269999841176564,-1.4267267149908653e-05,0.269999841176564,-1.2253402899451912e-05
0.270793958356495,-4.867665213412097e-06,0.270793958356495,-5.036712465227566e-07,0.270793958356495,-1.2924470426824192e-05,0.270793958356495,-1.0238905640236289e-05
0.2715880755364261,-4.86763e-06,0.2715880755364261,-1.68040618123127e-07,0.2715880755364261,-1.3931468063503444e-05,0.2715880755364261,-1.0909816763944012e-05
0.2723821927163572,-4.866896685134935e-06,0.2723821927163572,-2.182202959398272e-06,0.2723821927163572,-1.3595474081203456e-05,0.2723821927163572,-6.882308875767658e-06
0.2731763098962882,-1.8467980033257048e-06,0.2731763098962882,-2.854028857520696e-06,0.2731763098962882,-1.22545702971167e-05,0.2731763098962882,-8.896337145232646e-06
0.2739704270762193,-3.020443261891663e-06,0.2739704270762193,-4.362991343924441e-06,0.2739704270762193,-1.6278496897914273e-05,0.2739704270762193,-9.734655187065472e-06
0.2747645442561504,-4.195555602419915e-06,0.2747645442561504,-8.222394114857059e-06,0.2747645442561504,-1.4939370746651351e-05,0.2747645442561504,-9.56750634333142e-06
0.2755586614360815,-7.887335430465228e-06,0.2755586614360815,-1.5271293991598623e-05,0.2755586614360815,-1.359637257384103e-05,0.2755586614360815,-1.3929639139280683e-05
0.2763527786160125,-9.90253840124215e-06,0.2763527786160125,-1.8965970397165552e-05,0.2763527786160125,-1.3931406399742324e-05,0.2763527786160125,-1.5945138398453936e-05
0.2771468957959436,-7.721356368233034e-06,0.2771468957959436,-2.03096237717798e-05,0.2771468957959436,-1.5106245806869295e-05,0.2771468957959436,-1.59457e-05
0.2779410129758747,-7.21752548614753e-06,0.2779410129758747,-2.047761920233348e-05,0.2779410129758747,-1.49386e-05,0.2779410129758747,-1.7624167083114816e-05
0.2787351301558057,-7.55322e-06,0.2787351301558057,-2.165229733037818e-05,0.2787351301558057,-1.49386e-05,0.2787351301558057,-1.560988994129978e-05
0.2795292473357368,-7.552697794925434e-06,0.2795292473357368,-1.9805416707943855e-05,0.2795292473357368,-1.493865220495175e-05,0.2795292473357368,-1.4939017764059652e-05
0.2803233645156679,-5.876061711259663e-06,0.2803233645156679,-1.7290512526921923e-05,0.2803233645156679,-1.5106265868841602e-05,0.2803233645156679,-1.628032663099227e-05
0.2811174816955989,-2.519931357063099e-06,0.2811174816955989,-1.5611095685059312e-05,0.2811174816955989,-1.4938709535867116e-05,0.2811174816955989,-1.4268514822071177e-05
0.2819115988755301,-3.1888008123814827e-06,0.2819115988755301,-1.3596817562855552e-05,0.2819115988755301,-1.49386e-05,0.2819115988755301,-1.107971111592823e-05
0.2827057160554611,-3.18914e-06,0.2827057160554611,-1.2253480202426713e-05,0.2827057160554611,-1.3931860151820034e-05,0.2827057160554611,-1.0910260043183978e-05
0.2834998332353922,-5.035092211377901e-06,0.2834998332353922,-1.594492441855518e-05,0.2834998332353922,-1.3595870507404072e-05,0.2834998332353922,-1.2420482727183216e-05
0.2842939504153233,-5.538998553697795e-06,0.2842939504153233,-8.225092176009326e-06,0.2842939504153233,-1.225308385680588e-05,0.2842939504153233,-1.3260047586373864e-05
0.2850880675952543,-5.5388013688424455e-06,0.2850880675952543,-5.033765270149305e-07,0.2850880675952543,-1.359574284199778e-05,0.2850880675952543,-1.225282852599334e-05
0.2858821847751854,-2.8538306086913087e-06,0.2858821847751854,1.5086088320126215e-06,0.2858821847751854,-1.2924595293873508e-05,0.2858821847751854,-1.023911248881476e-05
0.2866763019551165,-4.533587555075359e-06,0.2866763019551165,-7.221281365629338e-06,0.2866763019551165,-1.3763536266580437e-05,0.2866763019551165,-1.1582365028925406e-05
0.2874704191350475,-8.892821394815677e-06,0.2874704191350475,-1.711336433698998e-05,0.2874704191350475,-1.3595922602690584e-05,0.2874704191350475,-1.3594328329324332e-05
0.2882645363149786,-6.211988347426406e-06,0.2882645363149786,-2.097894546298044e-05,0.2882645363149786,-1.2756990139595017e-05,0.2882645363149786,-1.6279831646733732e-05
0.2890586534949096,-5.203769498503065e-06,0.2890586534949096,-2.7021063026437785e-05,0.2890586534949096,-1.3259880226746226e-05,0.2890586534949096,-1.6952506998088595e-05
0.2898527706748408,-6.8813352141227305e-06,0.2898527706748408,-2.8030509126740703e-05,0.2898527706748408,-1.2253290873259296e-05,0.2898527706748408,-1.7959609126740704e-05
0.2906468878547718,-6.88182e-06,0.2906468878547718,-2.500992673095445e-05,0.2906468878547718,-9.567789314991551e-06,0.2906468878547718,-1.6281637072752474e-05
0.2914410050347029,-6.210411485455068e-06,0.2914410050347029,-2.2995276585461154e-05,0.2914410050347029,-1.0574524479181936e-05,0.2914410050347029,-1.35958e-05
0.292235122214634,-4.867888357734219e-06,0.292235122214634,-1.9301614891051528e-05,0.292235122214634,-1.4435103343709378e-05,0.292235122214634,-1.3596316718546892e-05
0.293029239394565,-6.546322175485511e-06,0.293029239394565,-1.2251180426652902e-05,0.293029239394565,-1.51064e-05,0.293029239394565,-1.6953204350971026e-05
0.2938233565744961,-7.21697660895182e-06,0.2938233565744961,-6.215310503246813e-06,0.2938233565744961,-1.51064e-05,0.2938233565744961,-1.829451321790364e-05
0.2946174737544272,-6.211087483521854e-06,0.2946174737544272,-2.1847099208318584e-06,0.2946174737544272,-1.359680119214389e-05,0.2946174737544272,-1.695368997802914e-05
0.2954115909343582,-6.21042e-06,0.2954115909343582,-1.688867031914607e-07,0.2954115909343582,-1.4937908194781184e-05,0.2954115909343582,-1.594621885391411e-05
0.2962057081142893,-5.035911924681291e-06,0.2962057081142893,-8.389991848985954e-07,0.2962057081142893,-1.4603023408102124e-05,0.2962057081142893,-1.4938970224306373e-05
0.2969998252942204,-5.538919202650756e-06,0.2969998252942204,1.676274064016733e-07,0.2969998252942204,-1.46029e-05,0.2969998252942204,-1.661673067550252e-05
0.2977939424741515,-6.881722713936843e-06,0.2977939424741515,-1.007014874133245e-06,0.2977939424741515,-1.628127839151542e-05,0.2977939424741515,-1.594574864339383e-05
0.2985880596540825,-4.196204778494336e-06,0.2985880596540825,-5.035694381295526e-06,0.2985880596540825,-1.2252924335483006e-05,0.2985880596540825,-1.4938650443011328e-05
0.2993821768340136,-3.86090382354146e-06,0.2993821768340136,-7.889732409564083e-06,0.2993821768340136,-1.1246124294124876e-05,0.2993821768340136,-1.561e-05
0.3001762940139447,-5.539278299399152e-06,0.3001762940139447,-1.158197245464616e-05,0.3001762940139447,-1.225275169690256e-05,0.3001762940139447,-1.560987584845128e-05
0.3009704111938757,-6.209922743970117e-06,0.3009704111938757,-1.2587954104845624e-05,0.3009704111938757,-1.158209726343625e-05,0.3009704111938757,-1.5274548631718126e-05
0.3017645283738068,-6.881421196692542e-06,0.3017645283738068,-1.5608205385116443e-05,0.3017645283738068,-1.3594603590077629e-05,0.3017645283738068,-1.4267798204961186e-05
0.3025586455537379,-6.210719716902251e-06,0.3025586455537379,-1.5945550141548874e-05,0.3025586455537379,-1.1246949009157874e-05,0.3025586455537379,-1.0911698584511249e-05
0.3033527627336689,-6.21042e-06,0.3033527627336689,-1.963729653226627e-05,0.3033527627336689,-1.091030031524852e-05,0.3033527627336689,-7.554223146508728e-06
0.3041468799136,-5.874770772045941e-06,0.3041468799136,-1.7624504632275643e-05,0.3041468799136,-1.1581498455908118e-05,0.3041468799136,-8.392333071397572e-06
0.3049409970935311,-4.8676336864934045e-06,0.3049409970935311,-1.863129631346999e-05,0.3049409970935311,-1.2252997542313329e-05,0.3049409970935311,-9.23170692789166e-06
0.3057351142734621,-4.532074943077801e-06,0.3057351142734621,-1.9302941571796337e-05,0.3057351142734621,-1.4267103371281464e-05,0.3057351142734621,-8.89629988471639e-06
0.3065292314533932,-5.540202807824171e-06,0.3065292314533932,-2.09812e-05,0.3065292314533932,-1.3595897734470574e-05,0.3065292314533932,-1.09105909378823e-05
0.3073233486333243,-9.564109430831616e-06,0.3073233486333243,-2.09812e-05,0.3073233486333243,-1.3931224951203751e-05,0.3073233486333243,-1.225189980481501e-05
0.3081174658132554,-8.393250482009555e-06,0.3081174658132554,-1.8632880964019108e-05,0.3081174658132554,-1.292507755600819e-05,0.3081174658132554,-1.124657755600819e-05
0.3089115829931864,-6.379327847548923e-06,0.3089115829931864,-1.762472892640045e-05,0.3089115829931864,-1.44342066366592e-05,0.3089115829931864,-9.568291538748774e-06
0.3097057001731175,-8.559486027392263e-06,0.3097057001731175,-1.4268467655975222e-05,0.3097057001731175,-1.4267263363917975e-05,0.3097057001731175,-1.2587559113398456e-05
0.3104998173530486,-9.567178332815176e-06,0.3104998173530486,-1.5609691110420234e-05,0.3104998173530486,-1.5609691110420234e-05,0.3104998173530486,-1.4434575288329518e-05
0.3112939345329796,-8.224720716769445e-06,0.3112939345329796,-1.5274327679192363e-05,0.3112939345329796,-1.8631050887268745e-05,0.3112939345329796,-1.4938558477088847e-05
0.3120880517129107,-6.88182e-06,0.3120880517129107,-1.1581698384789716e-05,0.3120880517129107,-2.0309712543958937e-05,0.3120880517129107,-1.258885304807186e-05
0.3128821688928418,-6.881962814425692e-06,0.3128821688928418,-1.3091914371148617e-05,0.3128821688928418,-1.896671437114861e-05,0.3128821688928418,-1.493917125770277e-05
0.3136762860727728,-7.552736806893842e-06,0.3136762860727728,-1.1748252437963272e-05,0.3136762860727728,-1.762468319310616e-05,0.3136762860727728,-1.7623293994933955e-05
0.314470403252704,-6.211427939961131e-06,0.314470403252704,-8.562703812370153e-06,0.314470403252704,-1.896599206003887e-05,0.314470403252704,-1.5108289924958397e-05
0.315264520432635,-7.216911722552547e-06,0.315264520432635,-4.869860338560878e-06,0.315264520432635,-1.8967e-05,0.315264520432635,-1.6280690312778514e-05
0.3160586376125661,-4.1976089389548495e-06,0.3160586376125661,-1.8477189389548488e-06,0.3160586376125661,-1.6282625727572374e-05,0.3160586376125661,-1.5945853215946544e-05
0.3168527547924971,-3.69283550911595e-06,0.3168527547924971,-1.84634e-06,0.3168527547924971,-1.62814e-05,0.3168527547924971,-1.5610103672743968e-05
0.3176468719724282,-5.035263481834549e-06,0.3176468719724282,-2.181985870458637e-06,0.3176468719724282,-1.4435297720539684e-05,0.3176468719724282,-1.561e-05
0.3184409891523593,-9.567348084699997e-06,0.3184409891523593,-3.021278534153103e-06,0.3184409891523593,-1.5609983947131243e-05,0.3184409891523593,-1.4938609172677516e-05
0.3192351063322903,-7.217137867996713e-06,0.3192351063322903,-3.525391959458573e-06,0.3192351063322903,-1.2421227096902291e-05,0.3192351063322903,-1.5610022471735923e-05
0.3200292235122214,-4.364410334194461e-06,0.3200292235122214,-7.721400331382986e-06,0.3200292235122214,-1.5610188762396835e-05,0.3200292235122214,-1.577756406106133e-05
0.3208233406921525,-5.538055592760502e-06,0.3208233406921525,-8.895035601053683e-06,0.3208233406921525,-1.6280843195863144e-05,0.3208233406921525,-1.4939295963705169e-05
0.3216174578720835,-6.209961587831456e-06,0.3216174578720835,-7.554136831164894e-06,0.3216174578720835,-1.795875395250912e-05,0.3216174578720835,-1.1583892094981756e-05
0.3224115750520147,-6.21042e-06,0.3224115750520147,-1.0572883014044044e-05,0.3224115750520147,-1.6953338998886645e-05,0.3224115750520147,-1.359472200222671e-05
0.3232056922319457,-5.539290242309764e-06,0.3232056922319457,-1.225234938453516e-05,0.3232056922319457,-1.393267110783671e-05,0.3232056922319457,-1.3931369876907032e-05
0.3239998094118768,-5.874639422509967e-06,0.3239998094118768,-1.2253e-05,0.3239998094118768,-1.258902231956155e-05,0.3239998094118768,-1.5106117982385416e-05
0.3247939265918079,-6.210388963312217e-06,0.3247939265918079,-1.2756453449591008e-05,0.3247939265918079,-1.158169311006335e-05,0.3247939265918079,-1.393160862378456e-05
0.3255880437717389,-6.881671948432718e-06,0.3255880437717389,-1.4267459091207486e-05,0.3255880437717389,-1.0238688961462358e-05,0.3255880437717389,-1.3763442697380433e-05
0.32638216095167,-4.196298049717401e-06,0.32638216095167,-1.8967680476903012e-05,0.32638216095167,-8.224780124293503e-06,0.32638216095167,-1.0910472198869602e-05
0.3271762781316011,-4.531871277497809e-06,0.3271762781316011,-2.23239e-05,0.3271762781316011,-9.064153609012446e-06,0.3271762781316011,-1.2253939560035055e-05
0.3279703953115321,-4.364207669131231e-06,0.3279703953115321,-2.23239e-05,0.3279703953115321,-9.902461661949986e-06,0.3279703953115321,-1.4936557293900291e-05
0.3287645124914632,-2.1833797520498178e-06,0.3287645124914632,-2.467235718348799e-05,0.3287645124914632,-1.090958165006628e-05,0.3287645124914632,-1.3261130583222863e-05
0.3295586296713942,-5.537464270244163e-06,0.3295586296713942,-2.232499601409395e-05,0.3295586296713942,-9.568036289103882e-06,0.3295586296713942,-1.5608903985906053e-05
0.3303527468513254,-6.378002427589799e-06,0.3303527468513254,-1.5612140572905068e-05,0.3303527468513254,-1.2587736731033774e-05,0.3303527468513254,-1.6281185939521222e-05
0.3311468640312564,-3.860961151063609e-06,0.3311468640312564,-1.1246647331478507e-05,0.3311468640312564,-1.426691256481596e-05,0.3311468640312564,-1.5274472461110426e-05
0.3319409812111875,-5.538990280828979e-06,0.3319409812111875,-1.0238823831502612e-05,0.3319409812111875,-1.3595815887668408e-05,0.3319409812111875,-1.577778808543187e-05
0.3327350983911186,-5.53903e-06,0.3327350983911186,-6.210191204712986e-06,0.3327350983911186,-1.32602247981052e-05,0.3327350983911186,-1.42672e-05
0.3335292155710496,-5.538847944147527e-06,0.3335292155710496,-4.364216541889354e-06,0.3335292155710496,-1.4267655139631183e-05,0.3335292155710496,-1.42672e-05
0.3343233327509807,-4.8681935106812176e-06,0.3343233327509807,-4.867207366989087e-06,0.3343233327509807,-1.5944291223296954e-05,0.3343233327509807,-1.42672e-05
0.3351174499309118,-7.719093187482242e-06,0.3351174499309118,-4.196695133987196e-06,0.3351174499309118,-1.8629439464051217e-05,0.3351174499309118,-1.2589862834967988e-05
0.3359115671108428,-6.882277559477484e-06,0.3359115671108428,-2.1831381372939578e-06,0.3359115671108428,-1.762474907137298e-05,0.3359115671108428,-1.3091925491573532e-05
0.3367056842907739,-5.87512044176524e-06,0.3367056842907739,-2.18204e-06,0.3367056842907739,-1.5610800883530482e-05,0.3367056842907739,-1.3595599759236444e-05
0.337499801470705,-3.525417559200297e-06,0.337499801470705,-3.6923022842642256e-06,0.337499801470705,-1.3931919686929048e-05,0.337499801470705,-1.6280728500913524e-05
0.338293918650636,-4.531826817450383e-06,0.338293918650636,-4.3640112116335884e-06,0.338293918650636,-1.5274162423267178e-05,0.338293918650636,-1.4938737576732822e-05
0.3390880358305671,-5.874644255354392e-06,0.3390880358305671,-4.867970849325803e-06,0.3390880358305671,-1.1078160591564831e-05,0.3390880358305671,-1.3595906043135623e-05
0.3398821530104982,-4.196165307778021e-06,0.3398821530104982,-1.2422967179800869e-05,0.3398821530104982,-1.2420897047968387e-05,0.3398821530104982,-1.594557061555604e-05
0.3406762701904293,-3.860187728201947e-06,0.3406762701904293,-2.3668867742912272e-05,0.3406762701904293,-1.29239436330711e-05,0.3406762701904293,-1.52738436330711e-05
0.3414703873703603,-2.854216066897899e-06,0.3414703873703603,-3.0040084860841763e-05,0.3414703873703603,-1.1582634766138576e-05,0.3414703873703603,-1.3932534766138576e-05
0.3422645045502914,-3.859901583819936e-06,0.3422645045502914,-2.870303789655998e-05,0.3422645045502914,-1.225258105172001e-05,0.3422645045502914,-1.3596009474139995e-05
0.3430586217302225,-3.189459857110726e-06,0.3430586217302225,-2.467571917124897e-05,0.3430586217302225,-1.1581919861874828e-05,0.3430586217302225,-1.4937960276250342e-05
0.3438527389101535,-4.531488452348949e-06,0.3438527389101535,-2.2660262326409005e-05,0.3438527389101535,-1.4266316898121326e-05,0.3438527389101535,-1.49386e-05
0.3446468560900846,-3.1893833763164534e-06,0.3446468560900846,-1.829639096079432e-05,0.3446468560900846,-1.4938478310935538e-05,0.3446468560900846,-1.49386e-05
0.3454409732700157,-5.706785240701102e-06,0.3454409732700157,-1.1581826026592527e-05,0.3454409732700157,-1.49386e-05,0.3454409732700157,-1.4435016953677687e-05
0.3462350904499467,-8.224304067294704e-06,0.3462350904499467,-7.552646374184025e-06,0.3462350904499467,-1.5274338241872956e-05,0.3462350904499467,-1.3931614725618862e-05
0.3470292076298778,-5.538942325345921e-06,0.3470292076298778,-2.517389301383683e-06,0.3470292076298778,-1.5609649301383685e-05,0.3470292076298778,-1.4937898602767366e-05
0.3478233248098089,-5.203615108612766e-06,0.3478233248098089,-1.1760804344510648e-06,0.3478233248098089,-1.4268340434451064e-05,0.3478233248098089,-1.2255280868902128e-05
0.34861744198974,-4.700133886733529e-06,0.34861744198974,-3.5231785356046995e-06,0.34861744198974,-1.460266407551098e-05,0.34861744198974,-1.1078925700572384e-05
0.349411559169671,-6.209581289763043e-06,0.349411559169671,-5.202398093567804e-06,0.349411559169671,-1.493841361871356e-05,0.349411559169671,-1.1245806837116876e-05
0.3502056763496021,-7.552672647664658e-06,0.3502056763496021,-4.532203676167671e-06,0.3502056763496021,-1.3764078953674432e-05,0.3502056763496021,-1.426596845724548e-05
0.3509997935295332,-6.881994589762463e-06,0.3509997935295332,-3.189489176924542e-06,0.3509997935295332,-1.527390716003254e-05,0.3509997935295332,-1.42672e-05
0.3517939107094642,-6.88182e-06,0.3517939107094642,-1.5108287583932553e-06,0.3517939107094642,-1.6616948993285398e-05,0.3517939107094642,-1.3931537751678652e-05
0.3525880278893953,-8.560262834255441e-06,0.3525880278893953,-1.679963933820321e-07,0.3525880278893953,-1.3595741042380234e-05,0.3525880278893953,-1.2924329250856282e-05
0.3533821450693264,-7.217642667626044e-06,0.3533821450693264,-4.366380046764668e-06,0.3533821450693264,-1.19175146624076e-05,0.3533821450693264,-1.0910322669453111e-05
0.3541762622492574,-7.887913360457071e-06,0.3541762622492574,-1.6955346951593682e-05,0.3541762622492574,-1.30920339088036e-05,0.3541762622492574,-1.1581378523079912e-05
0.3549703794291886,-4.86998838764916e-06,0.3549703794291886,-2.4667773047503323e-05,0.3549703794291886,-1.2589093028180556e-05,0.3549703794291886,-1.0910724089613556e-05
0.3557644966091196,-5.874081511433615e-06,0.3557644966091196,-1.897061807440313e-05,0.3557644966091196,-1.393064867345824e-05,0.3557644966091196,-1.2252148673458238e-05
0.3565586137890507,-4.197046437300183e-06,0.3565586137890507,-8.900908648121685e-06,0.3565586137890507,-1.493811013470142e-05,0.3565586137890507,-1.158192657686572e-05
0.3573527309689818,-4.8674025095395344e-06,0.3573527309689818,-1.0238345022467367e-05,0.3573527309689818,-1.5106343144326383e-05,0.3573527309689818,-9.73588559537798e-06
0.3581468481489128,-5.035447898986173e-06,0.3581468481489128,-1.5608972767557566e-05,0.3581468481489128,-1.1750042020276525e-05,0.3581468481489128,-1.1245611092788048e-05
0.3589409653288439,-3.5248959647128232e-06,0.3589409653288439,-1.896685341174928e-05,0.3589409653288439,-1.2924348691928926e-05,0.3589409653288439,-1.2252956023524784e-05
0.3597350825087749,-2.8533353468674744e-06,0.3597350825087749,-1.9134468603609434e-05,0.3597350825087749,-1.2252930231244982e-05,0.3597350825087749,-1.2924609306265051e-05
0.360529199688706,-1.8472675326893337e-06,0.360529199688706,-1.5946121606909607e-05,0.360529199688706,-1.1581768642763844e-05,0.360529199688706,-1.4938009750326546e-05
0.3613233168686371,-5.535856927858689e-06,0.3613233168686371,-1.7622757690575383e-05,0.3613233168686371,-1.2252423076230152e-05,0.3613233168686371,-1.2590719233194464e-05
0.3621174340485681,-6.042211084151154e-06,0.3621174340485681,-1.930150359007768e-05,0.3621174340485681,-1.5607607180155348e-05,0.3621174340485681,-1.2924160718015534e-05
0.3629115512284993,-5.539314602520758e-06,0.3629115512284993,-2.232219240748359e-05,0.3629115512284993,-1.326142817147303e-05,0.3629115512284993,-1.4937461567308831e-05
0.3637056684084303,-6.881259221859186e-06,0.3637056684084303,-2.5343938239786683e-05,0.3637056684084303,-1.3595659804420745e-05,0.3637056684084303,-1.5609719608841488e-05
0.3644997855883614,-8.895466088440336e-06,0.3644997855883614,-1.9639941063399525e-05,0.3644997855883614,-1.4267018695246646e-05,0.3644997855883614,-1.4267562609506708e-05
0.3652939027682925,-7.553384435471711e-06,0.3652939027682925,-1.007217160533818e-05,0.3652939027682925,-1.42672e-05,0.3652939027682925,-1.326022332752222e-05
0.3660880199482235,-6.210360962051686e-06,0.3660880199482235,-2.1818713201835647e-06,0.3660880199482235,-1.4267183131942984e-05,0.3660880199482235,-1.644917891618492e-05
0.3668821371281546,-3.861051793352946e-06,0.3668821371281546,4.531901011384445e-06,0.3668821371281546,-1.359585797723111e-05,0.3668821371281546,-1.560988404553778e-05
0.3676762543080857,-6.881444151842397e-06,0.3676762543080857,4.362522921813101e-06,0.3676762543080857,-1.3931607385187889e-05,0.3676762543080857,-1.493827784443634e-05
0.3684703714880167,-5.707798893276356e-06,0.3684703714880167,-4.996997452478798e-07,0.3684703714880167,-1.426693460192104e-05,0.3684703714880167,-1.3932296194236875e-05
0.3692644886679478,-5.539138088125493e-06,0.3692644886679478,-6.206744802806799e-06,0.3692644886679478,-1.1583329513047088e-05,0.3692644886679478,-1.577661099197988e-05
0.3700586058478789,-4.867963291856564e-06,0.3700586058478789,-6.881486708143436e-06,0.3700586058478789,-1.3762516826286828e-05,0.3700586058478789,-1.6616683360358634e-05
0.3708527230278099,-5.538795794548644e-06,0.3708527230278099,-1.1244377671542812e-05,0.3708527230278099,-1.3595858533921263e-05,0.3708527230278099,-1.493918551362839e-05
0.371646840207741,-8.22406952784021e-06,0.371646840207741,-1.1917164880953805e-05,0.371646840207741,-1.3260167559523096e-05,0.371646840207741,-1.2589172916661684e-05
0.3724409573876721,-8.22461e-06,0.3724409573876721,-1.4938437853115344e-05,0.3724409573876721,-1.3595781983679485e-05,0.3724409573876721,-1.158165404896155e-05
0.3732350745676032,-6.881851526882109e-06,0.3732350745676032,-2.1988363044372837e-05,0.3732350745676032,-1.3259879311825233e-05,0.3732350745676032,-1.091035763441055e-05
0.3740291917475342,-7.217115161863213e-06,0.3740291917475342,-2.2658952279241257e-05,0.3740291917475342,-1.09102e-05,0.3740291917475342,-1.2589023872438964e-05
0.3748233089274653,-5.540489067092786e-06,0.3748233089274653,-1.9976434434329476e-05,0.3748233089274653,-1.09102e-05,0.3748233089274653,-1.3930332739371582e-05
0.3756174261073964,-7.048578129568374e-06,0.3756174261073964,-1.913540663483905e-05,0.3756174261073964,-1.3593858884160902e-05,0.3756174261073964,-1.4937872081560338e-05
0.3764115432873274,-5.539898927495832e-06,0.3764115432873274,-1.6283041289596863e-05,0.3764115432873274,-1.3931306903722694e-05,0.3764115432873274,-1.4603093096277309e-05
0.3772056604672585,-5.8745764512015285e-06,0.3772056604672585,-1.292583553074703e-05,0.3772056604672585,-1.5609282234626487e-05,0.3772056604672585,-1.5609569340775892e-05
0.3779997776471896,-7.720552945703455e-06,0.3779997776471896,-1.4266823960511605e-05,0.3779997776471896,-1.561e-05,0.3779997776471896,-1.7623635940767406e-05
0.3787938948271206,-8.89585436798128e-06,0.3787938948271206,-1.42672e-05,0.3787938948271206,-1.4603033400008556e-05,0.3787938948271206,-1.527461126668663e-05
0.3795880120070517,-6.881822538266542e-06,0.3795880120070517,-1.561001015306617e-05,0.3795880120070517,-1.6617067001778834e-05,0.3795880120070517,-1.561e-05
0.3803821291869828,-7.049861167447872e-06,0.3803821291869828,-1.6281208822789886e-05,0.3803821291869828,-1.443464497985322e-05,0.3803821291869828,-1.5610163859207068e-05
0.3811762463669139,-8.22398581160472e-06,0.3811762463669139,-1.5105931871874098e-05,0.3811762463669139,-1.22534681281259e-05,0.3811762463669139,-1.6616267744674354e-05
0.3819703635468449,-6.212032500101139e-06,0.3819703635468449,-1.3597009341051628e-05,0.3819703635468449,-1.3762390658948371e-05,0.3819703635468449,-1.3933650010809118e-05
0.382764480726776,-5.036248406652113e-06,0.382764480726776,-1.4937721813494768e-05,0.382764480726776,-1.4602351100734403e-05,0.382764480726776,-1.3596019546626307e-05
0.3835585979067071,-6.209824993081183e-06,0.3835585979067071,-1.2254360027389632e-05,0.3835585979067071,-1.4267370003423703e-05,0.3835585979067071,-1.4266859993152592e-05
0.3843527150866381,-7.888307702482712e-06,0.3843527150866381,-1.1581840920442248e-05,0.3843527150866381,-1.42672e-05,0.3843527150866381,-1.4938359079557751e-05
0.3851468322665692,-6.882032748943048e-06,0.3851468322665692,-1.258848724894444e-05,0.3851468322665692,-1.25890545850926e-05,0.3851468322665692,-1.359608366807408e-05
0.3859409494465003,-6.5461413738159154e-06,0.3859409494465003,-1.174945343772326e-05,0.3859409494465003,-1.1581664121447748e-05,0.3859409494465003,-1.2253085495263664e-05
0.3867350666264313,-5.538973661226671e-06,0.3867350666264313,-1.2253338032639971e-05,0.3867350666264313,-1.4602660556017731e-05,0.3867350666264313,-1.2253056338773329e-05
0.3875291838063624,-4.867319540649759e-06,0.3875291838063624,-1.6281244770324877e-05,0.3875291838063624,-1.174974927832917e-05,0.3875291838063624,-1.2924167155487318e-05
0.3883233009862935,-3.526010673717047e-06,0.3883233009862935,-1.5610590336858524e-05,0.3883233009862935,-1.3258771698105195e-05,0.3883233009862935,-1.1918185505287784e-05
0.3891174181662246,-2.853931986622784e-06,0.3891174181662246,-1.326182197882733e-05,0.3891174181662246,-1.32601e-05,0.3891174181662246,-1.2588208006049334e-05
0.3899115353461556,-5.034203056329326e-06,0.3899115353461556,-1.09115751764091e-05,0.3899115353461556,-1.4602114184909083e-05,0.3899115353461556,-1.174989116369214e-05
0.3907056525260867,-6.377682362095746e-06,0.3907056525260867,-5.876923649799384e-06,0.3907056525260867,-1.4267346910570124e-05,0.3907056525260867,-1.2252779612263585e-05
0.3914997697060178,-4.196862884988612e-06,0.3914997697060178,-1.5119057699772227e-06,0.3914997697060178,-1.42672e-05,0.3914997697060178,-1.359541053052982e-05
0.3922938868859488,-4.531882175835059e-06,0.3922938868859488,-1.680402953776135e-07,0.3922938868859488,-1.42672e-05,0.3922938868859488,-1.0910582593319525e-05
0.3930880040658799,-4.867635157061782e-06,0.3930880040658799,-2.349906330806593e-06,0.3930880040658799,-1.6617091404811685e-05,0.3930880040658799,-1.0406716330601762e-05
0.393882121245811,-5.874873786720732e-06,0.393882121245811,-5.539235047433949e-06,0.393882121245811,-1.4938394951039024e-05,0.393882121245811,-1.3596158835681703e-05
0.394676238425742,-6.88161864271295e-06,0.394676238425742,-6.883229495011217e-06,0.394676238425742,-1.3595900678643524e-05,0.394676238425742,-1.5945045573821756e-05
0.3954703556056732,-6.210964209246595e-06,0.3954703556056732,-1.1577790551485016e-05,0.3954703556056732,-1.3931227895376702e-05,0.3954703556056732,-1.3765368720579376e-05
0.3962644727856042,-5.8749429041217306e-06,0.3962644727856042,-1.225255419175654e-05,0.3962644727856042,-1.4937931287634807e-05,0.3962644727856042,-1.1583048843591346e-05
0.3970585899655353,-7.216826556323401e-06,0.3970585899655353,-1.2253e-05,0.3970585899655353,-1.594517991724255e-05,0.3970585899655353,-1.191712663908085e-05
0.3978527071454664,-4.700708629185749e-06,0.3978527071454664,-1.527318564055109e-05,0.3978527071454664,-1.561012381771655e-05,0.3978527071454664,-1.5776376114701442e-05
0.3986468243253974,-5.538844313715145e-06,0.3986468243253974,-1.8294931529374523e-05,0.3986468243253974,-1.225374274513942e-05,0.3986468243253974,-1.712030290194423e-05
0.3994409415053285,-9.56711322573708e-06,0.3994409415053285,-1.9973976343443196e-05,0.3994409415053285,-1.3260025806065916e-05,0.3994409415053285,-1.628146182459486e-05
0.4002350586852595,-5.203230752435124e-06,0.4002350586852595,-1.9638275940543907e-05,0.4002350586852595,-1.6952651128652687e-05,0.4002350586852595,-1.762424962378244e-05
0.4010291758651906,-3.860752784696209e-06,0.4010291758651906,-1.7959825738434598e-05,0.4010291758651906,-1.4938748523130804e-05,0.4010291758651906,-1.8295340073460383e-05
0.4018232930451217,-4.866734434895673e-06,0.4018232930451217,-1.762449852170144e-05,0.4018232930451217,-1.5609402956597115e-05,0.4018232930451217,-1.712164487041762e-05
0.4026174102250527,-6.2094225895448775e-06,0.4026174102250527,-1.4940594835766038e-05,0.4026174102250527,-1.561e-05,0.4026174102250527,-1.4436994835766038e-05
0.4034115274049838,-6.21042e-06,0.4034115274049838,-1.2254598490145207e-05,0.4034115274049838,-1.1248497546485963e-05,0.4034115274049838,-1.4938300253337382e-05
0.4042056445849149,-6.21042e-06,0.4042056445849149,-9.904151876458994e-06,0.4042056445849149,-9.568161335851592e-06,0.4042056445849149,-1.4603050268065573e-05
0.404999761764846,-5.539231446725537e-06,0.404999761764846,-7.218325792903034e-06,0.404999761764846,-1.1580995653822502e-05,0.404999761764846,-1.46029e-05
0.4057938789447771,-6.042493229034081e-06,0.4057938789447771,-7.21752e-06,0.4057938789447771,-1.2924195273358547e-05,0.4057938789447771,-1.5274197636679276e-05
0.4065879961247081,-6.881815903855544e-06,0.4065879961247081,-7.553218361542217e-06,0.4065879961247081,-1.1581606553831128e-05,0.4065879961247081,-1.225301474612004e-05
0.4073821133046392,-8.224657904744799e-06,0.4073821133046392,-6.88205952229698e-06,0.4073821133046392,-1.460266047627601e-05,0.4073821133046392,-9.568032760255363e-06
0.4081762304845703,-8.559482737242353e-06,0.4081762304845703,-8.56099127470056e-06,0.4081762304845703,-1.2924205349257218e-05,0.4081762304845703,-1.3932181277599736e-05
0.4089703476645013,-5.709211383905885e-06,0.4089703476645013,-1.0908271802937296e-05,0.4089703476645013,-1.2253550915790908e-05,0.4089703476645013,-1.627947179473182e-05
0.4097644648444324,-7.216501822722709e-06,0.4097644648444324,-9.568315039728709e-06,0.4097644648444324,-1.2588473738382824e-05,0.4097644648444324,-1.5610452523234353e-05
0.4105585820243635,-7.21752e-06,0.4105585820243635,-7.554280305223254e-06,0.4105585820243635,-1.3595269844756284e-05,0.4105585820243635,-1.4938953436829143e-05
0.4113526992042945,-9.902082605880789e-06,0.4113526992042945,-5.062186688444121e-07,0.4113526992042945,-1.3931372824788007e-05,0.4113526992042945,-1.4267454350423982e-05
0.4121468163842256,-8.560620525725009e-06,0.4121468163842256,3.188286050671788e-06,0.4121468163842256,-1.5609611839953064e-05,0.4121468163842256,-1.5609689471962452e-05
0.4129409335641567,-5.874944709617545e-06,0.4129409335641567,3.692637867626548e-06,0.4129409335641567,-1.3763754492620926e-05,0.4129409335641567,-1.4267312355227132e-05
0.4137350507440878,-4.867587091208406e-06,0.4137350507440878,2.517439639737032e-06,0.4137350507440878,-1.0910157091208406e-05,0.4137350507440878,-1.2252796183879025e-05
0.4145291679240188,-4.196159091706755e-06,0.4145291679240188,-2.1823236310607303e-06,0.4145291679240188,-1.023894181658649e-05,0.4145291679240188,-9.064108176914109e-06
0.4153232851039499,-3.860831874973624e-06,0.4153232851039499,-3.52362250909791e-06,0.4153232851039499,-1.0909596250052753e-05,0.4153232851039499,-1.023774344658472e-05
0.416117402283881,-6.208651023764673e-06,0.416117402283881,-1.056919307129402e-05,0.416117402283881,-1.2251989152135292e-05,0.416117402283881,-1.0909694576067645e-05
0.416911519463812,-6.881413662472807e-06,0.416911519463812,-1.4432663589479104e-05,0.416911519463812,-1.2923993662472807e-05,0.416911519463812,-9.568222669002291e-06
0.4177056366437431,-4.197458999911853e-06,0.4177056366437431,-1.426727678989913e-05,0.4177056366437431,-1.4937678246633904e-05,0.4177056366437431,-1.6613873867794938e-05
0.4184997538236742,-3.6928361235375833e-06,0.4184997538236742,-1.829435101169934e-05,0.4184997538236742,-1.2925024494150332e-05,0.4184997538236742,-1.695269591764161e-05
0.4192938710036052,-4.196148191266288e-06,0.4192938710036052,-2.030947276506515e-05,0.4192938710036052,-1.5273918225909344e-05,0.4192938710036052,-1.2589409009025508e-05
0.4200879881835363,-5.539010016187089e-06,0.4200879881835363,-2.232387002576885e-05,0.4200879881835363,-1.225304496357905e-05,0.4200879881835363,-1.2253004995953229e-05
0.4208821053634674,-6.8816418123293975e-06,0.4208821053634674,-2.3666566358251804e-05,0.4208821053634674,-1.0910578644984917e-05,0.4208821053634674,-1.1581332717830598e-05
0.4216762225433985,-5.538889041851185e-06,0.4216762225433985,-2.265950602790079e-05,0.4216762225433985,-1.3764116860542096e-05,0.4216762225433985,-9.568161773994392e-06
0.4224703397233295,-5.035898216751453e-06,0.4224703397233295,-2.232417881116764e-05,0.4224703397233295,-1.5608466497051173e-05,0.4224703397233295,-1.2250769518964285e-05
0.4232644569032606,-7.719233053939227e-06,0.4232644569032606,-2.23239e-05,0.4232644569032606,-1.7119566748193355e-05,0.4232644569032606,-1.4936763047099216e-05
0.4240585740831917,-5.540200488050921e-06,0.4240585740831917,-2.2994939848179964e-05,0.4240585740831917,-1.59463302388641e-05,0.4240585740831917,-1.3596520303640069e-05
0.4248526912631227,-2.8544842577709333e-06,0.4248526912631227,-2.366643893458517e-05,0.4248526912631227,-1.4267852663537067e-05,0.4248526912631227,-1.1246813728951892e-05
0.4256468084430538,-2.350011484257214e-06,0.4256468084430538,-2.098184789191292e-05,0.4256468084430538,-1.393158098950481e-05,0.4256468084430538,-1.2923995052475953e-05
0.4264409256229849,-5.706555538851186e-06,0.4264409256229849,-1.7624514463022292e-05,0.4264409256229849,-1.2253157231511146e-05,0.4264409256229849,-1.0574720124115604e-05
0.4272350428029159,-4.86766619380075e-06,0.4272350428029159,-1.6449127612398504e-05,0.4272350428029159,-1.2253036193800748e-05,0.4272350428029159,-9.56755477466392e-06
0.428029159982847,-5.539097553008702e-06,0.428029159982847,-1.5105960902424892e-05,0.428029159982847,-1.2924602665063194e-05,0.428029159982847,-1.2253472885147452e-05
0.4288232771627781,-5.874414780846536e-06,0.4288232771627781,-1.292638393813596e-05,0.4288232771627781,-1.3930584315262728e-05,0.4288232771627781,-1.46007634022797e-05
0.4296173943427092,-4.365232304949375e-06,0.4296173943427092,-1.1247180347308111e-05,0.4296173943427092,-1.7621383235922153e-05,0.4296173943427092,-1.1583904625154602e-05
0.4304115115226402,-5.873790637986419e-06,0.4304115115226402,-1.0239419578777126e-05,0.4304115115226402,-1.829518694748192e-05,0.4304115115226402,-1.0910613052518085e-05
0.4312056287025713,-6.881349050830756e-06,0.4312056287025713,-1.02388e-05,0.4312056287025713,-1.7288970949169242e-05,0.4312056287025713,-1.3930087152492268e-05
0.4319997458825024,-6.210634879707669e-06,0.4319997458825024,-1.2252355360876996e-05,0.4319997458825024,-1.6281722319561503e-05,0.4319997458825024,-1.3595907439853834e-05
0.4327938630624334,-5.874777896651254e-06,0.4327938630624334,-1.3931210516743732e-05,0.4327938630624334,-1.62814e-05,0.4327938630624334,-1.4938368413394984e-05
0.4335879802423645,-5.53903835319979e-06,0.4335879802423645,-1.1581658474140383e-05,0.4335879802423645,-1.3595866827589011e-05,0.4335879802423645,-1.594567493965412e-05
0.4343820974222956,-6.881655242211164e-06,0.4343820974222956,-1.0910076430738138e-05,0.4343820974222956,-1.5274341189753953e-05,0.4343820974222956,-1.2924976656555356e-05
0.4351762146022266,-5.538305052083164e-06,0.4351762146022266,-9.902646908564251e-06,0.4351762146022266,-1.5609637524691884e-05,0.4351762146022266,-1.7624562475308117e-05
0.4359703317821577,-2.8556973071130854e-06,0.4359703317821577,-8.226020813793708e-06,0.4359703317821577,-1.426832865775917e-05,0.4359703317821577,-1.8965871342240828e-05
0.4367644489620888,-4.530765123899809e-06,0.4367644489620888,-5.5408937989842975e-06,0.4367644489620888,-1.42672e-05,0.4367644489620888,-1.947015056978805e-05
0.4375585661420199,-7.216052538220692e-06,0.4375585661420199,-6.881086271842449e-06,0.4375585661420199,-1.42672e-05,0.4375585661420199,-1.829624198959801e-05
0.438352683321951,-5.875255560811342e-06,0.438352683321951,-7.217386109797164e-06,0.438352683321951,-1.5273898329391493e-05,0.438352683321951,-1.997343054898582e-05
0.439146800501882,-3.5254204264892144e-06,0.439146800501882,-4.868220426489215e-06,0.439146800501882,-1.3763979574064e-05,0.439146800501882,-1.863163738800102e-05
0.4399409176818131,-4.867490784809302e-06,0.4399409176818131,-8.559927160299086e-06,0.4399409176818131,-1.0910495827096468e-05,0.4399409176818131,-1.5274648037976745e-05
0.4407350348617442,-5.53903e-06,0.4407350348617442,-1.1581489454901918e-05,0.4407350348617442,-1.2588685260595047e-05,0.4407350348617442,-1.7624258957619812e-05
0.4415291520416752,-5.5387731930043706e-06,0.4415291520416752,-9.064084704208704e-06,0.4415291520416752,-1.2253064201748907e-05,0.4415291520416752,-1.8966293780762017e-05
0.4423232692216063,-4.197464326071753e-06,0.4423232692216063,-1.0237719973879398e-05,0.4423232692216063,-1.2588391418482062e-05,0.4423232692216063,-1.5277694396697318e-05
0.4431173864015373,-4.19623e-06,0.4431173864015373,-1.02388e-05,0.4431173864015373,-1.2253259426957069e-05,0.4431173864015373,-1.2926215988699476e-05
0.4439115035814684,-5.538190464982238e-06,0.4439115035814684,-9.90330988375444e-06,0.4439115035814684,-1.3930450581227798e-05,0.4439115035814684,-1.4098565438120072e-05
0.4447056207613995,-5.874559664224445e-06,0.4447056207613995,-1.4600655232273958e-05,0.4447056207613995,-1.493811897834442e-05,0.4447056207613995,-1.4602659465290686e-05
0.4454997379413306,-3.693400179469831e-06,0.4454997379413306,-2.33281193019236e-05,0.4454997379413306,-1.359624318939712e-05,0.4454997379413306,-1.4099466212526357e-05
0.4462938551212617,-4.196138118779987e-06,0.4462938551212617,-2.568047122097327e-05,0.4462938551212617,-1.2924522508293352e-05,0.4462938551212617,-1.1917698142830049e-05
0.4470879723011927,-6.546038023740348e-06,0.4470879723011927,-2.635227657811185e-05,0.4470879723011927,-1.52742180233915e-05,0.4470879723011927,-1.359574144527964e-05
0.4478820894811238,-7.5533713279070675e-06,0.4478820894811238,-2.2323616263696015e-05,0.4478820894811238,-1.49386e-05,0.4478820894811238,-1.4938486503224474e-05
0.4486762066610549,-8.89601e-06,0.4486762066610549,-1.9804062006903188e-05,0.4486762066610549,-1.4938643619779885e-05,0.4486762066610549,-1.3930932760895782e-05
0.4494703238409859,-8.89601e-06,0.4494703238409859,-1.1588595141417623e-05,0.4494703238409859,-1.5106257283669735e-05,0.4494703238409859,-1.1751255907653553e-05
0.450264441020917,-7.2187016634774045e-06,0.450264441020917,-6.214201331575743e-06,0.450264441020917,-1.493871813185155e-05,0.450264441020917,-1.3594500127230617e-05
0.4510585582008481,-6.882006790900861e-06,0.4510585582008481,-1.5132550614836168e-06,0.4510585582008481,-1.5945139627297416e-05,0.4510585582008481,-1.2924773581801722e-05
0.4518526753807791,-4.197327977497844e-06,0.4518526753807791,3.858334049092715e-06,0.4518526753807791,-1.4939011743094844e-05,0.4518526753807791,-1.4602213761508596e-05
0.4526467925607102,-5.538679182017198e-06,0.4526467925607102,4.8673668865128985e-06,0.4526467925607102,-1.3596150817982802e-05,0.4526467925607102,-1.39316754089914e-05
0.4534409097406413,-4.53204448387922e-06,0.4534409097406413,5.203291838706927e-06,0.4534409097406413,-1.258881448387922e-05,0.4534409097406413,-1.292451448387922e-05
0.4542350269205724,-6.210431381909508e-06,0.4542350269205724,2.517506671872251e-06,0.4542350269205724,-1.225295447236197e-05,0.4542350269205724,-1.309226260219754e-05
0.4550291441005034,-6.546059151523273e-06,0.4550291441005034,-4.364414664809411e-06,0.4550291441005034,-1.0910352112128892e-05,0.4550291441005034,-1.49386e-05
0.4558232612804345,-6.21073193479012e-06,0.4558232612804345,-6.208704367946416e-06,0.4558232612804345,-1.1748620209485052e-05,0.4558232612804345,-1.49386e-05
0.4566173784603656,-4.868681129982004e-06,0.4566173784603656,-8.893907732208035e-06,0.4566173784603656,-1.2252605784181489e-05,0.4566173784603656,-1.1584227844524898e-05
0.4574114956402966,-7.216027317602934e-06,0.4574114956402966,-1.4934761663854186e-05,0.4574114956402966,-1.07433595538638e-05,0.4574114956402966,-1.2252573517500229e-05
0.4582056128202277,-6.881983698047305e-06,0.4582056128202277,-1.242202775973639e-05,0.4582056128202277,-9.903509269499862e-06,0.4582056128202277,-1.443393598707411e-05
0.4589997300001588,-6.210648309689404e-06,0.4589997300001588,-1.0910713679798648e-05,0.4589997300001588,-1.2252200916087087e-05,0.4589997300001588,-1.527401459588574e-05
0.4597938471800898,-7.552961553431608e-06,0.4597938471800898,-1.4937824660294826e-05,0.4597938471800898,-1.5609353883579022e-05,0.4597938471800898,-1.4938664611642098e-05
0.4605879643600209,-7.55322e-06,0.4605879643600209,-1.5609969863120966e-05,0.4605879643600209,-1.2253150684395174e-05,0.4605879643600209,-1.49386e-05
0.461382081539952,-4.867492100947655e-06,0.461382081539952,-2.165246210094765e-05,0.461382081539952,-1.1581617232246786e-05,0.461382081539952,-1.527400695937901e-05
0.4621761987198831,-3.525081736848144e-06,0.4621761987198831,-2.0308457403476565e-05,0.4621761987198831,-1.174994544233575e-05,0.4621761987198831,-1.2420758056356747e-05
0.4629703158998141,-4.531063387047537e-06,0.4629703158998141,-1.4943221935746467e-05,0.4629703158998141,-1.3929622295577829e-05,0.4629703158998141,-1.2253144392466909e-05
0.4637644330797452,-3.190098759255496e-06,0.4637644330797452,-1.76222824672089e-05,0.4637644330797452,-1.3260579383197775e-05,0.4637644330797452,-1.2253e-05
0.4645585502596763,-6.544218527365402e-06,0.4645585502596763,-1.7959709851603694e-05,0.4645585502596763,-1.2924590148396306e-05,0.4645585502596763,-1.0910960593585228e-05
0.4653526674396073,-5.539451811392761e-06,0.4653526674396073,-2.299319096397828e-05,0.4653526674396073,-1.4266637579225091e-05,0.4653526674396073,-1.09102e-05
0.4661467846195384,-6.881455754748203e-06,0.4661467846195384,-2.3330908938008903e-05,0.4661467846195384,-1.6280853628053406e-05,0.4661467846195384,-1.393068044208011e-05
0.4669409017994695,-6.210503037577038e-06,0.4669409017994695,-2.165280758157477e-05,0.4669409017994695,-1.62814e-05,0.4669409017994695,-1.359584151878852e-05
0.4677350189794005,-5.87472e-06,0.4677350189794005,-3.004508826855468e-05,0.4677350189794005,-1.62814e-05,0.4677350189794005,-1.158164814648437e-05
0.4685291361593316,-5.8745475160989184e-06,0.4685291361593316,-3.373683757193111e-05,0.4685291361593316,-1.6281055028772445e-05,0.4685291361593316,-1.3595914990409186e-05
0.4693232533392627,-4.86857585479487e-06,0.4693232533392627,-2.8706929320934144e-05,0.4693232533392627,-1.4269091728373658e-05,0.4693232533392627,-1.4266569423875446e-05
0.4701173705191938,-8.22194859637682e-06,0.4701173705191938,-2.232895669701033e-05,0.4701173705191938,-1.3596332283895825e-05,0.4701173705191938,-1.5441168542822155e-05
0.4709114876991248,-6.882686388529174e-06,0.4709114876991248,-1.4272398305366437e-05,0.4709114876991248,-1.4098975134142765e-05,0.4709114876991248,-1.6951825273385248e-05
0.4717056048790559,-7.552885888914545e-06,0.4717056048790559,-2.8591198685474043e-06,0.4717056048790559,-1.3260517613975148e-05,0.4717056048790559,-1.6281734111085454e-05
0.472499722058987,-4.868570095220474e-06,0.472499722058987,2.515859809559052e-06,0.472499722058987,-1.493801243829938e-05,0.472499722058987,-1.8294894925959257e-05
0.473293839238918,-3.692917891981402e-06,0.473293839238918,7.887822499873403e-06,0.473293839238918,-1.4602967969137545e-05,0.473293839238918,-1.863123203086245e-05
0.4740879564188491,-4.196202361097591e-06,0.4740879564188491,9.902989444939244e-06,0.4740879564188491,-1.3763646067581754e-05,0.4740879564188491,-1.359607638902409e-05
0.4748820735987802,-6.378316675901462e-06,0.4748820735987802,5.874346594642182e-06,0.4748820735987802,-1.3595862234535282e-05,0.4748820735987802,-1.2588980055408768e-05
0.4756761907787112,-6.881336648336529e-06,0.4756761907787112,1.8456955312753545e-06,0.4756761907787112,-1.42669583229684e-05,0.4756761907787112,-1.561040279505267e-05
0.4764703079586423,-4.869383336832807e-06,0.4764703079586423,-8.369082181365863e-07,0.4764703079586423,-1.3260976672768864e-05,0.4764703079586423,-1.728703887871856e-05
0.4772644251385734,-4.196716098188666e-06,0.4772644251385734,-3.522885618829447e-06,0.4772644251385734,-1.3595556950905669e-05,0.4772644251385734,-1.3263016589131996e-05
0.4780585423185045,-4.531736494108248e-06,0.4780585423185045,-6.208871958630232e-06,0.4780585423185045,-1.2924787011783504e-05,0.4780585423185045,-1.1750270805334138e-05
0.4788526594984356,-3.86081792537825e-06,0.4788526594984356,-4.868205846468068e-06,0.4788526594984356,-1.493773622386525e-05,0.4788526594984356,-1.02394478106589e-05
0.4796467766783666,-2.8537232556470185e-06,0.4796467766783666,-8.223665810759783e-06,0.4796467766783666,-1.2253755355892356e-05,0.4796467766783666,-9.903194419486546e-06
0.4804408938582977,-6.545626363549988e-06,0.4804408938582977,-2.0308184455114085e-05,0.4804408938582977,-1.3259965371148109e-05,0.4804408938582977,-1.1581375618580178e-05
0.4812350110382288,-8.224535329718826e-06,0.4812350110382288,-2.064537399319673e-05,0.4812350110382288,-1.5609995333081362e-05,0.4812350110382288,-9.735281000994858e-06
0.4820291282181598,-2.8535482822520168e-06,0.4820291282181598,-1.1580463024257772e-05,0.4820291282181598,-1.5274245858067588e-05,0.4820291282181598,-1.1246062425797235e-05
0.4828232453980909,-3.5241927268229808e-06,0.4828232453980909,-4.538621439547564e-06,0.4828232453980909,-1.4938918641334433e-05,0.4828232453980909,-1.2252044075996698e-05
0.483617362578022,-3.52483e-06,0.483617362578022,-2.1839264880753537e-06,0.483617362578022,-1.2926016996660004e-05,0.483617362578022,-8.898704986405355e-06
0.484411479757953,-3.52483e-06,0.484411479757953,-5.536830444144631e-06,0.484411479757953,-1.1246999781203767e-05,0.484411479757953,-9.231490043759247e-06
0.4852055969378841,-3.860359586961827e-06,0.4852055969378841,-8.223246705847312e-06,0.4852055969378841,-1.0910370413038172e-05,0.4852055969378841,-1.2251466287732787e-05
0.4859997141178152,-4.531688260328862e-06,0.4859997141178152,-1.292270782590256e-05,0.4859997141178152,-1.3594833041315444e-05,0.4859997141178152,-1.3930895650822151e-05
0.4867938312977463,-5.538816020101104e-06,0.4867938312977463,-1.2588771326632963e-05,0.4867938312977463,-1.3260171326632963e-05,0.4867938312977463,-1.4938386020101104e-05
0.4875879484776773,-5.53903e-06,0.4875879484776773,-1.2253021783430384e-05,0.4875879484776773,-1.1581708917151923e-05,0.4875879484776773,-1.3260208917151926e-05
0.4883820656576084,-6.881931038261953e-06,0.4883820656576084,-1.258872775977222e-05,0.4883820656576084,-1.2924622078177751e-05,0.4883820656576084,-1.2924566558633311e-05
0.4891761828375395,-8.224687205738376e-06,0.4891761828375395,-1.292548088033727e-05,0.4891761828375395,-1.560984558852325e-05,0.4891761828375395,-1.4938754411476752e-05
0.4899703000174705,-8.560014422471532e-06,0.4899703000174705,-1.7620061914601434e-05,0.4899703000174705,-1.4939191155056938e-05,0.4899703000174705,-1.5609408844943065e-05
0.4907644171974016,-6.8830520256088085e-06,0.4907644171974016,-1.9804598393866856e-05,0.4907644171974016,-1.6448091207046414e-05,0.4907644171974016,-1.5777676833405526e-05
0.4915585343773327,-4.868811174458782e-06,0.4915585343773327,-1.829648585592096e-05,0.4915585343773327,-1.4939485855920958e-05,0.4915585343773327,-1.628110467559791e-05
0.4923526515572637,-7.88758412711576e-06,0.4923526515572637,-1.6953389280738285e-05,0.4923526515572637,-1.49386e-05,0.4923526515572637,-1.62814e-05
0.4931467687371948,-6.210908881997321e-06,0.4931467687371948,-1.628159555396398e-05,0.4931467687371948,-1.49386e-05,0.4931467687371948,-1.359658221585592e-05
0.4939408859171259,-6.21042e-06,0.4939408859171259,-1.5610096467558772e-05,0.4939408859171259,-1.49386e-05,0.4939408859171259,-1.3260148233779386e-05
0.494735003097057,-5.539022143460695e-06,0.494735003097057,-1.7624209165962524e-05,0.494735003097057,-1.3595796071730348e-05,0.494735003097057,-1.5274296071730348e-05
0.495529120276988,-3.5251347319613864e-06,0.495529120276988,-1.9974557082812896e-05,0.495529120276988,-1.258864921133977e-05,0.495529120276988,-1.4266819077483676e-05
0.4963232374569191,-5.537098032360454e-06,0.4963232374569191,-2.299240214445805e-05,0.4963232374569191,-1.225332199460659e-05,0.4963232374569191,-1.1751815007508116e-05
0.4971173546368502,-3.526467141632677e-06,0.4971173546368502,-2.098283706035269e-05,0.4971173546368502,-1.3930135715306103e-05,0.4971173546368502,-1.3594299246196716e-05
0.4979114718167812,-4.1957833725276015e-06,0.4979114718167812,-1.7961909823625794e-05,0.4979114718167812,-1.4602453372527602e-05,0.4979114718167812,-1.2924846627472398e-05
0.4987055889967123,-6.209377381974792e-06,0.4987055889967123,-1.242366723968614e-05,0.4987055889967123,-1.4938426229466404e-05,0.4987055889967123,-1.359545245893281e-05
0.4994997061766434,-6.881571545338017e-06,0.4994997061766434,-1.35953651858388e-05,0.4994997061766434,-1.3596296909323963e-05,0.4994997061766434,-1.3092386359499218e-05
0.5002938233565745,-7.553070631743178e-06,0.5002938233565745,-1.393142531587159e-05,0.5002938233565745,-1.393142531587159e-05,0.5002938233565745,-1.5273814542041687e-05
0.5010879405365055,-6.881870281851614e-06,0.5010879405365055,-1.2253125704629034e-05,0.5010879405365055,-1.493852457722258e-05,0.5010879405365055,-1.5945649718148386e-05
0.5018820577164366,-6.54609559772325e-06,0.5018820577164366,-8.89601e-06,0.5018820577164366,-1.5274129184062752e-05,0.5018820577164366,-1.493870980661084e-05
0.5026761748963677,-6.210789260131141e-06,0.5026761748963677,-8.89504992233906e-06,0.5026761748963677,-1.29242892103009e-05,0.5026761748963677,-1.6449163084766663e-05
0.5034702920762988,-7.88741535490157e-06,0.5034702920762988,-4.535816082598742e-06,0.5034702920762988,-1.2421248440724445e-05,0.5034702920762988,-1.628154942087681e-05
0.5042644092562298,-7.721194874602489e-06,0.5042644092562298,-6.880071658843859e-06,0.5042644092562298,-1.3594925788501393e-05,0.5042644092562298,-1.7623200943659292e-05
0.5050585264361609,-6.546820773089169e-06,0.5050585264361609,-5.5398308775662e-06,0.5050585264361609,-1.091180176706096e-05,0.5050585264361609,-1.5611201325295722e-05
0.505852643616092,-7.552767966959952e-06,0.505852643616092,-7.552315938408366e-06,0.505852643616092,-1.174902332824227e-05,0.505852643616092,-1.1583408132160193e-05
0.506646760796023,-4.197241341761478e-06,0.506646760796023,-1.023799093020599e-05,0.506646760796023,-1.527323807292395e-05,0.506646760796023,-1.2252797731045176e-05
0.507440877975954,-7.552704088788274e-06,0.507440877975954,-1.091009681745029e-05,0.507440877975954,-1.2589112730198842e-05,0.507440877975954,-1.292429681745029e-05
0.5082349951558852,-6.881824096144408e-06,0.5082349951558852,-1.393148156735016e-05,0.5082349951558852,-1.5274283615422366e-05,0.5082349951558852,-1.29244e-05
0.5090291123358163,-7.553125129223805e-06,0.5090291123358163,-1.695298974155239e-05,0.5090291123358163,-1.644865450010203e-05,0.5090291123358163,-1.2252952564611905e-05
0.5098232295157473,-6.88247069575759e-06,0.5098232295157473,-1.829429860848482e-05,0.5098232295157473,-1.2592441452148016e-05,0.5098232295157473,-1.1917625347878796e-05
0.5106173466956784,-6.210972428868451e-06,0.5106173466956784,-2.030814271339465e-05,0.5106173466956784,-1.4265818927828871e-05,0.5106173466956784,-1.3594418927828876e-05
0.5114114638756094,-6.21042e-06,0.5114114638756094,-1.6284120054779454e-05,0.5114114638756094,-1.6950986630147033e-05,0.5114114638756094,-1.2924853342463242e-05
0.5122055810555405,-4.532815634868943e-06,0.5122055810555405,-1.4939308512116257e-05,0.5122055810555405,-1.6449465718425492e-05,0.5122055810555405,-1.124678564014532e-05
0.5129996982354716,-4.196357584826413e-06,0.5129996982354716,-1.2421756905200904e-05,0.5129996982354716,-1.661703618858399e-05,0.5129996982354716,-1.3594906906215106e-05
0.5137938154154027,-4.53185195837619e-06,0.5137938154154027,-1.292428292594057e-05,0.5137938154154027,-1.2925258457861904e-05,0.5137938154154027,-1.35958e-05
0.5145879325953338,-6.042441757953289e-06,0.5145879325953338,-1.4938429009472485e-05,0.5145879325953338,-1.3931414504736242e-05,0.5145879325953338,-1.1581770990527514e-05
0.5153820497752648,-2.18204e-06,0.5153820497752648,-1.292427373131189e-05,0.5153820497752648,-1.4602836865655946e-05,0.5153820497752648,-1.3595926268688108e-05
0.5161761669551959,-2.182462993064164e-06,0.5161761669551959,-1.0909706507741796e-05,0.5161761669551959,-1.3595412243932465e-05,0.5161761669551959,-1.560964750402981e-05
0.5169702841351269,-4.194416304567747e-06,0.5169702841351269,-8.562425979505061e-06,0.5169702841351269,-1.1751062607423387e-05,0.5169702841351269,-1.3933011420364036e-05
0.5177644013150581,-3.525336243161245e-06,0.5177644013150581,-7.889416243161246e-06,0.5177644013150581,-1.1917173401509126e-05,0.5177644013150581,-1.3596053121580622e-05
0.5185585184949891,-4.866815686487926e-06,0.5185585184949891,-7.721171783124713e-06,0.5185585184949891,-1.0239817891890092e-05,0.5185585184949891,-1.3931296421621982e-05
0.5193526356749202,-6.880895793535989e-06,0.5193526356749202,-6.8822050879385365e-06,0.5193526356749202,-1.2419798794302187e-05,0.5193526356749202,-1.2924862105526244e-05
0.5201467528548512,-6.210628983945716e-06,0.5201467528548512,-1.023775508649674e-05,0.5201467528548512,-1.5609007310694556e-05,0.5201467528548512,-1.29244e-05
0.5209408700347823,-6.21042e-06,0.5209408700347823,-1.1581380204918984e-05,0.5209408700347823,-1.7120352738718065e-05,0.5209408700347823,-1.6952140614756956e-05
0.5217349872147133,-8.224577566755125e-06,0.5217349872147133,-7.2175902720574e-06,0.5217349872147133,-1.3931551352087556e-05,0.5217349872147133,-1.795988378329705e-05
0.5225291043946444,-4.196406328463478e-06,0.5225291043946444,-4.5317095907337935e-06,0.5225291043946444,-1.5274564492695216e-05,0.5225291043946444,-1.6952711835768264e-05
0.5233232215745756,-5.537715195396283e-06,0.5233232215745756,-2.855083495963131e-06,0.5233232215745756,-1.7286527793094423e-05,0.5233232215745756,-1.628205740230186e-05
0.5241173387545066,-6.209860864468782e-06,0.5241173387545066,-9.561818586391612e-06,0.5241173387545066,-2.0307283852633388e-05,0.5241173387545066,-1.594597957192962e-05
0.5249114559344377,-6.881359942545866e-06,0.5249114559344377,-1.6612269403583812e-05,0.5249114559344377,-1.7290570258543598e-05,0.5249114559344377,-1.561023002872707e-05
0.5257055731143687,-3.526634849868236e-06,0.5257055731143687,-1.896573660132876e-05,0.5257055731143687,-1.6617460971048927e-05,0.5257055731143687,-1.0409497498747208e-05
0.5264996902942998,-5.538244346068847e-06,0.5264996902942998,-1.829586188464372e-05,0.5264996902942998,-1.2590271307862308e-05,0.5264996902942998,-1.2252279836732653e-05
0.5272938074742308,-4.532174197357906e-06,0.5272938074742308,-1.695312559647721e-05,0.5272938074742308,-1.577702672049042e-05,0.5272938074742308,-1.2253e-05
0.528087924654162,-4.196261855916652e-06,0.528087924654162,-1.62814637118333e-05,0.528087924654162,-1.3596007058713533e-05,0.528087924654162,-1.2253e-05
0.528882041834093,-4.867683061330981e-06,0.528882041834093,-1.4938493876284283e-05,0.528882041834093,-1.1581776872859526e-05,0.528882041834093,-1.3763626533563315e-05
0.5296761590140241,-5.874518564234605e-06,0.5296761590140241,-1.2924635000725618e-05,0.5296761590140241,-1.4939271459218574e-05,0.5296761590140241,-1.4267065708156283e-05
0.5304702761939551,-4.868546902930486e-06,0.5304702761939551,-1.4098230314814937e-05,0.5304702761939551,-1.829254362655012e-05,0.5304702761939551,-1.3596411274689975e-05
0.5312643933738862,-4.196742958152137e-06,0.5312643933738862,-2.0305055098892103e-05,0.5312643933738862,-1.6953825916304273e-05,0.5312643933738862,-1.4266687041847864e-05
0.5320585105538173,-5.87368532679699e-06,0.5320585105538173,-2.3664630702908457e-05,0.5320585105538173,-1.527533467936732e-05,0.5320585105538173,-1.6280158384759216e-05
0.5328526277337483,-6.881347821987278e-06,0.5328526277337483,-2.467332782198728e-05,0.5328526277337483,-1.2254416534038164e-05,0.5328526277337483,-1.5610314785341817e-05
0.5336467449136795,-5.87504354840477e-06,0.5336467449136795,-2.568057645159523e-05,0.5336467449136795,-1.2924184301063487e-05,0.5336467449136795,-1.5274407849468258e-05
0.5344408620936105,-6.8816450812029015e-06,0.5344408620936105,-2.098201627035123e-05,0.5344408620936105,-1.1581833225062797e-05,0.5344408620936105,-1.52743e-05
0.5352349792735416,-6.88182e-06,0.5352349792735416,-1.057477165495596e-05,0.5352349792735416,-1.15816e-05,0.5352349792735416,-1.4938608763063096e-05
0.5360290964534726,-8.22461e-06,0.5360290964534726,4.533681336640872e-06,0.5360290964534726,-1.376345745511318e-05,0.5360290964534726,-1.35958e-05
0.5368232136334037,-8.22461e-06,0.5368232136334037,1.895272168948048e-05,0.5368232136334037,-1.2589862141023866e-05,0.5368232136334037,-1.35958e-05
0.5376173308133347,-7.050660244559863e-06,0.5376173308133347,2.265648786060416e-05,0.5376173308133347,-1.359495121172465e-05,0.5376173308133347,-1.3260382929425116e-05
0.5384114479932659,-4.869147003493798e-06,0.5384114479932659,2.13178334753676e-05,0.5384114479932659,-1.3092550114094829e-05,0.5384114479932659,-1.4937433068887672e-05
0.539205565173197,-4.364355764529792e-06,0.539205565173197,1.7290706116238335e-05,0.539205565173197,-1.091139495224706e-05,0.539205565173197,-1.1247922273218476e-05
0.539999682353128,-3.5251657495432614e-06,0.539999682353128,6.550417586152562e-06,0.539999682353128,-1.1581331400365391e-05,0.539999682353128,-8.89695009472054e-06
0.5407937995330591,-2.853609510704629e-06,0.5407937995330591,-1.1729906079609777e-06,0.5407937995330591,-1.2252830486770598e-05,0.5407937995330591,-1.2923382923148364e-05
0.5415879167129901,-2.85344e-06,0.5415879167129901,-8.223870521492835e-06,0.5415879167129901,-1.426698871952742e-05,0.5415879167129901,-1.4267059146351612e-05
0.5423820338929212,-4.19621567020954e-06,0.5423820338929212,-1.4267515255390123e-05,0.5423820338929212,-1.4938499691466778e-05,0.5423820338929212,-1.1581728968114142e-05
0.5431761510728523,-3.860721377949171e-06,0.5431761510728523,-2.1653875833991595e-05,0.5431761510728523,-1.2588636207350278e-05,0.5431761510728523,-1.460309137794917e-05
0.5439702682527834,-4.866703028148635e-06,0.5439702682527834,-2.836032027970124e-05,0.5439702682527834,-1.225330899061712e-05,0.5439702682527834,-1.5609073028148635e-05
0.5447643854327144,-4.532189836571514e-06,0.5447643854327144,-3.255955200415537e-05,0.5447643854327144,-1.024035901942908e-05,0.5447643854327144,-1.359735901942908e-05
0.5455585026126455,-3.693205733422274e-06,0.5455585026126455,-3.25628e-05,0.5455585026126455,-1.2587227946417631e-05,0.5455585026126455,-1.0911882346951275e-05
0.5463526197925765,-4.195988874750542e-06,0.5463526197925765,-2.7697430901353965e-05,0.5463526197925765,-1.1917621500332613e-05,0.5463526197925765,-1.1581278499667389e-05
0.5471467369725076,-5.706369571975819e-06,0.5471467369725076,-2.803068879303625e-05,0.5471467369725076,-1.3595243965181256e-05,0.5471467369725076,-1.0910422413927496e-05
0.5479408541524387,-4.867784157565991e-06,0.5479408541524387,-2.5681331646328012e-05,0.5479408541524387,-1.4267076672477707e-05,0.5479408541524387,-1.225275334495542e-05
0.5487349713323698,-5.539005758883012e-06,0.5487349713323698,-2.0981369684208384e-05,0.5487349713323698,-1.3595824241116988e-05,0.5487349713323698,-1.3595751517766023e-05
0.5495290885123009,-3.86086637903063e-06,0.5495290885123009,-1.6280988868712897e-05,0.5495290885123009,-1.5274486877857773e-05,0.5495290885123009,-1.4435018693352587e-05
0.5503232056922319,-6.878801340733676e-06,0.5503232056922319,-1.2592389484648198e-05,0.5503232056922319,-1.6951122961523546e-05,0.5503232056922319,-1.4602732246195892e-05
0.551117322872163,-5.707872004221802e-06,0.551117322872163,-9.569986573756574e-06,0.551117322872163,-1.2424664916067242e-05,0.551117322872163,-1.6279968565397426e-05
0.551911440052094,-6.880991396987311e-06,0.551911440052094,-8.896483487435822e-06,0.551911440052094,-1.0911265311469394e-05,0.551911440052094,-1.7623253025128356e-05
0.5527055572320251,-6.88182e-06,0.5527055572320251,-8.224984401030708e-06,0.5527055572320251,-9.568158796484992e-06,0.5527055572320251,-1.5275610403607476e-05
0.5534996744119562,-9.230746402911684e-06,0.5534996744119562,-1.0237974060224386e-05,0.5534996744119562,-1.1077480525690416e-05,0.5534996744119562,-1.4938737657312705e-05
0.5542937915918873,-1.023853566029449e-05,0.5542937915918873,-1.1581247543559605e-05,0.5542937915918873,-1.3930751043188094e-05,0.5542937915918873,-1.46029881141101e-05
0.5550879087718184,-8.224841424296284e-06,0.5550879087718184,-1.3595568574554749e-05,0.5550879087718184,-1.6281130003647203e-05,0.5550879087718184,-1.292459285453771e-05
0.5558820259517494,-6.210474861148461e-06,0.5558820259517494,-1.3763616460076832e-05,0.5558820259517494,-1.2924421944590125e-05,0.5558820259517494,-1.393155486147531e-05
0.5566761431316805,-7.88872868366777e-06,0.5566761431316805,-1.4267079121244916e-05,0.5566761431316805,-1.3595920878755084e-05,0.5566761431316805,-1.5609879121244916e-05
0.5574702603116115,-6.882757022363792e-06,0.5574702603116115,-1.3596424687778698e-05,0.5574702603116115,-1.42665753122213e-05,0.5574702603116115,-1.4939224687778698e-05
0.5582643774915427,-7.217256805933087e-06,0.5582643774915427,-1.4266673611866175e-05,0.5582643774915427,-1.4602636805933087e-05,0.5582643774915427,-1.3932289582200736e-05
0.5590584946714737,-3.527180153143051e-06,0.5590584946714737,-1.057685015950739e-05,0.5590584946714737,-1.2254495556050156e-05,0.5590584946714737,-1.3596013650864308e-05
0.5598526118514048,-5.538045354029493e-06,0.5598526118514048,-8.561294641081986e-06,0.5598526118514048,-1.3595143569352996e-05,0.5598526118514048,-1.2589192322985251e-05
0.5606467290313358,-8.223693491152229e-06,0.5606467290313358,-6.54680738334218e-06,0.5606467290313358,-1.091111651567318e-05,0.5606467290313358,-1.158194369337744e-05
0.5614408462112669,-5.875175146858919e-06,0.5614408462112669,-5.539225061832745e-06,0.5614408462112669,-1.3259644851204196e-05,0.5614408462112669,-1.628048970240839e-05
0.5622349633911979,-4.531991911754878e-06,0.5622349633911979,-6.210389044353095e-06,0.5622349633911979,-1.644905296079247e-05,0.5622349633911979,-1.5945715478053984e-05
0.563029080571129,-3.8610573436133486e-06,0.563029080571129,-5.203500110483397e-06,0.563029080571129,-1.661682782160501e-05,0.563029080571129,-1.5609965977700626e-05
0.5638231977510602,-9.05860922518728e-06,0.5638231977510602,-6.880126205254057e-06,0.5638231977510602,-1.3934210087739398e-05,0.5638231977510602,-1.5274638760967425e-05
0.5646173149309912,-9.90237589758829e-06,0.5646173149309912,-9.900493217512926e-06,0.5646173149309912,-1.493773106675226e-05,0.5646173149309912,-1.5609710355584087e-05
0.5654114321109223,-1.1244939595146577e-05,0.5654114321109223,-1.359315888665308e-05,0.5654114321109223,-1.393222030364007e-05,0.5654114321109223,-1.7958219291506506e-05
0.5662055492908533,-9.90386223204301e-06,0.5662055492908533,-1.225376223204301e-05,0.5662055492908533,-1.6951084977903228e-05,0.5662055492908533,-1.4940315022096771e-05
0.5669996664707844,-8.560874055031975e-06,0.5669996664707844,-1.3595235940767404e-05,0.5669996664707844,-1.6281682029616298e-05,0.5669996664707844,-1.3931923044424446e-05
