X [s],R BICEPS BRACHII: EMG 1 [V],X [s].1,R DELTOID ANTERIOR: EMG 2 [V],X [s].5,R DELTOID MEDIUS: EMG 6 [V],X [s].6,R DELTOID POSTERIOR: EMG 7 [V]
0.0,-5.53903e-06,0.0,-2.26596e-05,0.0,2.85344e-06,0.0,-1.35958e-05
0.000794117179931,-5.341559331916388e-06,0.000794117179931,-2.1297152632449803e-05,0.000794117179931,6.615230231491381e-07,0.000794117179931,-1.0120325065198598e-05
0.0015882343598621,-5.53903e-06,0.0015882343598621,-2.1060186021583687e-05,0.0015882343598621,1.5896274867184277e-06,0.0015882343598621,-7.829674206839326e-06
0.0023823515397932,-4.86763e-06,0.0023823515397932,-2.212648685986056e-05,0.0023823515397932,1.925321972067544e-06,0.0023823515397932,-1.0515236902236404e-05
0.0031764687197242,-6.80283003607341e-06,0.0031764687197242,-2.1139169000796924e-05,0.0031764687197242,2.932427486718428e-06,0.0031764687197242,-1.286515832447895e-05
0.0039705858996553,-6.328928794224709e-06,0.0039705858996553,-2.2758326949576497e-05,0.0039705858996553,1.8068628001864408e-06,0.0039705858996553,-1.075221929995339e-05
0.0047647030795864,-6.21042e-06,0.0047647030795864,-2.2086967794694663e-05,0.0047647030795864,5.03548e-07,0.0047647030795864,-1.4741124920310565e-05
0.0055588202595174,-6.21042e-06,0.0055588202595174,-1.955943129495573e-05,0.0055588202595174,1.7673343194664349e-06,0.0055588202595174,-1.5333554613421405e-05
0.0063529374394485,-9.073723601588316e-06,0.0063529374394485,-1.9954341755467776e-05,0.0063529374394485,3.4063501783994e-06,0.0063529374394485,-1.361555005312629e-05
0.0071470546193796,-8.185147782676862e-06,0.0071470546193796,-2.175132828067953e-05,0.0071470546193796,4.452918122161707e-06,0.0071470546193796,-1.314162237556766e-05
0.0079411717993107,-5.499538377605242e-06,0.0079411717993107,-2.1020699755241776e-05,0.0079411717993107,5.815483154605991e-06,0.0079411717993107,-1.2253e-05
0.0087352889792417,-5.637742713104919e-06,0.0087352889792417,-2.086271480589128e-05,0.0087352889792417,2.813983353535992e-06,0.0087352889792417,-1.1482879639984546e-05
0.0095294061591728,-6.407895079689435e-06,0.0095294061591728,-2.108977695142961e-05,0.0095294061591728,-7.997446584934403e-07,0.0095294061591728,-1.1621063851277072e-05
0.0103235233391039,-7.849338589586543e-06,0.0103235233391039,-2.09812e-05,0.0103235233391039,1.2538134367782238e-06,0.0103235233391039,-1.4810175426666366e-05
0.0111176405190349,-8.935500349645446e-06,0.0111176405190349,-2.354824636811127e-05,0.0111176405190349,4.0777601274220105e-06,0.0111176405190349,-1.4444900691612775e-05
0.011911757698966,-6.723781925118658e-06,0.011911757698966,-2.2442386715605864e-05,0.011911757698966,3.070554963276833e-06,0.011911757698966,-1.2253e-05
0.0127058748788971,-6.526333040319333e-06,0.0127058748788971,-1.95396396332076e-05,0.0127058748788971,5.9359467118816914e-08,0.0127058748788971,-1.2391282612907555e-05
0.0134999920588282,-8.560281365891612e-06,0.0134999920588282,-2.3163148654634566e-05,0.0134999920588282,-5.035565903178135e-07,0.0134999920588282,-1.0238828634278982e-05
0.0142941092387592,-8.22461e-06,0.0142941092387592,-2.3627242834958697e-05,0.0142941092387592,3.129952351694009e-06,0.0142941092387592,-1.02388e-05
0.0150882264186903,-5.38126421855661e-06,0.0150882264186903,-2.220544085239779e-05,0.0150882264186903,2.24135336732826e-06,0.0150882264186903,-1.126546658167935e-05
0.0158823435986214,-2.892918895933852e-06,0.0158823435986214,-2.260039371824684e-05,0.0158823435986214,3.84065999145366e-06,0.0158823435986214,-1.4425115583735408e-05
0.0166764607785524,-5.12438309326036e-06,0.0166764607785524,-2.2363380168258997e-05,0.0166764607785524,7.039813426595504e-06,0.0166764607785524,-1.4227677622340829e-05
0.0174705779584835,-7.2372437571431665e-06,0.0174705779584835,-2.309406764508062e-05,0.0174705779584835,6.328965900912668e-06,0.0174705779584835,-1.147304677242397e-05
0.0182646951384146,-6.408041239863904e-06,0.0182646951384146,-2.394317718034324e-05,0.0182646951384146,3.8506070374470005e-06,0.0182646951384146,-1.1522260554507715e-05
0.0190588123183456,-5.499528196642962e-06,0.0190588123183456,-2.2244911748112355e-05,0.0190588123183456,6.4177397274393935e-06,0.0190588123183456,-1.3526668902376348e-05
0.0198529294982767,-7.533517562662831e-06,0.0198529294982767,-2.003340908999384e-05,0.0198529294982767,3.583924369820389e-06,0.0198529294982767,-1.4504130644161071e-05
0.0206470466782078,-7.424949646217127e-06,0.0206470466782078,-1.91348e-05,0.0206470466782078,-7.600865320123525e-07,0.0206470466782078,-1.1976814867894808e-05
0.0214411638581389,-5.2625305754954055e-06,0.0214411638581389,-1.965815251815689e-05,0.0214411638581389,-3.4952300061712893e-06,0.0214411638581389,-9.843794878273227e-06
0.0222352810380699,-8.264166758389572e-06,0.0222352810380699,-2.068500888366806e-05,0.0222352810380699,-2.1227724475181147e-06,0.0222352810380699,-1.312191580425466e-05
0.023029398218001,-7.948189038411658e-06,0.023029398218001,-2.151449690459976e-05,0.023029398218001,-4.294931906139356e-06,0.023029398218001,-1.1482903388142904e-05
0.0238235153979321,-5.627855751825433e-06,0.0238235153979321,-2.094170442813138e-05,0.0238235153979321,-5.53903e-06,0.0238235153979321,-1.1265510063404666e-05
0.0246176325778631,-5.894468038250621e-06,0.0246176325778631,-2.096144270759992e-05,0.0246176325778631,-5.242826076501241e-06,0.0246176325778631,-1.3516807846997516e-05
0.0254117497577942,-5.460092626373836e-06,0.0254117497577942,-2.0290047079529146e-05,0.0254117497577942,-3.268067373626164e-06,0.0254117497577942,-1.085092099380652e-05
0.0262058669377253,-7.118817033309573e-06,0.0262058669377253,-2.0033378151422376e-05,0.0262058669377253,-1.3330319687542957e-06,0.0262058669377253,-1.1591345682349068e-05
0.0269999841176564,-6.210442907423187e-06,0.0269999841176564,-1.829562053814617e-05,0.0269999841176564,1.174882731851462e-06,0.0269999841176564,-1.2253005725149853e-05
0.0277941012975874,-6.783094125886387e-06,0.0277941012975874,-1.9934517678154032e-05,0.0277941012975874,2.7151917482272246e-06,0.0277941012975874,-1.2825674125886388e-05
0.0285882184775185,-6.605444821039856e-06,0.0285882184775185,-2.171179126899301e-05,0.0285882184775185,8.39246e-07,0.0285882184775185,-1.0752478579520802e-05
0.0293823356574496,-6.249893169078056e-06,0.0293823356574496,-2.2067314794816564e-05,0.0293823356574496,3.34703150046566e-06,0.0293823356574496,-9.784505374849934e-06
0.0301764528373806,-6.407890625661982e-06,0.0301764528373806,-2.3153200134889787e-05,0.0301764528373806,5.0848474973520725e-06,0.0301764528373806,-1.3210723042853674e-05
0.0309705700173117,-6.565832305891559e-06,0.0309705700173117,-2.260033520514116e-05,0.0309705700173117,7.73092085934575e-06,0.0309705700173117,-1.154217538821688e-05
0.0317646871972428,-5.934070080497349e-06,0.0317646871972428,-2.0043070740480864e-05,0.0317646871972428,5.835502225224977e-06,0.0317646871972428,-1.2568831167470816e-05
0.0325588043771738,-4.561564942801477e-06,0.0325588043771738,-2.197836439279971e-05,0.0325588043771738,2.577009297082592e-06,0.0325588043771738,-1.3121837885403284e-05
0.0333529215571049,-4.294987902127337e-06,0.0333529215571049,-2.133675865392806e-05,0.0333529215571049,5.292224857797875e-06,0.0333529215571049,-1.2707171048936332e-05
0.034147038737036,-5.775911301092637e-06,0.034147038737036,-1.97963720184014e-05,0.034147038737036,4.86763e-06,0.034147038737036,-1.189767275602795e-05
0.0349411559169671,-6.249875988510667e-06,0.0349411559169671,-2.059613380497154e-05,0.0349411559169671,4.097590616390724e-06,0.0349411559169671,-1.09102e-05
0.0357352730968981,-7.395247147706622e-06,0.0357352730968981,-1.923358628625889e-05,0.0357352730968981,4.640398209974975e-07,0.0357352730968981,-1.2450481443119866e-05
0.0365293902768292,-7.809932096084575e-06,0.0365293902768292,-1.975684563931352e-05,0.0365293902768292,-6.812817221842231e-07,0.0365293902768292,-1.3279869562149572e-05
0.0373235074567603,-5.855146061585267e-06,0.0373235074567603,-2.056649858718967e-05,0.0373235074567603,-9.674588505262968e-07,0.0373235074567603,-1.152238738295502e-05
0.0381176246366913,-3.603833606714076e-06,0.0381176246366913,-2.2185714850618853e-05,0.0381176246366913,-2.497989098321481e-06,0.0381176246366913,-1.3319287376500737e-05
0.0389117418166224,-4.660305664361411e-06,0.0389117418166224,-2.040859027503699e-05,0.0389117418166224,1.8069822913890317e-06,0.0389117418166224,-1.389191356631342e-05
0.0397058589965535,-6.585401879047574e-06,0.0397058589965535,-2.0832997162294373e-05,0.0397058589965535,4.413755021365852e-06,0.0397058589965535,-1.067319723983463e-05
0.0404999761764846,-6.881871541190392e-06,0.0404999761764846,-2.3330938390149977e-05,0.0404999761764846,-1.0069196045541684e-06,0.0404999761764846,-1.1581565638865216e-05
0.0412940933564156,-6.822593596122365e-06,0.0412940933564156,-2.129719195167055e-05,0.0412940933564156,-1.2341706392377608e-06,0.0412940933564156,-1.1344631600969408e-05
0.0420882105363467,-8.89601e-06,0.0420882105363467,-2.1079957570967292e-05,0.0420882105363467,1.9548537252485515e-06,0.0420882105363467,-1.3200763725248552e-05
0.0428823277162778,-8.145676291231449e-06,0.0428823277162778,-1.938177137865707e-05,0.0428823277162778,2.3696237211111296e-06,0.0428823277162778,-1.322063255777774e-05
0.0436764448962088,-7.276766978179762e-06,0.0436764448962088,-2.1060139798371808e-05,0.0436764448962088,3.0706460436404744e-06,0.0436764448962088,-1.1818587912719051e-05
0.0444705620761399,-6.526419145360042e-06,0.0444705620761399,-2.121815289306556e-05,0.0444705620761399,4.215930854639958e-06,0.0444705620761399,-8.501212729509596e-06
0.045264679256071,-5.696931778160092e-06,0.045264679256071,-2.1237827645141305e-05,0.045264679256071,6.960772065011904e-06,0.045264679256071,-7.355530038207711e-06
0.046058796436002,-7.158232933829664e-06,0.046058796436002,-2.16526e-05,0.046058796436002,5.795800599255503e-06,0.046058796436002,-9.527885289219776e-06
0.0468529136159331,-6.812716448415733e-06,0.0468529136159331,-2.072445520198144e-05,0.0468529136159331,5.1440916121039336e-06,0.0468529136159331,-1.199631612103933e-05
0.0476470307958642,-8.22461e-06,0.0476470307958642,-2.123790885626276e-05,0.0476470307958642,4.137403337837466e-06,0.0476470307958642,-1.2351826624396888e-05
0.0484411479757953,-7.158353197801398e-06,0.0484411479757953,-2.03098e-05,0.0484411479757953,5.824365996007003e-07,0.0484411479757953,-1.2292444534799067e-05
0.0492352651557263,-4.926888411954536e-06,0.0492352651557263,-2.1692057538302626e-05,0.0492352651557263,3.129871588045465e-06,0.0492352651557263,-1.3437815693995034e-05
0.0500293823356574,-5.00580847989822e-06,0.0500293823356574,-2.196861376732079e-05,0.0500293823356574,-8.872653564200324e-08,0.0500293823356574,-1.35958e-05
0.0508234995155885,-6.88182e-06,0.0508234995155885,-2.2205394245372952e-05,0.0508234995155885,-3.76165756075674e-06,0.0508234995155885,-1.29244e-05
0.0516176166955195,-6.88182e-06,0.0516176166955195,-2.3469221191384417e-05,0.0516176166955195,-3.979052590638496e-06,0.0516176166955195,-1.3516784939574336e-05
0.0524117338754506,-5.91420292592228e-06,0.0524117338754506,-2.303482637908788e-05,0.0524117338754506,-1.67849e-06,0.0524117338754506,-1.42672e-05
0.0532058510553817,-6.170794538936508e-06,0.0532058510553817,-2.183033995899933e-05,0.0532058510553817,-2.557365461063492e-06,0.0532058510553817,-1.1897859409148148e-05
0.0539999682353128,-7.553174185153628e-06,0.0539999682353128,-2.131692053814617e-05,0.0539999682353128,8.390627415698416e-07,0.0539999682353128,-8.896101629010365e-06
0.0547940854152438,-7.5137290422385565e-06,0.0547940854152438,-2.2521343738013832e-05,0.0547940854152438,1.945077327825202e-06,0.0547940854152438,-9.369935344349595e-06
0.0555882025951749,-5.143982271536964e-06,0.0555882025951749,-2.1968577886748407e-05,0.0555882025951749,-1.8732773957035337e-07,0.0555882025951749,-1.2884532950379374e-05
0.056382319775106,-6.763434853900605e-06,0.056382319775106,-2.1257724519533645e-05,0.056382319775106,5.230033803433497e-07,0.056382319775106,-1.2835704727644842e-05
0.057176436955037,-5.183609997539591e-06,0.057176436955037,-2.102066476464936e-05,0.057176436955037,4.84781553483596e-06,0.057176436955037,-8.975077170199597e-06
0.0579705541349681,-4.90700880677672e-06,0.0579705541349681,-2.153411841893068e-05,0.0579705541349681,9.409159079576884e-06,0.0579705541349681,-8.93538880677672e-06
0.0587646713148992,-6.249893169078056e-06,0.0587646713148992,-2.100099027838323e-05,0.0587646713148992,1.2430807323687778e-05,0.0587646713148992,-9.56741e-06
0.0595587884948302,-5.90437212336886e-06,0.0595587884948302,-1.9598916789014657e-05,0.0595587884948302,9.073922151351604e-06,0.0595587884948302,-9.883332506615644e-06
0.0603529056747613,-4.433195005295856e-06,0.0603529056747613,-2.00825369950782e-05,0.0603529056747613,4.452942513239639e-06,0.0603529056747613,-1.1127417497352072e-05
0.0611470228546924,-2.843643558581357e-06,0.0611470228546924,-2.1751311165178645e-05,0.0611470228546924,3.86053e-06,0.0611470228546924,-9.646648723152064e-06
0.0619411400346235,-2.89287249376128e-06,0.0619411400346235,-2.296581456231468e-05,0.0619411400346235,3.18914e-06,0.0619411400346235,-9.72514173702372e-06
0.0627352572145545,-4.551638480566858e-06,0.0627352572145545,-2.0694939749310357e-05,0.0627352572145545,3.959238713653617e-06,0.0627352572145545,-1.3793212720850286e-05
0.0635293743944856,-6.368373767673612e-06,0.0635293743944856,-1.9875270740480865e-05,0.0635293743944856,1.7675603256229485e-06,0.0635293743944856,-1.3121938696979164e-05
0.0643234915744167,-6.190572908333467e-06,0.0643234915744167,-2.03098e-05,0.0643234915744167,-6.616433917568148e-07,0.0643234915744167,-1.2628012889236607e-05
0.0651176087543477,-8.066558148766182e-06,0.0651176087543477,-2.03098e-05,0.0651176087543477,1.67849e-07,0.0651176087543477,-1.5076733714656823e-05
0.0659117259342788,-7.533462753551898e-06,0.0659117259342788,-1.98358554304645e-05,0.0659117259342788,-3.840795730242119e-06,0.0659117259342788,-1.69528e-05
0.0667058431142099,-6.21042e-06,0.0667058431142099,-2.1455064722358607e-05,0.0667058431142099,-5.0650015722460775e-06,0.0667058431142099,-1.4109471069384807e-05
0.067499960294141,-7.55310546288406e-06,0.067499960294141,-2.232387433496479e-05,0.067499960294141,-4.86768726855797e-06,0.067499960294141,-1.29244e-05
0.068294077474072,-7.07930610936201e-06,0.068294077474072,-2.0961512485861766e-05,0.068294077474072,-2.85344e-06,0.068294077474072,-1.2262885984345289e-05
0.0690881946540031,-5.736553706976773e-06,0.0690881946540031,-2.0665216978715048e-05,0.0690881946540031,-3.59391520445634e-06,0.0690881946540031,-1.118654081782536e-05
0.0698823118339342,-5.87472e-06,0.0698823118339342,-2.137606521337076e-05,0.0698823118339342,-1.2904102761146865e-07,0.0698823118339342,-1.1956755988510667e-05
0.0706764290138652,-7.256927840543225e-06,0.0706764290138652,-2.346911458261116e-05,0.0706764290138652,7.414846075308952e-06,0.0706764290138652,-1.114723372756542e-05
0.0714705461937963,-9.389721023931623e-06,0.0714705461937963,-2.3528507867935016e-05,0.0714705461937963,6.842464095726497e-06,0.0714705461937963,-1.059417795213675e-05
0.0722646633737274,-7.494209295020989e-06,0.0722646633737274,-2.159339771848942e-05,0.0722646633737274,3.772027766770218e-06,0.0722646633737274,-1.143332099323874e-05
0.0730587805536585,-5.578577029171265e-06,0.0730587805536585,-2.107994406420809e-05,0.0730587805536585,-4.9206793325131766e-08,0.0730587805536585,-1.4168330954491475e-05
0.0738528977335895,-6.842294152564469e-06,0.0738528977335895,-2.23239e-05,0.0738528977335895,3.0311159230607445e-06,0.0738528977335895,-1.3832776459007447e-05
0.0746470149135206,-7.849762123170522e-06,0.0746470149135206,-2.129718211790416e-05,0.0746470149135206,5.3021795318200806e-06,0.0746470149135206,-1.46029e-05
0.0754411320934517,-5.578451040220267e-06,0.0754411320934517,-2.184994577105957e-05,0.0754411320934517,3.623384068439682e-06,0.0754411320934517,-1.2806135117872382e-05
0.0762352492733827,-7.75059071311462e-06,0.0762352492733827,-2.315322371576232e-05,0.0762352492733827,6.74350071311462e-06,0.0762352492733827,-9.37002928688538e-06
0.0770293664533138,-7.573018620939893e-06,0.0770293664533138,-2.1731784100073277e-05,0.0770293664533138,7.099174494796468e-06,0.0770293664533138,-6.88182e-06
0.0778234836332449,-8.402196309432763e-06,0.0778234836332449,-2.2274467280547163e-05,0.0778234836332449,2.3997400329973542e-06,0.0778234836332449,-9.369571728477349e-06
0.078617600813176,-8.935528983924425e-06,0.078617600813176,-2.109975630284473e-05,0.078617600813176,-2.87298907037366e-06,0.078617600813176,-1.2766324064302302e-05
0.079411717993107,-7.424870106489666e-06,0.079411717993107,-2.062572654138298e-05,0.079411717993107,-4.86763e-06,0.079411717993107,-1.1463133617305778e-05
0.0802058351730381,-6.48710270246215e-06,0.0802058351730381,-2.066530045218988e-05,0.0802058351730381,-3.426152880263868e-06,0.0802058351730381,-9.46872994073276e-06
0.0809999523529692,-5.53903e-06,0.0809999523529692,-1.963846161443853e-05,0.0809999523529692,-2.853474361134784e-06,0.0809999523529692,-1.0574362556484432e-05
0.0817940695329002,-5.5884014491901566e-06,0.0817940695329002,-2.200792431626412e-05,0.0817940695329002,-4.36408e-06,0.0817940695329002,-1.1601291535586013e-05
0.0825881867128313,-4.808259364113783e-06,0.0825881867128313,-2.163288815582149e-05,0.0825881867128313,-1.4912198822906311e-06,0.0825881867128313,-1.09102e-05
0.0833823038927624,-7.780244217318116e-06,0.0833823038927624,-2.0724617580587276e-05,0.0833823038927624,1.2538405233097353e-06,0.0833823038927624,-1.1028550784964602e-05
0.0841764210726934,-7.1188748695981255e-06,0.0841764210726934,-2.0941745504423736e-05,0.0841764210726934,1.2934683174943078e-06,0.0841764210726934,-1.2193735841252846e-05
0.0849705382526245,-5.53903e-06,0.0849705382526245,-2.1297124449572785e-05,0.0849705382526245,1.5303065008851633e-06,0.0849705382526245,-1.1719950248672256e-05
0.0857646554325556,-4.759207904444182e-06,0.0857646554325556,-2.082309144092213e-05,0.0857646554325556,5.34123695531518e-06,0.0857646554325556,-1.1127044191111637e-05
0.0865587726124866,-2.912778018669772e-06,0.0865587726124866,-2.16526e-05,0.0865587726124866,7.197740464042496e-06,0.0865587726124866,-1.481992278425498e-05
0.0873528897924177,-5.380965835240746e-06,0.0873528897924177,-2.181045608176049e-05,0.0873528897924177,7.227410934539286e-06,0.0873528897924177,-1.3240399111190317e-05
0.0881470069723488,-6.05288697690049e-06,0.0881470069723488,-2.3093980357959388e-05,0.0881470069723488,4.927370997206005e-06,0.0881470069723488,-1.1837997536170854e-05
0.0889411241522799,-4.255345260496443e-06,0.0889411241522799,-2.22155436740485e-05,0.0889411241522799,7.801310329960635e-07,0.0889411241522799,-1.620257965267141e-05
0.0897352413322109,-4.946639333569874e-06,0.0897352413322109,-2.045795091295946e-05,0.0897352413322109,-1.194604783933202e-06,0.0897352413322109,-1.2885074668558987e-05
0.090529358512142,-5.499394560823047e-06,0.090529358512142,-1.922389450738271e-05,0.090529358512142,7.599848855380534e-07,0.090529358512142,-1.0317794682535756e-05
0.0913234756920731,-6.269609709621799e-06,0.0913234756920731,-1.9500069757677048e-05,0.0913234756920731,3.2880729246855664e-06,0.0913234756920731,-1.21938102903782e-05
0.0921175928720041,-7.1384705784395535e-06,0.0921175928720041,-2.1731476202788803e-05,0.0921175928720041,9.973441366917455e-07,0.0921175928720041,-1.1621124710780222e-05
0.0929117100519352,-6.289437393546731e-06,0.0929117100519352,-2.23239e-05,0.0929117100519352,1.5698617376355127e-06,0.0929117100519352,-1.3714243475271024e-05
0.0937058272318663,-5.53903e-06,0.0937058272318663,-2.16526e-05,0.0937058272318663,1.4709629972343214e-06,0.0937058272318663,-1.513594866482288e-05
0.0944999444117974,-5.874679913203589e-06,0.0944999444117974,-2.16526e-05,0.0944999444117974,2.18204e-06,0.0944999444117974,-1.561e-05
0.0952940615917284,-6.90153823741111e-06,0.0952940615917284,-2.080351651002648e-05,0.0952940615917284,7.998091717787117e-07,0.0952940615917284,-1.2657944104200274e-05
0.0960881787716595,-7.158137910402175e-06,0.0960881787716595,-2.0793297387147977e-05,0.0960881787716595,-7.895605944114585e-07,0.0960881787716595,-9.83402463794772e-06
0.0968822959515906,-7.474330930401862e-06,0.0968822959515906,-2.3459304104806228e-05,0.0968822959515906,-1.4418242011978954e-06,0.0968822959515906,-1.1107422673995344e-05
0.0976764131315216,-6.328959771205886e-06,0.0976764131315216,-2.1613150638960268e-05,0.0976764131315216,1.8560570416326811e-06,0.0976764131315216,-1.45237108007794e-05
0.0984705303114527,-5.53903e-06,0.0984705303114527,-2.17513060306421e-05,0.0984705303114527,3.682852475183228e-06,0.0984705303114527,-1.2529734851099369e-05
0.0992646474913838,-5.87472e-06,0.0992646474913838,-2.2047474380023904e-05,0.0992646474913838,6.024597028245166e-07,0.0992646474913838,-1.0396658315177434e-05
0.1000587646713148,-4.926577834011359e-06,0.1000587646713148,-2.2442294108743063e-05,0.1000587646713148,-1.67849e-07,0.1000587646713148,-1.2174402107547037e-05
0.1008528818512459,-4.630664569734504e-06,0.1008528818512459,-2.325216428234437e-05,0.1008528818512459,2.2709000462411875e-07,0.1008528818512459,-1.3793269139469009e-05
0.101646999031177,-7.335916719927161e-06,0.101646999031177,-2.209658292537592e-05,0.101646999031177,-2.862453672410732e-07,0.101646999031177,-1.4524193845950508e-05
0.1024411162111081,-6.249572309974144e-06,0.1024411162111081,-2.130661625374612e-05,0.1024411162111081,-8.000938649691544e-07,0.1024411162111081,-1.1620752309974142e-05
0.1032352333910391,-8.164940567650968e-06,0.1032352333910391,-1.9786782539961307e-05,0.1032352333910391,1.6285220880593648e-06,0.1032352333910391,-1.3536128212144335e-05
0.1040293505709702,-7.908580429519917e-06,0.1040293505709702,-1.920418992938233e-05,0.1040293505709702,4.84796427757388e-06,0.1040293505709702,-1.229233144485224e-05
0.1048234677509013,-9.074234135740787e-06,0.1048234677509013,-1.96384e-05,0.1048234677509013,5.637087229114207e-06,0.1048234677509013,-1.0298208635145004e-05
0.1056175849308323,-9.606692999072856e-06,0.1056175849308323,-2.01910047112172e-05,0.1056175849308323,3.939098338578792e-06,0.1056175849308323,-1.05745e-05
0.1064117021107634,-7.631830088755316e-06,0.1064117021107634,-2.319382470110212e-05,0.1064117021107634,2.655844734229473e-06,0.1064117021107634,-1.142437159462316e-05
0.1072058192906945,-7.21752e-06,0.1072058192906945,-2.3155318057453507e-05,0.1072058192906945,9.773929522193906e-07,0.1072058192906945,-1.3891753857184267e-05
0.1079999364706256,-6.210557297066434e-06,0.1079999364706256,-2.047776436848544e-05,0.1079999364706256,1.5105027040241991e-06,0.1079999364706256,-1.023912035982168e-05
0.1087940536505566,-6.447253570950263e-06,0.1087940536505566,-2.1070128713995008e-05,0.1087940536505566,2.320007141900525e-06,0.1087940536505566,-1.0475633570950265e-05
0.1095881708304877,-7.750901105190467e-06,0.1095881708304877,-2.1613569758016436e-05,0.1095881708304877,-4.8501557320359376e-08,0.1095881708304877,-8.343962087159903e-06
0.1103822880104188,-6.132036285343894e-06,0.1103822880104188,-2.019133344818808e-05,0.1103822880104188,-1.549832441070101e-06,0.1103822880104188,-9.09197103786641e-06
0.1111764051903498,-6.0914214393755534e-06,0.1111764051903498,-2.0230516452305947e-05,0.1111764051903498,-2.9511393339094905e-06,0.1111764051903498,-1.1955499167386865e-05
0.1119705223702809,-6.526637340329125e-06,0.1119705223702809,-1.8987331446801652e-05,0.1119705223702809,1.6676287416220852e-06,0.1119705223702809,-1.167036921401962e-05
0.112764639550212,-6.88182e-06,0.112764639550212,-1.999404620816392e-05,0.112764639550212,1.6883743476129755e-06,0.112764639550212,-1.324033130477405e-05
0.1135587567301431,-6.565787883206376e-06,0.1135587567301431,-2.1179060637272928e-05,0.1135587567301431,1.807004233587248e-06,0.1135587567301431,-1.4583232116793625e-05
0.1143528739100741,-6.88182e-06,0.1143528739100741,-2.06455e-05,0.1143528739100741,4.127103103707087e-06,0.1143528739100741,-1.3714288448146456e-05
0.1151469910900052,-4.630848026173094e-06,0.1151469910900052,-2.090228209810165e-05,0.1151469910900052,7.905625355152516e-07,0.1151469910900052,-1.290492703925964e-05
0.1159411082699363,-4.828489156053254e-06,0.1159411082699363,-2.1691770502590658e-05,0.1159411082699363,-2.103758661890636e-06,0.1159411082699363,-1.130461126592012e-05
0.1167352254498673,-3.1697579574519043e-06,0.1167352254498673,-1.987584675514082e-05,0.1167352254498673,-6.939005700818886e-08,0.1167352254498673,-1.3279479686871051e-05
0.1175293426297984,-3.4854809653799385e-06,0.1175293426297984,-2.212692398657104e-05,0.1175293426297984,1.8069856723033248e-06,0.1175293426297984,-1.181832007346918e-05
0.1183234598097295,-5.776639888211789e-06,0.1183234598097295,-2.388321321995882e-05,0.1183234598097295,2.85344e-06,0.1183234598097295,-1.000257134542874e-05
0.1191175769896605,-5.696188438825059e-06,0.1191175769896605,-2.2097371307438503e-05,0.1191175769896605,2.5570299023030943e-06,0.1191175769896605,-1.2135130293090715e-05
0.1199116941695916,-7.000778131027273e-06,0.1199116941695916,-2.0339200742987665e-05,0.1199116941695916,4.453298598270456e-06,0.1199116941695916,-1.0988831401729545e-05
0.1207058113495227,-7.5926060387293666e-06,0.1207058113495227,-2.0467502254402272e-05,0.1207058113495227,4.472554128733076e-06,0.1207058113495227,-1.1305275871266924e-05
0.1214999285294538,-6.88182e-06,0.1214999285294538,-2.0309846228636533e-05,0.1214999285294538,2.1822459440659583e-06,0.1214999285294538,-1.3595594054400338e-05
0.1222940457093848,-8.461437837936565e-06,0.1222940457093848,-2.0843515864974005e-05,0.1222940457093848,-1.0806111889839277e-07,0.1222940457093848,-1.0377926108158773e-05
0.1230881628893159,-7.61289956503693e-06,0.1230881628893159,-2.2421449922383056e-05,0.1230881628893159,7.198743920590053e-07,0.1230881628893159,-1.1480865456968264e-05
0.123882280069247,-6.1320477512005325e-06,0.123882280069247,-2.3508775656816784e-05,0.123882280069247,1.312093478197374e-06,0.123882280069247,-1.4703479751661644e-05
0.124676397249178,-6.3676041108900255e-06,0.124676397249178,-2.23239e-05,0.124676397249178,2.2117929436168654e-06,0.124676397249178,-1.1957679468274155e-05
0.1254705144291091,-7.21752e-06,0.1254705144291091,-2.188992921722356e-05,0.1254705144291091,5.103623973861127e-06,0.1254705144291091,-1.0377443172627e-05
0.1262646316090402,-7.632194752872777e-06,0.1262646316090402,-2.111937421195193e-05,0.1262646316090402,6.901611578070345e-06,0.1262646316090402,-1.187771684385931e-05
0.1270587487889713,-7.572893030172526e-06,0.1270587487889713,-2.09812e-05,0.1270587487889713,2.714474990105652e-06,0.1270587487889713,-1.4879579151339776e-05
0.1278528659689023,-7.000314181160165e-06,0.1278528659689023,-2.060607553722793e-05,0.1278528659689023,2.4584929094199173e-06,0.1278528659689023,-1.561e-05
0.1286469831488334,-7.503755253899745e-06,0.1286469831488334,-2.034924976421146e-05,0.1286469831488334,-6.413868417315824e-07,0.1286469831488334,-1.42672e-05
0.1294411003287645,-8.185481204883419e-06,0.1294411003287645,-2.2225091403205047e-05,0.1294411003287645,-3.861605656052747e-07,0.1294411003287645,-1.3576235311040323e-05
0.1302352175086955,-6.526763195973331e-06,0.1302352175086955,-2.1159300475901137e-05,0.1302352175086955,2.023868402013334e-06,0.1302352175086955,-1.3003485798993332e-05
0.1310293346886266,-6.368425697364732e-06,0.1310293346886266,-2.1889734058718832e-05,0.1310293346886266,4.828252789458928e-06,0.1310293346886266,-1.35958e-05
0.1318234518685577,-5.36083841883161e-06,0.1318234518685577,-2.054819248372679e-05,0.1318234518685577,3.168448607016622e-06,0.1318234518685577,-1.1700394387445592e-05
0.1326175690484888,-4.8283343646831885e-06,0.1326175690484888,-2.125748180954792e-05,0.1326175690484888,1.214235635316812e-06,0.1326175690484888,-1.2253e-05
0.1334116862284198,-6.743703799743116e-06,0.1334116862284198,-2.1810599131269464e-05,0.1334116862284198,-1.0176473241608189e-06,0.1334116862284198,-1.011987068675288e-05
0.1342058034083509,-5.143977060787897e-06,0.1342058034083509,-2.1535461386173035e-05,0.1342058034083509,-5.302093234803026e-06,0.1342058034083509,-1.0298152939212103e-05
0.134999920588282,-4.867515585777962e-06,0.134999920588282,-2.1652445904544885e-05,0.134999920588282,-6.881591173260037e-06,0.134999920588282,-1.158154279288898e-05
0.135794037768213,-5.775845050347205e-06,0.135794037768213,-2.295509939276198e-05,0.135794037768213,-7.849850739807064e-06,0.135794037768213,-1.0772255790154269e-05
0.1365881549481441,-5.87472e-06,0.1365881549481441,-2.1039714543884293e-05,0.1365881549481441,-6.900423589054737e-06,0.1365881549481441,-9.705407429123669e-06
0.1373822721280752,-5.015889512478657e-06,0.1373822721280752,-2.119847454030944e-05,0.1373822721280752,-4.9317269876949485e-06,0.1373822721280752,-1.15816e-05
0.1381763893080062,-5.42000678411033e-06,0.1381763893080062,-2.1100094561717548e-05,0.1381763893080062,2.840450408709984e-06,0.1381763893080062,-1.2410165176165497e-05
0.1389705064879373,-5.53903e-06,0.1389705064879373,-2.090323710982112e-05,0.1389705064879373,4.157310446347044e-06,0.1389705064879373,-1.1621716951334409e-05
0.1397646236678684,-6.30906261624223e-06,0.1397646236678684,-2.0428328189993968e-05,0.1397646236678684,3.2780109676679103e-06,0.1397646236678684,-9.725350417103404e-06
0.1405587408477994,-8.827132863900085e-06,0.1405587408477994,-2.169147828426703e-05,0.1405587408477994,4.759394165432518e-06,0.1405587408477994,-1.1502882603064863e-05
0.1413528580277305,-9.093410343304506e-06,0.1413528580277305,-2.082355938377976e-05,0.1413528580277305,1.3931201459044148e-05,0.1413528580277305,-1.0732599399217114e-05
0.1421469752076616,-9.31120592191827e-06,0.1421469752076616,-2.0951691318438635e-05,0.1421469752076616,1.8177220479113945e-05,0.1421469752076616,-9.152204078081733e-06
0.1429410923875927,-6.88182e-06,0.1429410923875927,-2.07443329125286e-05,0.1429410923875927,1.5691433572702696e-05,0.1429410923875927,-1.2331235823783784e-05
0.1437352095675237,-7.395036960591126e-06,0.1437352095675237,-2.181018411455336e-05,0.1437352095675237,7.47587960323526e-06,0.1437352095675237,-1.3082583039408871e-05
0.1445293267474548,-6.694074858333981e-06,0.1445293267474548,-2.354812044485436e-05,0.1445293267474548,2.18204e-06,0.1445293267474548,-1.2657823497893258e-05
0.1453234439273859,-4.986412946023386e-06,0.1453234439273859,-2.3035039179954893e-05,0.1453234439273859,1.5493842272062275e-06,0.1453234439273859,-1.3200708526988306e-05
0.146117561107317,-5.983619118233121e-06,0.146117561107317,-2.2857164231741204e-05,0.146117561107317,-1.2854786581527253e-07,0.146117561107317,-1.2331602736661005e-05
0.146911678287248,-5.479569752095774e-06,0.146911678287248,-2.0921167010123137e-05,0.146911678287248,2.696102514821809e-06,0.146911678287248,-1.011989361863698e-05
0.1477057954671791,-5.341514996421365e-06,0.1477057954671791,-2.096088396274386e-05,0.1477057954671791,6.743635003578635e-06,0.1477057954671791,-1.2371660014314538e-05
0.1484999126471102,-5.035448536088949e-06,0.1484999126471102,-2.182031525591521e-05,0.1484999126471102,4.532433420702299e-06,0.1484999126471102,-1.42672e-05
0.1492940298270412,-5.53903e-06,0.1492940298270412,-2.214605797696523e-05,0.1492940298270412,2.418856371909143e-06,0.1492940298270412,-1.0595285396636e-05
0.1500881470069723,-6.486411613938134e-06,0.1500881470069723,-2.0961700288553726e-05,0.1500881470069723,2.51774e-06,0.1500881470069723,-1.0119389117187943e-05
0.1508822641869034,-8.146260682913813e-06,0.1508822641869034,-2.06455e-05,0.1508822641869034,6.433707234325365e-07,0.1508822641869034,-1.1206724757971026e-05
0.1516763813668344,-7.277037328655939e-06,0.1516763813668344,-2.027017360606474e-05,0.1516763813668344,-2.868831254322655e-07,0.1516763813668344,-1.0357834657311878e-05
0.1524704985467655,-7.039945832297854e-06,0.1524704985467655,-1.99741e-05,0.1524704985467655,-5.618906586108118e-07,0.1524704985467655,-9.606301381140195e-06
0.1532646157266966,-5.32196270384748e-06,0.1532646157266966,-2.145525401549855e-05,0.1532646157266966,-4.482528496090286e-06,0.1532646157266966,-1.2904562656240762e-05
0.1540587329066277,-3.840844917752508e-06,0.1540587329066277,-2.414020860290354e-05,0.1540587329066277,-3.603570328989968e-06,0.1540587329066277,-1.3615485082247491e-05
0.1548528500865587,-6.8421896469802935e-06,0.1548528500865587,-2.3193832448288988e-05,0.1548528500865587,-3.070634352812438e-06,0.1548528500865587,-1.2490011294375124e-05
0.1556469672664898,-8.678683787872328e-06,0.1556469672664898,-2.036876655721929e-05,0.1556469672664898,-3.2690917363226893e-07,0.1556469672664898,-1.0673452424255345e-05
0.1564410844464209,-8.068185381464363e-06,0.1564410844464209,-2.025093975616933e-05,0.1564410844464209,3.811647525130569e-06,0.1564410844464209,-1.2292106445864517e-05
0.157235201626352,-4.25601620207768e-06,0.157235201626352,-2.1593222901669292e-05,0.157235201626352,3.9193920147339e-06,0.157235201626352,-1.241119448083107e-05
0.158029318806283,-3.663118061415421e-06,0.158029318806283,-2.16526e-05,0.158029318806283,6.54612e-06,0.158029318806283,-1.2095005744057475e-05
0.1588234359862141,-5.657799735588639e-06,0.1588234359862141,-2.194855569340785e-05,0.1588234359862141,6.121341371549087e-06,0.1588234359862141,-1.095932849539878e-05
0.1596175531661451,-6.803205797311542e-06,0.1596175531661451,-2.0596477473025535e-05,0.1596175531661451,4.076717886493604e-06,0.1596175531661451,-1.085124520248192e-05
0.1604116703460762,-7.55322e-06,0.1604116703460762,-2.0438364297409628e-05,0.1604116703460762,2.379612333715699e-06,0.1604116703460762,-1.1295746074801712e-05
0.1612057875260073,-8.125858231224377e-06,0.1612057875260073,-2.331067368971353e-05,0.1612057875260073,1.7277290856289645e-06,0.1612057875260073,-1.39315e-05
0.1619999047059384,-6.882025943554743e-06,0.1619999047059384,-2.29954232763641e-05,0.1619999047059384,-2.181628110641081e-06,0.1619999047059384,-1.3595868648533226e-05
0.1627940218858694,-5.87472e-06,0.1627940218858694,-2.129682024244168e-05,0.1627940218858694,-3.52483e-06,0.1627940218858694,-1.3122178722209104e-05
0.1635881390658005,-5.40103992604463e-06,0.1635881390658005,-1.969688372479331e-05,0.1635881390658005,-6.9879175554963e-06,0.1635881390658005,-1.2489815589565404e-05
0.1643822562457316,-5.992228527045806e-06,0.1643822562457316,-2.0448053908107705e-05,0.1643822562457316,-8.80925935820174e-06,0.1643822562457316,-1.2253e-05
0.1651763734256627,-6.88182e-06,0.1651763734256627,-2.2916057465404e-05,0.1651763734256627,-5.777120424365638e-06,0.1651763734256627,-1.2805353901265954e-05
0.1659704906055937,-7.483872670486532e-06,0.1659704906055937,-2.1021950811702596e-05,0.1659704906055937,-3.979793054542865e-06,0.1659704906055937,-1.3437668446991022e-05
0.1667646077855248,-6.723900113301787e-06,0.1667646077855248,-1.9668018085570455e-05,0.1667646077855248,6.808459756201153e-07,0.1667646077855248,-1.35958e-05
0.1675587249654559,-6.21042e-06,0.1675587249654559,-2.06348573738667e-05,0.1675587249654559,9.272048944201778e-06,0.1675587249654559,-1.35958e-05
0.1683528421453869,-7.099008619798709e-06,0.1683528421453869,-2.1573789964920228e-05,0.1683528421453869,1.069301138020129e-05,0.1683528421453869,-1.114722276040258e-05
0.169146959325318,-7.118556109717278e-06,0.169146959325318,-2.106013844795903e-05,0.169146959325318,1.3516240274293198e-05,0.169146959325318,-1.181833610971728e-05
0.1699410765052491,-7.237067489918549e-06,0.1699410765052491,-1.9006232022237707e-05,0.1699410765052491,1.3123267570570157e-05,0.1699410765052491,-1.15816e-05
0.1707351936851801,-9.09279458959882e-06,0.1707351936851801,-1.967718882577054e-05,0.1707351936851801,1.0140408883379931e-05,0.1707351936851801,-1.2864585194366778e-05
0.1715293108651112,-1.068310513071272e-05,0.1715293108651112,-2.053690230106393e-05,0.1715293108651112,7.138422595400604e-06,0.1715293108651112,-1.5027429263592988e-05
0.1723234280450423,-7.335101563510514e-06,0.1723234280450423,-2.1237401133541148e-05,0.1723234280450423,1.72757993682103e-06,0.1723234280450423,-1.3545520950457504e-05
0.1731175452249733,-4.353481337431678e-06,0.1731175452249733,-1.985605584422968e-05,0.1731175452249733,-1.5879165067387957e-07,0.1731175452249733,-1.0415701899258483e-05
0.1739116624049044,-5.055563102456996e-06,0.1739116624049044,-1.9283077012189643e-05,0.1739116624049044,-4.670877734838973e-06,0.1739116624049044,-1.1305333201403996e-05
0.1747057795848355,-7.55322e-06,0.1747057795848355,-2.0803181708341587e-05,0.1747057795848355,-4.749064655401245e-06,0.1747057795848355,-1.2983684143047602e-05
0.1754998967647666,-7.55322e-06,0.1754998967647666,-2.064556677469721e-05,0.1754998967647666,-1.1753118462215548e-06,0.1754998967647666,-1.359587436924431e-05
0.1762940139446976,-5.697802524654625e-06,0.1762940139446976,-1.8829254226791967e-05,0.1762940139446976,-1.1645095273354293e-06,0.1762940139446976,-1.25887e-05
0.1770881311246287,-5.1435986818833e-06,0.1770881311246287,-2.267908943841593e-05,0.1770881311246287,-1.0276980949816377e-06,0.1770881311246287,-1.177931565905835e-05
0.1778822483045598,-5.757229838625526e-06,0.1778822483045598,-2.1810713082439487e-05,0.1778822483045598,5.03548e-07,0.1778822483045598,-1.083187244799688e-05
0.1786763654844909,-4.86763e-06,0.1786763654844909,-2.139613228132152e-05,0.1786763654844909,1.6082263383057843e-06,0.1786763654844909,-9.962628770078129e-06
0.1794704826644219,-4.512504547440124e-06,0.1794704826644219,-2.2639226865265707e-05,0.1794704826644219,6.131199895134477e-07,0.1794704826644219,-9.212284547440124e-06
0.180264599844353,-4.19623e-06,0.180264599844353,-2.23239e-05,0.180264599844353,-1.7673857773619973e-06,0.180264599844353,-1.0120087206538028e-05
0.181058717024284,-4.19623e-06,0.181058717024284,-2.279738809635448e-05,0.181058717024284,-2.4663466504204054e-07,0.181058717024284,-1.2865310355175271e-05
0.1818528342042151,-6.407755077587254e-06,0.1818528342042151,-2.3233284795293925e-05,0.1818528342042151,7.207295928744525e-07,0.1818528342042151,-7.63261829768546e-06
0.1826469513841462,-6.447144643689863e-06,0.1826469513841462,-1.989476512550091e-05,0.1826469513841462,2.6682441406100334e-07,0.1826469513841462,-6.939977370768162e-06
0.1834410685640773,-6.823194729285477e-06,0.1834410685640773,-2.110031082467225e-05,0.1834410685640773,-4.840063013071248e-07,0.1834410685640773,-1.2331167027619364e-05
0.1842351857440083,-5.361545007146389e-06,0.1842351857440083,-2.327161262863895e-05,0.1842351857440083,8.585078648310334e-07,0.1842351857440083,-1.35958e-05
0.1850293029239394,-5.183595629040673e-06,0.1850293029239394,-2.1849678736081885e-05,0.1850293029239394,1.3819640256668196e-07,0.1850293029239394,-1.42672e-05
0.1858234201038705,-5.845032844560802e-06,0.1858234201038705,-2.1129128641210525e-05,0.1858234201038705,-1.9650886217567957e-06,0.1858234201038705,-1.1778007281644576e-05
0.1866175372838016,-5.558688112444606e-06,0.1866175372838016,-2.16526e-05,0.1866175372838016,-2.221358567371628e-06,0.1866175372838016,-8.974647134743256e-06
0.1874116544637326,-6.605541735376564e-06,0.1874116544637326,-2.18105888612993e-05,0.1874116544637326,8.496601440790158e-07,0.1874116544637326,-1.062427801955504e-05
0.1882057716436637,-7.997548421041258e-06,0.1882057716436637,-2.24129382293427e-05,0.1882057716436637,1.84634e-06,0.1882057716436637,-1.1393995747493958e-05
0.1889998888235948,-8.896050044977708e-06,0.1889998888235948,-2.2491764033683172e-05,0.1889998888235948,8.394862684347887e-07,0.1889998888235948,-1.242063982008917e-05
0.1897940060035258,-5.510482430250342e-06,0.1897940060035258,-2.230389377617166e-05,0.1897940060035258,-2.667495325212231e-07,0.1897940060035258,-1.2450801654263936e-05
0.1905881231834569,-5.22181892946372e-06,0.1905881231834569,-2.133638430190076e-05,0.1905881231834569,1.331416359426859e-06,0.1905881231834569,-1.2469214431711767e-05
0.191382240363388,-6.506961957012128e-06,0.191382240363388,-2.125772836227606e-05,0.191382240363388,3.7822150804836847e-06,0.191382240363388,-1.3220941957012128e-05
0.192176357543319,-5.658097208135219e-06,0.192176357543319,-1.959878898597652e-05,0.192176357543319,1.532146944735483e-06,0.192176357543319,-1.1957779584978746e-05
0.1929704747232501,-5.045187005568834e-06,0.1929704747232501,-2.038766015987553e-05,0.1929704747232501,1.7076110167065018e-06,0.1929704747232501,-1.1956128022275336e-05
0.1937645919031812,-6.249894250963449e-06,0.1937645919031812,-2.2205430549892988e-05,0.1937645919031812,2.902867247109652e-06,0.1937645919031812,-1.25097514980731e-05
0.1945587090831123,-6.220271140644309e-06,0.1945587090831123,-2.094238323538002e-05,0.1945587090831123,2.51774e-06,0.1945587090831123,-1.1305006843865848e-05
0.1953528262630433,-5.756200684389312e-06,0.1953528262630433,-2.2738399762049447e-05,0.1953528262630433,2.537608538686061e-06,0.1953528262630433,-1.2726729538880912e-05
0.1961469434429744,-6.565489766493647e-06,0.1961469434429744,-2.0684614971263333e-05,0.1961469434429744,3.1880674793998918e-06,0.1961469434429744,-1.3122373644675136e-05
0.1969410606229055,-6.842747952217735e-06,0.1969410606229055,-1.945152405979576e-05,0.1969410606229055,7.158911928326603e-06,0.1969410606229055,-1.09395011260923e-05
0.1977351778028366,-5.953834402548833e-06,0.1977351778028366,-2.2787435068502316e-05,0.1977351778028366,4.414328461142317e-06,0.1977351778028366,-1.2311787807581538e-05
0.1985292949827676,-6.526374187618446e-06,0.1985292949827676,-2.323241801816994e-05,0.1985292949827676,3.1693894817175283e-06,0.1985292949827676,-1.4405431281427668e-05
0.1993234121626987,-7.019985704916351e-06,0.1993234121626987,-2.218708658870476e-05,0.1993234121626987,4.620982885250946e-06,0.1993234121626987,-1.3634657049163514e-05
0.2001175293426297,-6.585444300385336e-06,0.2001175293426297,-1.9519460888792423e-05,0.2001175293426297,4.590916450578005e-06,0.2001175293426297,-1.077112150192668e-05
0.2009116465225608,-5.815315615522306e-06,0.2009116465225608,-2.15740669566372e-05,0.2009116465225608,3.86053e-06,0.2009116465225608,-1.1976710269349146e-05
0.2017057637024919,-4.956493575663741e-06,0.2017057637024919,-2.3074159201634676e-05,0.2017057637024919,4.038260092482375e-06,0.2017057637024919,-1.1779069139469008e-05
0.202499880882423,-5.874333854556747e-06,0.202499880882423,-2.3666584439884333e-05,0.202499880882423,1.1753690533326937e-06,0.202499880882423,-1.460229932533423e-05
0.203293998062354,-6.408233120291354e-06,0.203293998062354,-2.0545208293802746e-05,0.203293998062354,2.4188334398543232e-06,0.203293998062354,-1.40408647892644e-05
0.2040881152422851,-6.486365749828506e-06,0.2040881152422851,-1.9341658330771207e-05,0.2040881152422851,2.241794250171493e-06,0.2040881152422851,-1.0298554250171492e-05
0.2048822324222162,-8.372883845012929e-06,0.2048822324222162,-1.957923863530644e-05,0.2048822324222162,1.3931840031084909e-06,0.2048822324222162,-1.1699056929922428e-05
0.2056763496021472,-7.810378543636813e-06,0.2056763496021472,-2.2027894089385828e-05,0.2056763496021472,-1.7057204363337475e-06,0.2056763496021472,-1.2864859788499664e-05
0.2064704667820783,-7.64199564242887e-06,0.2064704667820783,-2.1998451975382558e-05,0.2064704667820783,-1.3136893188188255e-06,0.2064704667820783,-1.140404871514226e-05
0.2072645839620094,-6.408165664292398e-06,0.2072645839620094,-2.181058476273663e-05,0.2072645839620094,-4.943553365245797e-08,0.2072645839620094,-1.0633513906078972e-05
0.2080587011419405,-5.499613971395389e-06,0.2080587011419405,-2.074446620509726e-05,0.2080587011419405,1.125670433902009e-06,0.2080587011419405,-1.4445235885581557e-05
0.2088528183218715,-8.00743857924241e-06,0.2088528183218715,-2.1395694625534254e-05,0.2088528183218715,1.2934685792424088e-06,0.2088528183218715,-1.5284210522807498e-05
0.2096469355018026,-7.316518288364972e-06,0.2096469355018026,-2.216601580416205e-05,0.2096469355018026,2.8824653256841517e-06,0.2096469355018026,-1.3557094865094916e-05
0.2104410526817337,-5.499969418245114e-06,0.2104410526817337,-2.121809272065768e-05,0.2104410526817337,4.45380941826833e-06,0.2104410526817337,-1.0949260581754884e-05
0.2112351698616647,-6.150521740570139e-06,0.2112351698616647,-2.0428595288782787e-05,0.2112351698616647,1.6496607395597378e-06,0.2112351698616647,-1.2094759753480089e-05
0.2120292870415958,-7.395248626901871e-06,0.2120292870415958,-2.0961238382290607e-05,0.2120292870415958,2.478225492392514e-06,0.2120292870415958,-1.2095028626901871e-05
0.2128234042215269,-6.88182e-06,0.2128234042215269,-1.912605925256467e-05,0.2128234042215269,3.6824431599623536e-06,0.2128234042215269,-1.09102e-05
0.2136175214014579,-6.585450033399044e-06,0.2136175214014579,-1.8967e-05,0.2136175214014579,1.2234140121119816e-06,0.2136175214014579,-1.150293993320191e-05
0.214411638581389,-5.8353482177906525e-06,0.214411638581389,-2.149549282115315e-05,0.214411638581389,-1.0961914972221157e-06,0.214411638581389,-1.118650119667823e-05
0.2152057557613201,-6.970697908198062e-06,0.2152057557613201,-2.4022767402407843e-05,0.2152057557613201,-1.1157273000026026e-06,0.2152057557613201,-9.56741e-06
0.2159998729412512,-5.539258825717475e-06,0.2159998729412512,-2.2324228736970884e-05,0.2159998729412512,8.389714072304233e-07,0.2159998729412512,-1.0238616939971336e-05
0.2167939901211822,-7.631139187492732e-06,0.2167939901211822,-2.1771516172210133e-05,0.2167939901211822,2.277969315436093e-07,0.2167939901211822,-1.0436624586318756e-05
0.2175881073011133,-9.17194428380105e-06,0.2175881073011133,-2.2581709685539752e-05,0.2175881073011133,2.6741387415687163e-06,0.2175881073011133,-1.1935735709502624e-05
0.2183822244810444,-8.107171435236508e-06,0.2183822244810444,-1.9934921179178706e-05,0.2183822244810444,3.3290982813155986e-06,0.2183822244810444,-1.2916046234267311e-05
0.2191763416609755,-6.9413659322114345e-06,0.2191763416609755,-1.9165003803744924e-05,0.2191763416609755,1.017882732363846e-06,0.2191763416609755,-9.924683819484512e-06
0.2199704588409065,-6.457347217926687e-06,0.2199704588409065,-2.129644527683428e-05,0.2199704588409065,-5.617190383001627e-07,0.2199704588409065,-9.64496922435668e-06
0.2207645760208376,-6.309311169902637e-06,0.2207645760208376,-2.226468436879941e-05,0.2207645760208376,-2.0441195181051675e-06,0.2207645760208376,-1.3319508531149748e-05
0.2215586932007686,-4.275084989264137e-06,0.2215586932007686,-2.1869900406905648e-05,0.2215586932007686,2.0243307261633203e-06,0.2215586932007686,-1.099890892670718e-05
0.2223528103806997,-5.064892750975584e-06,0.2223528103806997,-2.23239e-05,0.2223528103806997,4.077695687743896e-06,0.2223528103806997,-1.1463065687743897e-05
0.2231469275606308,-4.97630743859809e-06,0.2231469275606308,-2.1810494467338175e-05,0.2231469275606308,5.804719772900937e-06,0.2231469275606308,-1.09102e-05
0.2239410447405619,-6.862295442136284e-06,0.2239410447405619,-2.084310430541012e-05,0.2239410447405619,7.256568534120107e-06,0.2239410447405619,-1.3712947347182294e-05
0.2247351619204929,-6.032971687942081e-06,0.2247351619204929,-2.2422006571572096e-05,0.2247351619204929,7.88891e-06,0.2247351619204929,-1.561e-05
0.225529279100424,-6.1906513047740495e-06,0.225529279100424,-2.182979416150972e-05,0.225529279100424,5.9142620960119965e-06,0.225529279100424,-1.4129003042838926e-05
0.2263233962803551,-6.763105702509821e-06,0.2263233962803551,-2.03098e-05,0.2263233962803551,5.0846157025098215e-06,0.2263233962803551,-1.3417728553764732e-05
0.2271175134602862,-5.617700361071959e-06,0.2271175134602862,-1.944080494916778e-05,0.2271175134602862,4.53193e-06,0.2271175134602862,-1.1699607299238253e-05
0.2279116306402172,-5.934111452764417e-06,0.2279116306402172,-2.090262586451582e-05,0.2279116306402172,2.9322048785884268e-06,0.2279116306402172,-1.217423100594147e-05
0.2287057478201483,-6.012976733399164e-06,0.2287057478201483,-2.0350555350876342e-05,0.2287057478201483,6.813280104405704e-07,0.2287057478201483,-1.371425315221314e-05
0.2294998650000794,-5.203427252088727e-06,0.2294998650000794,-1.930278732075789e-05,0.2294998650000794,-3.859557484327324e-06,0.2294998650000794,-1.35958e-05
0.2302939821800104,-5.53903e-06,0.2302939821800104,-1.94805641962033e-05,0.2302939821800104,-4.394066052346188e-06,0.2302939821800104,-1.162213441085309e-05
0.2310880993599415,-5.814948708110002e-06,0.2310880993599415,-2.105906976992965e-05,0.2310880993599415,-4.313506339990727e-06,0.2310880993599415,-1.092860704443414e-05
0.2318822165398726,-7.03838220983989e-06,0.2318822165398726,-2.291616122794936e-05,0.2318822165398726,-6.092998634106856e-06,0.2318822165398726,-1.3380519528557424e-05
0.2326763337198036,-8.914980867693643e-06,0.2326763337198036,-2.4515417463553104e-05,0.2326763337198036,-4.651033305845086e-06,0.2326763337198036,-9.678336753192009e-06
0.2334704508997347,-8.540930313128936e-06,0.2334704508997347,-2.3547976622429588e-05,0.2334704508997347,-4.551309686871064e-06,0.2334704508997347,-1.0316323458838336e-05
0.2342645680796658,-6.802888660206393e-06,0.2342645680796658,-2.2521492528048917e-05,0.2342645680796658,-4.7097673204127865e-06,0.2342645680796658,-1.19767520669541e-05
0.2350586852595969,-6.388129740164861e-06,0.2350586852595969,-2.054652354162822e-05,0.2350586852595969,-2.300356294564563e-06,0.2350586852595969,-1.0288101637893164e-05
0.2358528024395279,-5.3218700452698125e-06,0.2358528024395279,-2.27966061150236e-05,0.2358528024395279,1.1351036126244906e-06,0.2358528024395279,-1.1453067542477132e-05
0.236646919619459,-6.229738169370292e-06,0.236646919619459,-2.5108307608395337e-05,0.236646919619459,1.571028759347639e-06,0.236646919619459,-1.3359121220419806e-05
0.2374410367993901,-6.842782350299948e-06,0.2374410367993901,-2.441671784359317e-05,0.2374410367993901,-3.485792931736494e-06,0.2374410367993901,-1.2292037649700052e-05
0.2382351539793211,-5.953851564682144e-06,0.2382351539793211,-2.147573469745532e-05,0.2382351539793211,-8.008993959674834e-07,0.2382351539793211,-1.3437536870635712e-05
0.2390292711592522,-6.753389692541643e-06,0.2390292711592522,-1.99741e-05,0.2390292711592522,-3.3469546455315627e-06,0.2390292711592522,-1.3674756438889542e-05
0.2398233883391833,-7.197113199786198e-06,0.2398233883391833,-2.056594986716863e-05,0.2398233883391833,-6.249364627820184e-06,0.2398233883391833,-1.4296866874066436e-05
0.2406175055191144,-4.946312998852883e-06,0.2406175055191144,-2.277752858800425e-05,0.2406175055191144,-5.015809250286779e-06,0.2406175055191144,-1.428686489009162e-05
0.2414116226990454,-4.53193e-06,0.2414116226990454,-2.36667e-05,0.2414116226990454,-5.53903e-06,0.2414116226990454,-1.582749128855496e-05
0.2422057398789765,-5.282270486090887e-06,0.2422057398789765,-2.177212739150381e-05,0.2422057398789765,-2.3797782615270026e-06,0.2422057398789765,-1.7525482629306622e-05
0.2429998570589076,-6.881511081600508e-06,0.2429998570589076,-2.0645638672138785e-05,0.2429998570589076,6.208875414137353e-06,0.2429998570589076,-1.5610514863999153e-05
0.2437939742388386,-7.079667518373592e-06,0.2437939742388386,-2.1425821158445863e-05,0.2437939742388386,1.15994653549226e-05,0.2437939742388386,-1.3044390073494368e-05
0.2445880914187697,-6.288587027619384e-06,0.2445880914187697,-2.03098e-05,0.2445880914187697,1.5904289731111894e-05,0.2445880914187697,-1.0031870595683184e-05
0.2453822085987008,-7.623232222667411e-06,0.2453822085987008,-2.03098e-05,0.2453822085987008,2.1059470221866076e-05,0.2453822085987008,-1.0258373384348096e-05
0.2461763257786318,-6.88182e-06,0.2461763257786318,-1.9035829628023317e-05,0.2461763257786318,1.999574424180188e-05,0.2461763257786318,-9.85438184376698e-06
0.2469704429585629,-8.934746490897753e-06,0.2469704429585629,-1.938045742957211e-05,0.2469704429585629,1.878946587727556e-05,0.2469704429585629,-1.0277541202422246e-05
0.247764560138494,-8.817084380917501e-06,0.247764560138494,-2.0655464663361568e-05,0.247764560138494,1.748634628550501e-05,0.247764560138494,-9.893674071660026e-06
0.2485586773184251,-7.928360426686863e-06,0.2485586773184251,-1.830632080496604e-05,0.2485586773184251,1.1838027773464602e-05,0.2485586773184251,-6.012795905819467e-06
0.2493527944983561,-7.987521974734069e-06,0.2493527944983561,-2.238217261279567e-05,0.2493527944983561,5.588869805825297e-06,0.2493527944983561,-6.387703083316464e-06
0.2501469116782872,-6.635502201282639e-06,0.2501469116782872,-2.058600768083932e-05,0.2501469116782872,2.479138059341666e-06,0.2501469116782872,-9.626576828388197e-06
0.2509410288582183,-5.558542510570511e-06,0.2509410288582183,-1.821695139658321e-05,0.2509410288582183,5.815999023325002e-07,0.2509410288582183,-1.059401309183628e-05
0.2517351460381494,-5.746438642696617e-06,0.2517351460381494,-2.129612167637857e-05,0.2517351460381494,3.385708645021759e-06,0.2517351460381494,-1.0653637285393232e-05
0.2525292632180804,-5.361284210964827e-06,0.2525292632180804,-2.163268461092716e-05,0.2525292632180804,3.7025757890351727e-06,0.2525292632180804,-9.745150494254444e-06
0.2533233803980115,-6.091730353173944e-06,0.2533233803980115,-2.2312795056223337e-05,0.2533233803980115,6.744529598086202e-06,0.2533233803980115,-9.014701414645756e-06
0.2541174975779426,-4.3536189297606e-06,0.2541174975779426,-2.228579437496052e-05,0.2541174975779426,9.824406707214798e-06,0.2541174975779426,-1.0752812242334496e-05
0.2549116147578736,-4.7888266078592695e-06,0.2549116147578736,-1.936166142070412e-05,0.2549116147578736,9.112977073709316e-06,0.2549116147578736,-1.351699660785927e-05
0.2557057319378047,-7.563007791407063e-06,0.2557057319378047,-2.0665898221498895e-05,0.2557057319378047,4.591474591107854e-06,0.2557057319378047,-1.138417672464066e-05
0.2564998491177358,-8.224664346755457e-06,0.2564998491177358,-1.930299278136466e-05,0.2564998491177358,-3.0198226440782894e-06,0.2564998491177358,-1.2588156532445428e-05
0.2572939662976669,-6.64504949220051e-06,0.2572939662976669,-2.135691569269189e-05,0.2572939662976669,-4.53193e-06,0.2572939662976669,-1.469126153469202e-05
0.2580880834775979,-7.157719885718839e-06,0.2580880834775979,-2.29953e-05,0.2580880834775979,-5.61717571925616e-06,0.2580880834775979,-1.331990011428116e-05
0.258882200657529,-7.544987799362927e-06,0.258882200657529,-2.2699214198331653e-05,0.258882200657529,-7.866252692143718e-06,0.258882200657529,-1.29244e-05
0.2596763178374601,-5.382017508738907e-06,0.2596763178374601,-2.307447076167445e-05,0.2596763178374601,-1.1343347622621013e-05,0.2596763178374601,-1.29244e-05
0.2604704350173911,-6.5848336080533e-06,0.2604704350173911,-2.4100632698798487e-05,0.2604704350173911,-9.489978072198494e-06,0.2604704350173911,-1.0377614793960025e-05
0.2612645521973222,-5.973662655791431e-06,0.2612645521973222,-2.43381e-05,0.2612645521973222,-3.7032757689117233e-06,0.2612645521973222,-1.0909607381628982e-05
0.2620586693772533,-4.88736094635712e-06,0.2620586693772533,-2.3391246846585104e-05,0.2620586693772533,9.879074652561518e-08,0.2620586693772533,-1.5462014963544965e-05
0.2628527865571843,-4.304804244351385e-06,0.2628527865571843,-2.1673203682105647e-05,0.2628527865571843,-2.1620854661083114e-06,0.2628527865571843,-1.4070006045188915e-05
0.2636469037371154,-6.0123381702390905e-06,0.2636469037371154,-2.1158951192869563e-05,0.2636469037371154,-2.4186958475253206e-06,0.2636469037371154,-1.316105584752532e-05
0.2644410209170465,-6.745269069336577e-06,0.2644410209170465,-2.2047274235979893e-05,0.2644410209170465,-4.166968961766055e-06,0.2644410209170465,-1.430621471764526e-05
0.2652351380969776,-5.558150333134178e-06,0.2652351380969776,-2.09812e-05,0.2652351380969776,-3.5644015030521736e-06,0.2652351380969776,-1.49386e-05
0.2660292552769086,-7.869112275458545e-06,0.2660292552769086,-1.9835666693963635e-05,0.2660292552769086,-3.1200619696683056e-06,0.2660292552769086,-1.197670905847778e-05
0.2668233724568397,-5.8450500066941e-06,0.2668233724568397,-2.015065872123926e-05,0.2668233724568397,-2.300719973223602e-06,0.2668233724568397,-9.992118818164145e-06
0.2676174896367708,-7.336778690003694e-06,0.2676174896367708,-2.16526e-05,0.2676174896367708,-3.4461252413581284e-06,0.2676174896367708,-1.2036564551333074e-05
0.2684116068167018,-8.204673240396383e-06,0.2684116068167018,-2.196864105658344e-05,0.2684116068167018,-2.1421505967752032e-06,0.2684116068167018,-1.2331820591181844e-05
0.2692057239966329,-5.815599321637077e-06,0.2692057239966329,-2.0747489432953472e-05,0.2692057239966329,1.0872614551667614e-07,0.2692057239966329,-1.1305023618663926e-05
0.269999841176564,-2.8541264819240017e-06,0.269999841176564,-1.8967e-05,0.269999841176564,-3.020546309601688e-06,0.269999841176564,-1.4434256324597892e-05
0.270793958356495,-4.846486370632726e-06,0.270793958356495,-2.218609338148462e-05,0.270793958356495,-1.0777098314007964e-06,0.270793958356495,-1.4189411351285194e-05
0.2715880755364261,-6.447242104922865e-06,0.2715880755364261,-2.113927615604565e-05,0.2715880755364261,8.39246e-07,0.2715880755364261,-1.1383844209845733e-05
0.2723821927163572,-6.288667289811242e-06,0.2723821927163572,-2.157341499931281e-05,0.2723821927163572,1.1831552366405335e-06,0.2723821927163572,-1.296352364490562e-05
0.2731763098962882,-7.572147962360405e-06,0.2731763098962882,-2.2244751281964776e-05,0.2731763098962882,3.070002369888324e-06,0.2731763098962882,-1.2983968815055838e-05
0.2739704270762193,-6.4880892003214765e-06,0.2739704270762193,-2.2086457796273653e-05,0.2739704270762193,1.84634e-06,0.2739704270762193,-1.24305226813022e-05
0.2747645442561504,-5.933598537566443e-06,0.2747645442561504,-2.3350576379071687e-05,0.2747645442561504,2.8333943599061315e-06,0.2747645442561504,-1.2253e-05
0.2755586614360815,-6.269630038112544e-06,0.2755586614360815,-2.4062667353134208e-05,0.2755586614360815,4.492456641258305e-06,0.2755586614360815,-9.883284507355251e-06
0.2763527786160125,-4.689794133533563e-06,0.2763527786160125,-2.09812e-05,0.2763527786160125,7.06900515628973e-06,0.2763527786160125,-9.093181022756168e-06
0.2771468957959436,-7.118464381498024e-06,0.2771468957959436,-2.1237920459919626e-05,0.2771468957959436,7.770591333891762e-06,0.2771468957959436,-1.1205987853668665e-05
0.2779410129758747,-7.84990732930641e-06,0.2779410129758747,-2.257086882817625e-05,0.2779410129758747,7.178516748382196e-06,0.2779410129758747,-1.2213996748382196e-05
0.2787351301558057,-6.704417453630942e-06,0.2787351301558057,-2.1505539961803536e-05,0.2787351301558057,6.802671273184528e-06,0.2787351301558057,-1.0555394907261885e-05
0.2795292473357368,-6.88182e-06,0.2795292473357368,-2.111961275997589e-05,0.2795292473357368,4.077920857165352e-06,0.2795292473357368,-1.0712628308627858e-05
0.2803233645156679,-5.87472e-06,0.2803233645156679,-2.1840301149652606e-05,0.2803233645156679,1.668338262785295e-06,0.2803233645156679,-1.2134331468198646e-05
0.2811174816955989,-7.652758981631254e-06,0.2811174816955989,-2.084311559689291e-05,0.2811174816955989,-4.977349081562635e-08,0.2811174816955989,-1.15816e-05
0.2819115988755301,-9.56741e-06,0.2819115988755301,-1.9855363128646675e-05,0.2819115988755301,3.031458535707393e-06,0.2819115988755301,-1.2351730949062251e-05
0.2827057160554611,-7.829812253521214e-06,0.2827057160554611,-1.9617981232440487e-05,0.2827057160554611,3.8111799141738736e-06,0.2827057160554611,-1.1798764786477252e-05
0.2834998332353922,-6.88182e-06,0.2834998332353922,-2.114862248220098e-05,0.2834998332353922,2.5181604686872885e-06,0.2834998332353922,-1.2924039595200632e-05
0.2842939504153233,-8.698128083544226e-06,0.2842939504153233,-2.142578263687725e-05,0.2842939504153233,1.2738809582278872e-06,0.2842939504153233,-1.1305963832911548e-05
0.2850880675952543,-8.146498678484536e-06,0.2850880675952543,-2.2679048346294583e-05,0.2850880675952543,1.9842784768320024e-06,0.2850880675952543,-1.2921897597974738e-05
0.2858821847751854,-7.55322e-06,0.2858821847751854,-2.260050027348851e-05,0.2858821847751854,1.1553822093180362e-06,0.2858821847751854,-1.6944575222806398e-05
0.2866763019551165,-6.448718143067687e-06,0.2866763019551165,-2.0299517820386555e-05,0.2866763019551165,1.697405435218852e-06,0.2866763019551165,-1.298676696296654e-05
0.2874704191350475,-4.946721519704432e-06,0.2874704191350475,-1.9834824305475644e-05,0.2874704191350475,6.924861017147419e-07,0.2874704191350475,-1.1955967842364544e-05
0.2882645363149786,-4.354046913898374e-06,0.2882645363149786,-2.16526e-05,0.2882645363149786,-1.2739165096041997e-06,0.2882645363149786,-1.2529857715254066e-05
0.2890586534949096,-4.551672412384576e-06,0.2890586534949096,-2.117919392984166e-05,0.2890586534949096,1.076228643793379e-06,0.2890586534949096,-1.1719789321907554e-05
0.2898527706748408,-3.5448254001604523e-06,0.2898527706748408,-2.113872761288649e-05,0.2898527706748408,2.18204e-06,0.2898527706748408,-1.1818725954649263e-05
0.2906468878547718,-4.19623e-06,0.2906468878547718,-2.1139169353191127e-05,0.2906468878547718,2.3003564577352834e-06,0.2906468878547718,-1.1167510020276485e-05
0.2914410050347029,-4.945612990427259e-06,0.2914410050347029,-2.0211023480481235e-05,0.2914410050347029,3.150148214409653e-06,0.2914410050347029,-9.96158767838552e-06
0.292235122214634,-6.723511104946889e-06,0.292235122214634,-2.052664307303518e-05,0.292235122214634,2.7742855524734448e-06,0.292235122214634,-1.193638220989378e-05
0.293029239394565,-4.8874559023369714e-06,0.293029239394565,-2.186977694652122e-05,0.293029239394565,5.993010539449534e-06,0.293029239394565,-1.19173e-05
0.2938233565744961,-7.69214482689976e-06,0.2938233565744961,-2.135669557296473e-05,0.2938233565744961,5.261909445695034e-06,0.2938233565744961,-1.2371657090379172e-05
0.2946174737544272,-9.014102121836334e-06,0.2946174737544272,-2.260005853318387e-05,0.2946174737544272,3.781802309644921e-06,0.2946174737544272,-1.233172886296251e-05
0.2954115909343582,-6.091765869361469e-06,0.2954115909343582,-2.2047301790175757e-05,0.2954115909343582,3.0111458622042e-06,0.2954115909343582,-1.017946999284273e-05
0.2962057081142893,-6.309114438638524e-06,0.2962057081142893,-2.1337329040589896e-05,0.2962057081142893,2.4583120339139127e-06,0.2962057081142893,-1.0041414062682398e-05
0.2969998252942204,-5.539407563183568e-06,0.2969998252942204,-1.9806595528499012e-05,0.2969998252942204,3.189265851895155e-06,0.2969998252942204,-9.56741e-06
0.2977939424741515,-5.341136617516769e-06,0.2977939424741515,-2.034975405450982e-05,0.2977939424741515,8.604731859650033e-07,0.2977939424741515,-1.1857213235033536e-05
0.2985880596540825,-6.980703628090863e-06,0.2985880596540825,-2.204662383749733e-05,0.2985880596540825,-2.457905487636548e-06,0.2985880596540825,-1.063433451236345e-05
0.2993821768340136,-5.382581284487024e-06,0.2993821768340136,-2.2699237310354765e-05,0.2993821768340136,-1.3541923330709078e-06,0.2993821768340136,-1.1738048715512976e-05
0.3001762940139447,-3.6439905129560775e-06,0.3001762940139447,-2.3074440001850872e-05,0.3001762940139447,1.082690984832749e-07,0.3001762940139447,-1.2096040769434116e-05
0.3009704111938757,-5.222652479760024e-06,0.3009704111938757,-2.2907404023729036e-05,0.3009704111938757,-3.453597111006261e-07,0.3009704111938757,-8.67985380059994e-06
0.3017645283738068,-5.53903e-06,0.3017645283738068,-2.061588995383014e-05,0.3017645283738068,1.3327454724761445e-06,0.3017645283738068,-7.325827226438965e-06
0.3025586455537379,-7.434731715878087e-06,0.3025586455537379,-2.0832682117043103e-05,0.3025586455537379,-4.936077470485351e-08,0.3025586455537379,-9.80435986127635e-06
0.3033527627336689,-9.448841289661663e-06,0.3033527627336689,-1.948088266014384e-05,0.3033527627336689,5.821006866893928e-07,0.3033527627336689,-1.09102e-05
0.3041468799136,-9.014320724721556e-06,0.3041468799136,-2.037886779283174e-05,0.3041468799136,2.08296144944311e-06,0.3041468799136,-8.69931526305222e-06
0.3049409970935311,-9.469959201092574e-06,0.3049409970935311,-2.38346e-05,0.3049409970935311,1.787869869005139e-06,0.3049409970935311,-8.341550378106253e-06
0.3057351142734621,-6.606218483125442e-06,0.3057351142734621,-2.148637674779015e-05,0.3057351142734621,9.675189726560552e-07,0.3057351142734621,-1.1264959327049403e-05
0.3065292314533932,-7.711146623582765e-06,0.3065292314533932,-1.898685375089077e-05,0.3065292314533932,2.0042713281203903e-06,0.3065292314533932,-1.3398193984361172e-05
0.3073233486333243,-9.014655648957004e-06,0.3073233486333243,-2.1709695102786177e-05,0.3073233486333243,2.577062824478502e-06,0.3073233486333243,-1.4790284103113474e-05
0.3081174658132554,-9.56741e-06,0.3081174658132554,-2.0962229349616274e-05,0.3081174658132554,1.8162855757324431e-06,0.3081174658132554,-1.3210310493484951e-05
0.3089115829931864,-6.466919011893016e-06,0.3089115829931864,-2.0606151294075875e-05,0.3089115829931864,2.1624863528245303e-06,0.3089115829931864,-1.4069690729435094e-05
0.3097057001731175,-6.605174822499505e-06,0.3097057001731175,-2.1830669656810102e-05,0.3097057001731175,4.729307411249752e-06,0.3097057001731175,-1.2490011294375124e-05
0.3104998173530486,-6.210946305421321e-06,0.3104998173530486,-2.0645854419546727e-05,0.3104998173530486,5.20333e-06,0.3104998173530486,-1.2420734231419648e-05
0.3112939345329796,-4.394134848510688e-06,0.3112939345329796,-1.9282733245775437e-05,0.3112939345329796,5.401231900866236e-06,0.3112939345329796,-1.5214190302978623e-05
0.3120880517129107,-4.472084021609252e-06,0.3120880517129107,-1.9696714219792733e-05,0.3120880517129107,4.669857010804626e-06,0.3120880517129107,-1.5403088940598126e-05
0.3128821688928418,-6.171313554135485e-06,0.3128821688928418,-2.1040279180450878e-05,0.3128821688928418,5.02735099360968e-06,0.3128821688928418,-1.3814180662406454e-05
0.3136762860727728,-6.150834022810838e-06,0.3136762860727728,-2.13169e-05,0.3136762860727728,1.0696115883384816e-06,0.3136762860727728,-1.2372171954378324e-05
0.314470403252704,-6.21042e-06,0.314470403252704,-2.1642286392555796e-05,0.314470403252704,-3.4245733465590484e-06,0.314470403252704,-1.1315368159363853e-05
0.315264520432635,-6.368214031053976e-06,0.315264520432635,-2.2116718195948127e-05,0.315264520432635,-4.6108270155269886e-06,0.315264520432635,-1.2825391046580964e-05
0.3160586376125661,-5.93398163523586e-06,0.3160586376125661,-2.0557303299104863e-05,0.3160586376125661,-5.815458953202581e-06,0.3160586376125661,-1.3911746121588048e-05
0.3168527547924971,-5.213341665028095e-06,0.3168527547924971,-2.16526e-05,0.3168527547924971,-6.328994443352064e-06,0.3168527547924971,-1.2510172216760316e-05
0.3176468719724282,-5.558241450995161e-06,0.3176468719724282,-2.2165933632160063e-05,0.3176468719724282,-3.940408565589106e-06,0.3176468719724282,-1.0002193540712706e-05
0.3184409891523593,-5.500061146464412e-06,0.3184409891523593,-2.309406626624426e-05,0.3184409891523593,-5.0943077846300995e-08,0.3184409891523593,-1.1027106560606764e-05
0.3192351063322903,-5.637224691386896e-06,0.3192351063322903,-2.3054738736512785e-05,0.3192351063322903,2.231141166576841e-06,0.3192351063322903,-1.29244e-05
0.3200292235122214,-5.89457348954856e-06,0.3200292235122214,-2.342967443910313e-05,0.3200292235122214,5.123930154907407e-06,0.3200292235122214,-1.234186071813141e-05
0.3208233406921525,-5.687320992450803e-06,0.3208233406921525,-2.0924128926115336e-05,0.3208233406921525,5.795202040595994e-06,0.3208233406921525,-1.2401283924580233e-05
0.3216174578720835,-6.822756153736931e-06,0.3216174578720835,-2.0664444967807776e-05,0.3216174578720835,3.86053e-06,0.3216174578720835,-1.3536730288991994e-05
0.3224115750520147,-6.980571768775629e-06,0.3224115750520147,-2.1968620510522783e-05,0.3224115750520147,3.4655288082319363e-06,0.3224115750520147,-1.4662207075102516e-05
0.3232056922319457,-8.22461e-06,0.3232056922319457,-2.102209917330117e-05,0.3232056922319457,1.8066889178334429e-06,0.3232056922319457,-1.5659326788216117e-05
0.3239998094118768,-8.22461e-06,0.3239998094118768,-2.1652106894543603e-05,0.3239998094118768,5.2022316275582426e-06,0.3239998094118768,-1.4267817816349672e-05
0.3247939265918079,-8.422526314538042e-06,0.3247939265918079,-2.1296943518805742e-05,0.3247939265918079,6.408336314538042e-06,0.3247939265918079,-1.2214174471807063e-05
0.3255880437717389,-6.468056166627308e-06,0.3255880437717389,-2.1297467063250946e-05,0.3255880437717389,4.4330406388954485e-06,0.3255880437717389,-9.765182830677312e-06
0.32638216095167,-5.656330973800713e-06,0.32638216095167,-2.0586431092579507e-05,0.32638216095167,6.920920712850787e-06,0.32638216095167,-1.0098603564253935e-05
0.3271762781316011,-6.96028245314963e-06,0.3271762781316011,-2.303485974765095e-05,0.3271762781316011,4.870607657004704e-06,0.3271762781316011,-1.323824981259852e-05
0.3279703953115321,-6.88182e-06,0.3279703953115321,-2.2354799310981745e-05,0.3279703953115321,-7.196441760907861e-07,0.3279703953115321,-1.2036901007710872e-05
0.3287645124914632,-7.711000239578325e-06,0.3287645124914632,-2.1237797091909208e-05,0.3287645124914632,-6.118156518128602e-07,0.3287645124914632,-1.122576517926358e-05
0.3295586296713942,-8.22461e-06,0.3295586296713942,-2.1415912344832587e-05,0.3295586296713942,-1.8265803885743184e-06,0.3295586296713942,-1.2253e-05
0.3303527468513254,-7.671796644039974e-06,0.3303527468513254,-2.0191665675669637e-05,0.3303527468513254,7.00623180095349e-07,0.3303527468513254,-1.0041727173137229e-05
0.3311468640312564,-8.56031e-06,0.3311468640312564,-2.121808775975318e-05,0.3311468640312564,-2.022232948609124e-06,0.3311468640312564,-9.250904252124751e-06
0.3319409812111875,-7.711330653122966e-06,0.3319409812111875,-2.2126407140249724e-05,0.3319409812111875,-5.480593918737796e-06,0.3319409812111875,-1.0593978693754069e-05
0.3327350983911186,-7.0401632193196936e-06,0.3327350983911186,-2.110008774605582e-05,0.3327350983911186,-4.788458390340153e-06,0.3327350983911186,-1.09102e-05
0.3335292155710496,-5.805694874149498e-06,0.3335292155710496,-2.100102293179981e-05,0.3335292155710496,-5.894584930800397e-06,0.3335292155710496,-1.1087980113301797e-05
0.3343233327509807,-5.440573765427815e-06,0.3343233327509807,-2.224428995333336e-05,0.3343233327509807,-4.986252766112523e-06,0.3343233327509807,-1.1818845532225044e-05
0.3351174499309118,-7.435075108432812e-06,0.3351174499309118,-2.137647228590716e-05,0.3351174499309118,-7.020613020507786e-06,0.3351174499309118,-1.440599184738802e-05
0.3359115671108428,-5.894336860476027e-06,0.3359115671108428,-2.034916925198481e-05,0.3359115671108428,-7.3557221954624705e-06,0.3359115671108428,-1.2825419759162237e-05
0.3367056842907739,-4.19623e-06,0.3367056842907739,-2.0803120070159555e-05,0.3367056842907739,-7.691558460252275e-06,0.3367056842907739,-9.962116018942563e-06
0.337499801470705,-5.035122455556155e-06,0.337499801470705,-2.165234317424149e-05,0.337499801470705,-4.86863112018248e-06,0.337499801470705,-1.09102e-05
0.338293918650636,-3.920685561130884e-06,0.338293918650636,-2.074436114154205e-05,0.338293918650636,2.376080489717208e-06,0.338293918650636,-1.1284708329151835e-05
0.3390880358305671,-4.688019160365582e-06,0.3390880358305671,-2.122671120093545e-05,0.3390880358305671,9.208198320731162e-06,0.3390880358305671,-1.4216399410010102e-05
0.3398821530104982,-6.647251285558278e-06,0.3398821530104982,-2.278783957762207e-05,0.3398821530104982,1.52432382523342e-05,0.3398821530104982,-1.4704030120977408e-05
0.3406762701904293,-4.315424837222675e-06,0.3406762701904293,-2.151415293508768e-05,0.3406762701904293,1.821411806972064e-05,0.3406762701904293,-1.1267784511668025e-05
0.3414703873703603,-3.6830359222532982e-06,0.3414703873703603,-1.993529348515148e-05,0.3414703873703603,2.4623655708526584e-05,0.3414703873703603,-1.0011166343497256e-05
0.3422645045502914,-5.005241094745813e-06,0.3422645045502914,-2.045775880270632e-05,0.3422645045502914,2.407211759300827e-05,0.3422645045502914,-1.1996185574104813e-05
0.3430586217302225,-6.862054655560629e-06,0.3430586217302225,-2.1504059044884704e-05,0.3430586217302225,1.981628221215438e-05,0.3430586217302225,-1.067332672219685e-05
0.3438527389101535,-5.8354912409521445e-06,0.3438527389101535,-2.1138686520765112e-05,0.3438527389101535,1.354738380158784e-05,0.3438527389101535,-1.221288454372312e-05
0.3446468560900846,-5.08503647431955e-06,0.3446468560900846,-2.2422607866503287e-05,0.3446468560900846,6.232811211834354e-06,0.3446468560900846,-1.40306129486391e-05
0.3454409732700157,-5.509820558889431e-06,0.3454409732700157,-2.374577532345615e-05,0.3454409732700157,1.8366035196298104e-06,0.3454409732700157,-1.219458111777886e-05
0.3462350904499467,-4.907218665185485e-06,0.3462350904499467,-2.37855980190862e-05,0.3462350904499467,-1.7845507571399654e-06,0.3462350904499467,-1.12459e-05
0.3470292076298778,-5.499281959922003e-06,0.3470292076298778,-2.3232305014836187e-05,0.3470292076298778,-5.243068040077997e-06,0.3470292076298778,-1.2331933562861588e-05
0.3478233248098089,-6.21042e-06,0.3478233248098089,-2.4554351761458804e-05,0.3478233248098089,-3.6434413246903553e-06,0.3478233248098089,-1.2509767326651866e-05
0.34861744198974,-6.803045272927822e-06,0.34861744198974,-2.3785865117875012e-05,0.34861744198974,-4.492542636463911e-06,0.34861744198974,-1.3517025272927822e-05
0.349411559169671,-6.289343785428598e-06,0.349411559169671,-2.2047363422237454e-05,0.349411559169671,-2.7348675968976928e-06,0.349411559169671,-1.1996223785428597e-05
0.3502056763496021,-6.743463013167461e-06,0.3502056763496021,-2.11592850663556e-05,0.3502056763496021,-2.497897259875596e-06,0.3502056763496021,-1.0673171506583731e-05
0.3509997935295332,-8.224163788964831e-06,0.3509997935295332,-2.2658932292810323e-05,0.3509997935295332,-2.85344e-06,0.3509997935295332,-1.1078025608602203e-05
0.3517939107094642,-7.277695545029012e-06,0.3517939107094642,-2.2284081099041188e-05,0.3517939107094642,-2.18204e-06,0.3517939107094642,-1.2341261200974948e-05
0.3525880278893953,-6.959849435290441e-06,0.3525880278893953,-1.9599554672562512e-05,0.3525880278893953,-1.3545848267331057e-06,0.3525880278893953,-1.387161962352696e-05
0.3533821450693264,-7.990075683469659e-06,0.3533821450693264,-1.916437418067992e-05,0.3533821450693264,1.1265692905805485e-07,0.3533821450693264,-1.4110843012706377e-05
0.3541762622492574,-6.4865168606775385e-06,0.3541762622492574,-2.03098e-05,0.3541762622492574,-5.062206660908523e-06,0.3541762622492574,-1.2372206278644922e-05
0.3549703794291886,-6.349354928893091e-06,0.3549703794291886,-2.03098e-05,0.3549703794291886,-4.553200966380578e-06,0.3549703794291886,-1.3209882814063656e-05
0.3557644966091196,-5.20333e-06,0.3557644966091196,-1.953942764301699e-05,0.3557644966091196,-1.6097018496465242e-06,0.3557644966091196,-1.2194300733031563e-05
0.3565586137890507,-6.309071817864928e-06,0.3565586137890507,-2.1118854803785843e-05,0.3565586137890507,1.3722432823593934e-06,0.3565586137890507,-9.014635875767816e-06
0.3573527309689818,-7.276815821196564e-06,0.3573527309689818,-2.23239e-05,0.3573527309689818,3.426319752118923e-06,0.3573527309689818,-5.776209752118923e-06
0.3581468481489128,-6.763532207333238e-06,0.3581468481489128,-2.129721790068349e-05,0.3581468481489128,7.017927053106707e-07,0.3581468481489128,-8.104674921384604e-06
0.3589409653288439,-6.8623527722733485e-06,0.3589409653288439,-2.1356347341002525e-05,0.3589409653288439,-2.5761411032804085e-06,0.3589409653288439,-1.2291934455453302e-05
0.3597350825087749,-6.033086102164189e-06,0.3597350825087749,-2.147423756182513e-05,0.3597350825087749,-1.985735947748121e-06,0.3597350825087749,-1.29244e-05
0.360529199688706,-6.012750631972064e-06,0.360529199688706,-2.3212502629097063e-05,0.360529199688706,9.883674324277202e-08,0.360529199688706,-1.1443574664171957e-05
0.3613233168686371,-6.763220116731827e-06,0.3613233168686371,-2.122011537476541e-05,0.3613233168686371,1.0854941165719507e-07,0.3613233168686371,-1.1729841021803171e-05
0.3621174340485681,-6.506726903450183e-06,0.3621174340485681,-2.0546647354055096e-05,0.3621174340485681,1.2845613814244674e-07,0.3621174340485681,-1.316161139131885e-05
0.3629115512284993,-6.88182e-06,0.3629115512284993,-2.159351530293185e-05,0.3629115512284993,-3.653347502279006e-07,0.3629115512284993,-1.3793286338510113e-05
0.3637056684084303,-8.32327577357003e-06,0.3637056684084303,-2.0241208779104683e-05,0.3637056684084303,-2.4287044339250765e-06,0.3637056684084303,-1.383283422642997e-05
0.3644997855883614,-7.218137832197875e-06,0.3644997855883614,-2.165190657045201e-05,0.3644997855883614,-1.511335066398856e-06,0.3644997855883614,-1.124698121439822e-05
0.3652939027682925,-7.828711523087011e-06,0.3652939027682925,-2.267952566210326e-05,0.3652939027682925,1.872358500330623e-07,0.3652939027682925,-1.0948973931069586e-05
0.3660880199482235,-8.068589635457222e-06,0.3660880199482235,-2.297588247279645e-05,0.3660880199482235,-8.183589892595138e-07,0.3660880199482235,-1.164149184250045e-05
0.3668821371281546,-4.828546486190318e-06,0.3668821371281546,-2.1475444528292472e-05,0.3668821371281546,-8.507661776091356e-07,0.3668821371281546,-1.1659767027619364e-05
0.3676762543080857,-6.188468615457396e-06,0.3676762543080857,-2.0546633190814782e-05,0.3676762543080857,2.130283830308901e-06,0.3676762543080857,-1.390954683979877e-05
0.3684703714880167,-7.869650014292778e-06,0.3684703714880167,-2.0565470709864563e-05,0.3684703714880167,3.505570014292778e-06,0.3684703714880167,-1.21759389094039e-05
0.3692644886679478,-6.0324682653651456e-06,0.3692644886679478,-2.188928946908198e-05,0.3692644886679478,5.18312418118806e-06,0.3692644886679478,-1.0060848265365144e-05
0.3700586058478789,-8.75757291585406e-06,0.3700586058478789,-2.29953e-05,0.3700586058478789,7.158189568599646e-06,0.3700586058478789,-1.0890423189533217e-05
0.3708527230278099,-9.448812624593143e-06,0.3708527230278099,-2.394443506323881e-05,0.3708527230278099,7.88891e-06,0.3708527230278099,-9.913152530272172e-06
0.371646840207741,-7.810626314659713e-06,0.371646840207741,-2.0477819944569964e-05,0.371646840207741,4.730201761387868e-06,0.371646840207741,-1.0969358647053156e-05
0.3724409573876721,-6.998588388548769e-06,0.3724409573876721,-1.926323727908568e-05,0.3724409573876721,3.2086009149841555e-06,0.3724409573876721,-1.0949122989425843e-05
0.3732350745676032,-8.89601e-06,0.3732350745676032,-1.969785928257344e-05,0.3732350745676032,2.498792728257734e-06,0.3732350745676032,-1.2094622456413705e-05
0.3740291917475342,-6.250213805425921e-06,0.3740291917475342,-1.9203984468775495e-05,0.3740291917475342,5.03548e-07,0.3740291917475342,-1.2114991826305264e-05
0.3748233089274653,-5.53903e-06,0.3748233089274653,-2.0526021001635147e-05,0.3748233089274653,2.1428093383288168e-06,0.3748233089274653,-1.1759482662768887e-05
0.3756174261073964,-4.946427659127012e-06,0.3756174261073964,-2.1809449562441365e-05,0.3756174261073964,3.821131170436495e-06,0.3756174261073964,-1.347760351130948e-05
0.3764115432873274,-6.328946539334261e-06,0.3764115432873274,-2.29953e-05,0.3764115432873274,1.530340502108802e-06,0.3764115432873274,-1.6538141816489202e-05
0.3772056604672585,-7.355899918887372e-06,0.3772056604672585,-2.216634228745289e-05,0.3772056604672585,8.885771958520689e-07,0.3772056604672585,-1.4919379716105803e-05
0.3779997776471896,-5.87520053973249e-06,0.3779997776471896,-2.19883e-05,0.3779997776471896,1.1748599148161046e-06,0.3779997776471896,-1.2253480539732488e-05
0.3787938948271206,-5.786479774811325e-06,0.3787938948271206,-2.09812e-05,0.3787938948271206,-4.433234118035394e-07,0.3787938948271206,-1.35958e-05
0.3795880120070517,-5.8837717565550615e-06,0.3795880120070517,-2.169141899871641e-05,0.3795880120070517,-1.6485383457360636e-06,0.3795880120070517,-1.1839304962791808e-05
0.3803821291869828,-7.139364438408013e-06,0.3803821291869828,-2.192923097645168e-05,0.3803821291869828,-2.9315943975234498e-06,0.3803821291869828,-9.805406712078551e-06
0.3811762463669139,-6.270034580744663e-06,0.3811762463669139,-2.2402978482203834e-05,0.3811762463669139,-4.629171677021351e-06,0.3811762463669139,-1.0030150743222718e-05
0.3819703635468449,-5.627763171035314e-06,0.3819703635468449,-2.256145975847458e-05,0.3819703635468449,-7.591722375682247e-06,0.3819703635468449,-1.177833074684023e-05
0.382764480726776,-6.309517113457353e-06,0.382764480726776,-2.1929128362276062e-05,0.382764480726776,-8.0082334655714e-06,0.382764480726776,-1.3536127695041114e-05
0.3835585979067071,-4.907195086960951e-06,0.3835585979067071,-2.0942598554144756e-05,0.3835585979067071,-2.7353467997005703e-06,0.3835585979067071,-1.5540758151356694e-05
0.3843527150866381,-6.407411099326548e-06,0.3843527150866381,-2.1849407901169076e-05,0.3843527150866381,1.4905327945435776e-06,0.3843527150866381,-1.6400003108420587e-05
0.3851468322665692,-5.756447196635205e-06,0.3851468322665692,-2.210681917877141e-05,0.3851468322665692,3.780518109922173e-06,0.3851468322665692,-1.564999156702889e-05
0.3859409494465003,-4.167046357451089e-06,0.3859409494465003,-2.1850051852760877e-05,0.3859409494465003,6.779587981275314e-06,0.3859409494465003,-1.4977511523398548e-05
0.3867350666264313,-6.129474680294776e-06,0.3867350666264313,-2.121903996279494e-05,0.3867350666264313,1.3139555074957377e-05,0.3867350666264313,-1.4070966955025575e-05
0.3875291838063624,-7.099429684246218e-06,0.3875291838063624,-1.9401425804254885e-05,0.3875291838063624,1.4878882023122729e-05,0.3875291838063624,-8.304238672684852e-06
0.3883233009862935,-4.19623e-06,0.3883233009862935,-2.0150474162298023e-05,0.3883233009862935,1.873020708153138e-05,0.3883233009862935,-8.461764000847515e-06
0.3891174181662246,-6.566584673185002e-06,0.3891174181662246,-2.137651337802858e-05,0.3891174181662246,1.938150912515447e-05,0.3891174181662246,-9.122966843865851e-06
0.3899115353461556,-8.501060255034608e-06,0.3899115353461556,-2.0349210344106192e-05,0.3899115353461556,1.4918801530207652e-05,0.3899115353461556,-1.0426416171208872e-05
0.3907056525260867,-6.21042e-06,0.3907056525260867,-2.194725114985872e-05,0.3907056525260867,6.705064187016499e-06,0.3907056525260867,-1.1186982769829498e-05
0.3914997697060178,-7.217022298134138e-06,0.3914997697060178,-2.198859787350725e-05,0.3914997697060178,2.182869498167837e-06,0.3914997697060178,-9.735508845991e-06
0.3922938868859488,-8.22461e-06,0.3922938868859488,-2.200815215132459e-05,0.3922938868859488,-5.810231941114384e-07,0.3922938868859488,-1.387125271064978e-05
0.3930880040658799,-7.001649549110499e-06,0.3930880040658799,-2.090357098330716e-05,0.3930880040658799,-3.051247387277625e-06,0.3930880040658799,-1.2243947930122465e-05
0.393882121245811,-5.991936143346795e-06,0.393882121245811,-2.023047631340321e-05,0.393882121245811,-3.0487990750135653e-06,0.393882121245811,-1.209671180887094e-05
0.394676238425742,-7.019859849272107e-06,0.394676238425742,-2.345936588553536e-05,0.394676238425742,-4.808009698544214e-06,0.394676238425742,-1.09102e-05
0.3954703556056732,-5.323069312089351e-06,0.3954703556056732,-2.2620880231519293e-05,0.3954703556056732,-4.458191745072217e-07,0.3954703556056732,-1.253842274915324e-05
0.3962644727856042,-3.998006147562372e-06,0.3962644727856042,-2.177091537760332e-05,0.3962644727856042,1.7797355715977253e-07,0.3962644727856042,-1.2608949234958418e-05
0.3970585899655353,-6.802667483486292e-06,0.3970585899655353,-2.137732241014574e-05,0.3970585899655353,4.540775445497333e-07,0.3970585899655353,-9.686139069502117e-06
0.3978527071454664,-6.88182e-06,0.3978527071454664,-2.09812e-05,0.3978527071454664,9.377251436751862e-07,0.3978527071454664,-9.882977008876846e-06
0.3986468243253974,-5.638182335852488e-06,0.3986468243253974,-2.0724525768716907e-05,0.3986468243253974,-9.95739984586099e-07,0.3986468243253974,-1.0879747143464847e-05
0.3994409415053285,-5.577929477983881e-06,0.3994409415053285,-2.18204e-05,0.3994409415053285,-5.53903e-06,0.3994409415053285,-1.1464900407273937e-05
0.4002350586852595,-7.236419147138454e-06,0.4002350586852595,-2.11298650314647e-05,0.4002350586852595,-4.256531066076932e-06,0.4002350586852595,-9.054410426430772e-06
0.4010291758651906,-6.812833075285943e-06,0.4010291758651906,-2.1336645884072283e-05,0.4010291758651906,-1.8264225662854085e-06,0.4010291758651906,-1.220315641571352e-05
0.4018232930451217,-6.644690647942127e-06,0.4018232930451217,-2.435511917821993e-05,0.4018232930451217,-4.19623e-06,0.4018232930451217,-1.2015868881996952e-05
0.4026174102250527,-5.53903e-06,0.4026174102250527,-2.4990709127647214e-05,0.4026174102250527,-4.344374852204538e-06,0.4026174102250527,-1.1502779408818152e-05
0.4034115274049838,-5.53903e-06,0.4034115274049838,-2.3370420617136496e-05,0.4034115274049838,-2.991670860530993e-06,0.4034115274049838,-1.3487138278938016e-05
0.4042056445849149,-5.380747072257915e-06,0.4042056445849149,-2.133741122483258e-05,0.4042056445849149,-1.3133446140981405e-06,0.4042056445849149,-1.2055702850942203e-05
0.404999761764846,-6.881476757333845e-06,0.404999761764846,-2.11489229752238e-05,0.404999761764846,1.6772028471591982e-06,0.404999761764846,-1.1749314214895172e-05
0.4057938789447771,-5.145243550240697e-06,0.4057938789447771,-1.995420515698781e-05,0.4057938789447771,4.36408e-06,0.4057938789447771,-1.182906664417862e-05
0.4065879961247081,-5.91370031956297e-06,0.4065879961247081,-1.939971058829027e-05,0.4065879961247081,3.111173468317602e-06,0.4065879961247081,-1.02388e-05
0.4073821133046392,-6.21042e-06,0.4073821133046392,-2.2165263019024592e-05,0.4073821133046392,3.5523115738426825e-07,0.4073821133046392,-1.1402165259074146e-05
0.4081762304845703,-6.762567955666325e-06,0.4081762304845703,-2.26200710121726e-05,0.4081762304845703,1.4698003433519576e-06,0.4081762304845703,-1.25887e-05
0.4089703476645013,-6.88182e-06,0.4089703476645013,-2.23239e-05,0.4089703476645013,8.799001239270186e-07,0.4089703476645013,-9.015777915474464e-06
0.4097644648444324,-8.56031e-06,0.4097644648444324,-2.0862877270612885e-05,0.4097644648444324,1.4757629826298956e-07,0.4097644648444324,-8.184071066332178e-06
0.4105585820243635,-6.033071486429253e-06,0.4105585820243635,-1.9836486209312203e-05,0.4105585820243635,2.4385639619684317e-06,0.4105585820243635,-1.2134235942952646e-05
0.4113526992042945,-5.183186276656036e-06,0.4113526992042945,-2.1138635155613424e-05,0.4113526992042945,3.741915425552012e-06,0.4113526992042945,-1.1601743723343964e-05
0.4121468163842256,-7.661937569694035e-06,0.4121468163842256,-2.1139261810464196e-05,0.4121468163842256,2.9526102787761445e-06,0.4121468163842256,-9.153482987858254e-06
0.4129409335641567,-7.55322e-06,0.4129409335641567,-2.1415630379783493e-05,0.4129409335641567,2.1237071129844277e-06,0.4129409335641567,-1.1026865774031144e-05
0.4137350507440878,-6.0142632441327295e-06,0.4137350507440878,-2.1790671512250343e-05,0.4137350507440878,9.184505182708148e-07,0.4137350507440878,-1.29244e-05
0.4145291679240188,-5.81493867141526e-06,0.4145291679240188,-2.0497395109603083e-05,0.4145291679240188,1.155014302958597e-06,0.4145291679240188,-1.35958e-05
0.4153232851039499,-9.083517353025906e-06,0.4153232851039499,-1.93027e-05,0.4153232851039499,2.142420294236267e-06,0.4153232851039499,-1.3753668823631086e-05
0.416117402283881,-7.651758897367094e-06,0.416117402283881,-2.05074669620446e-05,0.416117402283881,5.823791178936763e-07,0.416117402283881,-1.1739264114418443e-05
0.416911519463812,-5.95373566277317e-06,0.416911519463812,-2.1257753664749783e-05,0.416911519463812,4.443209517311447e-07,0.416911519463812,-1.2371453625821114e-05
0.4177056366437431,-4.670344316969663e-06,0.4177056366437431,-2.2728160404864463e-05,0.4177056366437431,2.221022689910981e-06,0.4177056366437431,-1.42672e-05
0.4184997538236742,-3.1896720208496103e-06,0.4184997538236742,-2.4337463072118995e-05,0.4184997538236742,5.2024432897793925e-06,0.4184997538236742,-1.2925109368176485e-05
0.4192938710036052,-4.94504026981017e-06,0.4192938710036052,-2.2915814681730354e-05,0.4192938710036052,6.279271711635028e-06,0.4192938710036052,-1.1818301711635028e-05
0.4200879881835363,-5.736842960577847e-06,0.4200879881835363,-2.03679909434286e-05,0.4200879881835363,7.415338853305081e-06,0.4200879881835363,-1.20461577435938e-05
0.4208821053634674,-6.741421745218237e-06,0.4208821053634674,-2.072485450568778e-05,0.4208821053634674,5.796600000046427e-06,0.4208821053634674,-1.315079669041335e-05
0.4216762225433985,-8.22461e-06,0.4216762225433985,-2.038884772238025e-05,0.4216762225433985,6.5836630619505005e-06,0.4216762225433985,-1.2491526971511817e-05
0.4224703397233295,-6.17198627233977e-06,0.4224703397233295,-2.2282563654639816e-05,0.4224703397233295,6.428560862819661e-06,0.4224703397233295,-1.110687926044029e-05
0.4232644569032606,-6.940373900330352e-06,0.4232644569032606,-2.4911188162320183e-05,0.4232644569032606,6.032422499676375e-06,0.4232644569032606,-1.2845548750161811e-05
0.4240585740831917,-7.11896850902101e-06,0.4240585740831917,-2.1891846982208145e-05,0.4240585740831917,4.018927350368303e-06,0.4240585740831917,-1.227279974252162e-05
0.4248526912631227,-8.30291199621277e-06,0.4248526912631227,-2.226378182089189e-05,0.4248526912631227,-4.9229399242553935e-08,0.4248526912631227,-1.25887e-05
0.4256468084430538,-6.271450501976303e-06,0.4256468084430538,-2.2649872083494502e-05,0.4256468084430538,-1.0757621415391489e-06,0.4256468084430538,-1.2943477382794715e-05
0.4264409256229849,-3.819030078232184e-06,0.4264409256229849,-2.0112349493707568e-05,0.4264409256229849,-3.2668936715868605e-06,0.4264409256229849,-1.35958e-05
0.4272350428029159,-6.3876966907248725e-06,0.4272350428029159,-1.9914620171365867e-05,0.4272350428029159,-3.762464963912691e-06,0.4272350428029159,-1.2569846618550254e-05
0.428029159982847,-5.716844861283449e-06,0.428029159982847,-1.805865662334588e-05,0.428029159982847,-1.1948831383614038e-06,0.428029159982847,-1.1423720158279524e-05
0.4288232771627781,-6.0525340142357615e-06,0.4288232771627781,-1.93993189639763e-05,0.4288232771627781,-1.17494e-06,0.4288232771627781,-1.0357342676157174e-05
0.4296173943427092,-5.400437633776488e-06,0.4296173943427092,-2.110048839423915e-05,0.4296173943427092,-2.063774715144981e-06,0.4296173943427092,-1.179903471514498e-05
0.4304115115226402,-5.657454811797972e-06,0.4304115115226402,-2.03098e-05,0.4304115115226402,-2.8337340249228037e-06,0.4304115115226402,-1.300342697967535e-05
0.4312056287025713,-7.355945782996959e-06,0.4312056287025713,-2.1495015885446634e-05,0.4312056287025713,6.021845208511865e-07,0.4312056287025713,-1.071292578299696e-05
0.4319997458825024,-6.210786125510491e-06,0.4319997458825024,-2.0310293105456325e-05,0.4319997458825024,-1.5093585683477142e-06,0.4319997458825024,-1.0909833874489509e-05
0.4327938630624334,-7.118515978621299e-06,0.4327938630624334,-2.0665374296951505e-05,0.4327938630624334,-7.618704740088933e-07,0.4327938630624334,-1.06735040213787e-05
0.4335879802423645,-7.82896672026052e-06,0.4335879802423645,-2.13169e-05,0.4335879802423645,8.21267449405918e-07,0.4335879802423645,-9.84315672026052e-06
0.4343820974222956,-8.087919192791366e-06,0.4343820974222956,-2.1711586723177807e-05,0.4343820974222956,-1.873763080320373e-07,0.4343820974222956,-1.2253e-05
0.4351762146022266,-6.083451122561772e-06,0.4351762146022266,-2.4081437469105763e-05,0.4351762146022266,-1.025847762235851e-06,0.4351762146022266,-1.0320562245123544e-05
0.4359703317821577,-4.53193e-06,0.4359703317821577,-2.402310127589383e-05,0.4359703317821577,-1.294330405777961e-07,0.4359703317821577,-8.402064032769013e-06
0.4367644489620888,-5.667449584126637e-06,0.4367644489620888,-2.23239e-05,0.4367644489620888,5.03548e-07,0.4367644489620888,-1.112641870388951e-05
0.4375585661420199,-4.907240951070618e-06,0.4375585661420199,-2.327048656827749e-05,0.4375585661420199,1.7671185698391165e-06,0.4375585661420199,-1.3872083573394074e-05
0.438352683321951,-5.498667290839727e-06,0.438352683321951,-2.4101978085670797e-05,0.438352683321951,4.057429371790484e-06,0.438352683321951,-1.2490252080950758e-05
0.439146800501882,-7.671469871993073e-06,0.439146800501882,-2.2561023534787295e-05,0.439146800501882,5.5199633388379065e-06,0.439146800501882,-1.12459e-05
0.4399409176818131,-8.302341318577601e-06,0.4399409176818131,-2.1751320126508952e-05,0.4399409176818131,4.964793569347125e-06,0.4399409176818131,-1.4106395466799604e-05
0.4407350348617442,-9.823884984418268e-06,0.4407350348617442,-2.2816862824231973e-05,0.4407350348617442,6.930843936977029e-06,0.4407350348617442,-1.7978730498605412e-05
0.4415291520416752,-8.915961757981176e-06,0.4415291520416752,-2.163290034456429e-05,0.4415291520416752,4.216181757981175e-06,0.4415291520416752,-1.4189132910915288e-05
0.4423232692216063,-5.914093678596625e-06,0.4423232692216063,-2.2460352041430897e-05,0.4423232692216063,6.7831807040359125e-06,0.4423232692216063,-1.362542398151403e-05
0.4431173864015373,-4.235657494632068e-06,0.4431173864015373,-2.270058176043844e-05,0.4431173864015373,6.555692551358318e-06,0.4431173864015373,-1.3615507874886092e-05
0.4439115035814684,-7.000227761711513e-06,0.4439115035814684,-2.036897715434125e-05,0.4439115035814684,3.742128120085938e-06,0.4439115035814684,-1.4128951940427878e-05
0.4447056207613995,-5.341767249024417e-06,0.4447056207613995,-2.23239e-05,0.4447056207613995,1.9449713754877915e-06,0.4447056207613995,-1.4356306870876067e-05
0.4454997379413306,-6.8806873048253605e-06,0.4454997379413306,-2.1652938959508265e-05,0.4454997379413306,2.5175512165336307e-06,0.4454997379413306,-1.2421555133865477e-05
0.4462938551212617,-9.388725859626684e-06,0.4462938551212617,-2.2442610562563317e-05,0.4462938551212617,4.2844056140190585e-06,0.4462938551212617,-9.429726559432524e-06
0.4470879723011927,-8.266626342258419e-06,0.4470879723011927,-2.269837341622504e-05,0.4470879723011927,3.1711857035935017e-06,0.4470879723011927,-1.1143927126007873e-05
0.4478820894811238,-5.991867347182294e-06,0.4478820894811238,-2.2344367658731843e-05,0.4478820894811238,9.954417649809365e-07,0.4478820894811238,-1.4415481258209524e-05
0.4486762066610549,-8.124067447330367e-06,0.4486762066610549,-2.1395927215831283e-05,0.4486762066610549,2.872182039249596e-06,0.4486762066610549,-1.2610859105800969e-05
0.4494703238409859,-6.577254283681495e-06,0.4494703238409859,-2.263891870495733e-05,0.4494703238409859,-4.028847841183025e-07,0.4494703238409859,-1.126509662411582e-05
0.450264441020917,-6.683456501975932e-06,0.450264441020917,-2.1969041887805462e-05,0.450264441020917,-6.815670877240306e-07,0.450264441020917,-1.333893980841595e-05
0.4510585582008481,-8.856387582902006e-06,0.4510585582008481,-1.8889950907407155e-05,0.4510585582008481,-7.996237599458707e-07,0.4510585582008481,-1.3279911208548998e-05
0.4518526753807791,-6.793481207211876e-06,0.4518526753807791,-1.9360510841306065e-05,0.4518526753807791,-5.044301119439026e-06,0.4518526753807791,-1.3358536453021783e-05
0.4526467925607102,-7.1183153231415645e-06,0.4526467925607102,-2.090215368522241e-05,0.4526467925607102,-1.9074618776123363e-06,0.4526467925607102,-1.49386e-05
0.4534409097406413,-8.19546993375797e-06,0.4534409097406413,-2.094164499961513e-05,0.4534409097406413,-2.067030196502746e-07,0.4534409097406413,-1.2807837420215484e-05
0.4542350269205724,-7.336354644089642e-06,0.4542350269205724,-2.137639010166444e-05,0.4542350269205724,-1.8651490317233475e-06,0.4542350269205724,-1.0653723096059764e-05
0.4550291441005034,-6.743914799105135e-06,0.4550291441005034,-2.0072877169406524e-05,0.4550291441005034,-4.768732600447433e-06,0.4550291441005034,-1.008093159970171e-05
0.4558232612804345,-6.328939793312693e-06,0.4558232612804345,-1.845502837044722e-05,0.4558232612804345,-6.23027761467455e-06,0.4558232612804345,-1.09102e-05
0.4566173784603656,-7.62248693088562e-06,0.4566173784603656,-2.0071141027279117e-05,0.4566173784603656,-8.333310158531372e-06,0.4566173784603656,-9.132608191217744e-06
0.4574114956402966,-7.020073792585826e-06,0.4574114956402966,-2.2916382459010197e-05,0.4574114956402966,-8.698563792585827e-06,0.4574114956402966,-8.619502414828346e-06
0.4582056128202277,-6.111794357525937e-06,0.4582056128202277,-2.146759349954365e-05,0.4582056128202277,-3.6841269909674216e-06,0.4582056128202277,-9.616722821237032e-06
0.4589997300001588,-4.868213506738371e-06,0.4589997300001588,-2.03098e-05,0.4589997300001588,1.844783974691958e-06,0.4589997300001588,-9.567507252088728e-06
0.4597938471800898,-5.241983537781769e-06,0.4597938471800898,-2.2501676875445406e-05,0.4597938471800898,9.22694556266572e-06,0.4597938471800898,-1.0987510025086546e-05
0.4605879643600209,-6.88182e-06,0.4605879643600209,-2.229483052934389e-05,0.4605879643600209,1.438400829824431e-05,0.4605879643600209,-1.32601e-05
0.461382081539952,-6.428991014902641e-06,0.461382081539952,-2.0340431227095965e-05,0.461382081539952,1.7226103678996202e-05,0.461382081539952,-1.3041530148141228e-05
0.4621761987198831,-5.53903e-06,0.4621761987198831,-2.0467833925113465e-05,0.4621761987198831,1.93027e-05,0.4621761987198831,-1.4483602189977496e-05
0.4629703158998141,-7.908099896944649e-06,0.4629703158998141,-2.2628569553485952e-05,0.4629703158998141,1.999328518269357e-05,0.4629703158998141,-1.3418357408653211e-05
0.4637644330797452,-7.395551824590208e-06,0.4637644330797452,-2.275875434263211e-05,0.4637644330797452,1.8336327298360837e-05,0.4637644330797452,-1.2845565912295103e-05
0.4645585502596763,-6.407995412344089e-06,0.4645585502596763,-2.1179327222410272e-05,0.4645585502596763,1.2806686357189984e-05,0.4645585502596763,-1.2904583058437274e-05
0.4653526674396073,-6.111995013005672e-06,0.4653526674396073,-2.059565726895233e-05,0.4653526674396073,6.281166750212665e-06,0.4653526674396073,-1.35958e-05
0.4661467846195384,-4.86763e-06,0.4661467846195384,-2.1494497097414505e-05,0.4661467846195384,1.4039587982427874e-06,0.4661467846195384,-1.199749035721433e-05
0.4669409017994695,-4.906472727234048e-06,0.4669409017994695,-2.162298025353108e-05,0.4669409017994695,-3.74123340904256e-06,0.4669409017994695,-1.0949042727234046e-05
0.4677350189794005,-6.051964726565966e-06,0.4677350189794005,-2.1287143519540183e-05,0.4677350189794005,-3.506052906975806e-06,0.4677350189794005,-1.2094542366458228e-05
0.4685291361593316,-5.342179964763064e-06,0.4685291361593316,-2.0507374884873617e-05,0.4685291361593316,-3.484886015856129e-06,0.4685291361593316,-1.4720813397936025e-05
0.4693232533392627,-4.156800879726312e-06,0.4693232533392627,-1.993423778075096e-05,0.4693232533392627,-5.776044938687933e-06,0.4693232533392627,-1.436588329621895e-05
0.4701173705191938,-7.020326371530319e-06,0.4701173705191938,-1.9440712491894717e-05,0.4701173705191938,-6.289297921318891e-06,0.4701173705191938,-1.444514415736222e-05
0.4709114876991248,-6.092063983854116e-06,0.4709114876991248,-2.153418405313523e-05,0.4709114876991248,-5.005889525599555e-06,0.4709114876991248,-1.5215119051199111e-05
0.4717056048790559,-5.933506700102165e-06,0.4717056048790559,-2.3125517358786464e-05,0.4717056048790559,-3.6045134809770857e-06,0.4717056048790559,-1.3358719909460377e-05
0.472499722058987,-8.22380910641025e-06,0.472499722058987,-2.198847972447776e-05,0.472499722058987,-2.18204e-06,0.472499722058987,-1.2924800449777074e-05
0.473293839238918,-7.475944372825046e-06,0.473293839238918,-2.36667e-05,0.473293839238918,-1.4333715527025603e-06,0.473293839238918,-1.2687721220419806e-05
0.4740879564188491,-6.426152858560498e-06,0.4740879564188491,-2.293717646670305e-05,0.4740879564188491,2.122056429280249e-06,0.4740879564188491,-1.1048058214640124e-05
0.4748820735987802,-7.92794764970005e-06,0.4748820735987802,-2.1001660239783155e-05,0.4748820735987802,2.5958152994000997e-06,0.4748820735987802,-1.2253e-05
0.4756761907787112,-8.086587312861188e-06,0.4756761907787112,-2.181060165110693e-05,0.4756761907787112,4.29331327413241e-06,0.4756761907787112,-1.142486387716713e-05
0.4764703079586423,-5.678114673671348e-06,0.4764703079586423,-2.169405961560388e-05,0.4764703079586423,3.783840320492743e-06,0.4764703079586423,-1.0200457803035627e-05
0.4772644251385734,-5.3813732660124565e-06,0.4772644251385734,-2.03098e-05,0.4772644251385734,6.217910201264456e-07,0.4772644251385734,-8.382266733987544e-06
0.4780585423185045,-4.393814011864681e-06,0.4780585423185045,-2.0783062524315177e-05,0.4780585423185045,1.0071e-06,0.4780585423185045,-8.89601e-06
0.4788526594984356,-5.183100281450469e-06,0.4788526594984356,-2.3152683790461737e-05,0.4788526594984356,5.03548e-07,0.4788526594984356,-8.22461e-06
0.4796467766783666,-5.361675706684892e-06,0.4796467766783666,-2.2383559389266745e-05,0.4796467766783666,1.609867608913189e-06,0.4796467766783666,-9.25071506455111e-06
0.4804408938582977,-4.254476891809886e-06,0.4804408938582977,-2.3113537972777464e-05,0.4804408938582977,1.17494e-06,0.4804408938582977,-1.3118556306032953e-05
0.4812350110382288,-6.22918421035027e-06,0.4812350110382288,-2.50095e-05,0.4812350110382288,1.6878709250360602e-06,0.4812350110382288,-1.6537865462518032e-05
0.4820291282181598,-5.598982949065681e-06,0.4820291282181598,-2.410119771546719e-05,0.4820291282181598,2.6556108766282982e-06,0.4820291282181598,-1.44650291233717e-05
0.4828232453980909,-4.19623e-06,0.4828232453980909,-2.144799915620489e-05,0.4828232453980909,4.117192578283506e-06,0.4828232453980909,-1.2746654634297484e-05
0.483617362578022,-4.344357653163433e-06,0.483617362578022,-1.938102206613868e-05,0.483617362578022,-1.3730060259190434e-06,0.483617362578022,-1.01397681620388e-05
0.484411479757953,-5.933893601488396e-06,0.484411479757953,-2.0921976617022257e-05,0.484411479757953,-9.974368448360668e-07,0.484411479757953,-9.962273601488396e-06
0.4852055969378841,-5.973334176446675e-06,0.4852055969378841,-1.9679545726029293e-05,0.4852055969378841,-4.7313991557797285e-07,0.4852055969378841,-1.05745e-05
0.4859997141178152,-6.881408108800677e-06,0.4859997141178152,-2.030906034181548e-05,0.4859997141178152,-1.5109489183994917e-06,0.4859997141178152,-1.0909994054400338e-05
0.4867938312977463,-5.233530957002423e-06,0.4867938312977463,-2.1297066795169845e-05,0.4867938312977463,-1.67849e-07,0.4867938312977463,-1.2253e-05
0.4875879484776773,-6.761829926505584e-06,0.4875879484776773,-1.9125117235926283e-05,0.4875879484776773,-1.786344963252792e-06,0.4875879484776773,-1.1108047518373604e-05
0.4883820656576084,-7.970903704241195e-06,0.4883820656576084,-1.8967e-05,0.4883820656576084,-1.4325768642487367e-06,0.4883820656576084,-1.016073732932966e-05
0.4891761828375395,-5.766530346433453e-06,0.4891761828375395,-1.9203989368023115e-05,0.4891761828375395,-2.871691597092088e-07,0.4891761828375395,-9.015330692866908e-06
0.4899703000174705,-6.615673275113104e-06,0.4899703000174705,-2.206553053819384e-05,0.4899703000174705,2.556064599698389e-06,0.4899703000174705,-8.3133255749623e-06
0.4907644171974016,-5.6178502982741295e-06,0.4907644171974016,-2.09812e-05,0.4907644171974016,5.439795590839444e-06,0.4907644171974016,-8.461077938847971e-06
0.4915585343773327,-5.87472e-06,0.4915585343773327,-2.1454452271040743e-05,0.4915585343773327,3.999328262472431e-06,0.4915585343773327,-1.1442801737527568e-05
0.4923526515572637,-6.21042e-06,0.4923526515572637,-2.178106834044535e-05,0.4923526515572637,1.7479379450604258e-06,0.4923526515572637,-1.4504497945060426e-05
0.4931467687371948,-5.321560462529678e-06,0.4931467687371948,-2.1267604362136215e-05,0.4931467687371948,2.635970462529677e-06,0.4931467687371948,-1.3891358546782558e-05
0.4939408859171259,-5.500210204820786e-06,0.4939408859171259,-2.1218200380040058e-05,0.4939408859171259,2.162630102410393e-06,0.4939408859171259,-1.5887470307231177e-05
0.494735003097057,-3.841791032772253e-06,0.494735003097057,-2.1809783466370072e-05,0.494735003097057,2.3592594836138733e-06,0.494735003097057,-1.2374002581930631e-05
0.495529120276988,-3.6426914886731175e-06,0.495529120276988,-2.196859726603672e-05,0.495529120276988,4.1762324763299934e-06,0.495529120276988,-1.05745e-05
0.4963232374569191,-6.605362734523087e-06,0.4963232374569191,-2.13169e-05,0.4963232374569191,5.321813704293881e-06,0.4963232374569191,-1.1028685469046174e-05
0.4971173546368502,-5.993071280060586e-06,0.4971173546368502,-2.3547308875457475e-05,0.4971173546368502,4.985980104891486e-06,0.4971173546368502,-1.1877849573313138e-05
0.4979114718167812,-4.946742974880917e-06,0.4979114718167812,-2.43381e-05,0.4979114718167812,4.729359008373028e-06,0.4979114718167812,-1.0653612974880916e-05
0.4987055889967123,-4.86763e-06,0.4987055889967123,-2.220755477440866e-05,0.4987055889967123,3.0317907202329893e-06,0.4987055889967123,-1.0534625330298874e-05
0.4994997061766434,-5.203118333689255e-06,0.4994997061766434,-2.232332990342951e-05,0.4994997061766434,1.84634e-06,0.4994997061766434,-1.2252365001067764e-05
0.5002938233565745,-6.920421940658418e-06,0.5002938233565745,-2.281753853410011e-05,0.5002938233565745,2.597471716117985e-06,0.5002938233565745,-1.1977730745788775e-05
0.5010879405365055,-6.88182e-06,0.5010879405365055,-2.155576918974085e-05,0.5010879405365055,4.167882207527641e-07,0.5010879405365055,-1.1461586994450736e-05
0.5018820577164366,-8.04501473469025e-06,0.5018820577164366,-2.017141767901301e-05,0.5018820577164366,-6.441160116624189e-07,0.5018820577164366,-1.35958e-05
0.5026761748963677,-9.507743932855496e-06,0.5026761748963677,-2.159335446574851e-05,0.5026761748963677,1.1152749992731389e-06,0.5026761748963677,-1.3043732134289008e-05
0.5034702920762988,-9.725679856024156e-06,0.5034702920762988,-2.2341774104952592e-05,0.5034702920762988,-1.2706999498501175e-06,0.5034702920762988,-1.3101825429213536e-05
0.5042644092562298,-7.988161571123395e-06,0.5042644092562298,-2.3331e-05,0.5042644092562298,-5.390153817233963e-06,0.5042644092562298,-1.2134762872452058e-05
0.5050585264361609,-8.165108169017723e-06,0.5050585264361609,-2.262113697335071e-05,0.5050585264361609,-5.914388281207738e-06,0.5050585264361609,-1.1275648256759156e-05
0.505852643616092,-9.014664705543968e-06,0.505852643616092,-2.082383675559901e-05,0.505852643616092,-4.433539411087935e-06,0.505852643616092,-1.0140409411087935e-05
0.506646760796023,-6.754108176210094e-06,0.506646760796023,-2.236278866612664e-05,0.506646760796023,-3.0519346036736985e-06,0.506646760796023,-8.621615685609848e-06
0.507440877975954,-6.852713753136238e-06,0.507440877975954,-2.2264851426320136e-05,0.507440877975954,-2.8728441645758405e-06,0.507440877975954,-7.017648574009896e-06
0.5082349951558852,-5.224234544449785e-06,0.5082349951558852,-2.0764521295450203e-05,0.5082349951558852,-1.393966435957795e-06,0.5082349951558852,-1.0129329631359522e-05
0.5090291123358163,-6.486098402742135e-06,0.5090291123358163,-2.133652260770822e-05,0.5090291123358163,4.94543495510393e-06,0.5090291123358163,-1.1897291034907863e-05
0.5098232295157473,-7.582838506905985e-06,0.5098232295157473,-2.228403427977845e-05,0.5098232295157473,6.309173709334e-06,0.5098232295157473,-1.15816e-05
0.5106173466956784,-6.684216558952049e-06,0.5106173466956784,-2.25998941646984e-05,0.5106173466956784,4.462720399251463e-06,0.5106173466956784,-1.2174087680598829e-05
0.5114114638756094,-6.792698014476238e-06,0.5114114638756094,-2.1731599719112064e-05,0.5114114638756094,7.661515408891993e-06,0.5114114638756094,-1.424721637679658e-05
0.5122055810555405,-7.060206447903911e-06,0.5122055810555405,-2.1296306590924626e-05,0.5122055810555405,1.1067513552096088e-05,0.5122055810555405,-1.5985591868742348e-05
0.5129996982354716,-4.532799541611682e-06,0.5129996982354716,-2.198810481242356e-05,0.5129996982354716,1.2253e-05,0.5129996982354716,-1.3093613048020056e-05
0.5137938154154027,-5.439991580539102e-06,0.5137938154154027,-2.1297087341230463e-05,0.5137938154154027,8.681214405481071e-06,0.5137938154154027,-1.1108276838921796e-05
0.5145879325953338,-6.090389956318692e-06,0.5145879325953338,-2.0606777948926577e-05,0.5145879325953338,6.408278984400997e-06,0.5145879325953338,-9.687440043681309e-06
0.5153820497752648,-8.89601e-06,0.5153820497752648,-1.8592912202515056e-05,0.5153820497752648,4.969208458407276e-06,0.5153820497752648,-9.910850865604351e-06
0.5161761669551959,-7.239848949601015e-06,0.5161761669551959,-1.912495189891734e-05,0.5161761669551959,2.3610553635670823e-06,0.5161761669551959,-1.4006182121443058e-05
0.5169702841351269,-5.89386413193746e-06,0.5169702841351269,-2.03098e-05,0.5169702841351269,-6.698738938202292e-08,0.5169702841351269,-1.4900321165990529e-05
0.5177644013150581,-6.88182e-06,0.5177644013150581,-2.214555269362554e-05,0.5177644013150581,-2.3396624097210213e-06,0.5177644013150581,-1.2134771454370708e-05
0.5185585184949891,-5.61838890346998e-06,0.5185585184949891,-2.2483691073096506e-05,0.5185585184949891,-4.11687109653002e-06,0.5185585184949891,-1.159151698180822e-05
0.5193526356749202,-6.841260903370974e-06,0.5193526356749202,-2.206695304913913e-05,0.5193526356749202,-2.676959535186641e-06,0.5193526356749202,-1.047612087711523e-05
0.5201467528548512,-7.63351853905534e-06,0.5201467528548512,-2.1810720440343667e-05,0.5201467528548512,-6.407218165990503e-07,0.5201467528548512,-1.2409132975516004e-05
0.5209408700347823,-5.577826285274165e-06,0.5209408700347823,-2.1948638701972588e-05,0.5209408700347823,-2.7952447053134367e-06,0.5209408700347823,-1.4861006273751249e-05
0.5217349872147133,-6.979764901154066e-06,0.5217349872147133,-2.293578421575965e-05,0.5217349872147133,-1.5898916996153113e-06,0.5217349872147133,-1.2570006798461244e-05
0.5225291043946444,-7.632139898371363e-06,0.5225291043946444,-2.119846426727914e-05,0.5225291043946444,4.4348513828311393e-07,0.5225291043946444,-1.15816e-05
0.5233232215745756,-6.5856652989069084e-06,0.5233232215745756,-2.127701727420196e-05,0.5233232215745756,9.380167684489684e-07,0.5233232215745756,-1.0633731293100912e-05
0.5241173387545066,-4.31461567814273e-06,0.5241173387545066,-2.1928542785935034e-05,0.5241173387545066,-6.122043960307661e-07,0.5241173387545066,-1.1502676214571511e-05
0.5249114559344377,-4.452782627036904e-06,0.5249114559344377,-2.106022026364272e-05,0.5249114559344377,1.293213464764312e-06,0.5249114559344377,-1.2253e-05
0.5257055731143687,-5.776125959650654e-06,0.5257055731143687,-2.16526e-05,0.5257055731143687,3.86053e-06,0.5257055731143687,-1.163088380342167e-05
0.5264996902942998,-4.197122430931811e-06,0.5264996902942998,-2.16526e-05,0.5264996902942998,1.176724855217577e-06,0.5264996902942998,-1.292361908970444e-05
0.5272938074742308,-4.669541695050698e-06,0.5272938074742308,-2.0447946421391363e-05,0.5272938074742308,4.045041425630388e-07,0.5272938074742308,-1.5213823390101396e-05
0.528087924654162,-6.072584717414646e-06,0.528087924654162,-1.833431177804305e-05,0.528087924654162,1.3127752825853545e-06,0.528087924654162,-1.3242323587073228e-05
0.528882041834093,-4.09869320588686e-06,0.528882041834093,-2.0150844435896383e-05,0.528882041834093,1.6902820591709602e-06,0.528882041834093,-1.244807358822628e-05
0.5296761590140241,-4.04703622858312e-06,0.5296761590140241,-2.187961839146376e-05,0.5296761590140241,-4.84945161775639e-08,0.5296761590140241,-1.4207522491433248e-05
0.5304702761939551,-5.893852690685708e-06,0.5304702761939551,-2.23239e-05,0.5304702761939551,1.41236901831307e-06,0.5304702761939551,-1.239215803662614e-05
0.5312643933738862,-5.420821773776012e-06,0.5312643933738862,-2.26596e-05,0.5312643933738862,-1.8258619365973024e-06,0.5312643933738862,-1.0139516452447975e-05
0.5320585105538173,-6.298888164645884e-06,0.5320585105538173,-2.194983821597318e-05,0.5320585105538173,-2.221731213262501e-06,0.5320585105538173,-1.2173617573474998e-05
0.5328526277337483,-6.88182e-06,0.5328526277337483,-2.188859061249437e-05,0.5328526277337483,2.110992621764227e-06,0.5328526277337483,-1.2253e-05
0.5336467449136795,-8.697463053954343e-06,0.5336467449136795,-2.240297713386862e-05,0.5336467449136795,6.54612e-06,0.5336467449136795,-1.2825126526977172e-05
0.5344408620936105,-8.899022640016849e-06,0.5344408620936105,-2.145523151990361e-05,0.5344408620936105,6.978782915063264e-06,0.5344408620936105,-1.5016170794194158e-05
0.5352349792735416,-6.21042e-06,0.5352349792735416,-2.070502092075547e-05,0.5352349792735416,8.816752579673645e-06,0.5352349792735416,-1.525562968130542e-05
0.5360290964534726,-8.540278152063368e-06,0.5360290964534726,-2.03098e-05,0.5360290964534726,6.901851847936632e-06,0.5360290964534726,-1.3911468152063368e-05
0.5368232136334037,-8.362847213805139e-06,0.5368232136334037,-2.090142429512936e-05,0.5368232136334037,7.099068855220554e-06,0.5368232136334037,-1.4899119317841271e-05
0.5376173308133347,-7.335921701502694e-06,0.5376173308133347,-2.1218013956760887e-05,0.5376173308133347,8.323505421313178e-06,0.5376173308133347,-1.2450338128640212e-05
0.5384114479932659,-7.671461356725752e-06,0.5384114479932659,-2.163283832628009e-05,0.5384114479932659,6.981021405946493e-06,0.5384114479932659,-1.211471180933194e-05
0.539205565173197,-7.454628755608135e-06,0.539205565173197,-2.117997093270399e-05,0.539205565173197,1.393313569127619e-06,0.539205565173197,-1.1957226266824409e-05
0.539999682353128,-6.8820488284440765e-06,0.539999682353128,-2.031000546060682e-05,0.539999682353128,-2.8518382063446283e-06,0.539999682353128,-9.568554135403928e-06
0.5407937995330591,-7.118470114511644e-06,0.5407937995330591,-2.0704876338126333e-05,0.5407937995330591,-6.089423866640829e-06,0.5407937995330591,-8.796960114511644e-06
0.5415879167129901,-6.52837635787787e-06,0.5415879167129901,-2.331164924749367e-05,0.5415879167129901,-8.22461e-06,0.5415879167129901,-9.843064993407392e-06
0.5423820338929212,-5.578037822612254e-06,0.5423820338929212,-2.29953e-05,0.5423820338929212,-6.11702349309238e-06,0.5423820338929212,-1.2409035938525826e-05
0.5431761510728523,-4.632652753876406e-06,0.5431761510728523,-2.427888929772857e-05,0.5431761510728523,-2.025389687833586e-06,0.5431761510728523,-1.2767749687833586e-05
0.5439702682527834,-3.740476050674759e-06,0.5439702682527834,-2.264191064525252e-05,0.5439702682527834,-3.328310483485727e-06,0.5439702682527834,-1.229123306832097e-05
0.5447643854327144,-5.145031182808593e-06,0.5447643854327144,-2.3290849997709505e-05,0.5447643854327144,-1.0250177321501502e-08,0.5447643854327144,-1.3280600946246871e-05
0.5455585026126455,-3.228842087948285e-06,0.5455585026126455,-2.3490771855143308e-05,0.5455585026126455,1.766935114493434e-06,0.5455585026126455,-1.0673756698224872e-05
0.5463526197925765,-5.854407821303007e-06,0.5463526197925765,-2.204590762978894e-05,0.5463526197925765,5.162692107547789e-06,0.5463526197925765,-1.02388e-05
0.5471467369725076,-5.775441539724443e-06,0.5471467369725076,-2.4614088648080943e-05,0.5471467369725076,7.108773765237414e-06,0.5471467369725076,-1.0357007530474827e-05
0.5479408541524387,-6.843046068930529e-06,0.5479408541524387,-2.350900443294576e-05,0.5479408541524387,6.352251499669955e-06,0.5479408541524387,-1.1423396370310642e-05
0.5487349713323698,-5.697553920944714e-06,0.5487349713323698,-2.011459072624426e-05,0.5487349713323698,1.119083868672316e-07,0.5487349713323698,-1.209447371792508e-05
0.5495290885123009,-5.252174542151887e-06,0.5495290885123009,-2.0348952758143297e-05,0.5495290885123009,-8.39246e-07,0.5495290885123009,-1.3951543289358796e-05
0.5503232056922319,-7.276739851678678e-06,0.5503232056922319,-2.2539932946302934e-05,0.5503232056922319,-1.3922013550850317e-06,0.5503232056922319,-1.118668014832132e-05
0.551117322872163,-8.145664458368829e-06,0.551117322872163,-2.1367361921046915e-05,0.551117322872163,-2.467953647277184e-07,0.551117322872163,-1.061397335874169e-05
0.551911440052094,-9.636556961840894e-06,0.551911440052094,-1.968781408146961e-05,0.551911440052094,-8.39246e-07,0.551911440052094,-1.02388e-05
0.5527055572320251,-7.010999687420381e-06,0.5527055572320251,-2.071393029296309e-05,0.5527055572320251,7.00716673384491e-07,0.5527055572320251,-9.844460891202216e-06
0.5534996744119562,-5.035949091323373e-06,0.5534996744119562,-2.1652178805756123e-05,0.5534996744119562,1.17494e-06,0.5534996744119562,-8.728277274577559e-06
0.5542937915918873,-6.298480953744989e-06,0.5542937915918873,-2.067499846770579e-05,0.5542937915918873,1.7472843814979958e-06,0.5542937915918873,-1.2330066288987976e-05
0.5550879087718184,-6.1927050227754974e-06,0.5550879087718184,-1.8986345615991143e-05,0.5550879087718184,8.992956513361933e-07,0.5550879087718184,-1.1839528550326309e-05
0.5558820259517494,-5.695041844622772e-06,0.5558820259517494,-1.93027e-05,0.5558820259517494,-2.0685213543295665e-07,0.5558820259517494,-1.1362909754853398e-05
0.5566761431316805,-7.157831050011e-06,0.5566761431316805,-2.03098e-05,0.5566761431316805,1.8647633624525337e-07,0.5566761431316805,-1.3081033150033e-05
0.5574702603116115,-5.025927453630962e-06,0.5574702603116115,-1.987609330786905e-05,0.5574702603116115,3.385642354551073e-06,0.5574702603116115,-1.4108902546369038e-05
0.5582643774915427,-6.8801670160248905e-06,0.5582643774915427,-2.133581157170725e-05,0.5582643774915427,4.925897866479624e-06,0.5582643774915427,-1.4424788085454437e-05
0.5590584946714737,-9.53762439101206e-06,0.5590584946714737,-2.323190050233409e-05,0.5590584946714737,7.47379170936549e-06,0.5590584946714737,-1.3833102711867402e-05
0.5598526118514048,-6.447775275197499e-06,0.5598526118514048,-2.200927912739651e-05,0.5598526118514048,4.769285275197499e-06,0.5598526118514048,-1.1622265825592497e-05
0.5606467290313358,-6.21042e-06,0.5606467290313358,-1.9954749627595785e-05,0.5606467290313358,5.14422910126941e-06,0.5606467290313358,-8.886557303808229e-06
0.5614408462112669,-7.630744352746452e-06,0.5614408462112669,-1.948017365045883e-05,0.5614408462112669,3.5442112325210824e-06,0.5614408462112669,-9.664315585267536e-06
0.5622349633911979,-8.89601e-06,0.5622349633911979,-2.0862137612428303e-05,0.5622349633911979,3.86053e-06,0.5622349633911979,-1.1502331138251396e-05
0.563029080571129,-6.744052096171692e-06,0.563029080571129,-2.097138715305692e-05,0.563029080571129,3.86053e-06,0.563029080571129,-1.1047967903828309e-05
0.5638231977510602,-7.020062934516223e-06,0.5638231977510602,-2.1532905682870595e-05,0.5638231977510602,4.354287607097336e-06,0.5638231977510602,-1.2253e-05
0.5646173149309912,-6.289378183510698e-06,0.5646173149309912,-2.351024078226876e-05,0.5646173149309912,2.043734282753754e-06,0.5646173149309912,-1.3437883632978605e-05
0.5654114321109223,-6.407820343304529e-06,0.5654114321109223,-2.0428425790735e-05,0.5654114321109223,3.109935149653138e-06,0.5654114321109223,-1.2549697596868291e-05
0.5662055492908533,-5.381824044721853e-06,0.5662055492908533,-2.1453798248204983e-05,0.5662055492908533,3.703334044721852e-06,0.5662055492908533,-9.14245944591102e-06
0.5669996664707844,-4.19623e-06,0.5669996664707844,-2.299465286335243e-05,0.5669996664707844,-1.5077567759196237e-06,0.5669996664707844,-1.25866577132942e-05
0.5677937836507154,-5.340907296968488e-06,0.5677937836507154,-2.109962108337996e-05,0.5677937836507154,-2.394085953010939e-07,0.5677937836507154,-1.4030561351515757e-05
0.5685879008306466,-5.814662061694197e-06,0.5685879008306466,-1.96384e-05,0.5685879008306466,2.556617125316303e-06,0.5685879008306466,-1.35958e-05
0.5693820180105776,-6.893679925583397e-06,0.5693820180105776,-2.0032983992874405e-05,0.5693820180105776,2.322753103985834e-06,0.5693820180105776,-1.382210208629446e-05
0.5701761351905087,-5.70687e-06,0.5701761351905087,-2.17709906477735e-05,0.5701761351905087,1.3912517255287894e-06,0.5701761351905087,-1.3163178682800177e-05
0.5709702523704397,-6.88182e-06,0.5709702523704397,-2.244275179044969e-05,0.5709702523704397,4.709326825657995e-06,0.5709702523704397,-8.503034330437662e-06
0.5717643695503708,-7.474431677983965e-06,0.5717643695503708,-2.16526e-05,0.5717643695503708,1.8874360055563952e-06,0.5717643695503708,-9.762679195190313e-06
0.5725584867303019,-6.585845611344862e-06,0.5725584867303019,-2.16526e-05,0.5725584867303019,-7.995205661601035e-07,0.5725584867303019,-1.4167885971637844e-05
0.573352603910233,-4.2369302236746966e-06,0.573352603910233,-2.0724155939624688e-05,0.573352603910233,-1.49029200940252e-06,0.573352603910233,-1.4256992621080226e-05
0.5741467210901641,-3.307332543563821e-06,0.5741467210901641,-2.149441491317176e-05,0.5741467210901641,-4.0666910197503646e-07,0.5741467210901641,-1.4683319677762595e-05
0.5749408382700951,-4.273731998029434e-06,0.5749408382700951,-2.1929253951429357e-05,0.5749408382700951,3.872956955563673e-07,0.5749408382700951,-1.1158710829383984e-05
0.5757349554500262,-5.53903e-06,0.5757349554500262,-2.208577241377681e-05,0.5757349554500262,-1.51064e-06,0.5757349554500262,-9.350621873689564e-06
0.5765290726299572,-6.683870741695176e-06,0.5765290726299572,-2.2630349297084036e-05,0.5765290726299572,-3.457315562145477e-07,0.5765290726299572,-1.0870067655593568e-05
