time_ms,emg_value
60,1059
98560,1059
98560,1059
98560,1059
98560,1059
98560,1059
98560,1059
98560,1059
98560,1059
98560,1059
98560,1059
98560,1059
98560,1059
98560,1059
98560,1059
98560,1059
98560,1059
98560,1059
98560,1059
98560,1059
98560,1059
98560,1059
98560,1059
98560,1059
98560,1059
98560,1059
98560,1059
98560,1059
98560,1059
98560,1059
98560,1059
98560,1059
98560,1059
98560,1059
98560,1059
98560,1059
98560,1059
98560,1059
98560,1059
98560,1059
98560,1059
98560,1059
98560,1059
98560,1059
98560,1059
98560,1059
98560,1059
98560,1059
98560,1059
98560,1059
98560,1059
98560,1059
98560,1059
98570,0
98580,0
98590,0
98600,0
98610,0
98620,0
98630,511
98640,401
98650,320
98660,254
98670,195
98680,0
98690,0
98700,0
98710,0
98720,0
98730,44
98740,30
98750,21
98760,16
98770,14
98780,1414
98790,117
98800,0
98810,0
98820,0
98830,2799
98840,962
98850,0
98860,0
98870,0
98880,0
98890,0
98900,3450
98910,2953
98920,2441
98930,625
98940,0
98950,0
98960,0
98970,989
98980,10
98990,0
99000,0
99010,0
99020,0
99030,0
99040,0
99050,0
99060,0
99090,3456
99100,3452
99110,3038
99120,2642
99130,1059
99140,303
99150,0
99160,0
99170,0
99180,1585
99190,3440
99200,3453
99210,3462
99220,3451
99230,1761
99240,612
99250,0
99260,0
99270,0
99280,0
99290,50
99300,3089
99310,2981
99320,2609
99330,2313
99340,1987
99350,1577
99360,146
99370,0
99380,0
99390,48
99400,0
99410,0
99420,0
99430,148
99440,174
99450,147
99460,53
99470,0
99480,0
99490,48
99500,0
99510,0
99520,0
99530,0
99540,48
99550,11
99560,2
99570,2
99580,0
99590,34
99600,0
99610,0
99620,0
99630,0
99640,0
99650,0
99660,0
99670,0
99680,0
99690,47
99700,0
99710,0
99720,0
99730,0
99740,37
99750,0
99760,0
99770,0
99780,0
99790,0
99800,0
99810,0
99820,0
99830,0
99840,1833
99850,3463
99860,3456
99870,3456
99880,1409
99890,413
99900,0
99910,0
99920,0
99930,3153
99940,3467
99950,3454
99960,1326
99970,10
99980,0
99990,17
100000,0
100010,2142
100020,1801
100030,1162
100040,246
100050,0
100060,0
100070,0
100080,0
100090,27
100100,0
100110,0
100120,0
100130,0
100140,32
100150,0
100160,0
100170,0
100180,0
100190,22
100200,17
100210,13
100220,7
100230,0
100240,31
100250,0
100260,0
100270,0
100280,0
100290,86
100300,0
100310,0
100320,0
100330,0
100340,0
100350,0
100360,0
100370,0
100380,0
100390,32
100400,0
100410,0
100420,0
100430,0
100440,43
100450,3454
100460,3456
100470,3456
100480,3333
100490,2823
100500,2454
100510,831
100520,0
100530,0
100540,48
100550,0
100560,0
100570,0
100580,455
100590,366
100600,285
100610,0
100620,0
100630,0
100640,157
100650,0
100660,3442
100670,3460
100680,3462
100690,3460
100700,3440
100710,3454
100720,1808
100730,2074
100740,805
100750,0
100760,0
100770,0
100780,3461
100790,3459
100800,3454
100810,2093
100820,393
100830,0
100840,51
100850,0
100860,3453
100870,3450
100880,3456
100890,2995
100900,2606
100910,896
100920,0
100930,0
100940,42
100950,0
100960,0
100970,0
100980,0
100990,398
101000,320
101010,245
101020,196
101030,0
101040,49
101050,0
101060,0
101070,0
101080,0
101090,51
101100,0
101110,13
101120,3
101130,5
101140,41
101150,0
101160,0
101170,0
101180,0
101190,0
101200,0
101210,0
101220,0
101230,0
101240,55
101250,0
101260,0
101270,0
101280,0
101290,0
101300,0
101310,0
101320,0
101330,0
101340,61
101350,0
101360,0
101370,0
101380,0
101390,0
101400,0
101410,0
101420,0
101430,0
101440,90
101450,0
101460,0
101470,3440
101480,3458
101490,3457
101500,3454
101510,1104
101520,0
101530,0
101540,53
101550,0
101560,3456
101570,3456
101580,3461
101590,3457
101600,1125
101610,3444
101620,3454
101630,3449
101640,1939
101650,3450
101660,3389
101670,2855
101680,670
101690,128
101700,0
101710,1456
101720,1157
101730,917
101740,729
101750,574
101760,458
101770,359
101780,288
101790,223
101800,176
101810,135
101820,112
101830,80
101840,68
101850,51
101860,34
101870,26
101880,3456
101890,3463
101900,3451
101910,3457
101920,3456
101930,3454
101940,3463
101950,3456
101960,3453
101970,3451
101980,3451
101990,3454
102000,3456
102010,3456
102020,3458
102030,3456
102040,3459
102050,3457
102060,3459
102070,3461
102080,3465
102090,3453
102100,3454
102110,3457
102120,3453
102130,3460
102140,3453
102150,3450
102160,3447
102170,3455
102180,3453
102190,3465
102200,3457
102210,3453
102220,3453
102230,3457
102240,3456
102250,3436
102260,3456
102270,3459
102280,3444
102290,3441
102300,3459
102310,3367
102320,3436
102330,3455
102340,3454
102350,3461
102360,3457
102370,3456
102380,1920
102390,3456
102400,3461
102410,3463
102420,3463
102430,3461
102440,3088
102450,2672
102460,2322
102470,2000
102480,1639
102490,1310
102500,1055
102510,836
102520,657
102530,528
102540,411
102550,329
102560,158
102570,203
102580,162
102590,128
102600,95
102610,78
102620,61
102630,48
102640,29
102650,25
102660,16
102670,14
102680,9
102690,1
102700,0
102710,0
102720,0
102730,0
102740,0
102750,0
102760,0
102770,0
102780,0
102790,0
102800,0
102810,0
102820,0
102830,0
102840,0
102850,0
102860,0
102870,0
102880,0
102890,0
102900,0
102910,0
102920,0
102930,0
102940,0
102950,0
102960,0
102970,0
102980,0
102990,0
103000,0
103010,0
103020,3488
103030,3363
103040,2139
103050,3485
103060,3493
103070,3494
103080,3488
103090,3472
103100,3483
103110,3489
103120,3497
103130,3494
103140,3487
103150,3499
103160,3493
103170,1477
103180,3487
103190,3491
103200,3421
103210,2805
103220,2447
103230,2114
103240,1766
103250,1410
103260,1090
103270,865
103280,418
103290,0
103300,448
103310,353
103320,281
103330,224
103340,173
103350,133
103360,112
103370,82
103380,61
103390,48
103400,37
103410,26
103420,16
103430,11
103440,6
103450,5
103460,0
103470,0
103480,0
103490,0
103500,0
103510,0
103520,0
103530,0
103540,0
103550,0
103560,0
103570,0
103580,0
103590,0
103600,0
103610,0
103620,0
103630,0
103640,0
103650,0
103660,0
103670,0
103680,0
103690,0
103700,0
103710,0
103720,0
103730,0
103740,0
103750,0
103760,0
103770,0
103780,3499
103790,3414
103800,3497
103810,3504
103820,3504
103830,3504
103840,3487
103850,3501
103860,3495
103870,3515
103880,3502
103890,3505
103900,3502
103910,3501
103920,3503
103930,3501
103940,3497
103950,2448
103960,2758
103970,2382
103980,2043
103990,1686
104000,1351
104010,1057
104020,707
104030,680
104040,538
104050,422
104060,335
104070,261
104080,208
104090,163
104100,128
104110,98
104120,83
104130,63
104140,48
104150,39
104160,21
104170,19
104180,14
104190,11
104200,2
104210,0
104220,0
104230,0
104240,0
104250,0
104260,0
104270,0
104280,0
104290,0
104300,0
104310,0
104320,0
104330,0
104340,0
104350,0
104360,0
104370,0
104380,0
104390,0
104400,0
104410,0
104420,0
104430,0
104440,0
104450,0
104460,0
104470,0
104480,0
104490,0
104500,0
104510,0
104520,0
104530,0
104540,0
104550,0
104560,0
104570,0
104580,0
104590,0
104600,0
104610,3501
104620,3505
104630,3504
104640,3504
104650,3503
104660,3497
104670,3499
104680,3504
104690,3504
104700,3501
104710,3488
104720,1365
104730,0
104740,0
104750,0
104760,0
104770,0
104780,0
104790,0
104800,542
104810,1670
104820,1340
104830,1072
104840,848
104850,679
104860,535
104870,419
104880,330
104890,249
104900,210
104910,165
104920,127
104930,102
104940,76
104950,61
104960,49
104970,29
104980,28
104990,19
105000,16
105010,7
105020,6
105030,0
105040,0
105050,0
105060,0
105070,0
105080,0
105090,0
105100,0
105110,0
105120,0
105130,0
105140,0
105150,0
105160,0
105170,0
105180,0
105190,0
105200,0
105210,0
105220,3479
105230,3483
105240,3493
105250,3489
105260,3490
105270,3485
105280,3475
105290,3478
105300,3478
105310,3484
105320,3479
105330,3478
105340,3477
105350,2047
105360,354
105370,3484
105380,3481
105390,3485
105400,3478
105410,3456
105420,3466
105430,3466
105440,3468
105450,3465
105460,3463
105470,3467
105480,3455
105490,3461
105500,1814
105510,208
105520,3455
105530,3453
105540,3006
105550,2446
105560,2319
105570,1997
105580,1638
105590,1317
105600,1062
105610,837
105620,663
105630,528
105640,416
105650,331
105660,257
105670,206
105680,162
105690,128
105700,101
105710,80
105720,64
105730,43
105740,39
105750,24
105760,18
105770,14
105780,9
105790,5
105800,1
105810,0
105820,1
105830,0
105840,2832
105850,3454
105860,3449
105870,3457
105880,3455
105890,3450
105900,3451
105910,3438
105920,3440
105930,3438
105940,3039
105950,2657
105960,3427
105970,3431
105980,3445
105990,3442
106000,3439
106010,3440
106020,3438
106030,3442
106040,3444
106050,3436
106060,3443
106070,3441
106080,3442
106090,3430
106100,3440
106110,3438
106120,3440
106130,3439
106140,3425
106150,3377
106160,3409
106170,2000
106180,241
106190,3443
106200,3439
106210,3437
106220,3441
106230,3445
106240,3435
106250,3447
106260,2189
106270,1124
106280,3430
106290,3434
106300,2939
106310,2559
106320,2243
106330,1927
106340,886
106350,1259
106360,706
106370,0
106380,0
106390,0
106400,394
106410,311
106420,253
106430,158
106440,0
106450,0
106460,96
106470,73
106480,57
106490,48
106500,32
106510,0
106520,16
106530,14
106540,7
106550,2
106560,2
106570,0
106580,1
106590,0
106600,0
106610,0
106620,0
106630,0
106640,0
106650,0
106660,0
106670,0
106680,3437
106690,3437
106700,3444
106710,3440
106720,3443
106730,3440
106740,3442
106750,3440
106760,3440
106770,3440
106780,3441
106790,3435
106800,2960
106810,2591
106820,3440
106830,3444
106840,3437
106850,3445
106860,3441
106870,3435
106880,3450
106890,3440
106900,3437
106910,3444
106920,3429
106930,3440
106940,3415
106950,3440
106960,3387
106970,2559
106980,3441
106990,3442
107000,3439
107010,3441
107020,3441
107030,3441
107040,3443
107050,3443
107060,3439
107070,3428
107080,3151
107090,2751
107100,2411
107110,2099
107120,1767
107130,1418
107140,1149
107150,907
107160,721
107170,109
107180,0
107190,0
107200,0
107210,226
107220,178
107230,144
107240,111
107250,86
107260,74
107270,54
107280,47
107290,34
107300,26
107310,16
107320,16
107330,15
107340,16
107350,13
107360,3
107370,0
107380,4
107390,1
107400,1
107410,0
107420,2
107430,0
107440,0
107450,0
107460,0
107470,0
107480,0
107490,0
107500,0
107510,0
107520,0
107530,0
107540,0
107550,0
107560,0
107570,0
107580,0
107590,0
107600,0
107610,0
107620,0
107630,0
107640,0
107650,0
107660,3444
107670,3438
107680,3442
107690,3439
107700,3445
107710,3445
107720,3440
107730,2025
107740,3440
107750,3430
107760,2283
107770,3442
107780,3440
107790,3439
107800,3440
107810,3431
107820,2913
107830,2545
107840,2225
107850,1907
107860,1535
107870,1248
107880,1001
107890,815
107900,656
107910,487
107920,419
107930,334
107940,272
107950,0
107960,0
107970,0
107980,118
107990,98
108000,79
108010,65
108020,51
108030,41
108040,26
108050,22
108060,16
108070,16
108080,16
108090,16
108100,11
108110,10
108120,10
108130,9
108140,0
108150,2
108160,0
108170,0
108180,0
108190,0
108200,1
108210,0
108220,0
108230,0
108240,0
108250,0
108260,0
108270,0
108280,0
108290,0
108300,0
108310,0
108320,0
108330,0
108340,0
108350,0
108360,0
108370,0
108380,0
108390,0
108400,0
108410,0
108420,0
108430,0
108440,0
108450,0
108460,0
108470,0
108480,0
108490,0
108500,0
108510,0
108520,0
108530,0
108540,0
108550,0
108560,0
108570,2
108580,0
108590,0
108600,0
108610,0
108620,0
108630,11
108640,32
108650,26
108660,66
108670,55
108680,48
108690,48
108700,0
108710,0
108720,0
108730,31
108740,23
108750,32
108760,78
108770,99
108780,139
108790,115
108800,99
108810,81
108820,64
108830,53
108840,41
108850,34
108860,27
108870,17
108880,12
108890,3
108900,4
108910,6
108920,0
108930,0
108940,0
108950,0
108960,0
108970,0
108980,3459
108990,3451
109000,3463
109010,3455
109020,3459
109030,3446
109040,3446
109050,3433
109060,3415
109070,3427
109080,3440
109090,3434
109100,3431
109110,3411
109120,3423
109130,3415
109140,3426
109150,3419
109160,3408
109170,3426
109180,3419
109190,3423
109200,3426
109210,3402
109220,3423
109230,3397
109240,3411
109250,3410
109260,3407
109270,3407
109280,3399
109290,3410
109300,3405
109310,3398
109320,3393
109330,3389
109340,3376
109350,3358
109360,2160
109370,3351
109380,781
109390,3353
109400,3258
109410,2734
109420,2432
109430,2199
109440,1641
109450,1679
109460,1414
109470,1131
109480,907
109490,758
109500,610
109510,491
109520,522
109530,469
109540,442
109550,3111
109560,3109
109570,2756
109580,2342
109590,2190
109600,2007
109610,960
109620,1579
109630,2239
109640,1200
109650,0
109660,0
109670,2091
109680,2540
109690,2191
109700,2302
109710,2443
109720,2303
109730,2191
109740,1951
109750,1712
109760,1453
109770,2181
109780,3059
109790,3105
109800,3089
109810,3103
109820,3137
109830,2929
109840,2876
109850,3019
109860,2859
109870,2859
109880,2881
109890,2896
109900,2905
109910,2901
109920,2890
109930,2928
109940,2719
109950,2559
109960,2427
109970,2282
109980,2103
109990,1891
110000,1572
110010,1279
110020,1021
110030,816
110040,654
110050,511
110060,409
110070,337
110080,2865
110090,2838
110100,2892
110110,2899
110120,2896
110130,2896
110140,2891
110150,2867
110160,2901
110170,2908
110180,2960
110190,3298
110200,2919
110210,2881
110220,2909
110230,2928
110240,2931
110250,2931
110260,2928
110270,2929
110280,1905
110290,2927
110300,2927
110310,2921
110320,2923
110330,2383
110340,2589
110350,2425
110360,2263
110370,2096
110380,1843
110390,1494
110400,555
110410,0
110420,813
110430,641
110440,528
110450,411
110460,322
110470,14
110480,0
110490,194
110500,154
110510,0
110520,0
110530,80
110540,65
110550,49
110560,43
110570,33
110580,30
110590,18
110600,17
110610,18
110620,16
110630,11
110640,1
110650,5
110660,5
110670,3
110680,12
110690,0
110700,3
110710,2
110720,5
110730,1
110740,0
110750,11
110760,6
110770,6
110780,9
110790,3
110800,2
110810,5
110820,12
110830,16
110840,18
110850,77
110860,135
110870,139
110880,109
110890,87
110900,70
110910,54
110920,64
110930,62
110940,77
110950,79
110960,82
110970,64
110980,53
110990,39
111000,28
111010,23
111020,17
111030,21
111040,18
111050,16
111060,18
111070,16
111080,6
111090,47
111100,64
111110,57
111120,57
111130,45
111140,34
111150,51
111160,48
111170,67
111180,157
111190,144
111200,192
111210,247
111220,84
111230,250
111240,208
111250,180
111260,139
111270,110
111280,91
111290,71
111300,53
111310,44
111320,32
111330,23
111340,20
111350,11
111360,10
111370,10
111380,0
111390,0
111400,0
111410,0
111420,0
111430,0
111440,0
111450,0
111460,0
111470,0
111480,0
111490,0
111500,0
111510,0
111520,0
111530,0
111540,0
111550,0
111560,0
111570,0
111580,0
111590,0
111600,0
111610,0
111620,0
111630,0
111640,0
111650,0
111660,0
111670,0
111680,0
111690,0
111700,12
111710,8
111720,3
111730,3559
111740,3568
111750,3568
111760,3565
111770,3565
111780,3563
111790,3565
111800,3563
111810,3475
111820,3205
111830,3569
111840,3561
111850,3559
111860,3559
111870,3558
111880,3563
111890,3551
111900,2964
111910,2497
111920,2138
111930,1776
111940,1419
111950,1139
111960,899
111970,713
111980,565
111990,444
112000,355
112010,274
112020,218
112030,172
112040,131
112050,103
112060,0
112070,61
112080,48
112090,38
112100,23
112110,19
112120,7
112130,4
112140,0
112150,0
112160,0
112170,0
112180,0
112190,0
112200,0
112210,0
112220,0
112230,0
112240,0
112250,0
112260,3571
112270,3573
112280,3573
112290,3573
112300,3573
112310,3569
112320,3569
112330,3579
112340,3574
112350,3581
112360,3570
112370,3578
112380,3577
112390,3573
112400,3571
112410,3575
112420,3571
112430,3568
112440,3568
112450,3570
112460,3575
112470,3571
112480,3569
112490,3570
112500,3583
112510,3566
112520,3206
112530,2672
112540,2274
112550,1927
112560,1535
112570,1245
112580,983
112590,781
112600,622
112610,496
112620,384
112630,304
112640,240
112650,196
112660,146
112670,114
112680,89
112690,70
112700,50
112710,38
112720,32
112730,19
112740,12
112750,0
112760,1
112770,0
112780,0
112790,0
112800,0
112810,0
112820,0
112830,0
112840,0
112850,0
112860,0
112870,0
112880,0
112890,0
112900,0
112910,0
112920,0
112930,0
112940,0
112950,0
112960,0
112970,0
112980,0
112990,0
113000,0
113010,0
113020,0
113030,0
113040,0
113050,0
113060,0
113070,0
113080,1663
113090,3579
113100,3568
113110,3571
113120,3571
113130,3570
113140,3569
113150,3573
113160,3574
113170,3577
113180,3569
113190,3583
113200,3568
113210,3570
113220,3574
113230,3575
113240,3570
113250,3574
113260,3569
113270,3575
113280,3602
113290,3555
113300,3555
113310,3559
113320,3562
113330,3565
113340,3555
113350,3136
113360,2640
113370,2246
113380,1894
113390,1520
113400,3569
113410,3575
113420,3568
113430,3569
113440,3571
113450,3571
113460,3565
113470,3569
113480,3568
113490,3569
113500,3568
113510,3571
113520,3569
113530,2295
113540,851
113550,3564
113560,3565
113570,3567
113580,3567
113590,3567
113600,2715
113610,2885
113620,2447
113630,2103
113640,1806
113650,2062
113660,408
113670,3563
113680,3568
113690,3558
113700,3573
113710,3569
113720,3567
113730,3563
113740,3563
113750,3067
113760,2588
113770,2201
113780,1847
113790,1475
113800,1188
113810,944
113820,743
113830,592
113840,470
113850,369
113860,294
113870,234
113880,186
113890,144
113900,115
113910,84
113920,64
113930,53
113940,42
113950,30
113960,16
113970,14
113980,7
113990,3
114000,0
114010,0
114020,0
114030,0
114040,0
114050,0
114060,0
114070,0
114080,0
114090,0
114100,0
114110,0
114120,0
114130,0
114140,0
114150,0
114160,0
114170,0
114180,0
114190,0
114200,0
114210,3568
114220,3575
114230,3569
114240,3564
114250,3569
114260,3568
114270,3568
114280,3565
114290,3563
114300,3568
114310,3565
114320,3568
114330,3571
114340,3564
114350,3566
114360,1082
114370,1778
114380,3563
114390,3270
114400,2714
114410,2305
114420,956
114430,1569
114440,1265
114450,1006
114460,169
114470,0
114480,498
114490,391
114500,313
114510,243
114520,190
114530,158
114540,116
114550,92
114560,74
114570,57
114580,43
114590,30
114600,24
114610,16
114620,13
114630,6
114640,0
114650,0
114660,0
114670,0
114680,0
114690,0
114700,0
114710,0
114720,0
114730,0
114740,0
114750,0
114760,0
114770,0
114780,0
114790,0
114800,0
114810,0
114820,0
114830,0
114840,0
114850,0
114860,0
114870,0
114880,0
114890,0
114900,0
114910,0
114920,0
114930,0
114940,0
114950,0
114960,0
114970,0
114980,0
114990,0
115000,0
115010,0
115020,0
115030,0
115040,3570
115050,3568
115060,3565
115070,3568
115080,3573
115090,3569
115100,3553
115110,3559
115120,3558
115130,3568
115140,3568
115150,3565
115160,3564
115170,3568
115180,3571
115190,3564
115200,3567
115210,3565
115220,3568
115230,2410
115240,2608
115250,2240
115260,1889
115270,1515
115280,77
115290,963
115300,763
115310,609
115320,478
115330,379
115340,301
115350,240
115360,0
115370,151
115380,122
115390,2729
115400,3570
115410,3565
115420,3570
115430,2829
115440,3569
115450,3567
115460,3553
115470,3557
115480,3377
115490,2774
115500,2363
115510,2000
115520,1630
115530,1303
115540,1047
115550,833
115560,656
115570,522
115580,407
115590,323
115600,256
115610,201
115620,153
115630,134
115640,94
115650,70
115660,55
115670,43
115680,30
115690,17
115700,16
115710,6
115720,7
115730,1
115740,5
115750,0
115760,4
115770,5
115780,2
115790,6
115800,6
115810,6
115820,0
115830,6
115840,3539
115850,3546
115860,3541
115870,3543
115880,3537
115890,3549
115900,3546
115910,3542
115920,3545
115930,3536
115940,3536
115950,3535
115960,3541
115970,3551
115980,3543
115990,3536
116000,3543
116010,3537
116020,3543
116030,3539
116040,3097
116050,2624
116060,2245
116070,1899
116080,1520
116090,1223
116100,975
116110,768
116120,610
116130,478
116140,381
116150,304
116160,238
116170,189
116180,144
116190,113
116200,88
116210,64
116220,51
116230,38
116240,29
116250,20
116260,13
116270,12
116280,10
116290,0
116300,3547
116310,3545
116320,3545
116330,3542
116340,3552
116350,3553
116360,3546
116370,3546
116380,3553
116390,3548
116400,3553
116410,3553
116420,3551
116430,3552
116440,3549
116450,3554
116460,3544
116470,3551
116480,3553
116490,3552
116500,3553
116510,3548
116520,3553
116530,3552
116540,3555
116550,3550
116560,3555
116570,3537
116580,3532
116590,3027
116600,2580
116610,2219
116620,1872
116630,1504
116640,1207
116650,960
116660,757
116670,603
116680,467
116690,383
116700,303
116710,237
116720,190
116730,144
116740,115
116750,80
116760,69
116770,48
116780,36
116790,813
116800,3536
116810,3541
116820,3539
116830,2261
116840,3248
116850,2732
116860,2330
116870,1973
116880,1601
116890,1777
116900,1525
116910,756
116920,0
116930,0
116940,1046
116950,886
116960,731
116970,662
116980,592
116990,580
117000,497
117010,454
117020,430
117030,402
117040,332
117050,310
117060,354
117070,293
117080,255
117090,197
117100,162
117110,123
117120,553
117130,670
117140,683
117150,559
117160,447
117170,354
117180,287
117190,227
117200,352
117210,302
117220,244
117230,201
117240,156
117250,120
117260,99
117270,78
117280,61
117290,51
117300,33
117310,19
117320,16
117330,14
117340,11
117350,12
117360,3
117370,5
117380,3
117390,0
117400,0
117410,43
117420,198
117430,171
117440,144
117450,114
117460,96
117470,77
117480,129
117490,281
117500,235
117510,189
117520,151
117530,122
117540,94
117550,68
117560,58
117570,42
117580,29
117590,25
117600,16
117610,3203
117620,3155
117630,3154
117640,3135
117650,3087
117660,3056
117670,3058
117680,3056
117690,3059
117700,3056
117710,880
117720,3008
117730,638
117740,2849
117750,2637
117760,2423
117770,2231
117780,2039
117790,1649
117800,1425
117810,1168
117820,935
117830,747
117840,592
117850,463
117860,374
117870,298
117880,234
117890,190
117900,155
117910,128
117920,99
117930,80
117940,58
117950,55
117960,39
117970,22
117980,30
117990,31
118000,20
118010,14
118020,21
118030,16
118040,12
118050,10
118060,12
118070,16
118080,16
118090,7
118100,0
118110,6
118120,0
118130,0
118140,0
118150,0
118160,0
118170,0
118180,0
118190,3
118200,0
118210,0
118220,0
118230,0
118240,0
118250,0
118260,0
118270,2
118280,0
118290,7
118300,1
118310,6
118320,11
118330,0
118340,10
118350,8
118360,1
118370,5
118380,2
118390,6
118400,1
118410,1
118420,0
118430,0
118440,372
118450,1279
118460,2972
118470,2956
118480,2943
118490,2938
118500,2926
118510,2935
118520,2911
118530,2739
118540,2672
118550,2495
118560,2321
118570,2160
118580,1947
118590,1619
118600,1328
118610,1088
118620,880
118630,704
118640,562
118650,460
118660,357
118670,279
118680,229
118690,178
118700,159
118710,124
118720,98
118730,0
118740,101
118750,48
118760,35
118770,30
118780,34
118790,30
118800,17
118810,16
118820,14
118830,18
118840,11
118850,4
118860,0
118870,1
118880,5
118890,4
118900,0
118910,3
118920,0
118930,0
118940,0
118950,1
118960,3
118970,2
118980,0
118990,1
119000,0
119010,0
119020,0
119030,1
119040,0
119050,0
119060,0
119070,0
119080,0
119090,2
119100,0
119110,5
119120,0
119130,0
119140,3
119150,0
119160,0
119170,0
119180,2923
119190,2918
119200,2910
119210,2914
119220,2915
119230,2915
119240,2913
119250,2883
119260,2901
119270,2929
119280,2927
119290,2927
119300,2934
119310,2929
119320,2927
119330,2915
119340,2929
119350,2925
119360,2929
119370,2931
119380,2900
119390,2934
119400,1597
119410,2911
119420,2929
119430,2921
119440,2931
119450,2928
119460,2916
119470,2931
119480,2937
119490,2937
119500,2942
119510,2947
119520,2937
119530,2935
119540,2928
119550,2932
119560,2928
119570,2931
119580,2773
119590,2610
119600,2943
119610,2890
119620,2912
119630,2921
119640,2887
119650,2878
119660,2847
119670,2881
119680,2886
119690,2885
119700,2891
119710,2885
119720,2708
119730,2544
119740,2405
119750,2245
119760,2085
119770,1873
119780,1529
119790,1254
119800,1012
119810,807
119820,639
119830,505
119840,414
119850,326
119860,258
119870,218
119880,174
119890,137
119900,115
119910,89
119920,70
119930,61
119940,48
119950,38
119960,33
119970,28
119980,22
119990,18
120000,2896
120010,2896
120020,2895
120030,2894
120040,2893
120050,2897
120060,2896
120070,2863
120080,2896
120090,2898
120100,2896
120110,2887
120120,2897
120130,2879
120140,2897
120150,2901
120160,2896
120170,2898
120180,2896
120190,2897
120200,2896
120210,2903
120220,2895
120230,1591
120240,2899
120250,2897
120260,2894
120270,1005
120280,2891
120290,2887
120300,2736
120310,2585
120320,2429
120330,2271
120340,2114
120350,1937
120360,1623
120370,2871
120380,2884
120390,2891
120400,2889
120410,2885
120420,2883
120430,2885
120440,2891
120450,2895
120460,2896
120470,2890
120480,2880
120490,2885
120500,2891
120510,2886
120520,2879
120530,2882
120540,2723
120550,2559
120560,2416
120570,2266
120580,2105
120590,1904
120600,1575
120610,1296
120620,1053
120630,832
120640,669
120650,524
120660,430
120670,336
120680,263
120690,224
120700,176
120710,137
120720,112
120730,91
120740,78
120750,54
120760,44
120770,41
120780,38
120790,26
120800,22
120810,14
120820,13
120830,16
120840,2882
120850,2875
120860,2873
120870,2882
120880,2873
120890,2870
120900,2800
120910,2873
120920,2879
120930,2882
120940,2882
120950,2887
120960,2877
120970,2885
120980,2885
120990,2881
121000,2865
121010,2788
121020,2641
121030,2885
121040,2719
121050,2589
121060,2879
121070,2881
121080,2880
121090,2885
121100,2880
121110,2880
121120,2885
121130,2887
121140,2892
121150,2895
121160,2891
121170,2884
121180,2894
121190,2733
121200,2578
121210,2418
121220,2265
121230,2108
121240,1909
121250,1587
121260,1309
121270,1068
121280,846
121290,674
121300,529
121310,433
121320,352
121330,283
121340,224
121350,183
121360,147
121370,669
121380,919
121390,775
121400,671
121410,559
121420,448
121430,368
121440,325
121450,262
121460,208
121470,163
121480,128
121490,101
121500,78
121510,58
121520,47
121530,33
121540,26
121550,21
121560,13
121570,5
121580,11
121590,10
121600,9
121610,29
121620,22
121630,14
121640,9
121650,10
121660,4
121670,85
121680,3449
121690,3473
121700,3486
121710,3486
121720,3497
121730,3482
121740,3490
121750,3460
121760,3483
121770,3492
121780,3490
121790,3486
121800,3485
121810,3472
121820,3483
121830,3480
121840,3483
121850,3482
121860,3482
121870,3485
121880,3481
121890,3491
121900,3465
121910,3477
121920,3248
121930,2799
121940,2421
121950,2089
121960,1735
121970,1389
121980,1121
121990,884
122000,704
122010,559
122020,439
122030,347
122040,274
122050,741
122060,2335
122070,3520
122080,3091
122090,2997
122100,3664
122110,3670
122120,3671
122130,3672
122140,3675
122150,3673
122160,3669
122170,3662
122180,3666
122190,3689
122200,3701
122210,3667
122220,3664
122230,3670
122240,3670
122250,3694
122260,3696
122270,3678
122280,3673
122290,3679
122300,3685
122310,3685
122320,3695
122330,3692
122340,3683
122350,3675
122360,3667
122370,3679
122380,3675
122390,3665
122400,3678
122410,3674
122420,3667
122430,3677
122440,3682
122450,3677
122460,3679
122470,3664
122480,3672
122490,3679
122500,3677
122510,3675
122520,3679
122530,3678
122540,3685
122550,3693
122560,3679
122570,3699
122580,3669
122590,3664
122600,3668
122610,3663
122620,3662
122630,3662
122640,3664
122650,3666
122660,3663
122670,3653
122680,3120
122690,2559
122700,2164
122710,1791
122720,1450
122730,1151
122740,945
122750,0
122760,0
122770,2261
122780,1955
122790,1602
122800,1270
122810,1011
122820,835
122830,912
122840,975
122850,799
122860,637
122870,389
122880,0
122890,0
122900,252
122910,199
122920,156
122930,0
122940,96
122950,91
122960,162
122970,995
122980,1179
122990,954
123000,770
123010,619
123020,481
123030,388
123040,302
123050,240
123060,192
123070,147
123080,117
123090,88
123100,70
123110,62
123120,43
123130,33
123140,23
123150,23
123160,14
123170,14
123180,11
123190,6
123200,23
123210,33
123220,33
123230,22
123240,16
123250,13
123260,14
123270,11
123280,14
123290,15
123300,11
123310,3665
123320,3675
123330,3665
123340,3671
123350,3664
123360,3663
123370,3664
123380,3671
123390,3665
123400,3666
123410,3662
123420,3650
123430,3053
123440,2512
123450,2110
123460,1738
123470,1386
123480,1111
123490,880
123500,697
123510,601
123520,495
123530,262
123540,320
123550,269
123560,217
123570,167
123580,135
123590,126
123600,99
123610,80
123620,65
123630,54
123640,0
123650,3045
123660,3664
123670,3667
123680,3670
123690,3666
123700,3664
123710,3666
123720,3673
123730,3666
123740,3669
123750,3664
123760,3665
123770,3659
123780,3456
123790,2802
123800,2369
123810,3662
123820,3670
123830,3664
123840,3665
123850,3665
123860,3683
123870,3670
123880,3666
123890,3673
123900,3664
123910,3665
123920,3665
123930,3667
123940,3664
123950,3663
123960,3655
123970,2861
123980,2341
123990,1977
124000,1680
124010,1392
124020,1137
124030,915
124040,727
124050,592
124060,464
124070,368
124080,295
124090,234
124100,192
124110,144
124120,115
124130,87
124140,76
124150,61
124160,38
124170,31
124180,27
124190,19
124200,16
124210,439
124220,1445
124230,3658
124240,3664
124250,3679
124260,3670
124270,3671
124280,3674
124290,3670
124300,3671
124310,3667
124320,2673
124330,549
124340,1378
124350,2874
124360,2433
124370,2067
124380,1703
124390,1361
124400,1095
124410,3671
124420,3665
124430,3661
124440,3670
124450,3664
124460,3651
124470,2943
124480,2490
124490,2112
124500,1745
124510,1399
124520,1113
124530,883
124540,470
124550,0
124560,445
124570,353
124580,278
124590,225
124600,179
124610,138
124620,112
124630,93
124640,66
124650,61
124660,47
124670,33
124680,26
124690,23
124700,16
124710,16
124720,11
124730,14
124740,5
124750,7
124760,5
124770,3
124780,0
124790,1
124800,0
124810,5
124820,1
124830,0
124840,0
124850,0
124860,0
124870,0
124880,0
124890,1
124900,1
124910,0
124920,0
124930,0
124940,1
124950,3
124960,0
124970,0
124980,5
124990,0
125000,3668
125010,3664
125020,3663
125030,3670
125040,3671
125050,3665
125060,3671
125070,3664
125080,3671
125090,3673
125100,3674
125110,3674
125120,3678
125130,3666
125140,3674
125150,3674
125160,3674
125170,3109
125180,2689
125190,2299
125200,2003
125210,1727
125220,2031
125230,1888
125240,1405
125250,1648
125260,1327
125270,1070
125280,856
125290,688
125300,560
125310,457
125320,372
125330,313
125340,256
125350,214
125360,180
125370,1846
125380,3490
125390,3695
125400,2672
125410,3620
125420,3027
125430,2649
125440,2308
125450,1975
125460,1604
125470,1311
125480,1065
125490,848
125500,686
125510,559
125520,439
125530,352
125540,287
125550,237
125560,192
125570,159
125580,131
125590,112
125600,92
125610,80
125620,65
125630,61
125640,53
125650,45
125660,45
125670,40
125680,38
125690,34
125700,30
125710,34
125720,29
125730,33
125740,26
125750,28
125760,24
125770,26
125780,25
125790,22
125800,27
125810,27
125820,27
125830,28
125840,30
125850,31
125860,27
125870,30
125880,33
125890,48
125900,53
125910,59
125920,58
125930,58
125940,57
125950,3698
125960,3691
125970,3693
125980,3689
125990,3691
126000,3697
126010,3696
126020,3694
126030,3699
126040,3690
126050,3648
126060,3572
126070,2947
126080,2757
126090,2269
126100,2135
126110,1808
126120,1455
126130,1186
126140,959
126150,779
126160,634
126170,511
126180,1017
126190,3686
126200,3695
126210,1493
126220,0
126230,3545
126240,2973
126250,2109
126260,3671
126270,3663
126280,3654
126290,3659
126300,3655
126310,3658
126320,2999
126330,2471
126340,1922
126350,1706
126360,1358
126370,1089
126380,863
126390,685
126400,543
126410,425
126420,384
126430,319
126440,258
126450,208
126460,172
126470,130
126480,106
126490,83
126500,68
126510,55
126520,48
126530,48
126540,134
126550,342
126560,1217
126570,1060
126580,844
126590,681
126600,542
126610,427
126620,336
126630,269
126640,210
126650,164
126660,125
126670,95
126680,79
126690,64
126700,3665
126710,3667
126720,3665
126730,3659
126740,3663
126750,3667
126760,3658
126770,3665
126780,3668
126790,3667
126800,3660
126810,3664
126820,3663
126830,3655
126840,3667
126850,3674
126860,1947
126870,176
126880,3607
126890,3547
126900,1337
126910,3377
126920,2713
126930,2262
126940,1890
126950,1519
126960,1214
126970,960
126980,760
126990,608
127000,475
127010,942
127020,2839
127030,3659
127040,3659
127050,3657
127060,3664
127070,3655
127080,3659
127090,3307
127100,3665
127110,3669
127120,3665
127130,3665
127140,3665
127150,3664
127160,3664
127170,3666
127180,1528
127190,3664
127200,3664
127210,3665
127220,3671
127230,3663
127240,3661
127250,3664
127260,3655
127270,3178
127280,2620
127290,2204
127300,1831
127310,1475
127320,1191
127330,947
127340,752
127350,591
127360,471
127370,375
127380,303
127390,243
127400,194
127410,155
127420,125
127430,106
127440,80
127450,66
127460,52
127470,41
127480,32
127490,24
127500,23
127510,3519
127520,3674
127530,3664
127540,3669
127550,3665
127560,3663
127570,3664
127580,3664
127590,3663
127600,3670
127610,2946
127620,576
127630,3664
127640,3669
127650,3662
127660,3665
127670,3663
127680,3661
127690,1461
127700,3569
127710,3665
127720,3661
127730,1229
127740,3669
127750,3660
127760,3664
127770,3660
127780,3657
127790,3055
127800,2583
127810,2202
127820,1843
127830,1475
127840,1188
127850,910
127860,298
127870,509
127880,536
127890,491
127900,398
127910,317
127920,254
127930,203
127940,158
127950,127
127960,95
127970,72
127980,61
127990,48
128000,39
128010,28
128020,20
128030,16
128040,11
128050,2
128060,0
128070,0
128080,0
128090,0
128100,0
128110,0
128120,0
128130,0
128140,0
128150,0
128160,0
128170,0
128180,0
128190,0
128200,0
128210,0
128220,0
128230,0
128240,0
128250,0
128260,0
128270,0
128280,0
128290,0
128300,0
128310,3664
128320,3659
128330,3663
128340,3664
128350,3659
128360,3663
128370,3664
128380,3663
128390,3655
128400,3663
128410,3663
128420,3662
128430,3664
128440,3655
128450,3664
128460,3662
128470,3665
128480,3662
128490,3662
128500,3660
128510,3629
128520,3631
128530,3617
128540,3216
128550,2640
128560,2226
128570,1844
128580,1482
128590,1189
128600,944
128610,752
128620,596
128630,475
128640,383
128650,310
128660,247
128670,194
128680,0
128690,0
128700,114
128710,123
128720,100
128730,74
128740,62
128750,34
128760,46
128770,74
128780,64
128790,48
128800,134
128810,3680
128820,2032
128830,347
128840,3679
128850,3670
128860,3681
128870,3665
128880,3177
128890,2611
128900,2179
128910,1801
128920,1442
128930,1185
128940,945
128950,755
128960,597
128970,475
128980,379
128990,299
129000,239
129010,186
129020,149
129030,3664
129040,3676
129050,3667
129060,3665
129070,3664
129080,3664
129090,3659
129100,3673
129110,3669
129120,3664
129130,3664
129140,3659
129150,3662
129160,3663
129170,3663
129180,3662
129190,3660
129200,3664
129210,3664
129220,3661
129230,3663
129240,3651
129250,2928
129260,1087
129270,0
129280,0
129290,3643
129300,3658
129310,3655
129320,3665
129330,3662
129340,3214
129350,3653
129360,3656
129370,3261
129380,2679
129390,2254
129400,1882
129410,1511
129420,1213
129430,963
129440,768
129450,613
129460,481
129470,380
129480,302
129490,242
129500,192
129510,128
129520,3605
129530,3599
129540,3683
129550,3393
129560,3683
129570,3683
129580,3719
129590,3707
129600,3717
129610,3727
129620,3728
129630,3687
129640,3655
129650,2113
129660,2559
129670,3677
129680,3670
129690,3664
129700,3664
129710,3015
129720,2559
129730,2181
129740,1829
129750,1463
129760,1179
129770,939
129780,746
129790,592
129800,472
129810,375
129820,304
129830,240
129840,193
129850,3657
129860,3669
129870,3668
129880,3670
129890,3661
129900,3690
129910,3681
129920,3693
129930,3687
129940,3682
129950,3690
129960,3685
129970,3691
129980,3689
129990,3685
130000,3690
130010,3691
130020,3683
130030,3686
130040,3692
130050,3683
130060,1445
130070,0
130080,0
130090,3684
130100,3649
130110,3443
130120,3678
130130,3691
130140,3681
130150,3680
130160,3689
130170,3676
130180,3681
130190,3684
130200,3673
130210,3680
130220,3683
130230,3677
130240,3694
130250,3681
130260,3686
130270,3696
130280,3681
130290,1986
130300,3682
130310,3683
130320,3689
130330,3690
130340,3690
130350,3685
130360,3630
130370,3682
130380,3664
130390,3663
130400,3663
130410,3636
130420,3638
130430,3618
130440,2835
130450,2345
130460,1957
130470,1575
130480,1265
130490,1008
130500,797
130510,627
130520,499
130530,398
130540,313
130550,243
130560,192
130570,153
130580,119
130590,95
130600,69
130610,64
130620,90
130630,85
130640,98
130650,71
130660,54
130670,39
130680,27
130690,28
130700,18
130710,16
130720,99
130730,1103
130740,1135
130750,1039
130760,848
130770,698
130780,687
130790,548
130800,432
130810,299
130820,373
130830,219
130840,177
130850,0
130860,3679
130870,3662
130880,3662
130890,3664
130900,3664
130910,3669
130920,3664
130930,897
130940,0
130950,0
130960,174
130970,3569
130980,3632
130990,3576
131000,3569
131010,3648
131020,3667
131030,3662
131040,2880
131050,2675
131060,2510
131070,2256
131080,1894
131090,1516
131100,1227
131110,975
131120,775
131130,617
131140,485
131150,390
131160,2495
131170,273
131180,0
131190,0
131200,0
131210,2822
131220,2345
131230,1966
131240,1586
131250,1279
131260,1009
131270,3659
131280,3661
131290,3648
131300,3647
131310,3648
131320,1673
131330,3654
131340,3654
131350,3659
131360,3664
131370,3660
131380,3659
131390,3663
131400,3659
131410,3666
131420,3662
131430,3668
131440,3667
131450,3667
131460,3666
131470,3661
131480,3664
131490,3675
131500,3654
131510,3150
131520,2559
131530,2128
131540,1745
131550,1397
131560,1215
131570,1358
131580,1171
131590,944
131600,757
131610,599
131620,470
131630,190
131640,299
131650,238
131660,3665
131670,3661
131680,3664
131690,3664
131700,3674
131710,3665
131720,3664
131730,3664
131740,3666
131750,3664
131760,3663
131770,3664
131780,3664
131790,3659
131800,2107
131810,3135
131820,3546
131830,1327
131840,2739
131850,2282
131860,1904
131870,1527
131880,550
131890,975
131900,778
131910,522
131920,490
131930,385
131940,311
131950,250
131960,197
131970,0
131980,0
131990,0
132000,86
132010,66
132020,51
132030,71
132040,64
132050,51
132060,38
132070,62
132080,23
132090,25
132100,16
132110,7
132120,4
132130,3
132140,0
132150,0
132160,0
132170,1
132180,0
132190,0
132200,0
132210,0
132220,0
132230,0
132240,0
132250,0
132260,0
132270,0
132280,0
132290,0
132300,0
132310,0
132320,0
132330,0
132340,0
132350,0
132360,0
132370,95
132380,138
132390,122
132400,122
132410,90
132420,85
132430,80
132440,65
132450,51
132460,3667
132470,3668
132480,3669
132490,3668
132500,3673
132510,3670
132520,3663
132530,3665
132540,3666
132550,3670
132560,3664
132570,3666
132580,3664
132590,3663
132600,3655
132610,3666
132620,3671
132630,3663
132640,3661
132650,3332
132660,2683
132670,1554
132680,1857
132690,1485
132700,1187
132710,942
132720,487
132730,589
132740,466
132750,368
132760,299
132770,2295
132780,3657
132790,3659
132800,3665
132810,3665
132820,3654
132830,3667
132840,3659
132850,3664
132860,3662
132870,3649
132880,3328
132890,2685
132900,2240
132910,1856
132920,1479
132930,627
132940,768
132950,752
132960,593
132970,471
132980,370
132990,303
133000,240
133010,199
133020,160
133030,117
133040,93
133050,77
133060,62
133070,45
133080,41
133090,22
133100,18
133110,13
133120,5
133130,5
133140,0
133150,0
133160,0
133170,0
133180,65
133190,91
133200,99
133210,77
133220,64
133230,70
133240,64
133250,65
133260,59
133270,69
133280,57
133290,71
133300,263
133310,342
133320,335
133330,3680
133340,3667
133350,3665
133360,3674
133370,3664
133380,3662
133390,3665
133400,3651
133410,3024
133420,2486
133430,2087
133440,1703
133450,1361
133460,1086
133470,856
133480,687
133490,560
133500,438
133510,343
133520,274
133530,223
133540,175
133550,139
133560,108
133570,81
133580,70
133590,52
133600,48
133610,29
133620,25
133630,17
133640,385
133650,979
133660,990
133670,830
133680,1552
133690,1425
133700,1168
133710,925
133720,732
133730,583
133740,460
133750,359
133760,290
133770,227
133780,181
133790,140
133800,112
133810,82
133820,64
133830,55
133840,42
133850,30
133860,19
133870,16
133880,7
133890,7
133900,1
133910,0
133920,0
133930,0
133940,0
133950,0
133960,407
133970,423
133980,394
133990,341
134000,278
134010,247
134020,223
134030,176
134040,144
134050,122
134060,128
134070,100
134080,80
134090,61
134100,3674
134110,3683
134120,3677
134130,3678
134140,3679
134150,3665
134160,3671
134170,3666
134180,3667
134190,3665
134200,511
134210,181
134220,2767
134230,3683
134240,3682
134250,3680
134260,3670
134270,3446
134280,2873
134290,1831
134300,104
134310,166
134320,0
134330,1136
134340,913
134350,729
134360,590
134370,468
134380,378
134390,304
134400,242
134410,203
134420,1995
134430,3648
134440,3674
134450,1167
134460,3673
134470,3664
134480,3657
134490,3659
134500,3664
134510,3653
134520,3663
134530,3658
134540,3649
134550,3660
134560,3664
134570,3664
134580,1319
134590,3654
134600,3655
134610,3659
134620,3659
134630,3377
134640,2709
134650,2251
134660,1974
134670,1715
134680,1361
134690,1087
134700,859
134710,683
134720,545
134730,427
134740,336
134750,274
134760,218
134770,181
134780,161
134790,362
134800,386
134810,336
134820,272
134830,235
134840,201
134850,153
134860,126
134870,106
134880,92
134890,3670
134900,3677
134910,3664
134920,3676
134930,3678
134940,3678
134950,3675
134960,3679
134970,3678
134980,3667
134990,3670
135000,3670
135010,3675
135020,1841
135030,3601
135040,2288
135050,3665
135060,3675
135070,3667
135080,3669
135090,3271
135100,2288
135110,848
135120,1919
135130,1535
135140,1229
135150,978
135160,781
135170,618
135180,490
135190,393
135200,304
135210,240
135220,195
135230,3659
135240,3664
135250,3662
135260,1181
135270,2043
135280,3664
135290,3664
135300,3674
135310,3662
135320,3653
135330,3655
135340,3655
135350,3026
135360,2498
135370,2097
135380,1715
135390,596
135400,1093
135410,873
135420,689
135430,555
135440,463
135450,372
135460,315
135470,250
135480,203
135490,157
135500,123
135510,3638
135520,3648
135530,3647
135540,3653
135550,3648
135560,3647
135570,3648
135580,3647
135590,3221
135600,2647
135610,2241
135620,1868
135630,1499
135640,1199
135650,945
135660,757
135670,597
135680,470
135690,377
135700,299
135710,235
135720,187
135730,144
135740,112
135750,89
135760,3664
135770,3662
135780,3669
135790,3664
135800,3664
135810,3664
135820,3670
135830,3668
135840,3667
135850,3665
135860,3662
135870,3409
135880,2736
135890,2288
135900,1902
135910,1521
135920,3616
135930,3662
135940,3632
135950,1126
135960,3659
135970,3660
135980,3627
135990,2818
136000,3669
136010,3670
136020,3669
136030,3665
136040,3669
136050,3669
136060,3662
136070,1668
136080,508
136090,2863
136100,3398
136110,2883
136120,2448
136130,2066
136140,1687
136150,1346
136160,1072
136170,848
136180,675
136190,534
136200,0
136210,0
136220,263
136230,203
136240,170
136250,134
136260,105
136270,83
136280,64
136290,49
136300,34
136310,32
136320,19
136330,16
136340,16
136350,3
136360,6
136370,2
136380,0
136390,0
136400,0
136410,0
136420,0
136430,0
136440,0
136450,0
136460,0
136470,0
136480,0
136490,0
136500,0
136510,0
136520,0
136530,3650
136540,3560
136550,3227
136560,3667
136570,3664
136580,3664
136590,3661
136600,3670
136610,3664
136620,3671
136630,3664
136640,3668
136650,3658
136660,3664
136670,3664
136680,3654
136690,3663
136700,3660
136710,3664
136720,3537
136730,1648
136740,168
136750,0
136760,0
136770,1466
136780,1186
136790,933
136800,742
136810,593
136820,463
136830,307
136840,285
136850,2955
136860,1232
136870,3675
136880,3670
136890,3664
136900,3632
136910,3655
136920,3664
136930,3664
136940,3663
136950,3664
136960,3661
136970,3282
136980,2602
136990,2228
137000,640
137010,0
137020,0
137030,933
137040,742
137050,624
137060,592
137070,546
137080,443
137090,350
137100,283
137110,215
137120,175
137130,138
137140,111
137150,83
137160,64
137170,50
137180,38
137190,3653
137200,3652
137210,3655
137220,3651
137230,3646
137240,3642
137250,3643
137260,3641
137270,3632
137280,3632
137290,3651
137300,3637
137310,3648
137320,3655
137330,3664
137340,3658
137350,3663
137360,3664
137370,3663
137380,3658
137390,3663
137400,3657
137410,3658
137420,3663
137430,3344
137440,2698
137450,2257
137460,1873
137470,1504
137480,1200
137490,949
137500,752
137510,599
137520,470
137530,375
137540,294
137550,235
137560,186
137570,144
137580,112
137590,95
137600,3664
137610,3659
137620,1405
137630,3657
137640,3652
137650,3507
137660,1141
137670,3664
137680,1268
137690,3651
137700,3653
137710,3648
137720,3035
137730,2527
137740,2128
137750,1759
137760,3655
137770,3659
137780,3649
137790,3649
137800,3662
137810,3649
137820,3646
137830,3643
137840,3649
137850,3670
137860,3681
137870,3523
137880,3632
137890,3551
137900,3286
137910,2709
137920,2448
137930,2134
137940,1834
137950,1530
137960,1317
137970,1225
137980,1219
137990,1099
138000,1110
138010,1037
138020,906
138030,1068
138040,1055
138050,1408
138060,1862
138070,2173
138080,2311
138090,3142
138100,3653
138110,3646
138120,3652
138130,3655
138140,3669
138150,3655
138160,3357
138170,3651
138180,3653
138190,3653
138200,3658
138210,3658
138220,3655
138230,3664
138240,3658
138250,3658
138260,3661
138270,3659
138280,3653
138290,3663
138300,3663
138310,3507
138320,2781
138330,1131
138340,0
138350,1561
138360,1248
138370,986
138380,784
138390,623
138400,3664
138410,3663
138420,3660
138430,3663
138440,3662
138450,3659
138460,3655
138470,3664
138480,3655
138490,3662
138500,3658
138510,3645
138520,3645
138530,3643
138540,3644
138550,3646
138560,3652
138570,3646
138580,3659
138590,3663
138600,3652
138610,3649
138620,3648
138630,3647
138640,3645
138650,3649
138660,3649
138670,3647
138680,3639
138690,3648
138700,3648
138710,3648
138720,3655
138730,3648
138740,3648
138750,3648
138760,3651
138770,3648
138780,3653
138790,3651
138800,3647
138810,3648
138820,3649
138830,3680
138840,3664
138850,3663
138860,3200
138870,2766
138880,2595
138890,2192
138900,1794
138910,1462
138920,1296
138930,3694
138940,3691
138950,3685
138960,3690
138970,3684
138980,3685
138990,3686
139000,3694
139010,3691
139020,3689
139030,3682
139040,3691
139050,3694
139060,3687
139070,3698
139080,3684
139090,3683
139100,3687
139110,3695
139120,3666
139130,3008
139140,2609
139150,2257
139160,688
139170,1509
139180,1246
139190,1018
139200,3690
139210,3681
139220,3688
139230,3693
139240,3685
139250,3683
139260,3650
139270,3693
139280,3687
139290,3689
139300,3695
139310,3683
139320,3655
139330,3653
139340,3657
139350,2890
139360,3660
139370,3653
139380,3654
139390,3658
139400,3648
139410,3650
139420,3651
139430,3467
139440,3510
139450,3650
139460,3646
139470,3648
139480,3651
139490,3649
139500,3648
139510,3655
139520,3651
139530,3648
139540,3650
139550,3651
139560,3646
139570,3657
139580,3648
139590,3646
139600,3647
139610,3651
139620,3649
139630,3654
139640,3643
139650,3649
139660,3642
139670,3648
139680,3651
139690,3655
139700,3654
139710,3654
139720,3660
139730,3649
139740,3658
139750,3662
139760,3653
139770,3663
139780,3642
139790,3603
139800,3659
139810,3664
139820,3659
139830,3653
139840,3671
139850,3658
139860,3653
139870,3419
139880,2768
139890,2327
139900,1963
139910,1591
139920,1271
139930,1008
139940,800
139950,639
139960,164
139970,3547
139980,2803
139990,3601
140000,3658
140010,3661
140020,3663
140030,3662
140040,3665
140050,2091
140060,3660
140070,3665
140080,3664
140090,941
140100,0
140110,0
140120,0
140130,3664
140140,3663
140150,3661
140160,3662
140170,3664
140180,3669
140190,3663
140200,3662
140210,3657
140220,3657
140230,3648
140240,2937
140250,2459
140260,2082
140270,1707
140280,1364
140290,1092
140300,867
140310,688
140320,548
140330,434
140340,341
140350,273
140360,223
140370,166
140380,135
140390,110
140400,80
140410,66
140420,55
140430,39
140440,33
140450,20
140460,20
140470,10
140480,8
140490,8
140500,1
140510,0
140520,0
140530,1
140540,0
140550,0
140560,0
140570,0
140580,0
140590,0
140600,153
140610,233
140620,3655
140630,3664
140640,3662
140650,3664
140660,3663
140670,3663
140680,3657
140690,3663
140700,3662
140710,3659
140720,3653
140730,2987
140740,2483
140750,3499
140760,3660
140770,3605
140780,3657
140790,3648
140800,3663
140810,3664
140820,3661
140830,3661
140840,3661
140850,3649
140860,3059
140870,3654
140880,3657
140890,3663
140900,3664
140910,3660
140920,3661
140930,3664
140940,3648
140950,3662
140960,3643
140970,3094
140980,2603
140990,2192
141000,1814
141010,1451
141020,1164
141030,933
141040,747
141050,592
141060,466
141070,371
141080,296
141090,240
141100,189
141110,146
141120,112
141130,91
141140,64
141150,59
141160,43
141170,34
141180,22
141190,16
141200,16
141210,13
141220,9
141230,10
141240,1
141250,2
141260,2
141270,0
141280,0
141290,0
141300,2
141310,5
141320,0
141330,2
141340,0
141350,4
141360,0
141370,0
141380,0
141390,0
141400,0
141410,0
141420,0
141430,3319
141440,3656
141450,3663
141460,3664
141470,3661
141480,3658
141490,3654
141500,3664
141510,3655
141520,3659
141530,3654
141540,3649
141550,3664
141560,3653
141570,3564
141580,3645
141590,3184
141600,2640
141610,2231
141620,1883
141630,1508
141640,1210
141650,962
141660,768
141670,617
141680,486
141690,384
141700,304
141710,243
141720,191
141730,149
141740,1232
141750,1586
141760,1422
141770,1378
141780,1710
141790,1503
141800,1205
141810,967
141820,770
141830,619
141840,485
141850,389
141860,308
141870,251
141880,195
141890,158
141900,122
141910,98
141920,75
141930,61
141940,45
141950,35
141960,28
141970,19
141980,16
141990,16
142000,10
142010,10
142020,10
142030,4
142040,0
142050,2
142060,0
142070,0
142080,1
142090,0
142100,0
142110,0
142120,0
142130,2
142140,0
142150,0
142160,0
142170,0
142180,0
142190,0
142200,3637
142210,3647
142220,3643
142230,3645
142240,3661
142250,3638
142260,3641
142270,3643
142280,3649
142290,3648
142300,3646
142310,3649
142320,3648
142330,3643
142340,3647
142350,3648
142360,3647
142370,3648
142380,3643
142390,2993
142400,2518
142410,2144
142420,3645
142430,3644
142440,3613
142450,3645
142460,3638
142470,3636
142480,3318
142490,2752
142500,2329
142510,3635
142520,3086
142530,2633
142540,2252
142550,1897
142560,1679
142570,1418
142580,1155
142590,1147
142600,1055
142610,1040
142620,1007
142630,822
142640,657
142650,528
142660,423
142670,349
142680,290
142690,234
142700,191
142710,144
142720,121
142730,99
142740,81
142750,67
142760,51
142770,48
142780,45
142790,31
142800,33
142810,23
142820,23
142830,18
142840,16
142850,17
142860,16
142870,15
142880,14
142890,12
142900,16
142910,12
142920,21
142930,15
142940,52
142950,42
142960,34
142970,25
142980,22
142990,16
143000,0
143010,10
143020,7
143030,4
143040,4
143050,3642
143060,3648
143070,3643
143080,3648
143090,3645
143100,3648
143110,3645
143120,3641
143130,3647
143140,3645
143150,3647
143160,3639
143170,3637
143180,3567
143190,2857
143200,2185
143210,2047
143220,1683
143230,1354
143240,1038
143250,864
143260,688
143270,546
143280,593
143290,0
143300,0
143310,219
143320,176
143330,140
143340,112
143350,81
143360,79
143370,99
143380,90
143390,94
143400,85
143410,74
143420,69
143430,48
143440,46
143450,38
143460,29
143470,26
143480,119
143490,16
143500,31
143510,64
143520,80
143530,101
143540,86
143550,80
143560,381
143570,3632
143580,3630
143590,3634
143600,3630
143610,3642
143620,3632
143630,3625
143640,3631
143650,3622
143660,3611
143670,3615
143680,3455
143690,3610
143700,3627
143710,3617
143720,3650
143730,3649
143740,3634
143750,3630
143760,3635
143770,3605
143780,2853
143790,2419
143800,2038
143810,3625
143820,3646
143830,3651
143840,3639
143850,3618
143860,2832
143870,3648
143880,3655
143890,3648
143900,3653
143910,3643
143920,3654
143930,3649
143940,3649
143950,3649
143960,3650
143970,3649
143980,3648
143990,3168
144000,2307
144010,560
144020,0
144030,1495
144040,688
144050,960
144060,767
144070,610
144080,3647
144090,3659
144100,3649
144110,3653
144120,3648
144130,3647
144140,3647
144150,3651
144160,3650
144170,3648
144180,3664
144190,3651
144200,3649
144210,3649
144220,3644
144230,3657
144240,3650
144250,3659
144260,3648
144270,3648
144280,3639
144290,3153
144300,2630
144310,2223
144320,1859
144330,1487
144340,1199
144350,951
144360,755
144370,602
144380,475
144390,379
144400,301
144410,240
144420,190
144430,139
144440,117
144450,97
144460,79
144470,60
144480,48
144490,35
144500,33
144510,20
144520,27
144530,42
144540,31
144550,25
144560,18
144570,7
144580,9
144590,2
144600,1
144610,3644
144620,3637
144630,3642
144640,3650
144650,3642
144660,3652
144670,3643
144680,3647
144690,3641
144700,3647
144710,3643
144720,3646
144730,3648
144740,3647
144750,3648
144760,3646
144770,3648
144780,3639
144790,3640
144800,3645
144810,1780
144820,2802
144830,2432
144840,2059
144850,1680
144860,1319
144870,1072
144880,954
144890,3647
144900,3648
144910,3534
144920,3555
144930,1802
144940,3646
144950,3652
144960,3648
144970,3648
144980,3650
144990,3633
145000,3641
145010,3632
145020,3648
145030,3649
145040,3645
145050,3600
145060,2906
145070,2495
145080,2137
145090,1779
145100,1426
145110,1137
145120,907
145130,720
145140,576
145150,453
145160,361
145170,290
145180,227
145190,176
145200,144
145210,111
145220,89
145230,65
145240,54
145250,39
145260,38
145270,18
145280,16
145290,16
145300,3
145310,0
145320,17
145330,22
145340,19
145350,16
145360,12
145370,16
145380,62
145390,80
145400,98
145410,102
145420,80
145430,3658
145440,3662
145450,1082
145460,2751
145470,3661
145480,3663
145490,3664
145500,3659
145510,3664
145520,3664
145530,3670
145540,3664
145550,3662
145560,3664
145570,3669
145580,3661
145590,3661
145600,3664
145610,3664
145620,3667
145630,3659
145640,3657
145650,3322
145660,2733
145670,3647
145680,1790
145690,3547
145700,3665
145710,3667
145720,3386
145730,3645
145740,3665
145750,3647
145760,2507
145770,3663
145780,3664
145790,3664
145800,3681
145810,3677
145820,3647
145830,3669
145840,3667
145850,3665
145860,3659
145870,3663
145880,3661
145890,3657
145900,3654
145910,3662
145920,3299
145930,3119
145940,2729
145950,2352
145960,2011
145970,1645
145980,1377
145990,1110
146000,1109
146010,1261
146020,1119
146030,1299
146040,1277
146050,1065
146060,848
146070,673
146080,546
146090,432
146100,342
146110,272
146120,213
146130,170
146140,1630
146150,2503
146160,2557
146170,2705
146180,3669
146190,3661
146200,3089
146210,2638
146220,2256
146230,1919
146240,3504
146250,3673
146260,3664
146270,3667
146280,3674
146290,3669
146300,3664
146310,3664
146320,3665
146330,3669
146340,3667
146350,3669
146360,3667
146370,3665
146380,3666
146390,3660
146400,3661
146410,3662
146420,3663
146430,3655
146440,2957
146450,2510
146460,2149
146470,1794
146480,1442
146490,1155
146500,3667
146510,3668
146520,3671
146530,3669
146540,3637
146550,3605
146560,2072
146570,3664
146580,3671
146590,3667
146600,3662
146610,3665
146620,3705
146630,3668
146640,3669
146650,3651
146660,3667
146670,3654
146680,3663
146690,3662
146700,3658
146710,3653
146720,3653
146730,3428
146740,2800
146750,2374
146760,2013
146770,3662
146780,3655
146790,3653
146800,3654
146810,3657
146820,3658
146830,3651
146840,3655
146850,3663
146860,3653
146870,3648
146880,2965
146890,2506
146900,2131
146910,1775
146920,1411
146930,1136
146940,905
146950,719
146960,573
146970,453
146980,358
146990,283
147000,227
147010,185
147020,144
147030,112
147040,89
147050,77
147060,59
147070,48
147080,3673
147090,3661
147100,3565
147110,3664
147120,3655
147130,3659
147140,3660
147150,3660
147160,3664
147170,3662
147180,3664
147190,3655
147200,3659
147210,3657
147220,3661
147230,3659
147240,3665
147250,3658
147260,3657
147270,3663
147280,1867
147290,122
147300,2277
147310,1923
147320,1535
147330,1245
147340,996
147350,405
147360,633
147370,1040
147380,966
147390,3659
147400,3659
147410,3663
147420,3663
147430,3661
147440,3654
147450,3666
147460,3652
147470,3648
147480,3002
147490,2559
147500,2217
147510,1863
147520,1486
147530,1210
147540,954
147550,784
147560,625
147570,494
147580,395
147590,308
147600,247
147610,195
147620,154
147630,125
147640,98
147650,75
147660,55
147670,51
147680,37
147690,27
147700,30
147710,19
147720,16
147730,17
147740,11
147750,6
147760,2
147770,3
147780,4
147790,3
147800,7
147810,191
147820,190
147830,151
147840,128
147850,110
147860,97
147870,207
147880,310
147890,411
147900,355
147910,3698
147920,3699
147930,3705
147940,3711
147950,3696
147960,3696
147970,3703
147980,3702
147990,3707
148000,3695
148010,3695
148020,3691
148030,3702
148040,3699
148050,3699
148060,3696
148070,3689
148080,3690
148090,3309
148100,1593
148110,2587
148120,2274
148130,1978
148140,1618
148150,1327
148160,1079
148170,720
148180,702
148190,576
148200,465
148210,3689
148220,3686
148230,3690
148240,3695
148250,3655
148260,3634
148270,3664
148280,3647
148290,3638
148300,3665
148310,3667
148320,3665
148330,3661
148340,3659
148350,3657
148360,3637
148370,2912
148380,2474
148390,2106
148400,1743
148410,1395
148420,1126
148430,897
148440,711
148450,576
148460,451
148470,362
148480,291
148490,227
148500,179
148510,146
148520,114
148530,94
148540,75
148550,63
148560,48
148570,39
148580,17
148590,22
148600,20
148610,18
148620,16
148630,11
148640,11
148650,12
148660,9
148670,0
148680,10
148690,4
148700,7
148710,9
148720,2
148730,2807
148740,3039
148750,3648
148760,3655
148770,3660
148780,3655
148790,3655
148800,3652
148810,3657
148820,3659
148830,3664
148840,3655
148850,3642
148860,3664
148870,3647
148880,3413
148890,2797
148900,2370
148910,2003
148920,1633
148930,1313
148940,1051
148950,832
148960,665
148970,528
148980,416
148990,354
149000,293
149010,1893
149020,3347
149030,3025
149040,2629
149050,3654
149060,3651
149070,3651
149080,3648
149090,3047
149100,3662
149110,3197
149120,2673
149130,2275
149140,1919
149150,1535
149160,1243
149170,993
149180,789
149190,627
149200,499
149210,397
149220,318
149230,252
149240,200
149250,161
149260,127
149270,95
149280,81
149290,64
149300,52
149310,37
149320,34
149330,23
149340,26
149350,16
149360,11
149370,15
149380,8
149390,7
149400,10
149410,5
149420,0
149430,0
149440,6
149450,10
149460,0
149470,3
149480,0
149490,3
149500,0
149510,0
149520,0
149530,5
149540,1
149550,1
149560,0
149570,4
149580,0
149590,1
149600,0
149610,0
149620,0
149630,0
149640,0
149650,0
149660,0
149670,0
149680,1
149690,0
149700,0
149710,0
149720,0
149730,1
149740,0
149750,0
149760,0
149770,0
149780,81
149790,0
149800,0
149810,0
149820,0
149830,2601
149840,2215
149850,1861
149860,1488
149870,1191
149880,983
149890,789
149900,634
149910,498
149920,400
149930,784
149940,1845
149950,2161
149960,1921
149970,1601
149980,1843
149990,1584
150000,1273
150010,1009
150020,807
150030,637
150040,511
150050,404
150060,320
150070,258
150080,207
150090,163
150100,131
150110,100
150120,86
150130,64
150140,49
150150,41
150160,34
150170,31
150180,19
150190,18
150200,16
150210,12
150220,12
150230,9
150240,3
150250,1
150260,3
150270,10
150280,317
150290,2099
150300,3648
150310,3654
150320,3648
150330,3659
150340,3649
150350,3652
150360,3648
150370,3651
150380,3654
150390,3657
150400,3659
150410,3650
150420,3648
150430,3639
150440,3014
150450,2547
150460,2162
150470,1808
150480,1424
150490,19
150500,0
150510,0
150520,134
150530,435
150540,359
150550,3463
150560,3657
150570,3651
150580,3659
150590,3650
150600,3654
150610,3598
150620,2880
150630,2443
150640,2079
150650,1689
150660,1377
150670,1151
150680,914
150690,729
150700,583
150710,463
150720,375
150730,483
150740,526
150750,1051
150760,1010
150770,1089
150780,1326
150790,1458
150800,2687
150810,2543
150820,2254
150830,1936
150840,1587
150850,1264
150860,1003
150870,799
150880,639
150890,509
150900,400
150910,321
150920,258
150930,199
150940,161
150950,129
150960,107
150970,93
150980,77
150990,61
151000,64
151010,48
151020,41
151030,30
151040,29
151050,78
151060,310
151070,528
151080,609
151090,3657
151100,3662
151110,3645
151120,3664
151130,3505
151140,1408
151150,3654
151160,3660
151170,3653
151180,3657
151190,3658
151200,3661
151210,3658
151220,3658
151230,3649
151240,3664
151250,3655
151260,3660
151270,3648
151280,3089
151290,2611
151300,2220
151310,1023
151320,0
151330,3363
151340,3572
151350,3655
151360,3653
151370,3658
151380,3623
151390,3611
151400,3609
151410,3646
151420,3661
151430,3648
151440,3647
151450,3277
151460,1895
151470,2324
151480,1957
151490,1590
151500,1271
151510,1014
151520,814
151530,640
151540,510
151550,402
151560,323
151570,256
151580,206
151590,166
151600,131
151610,105
151620,82
151630,65
151640,56
151650,46
151660,26
151670,30
151680,19
151690,17
151700,16
151710,11
151720,10
151730,12
151740,5
151750,2
151760,0
151770,4
151780,5
151790,12
151800,18
151810,28
151820,34
151830,35
151840,31
151850,18
151860,3664
151870,3664
151880,3665
151890,3665
151900,3625
151910,2471
151920,3659
151930,3669
151940,3663
151950,3664
151960,3665
151970,3667
151980,3663
151990,3665
152000,3663
152010,3663
152020,3656
152030,3664
152040,3651
152050,2939
152060,2491
152070,2122
152080,1757
152090,398
152100,0
152110,900
152120,720
152130,575
152140,450
152150,363
152160,53
152170,3599
152180,3630
152190,2794
152200,3661
152210,3658
152220,3665
152230,3662
152240,3649
152250,3662
152260,3648
152270,3664
152280,3659
152290,3372
152300,2800
152310,2386
152320,2032
152330,3135
152340,2993
152350,2663
152360,2320
152370,1991
152380,1627
152390,1301
152400,1042
152410,825
152420,659
152430,528
152440,415
152450,336
152460,261
152470,219
152480,173
152490,145
152500,112
152510,83
152520,71
152530,60
152540,48
152550,42
152560,34
152570,24
152580,22
152590,16
152600,17
152610,18
152620,29
152630,22
152640,17
152650,17
152660,13
152670,3658
152680,3665
152690,3618
152700,3664
152710,3209
152720,3665
152730,3663
152740,3664
152750,3648
152760,3658
152770,3663
152780,3665
152790,3662
152800,3664
152810,3660
152820,3657
152830,3662
152840,3632
152850,2893
152860,1906
152870,2086
152880,1729
152890,1390
152900,1105
152910,893
152920,704
152930,566
152940,448
152950,357
152960,284
152970,3264
152980,3666
152990,3655
153000,3654
153010,3658
153020,3658
153030,3662
153040,3659
153050,3658
153060,3662
153070,3657
153080,3651
153090,3663
153100,3664
153110,3662
153120,3659
153130,3659
153140,3649
153150,3661
153160,3664
153170,3667
153180,3663
153190,3661
153200,3659
153210,3654
153220,3654
153230,3655
153240,3223
153250,2710
153260,2406
153270,2349
153280,2075
153290,1747
153300,1395
153310,1111
153320,882
153330,701
153340,560
153350,448
153360,352
153370,286
153380,225
153390,178
153400,145
153410,113
153420,96
153430,75
153440,59
153450,47
153460,46
153470,30
153480,48
153490,17
153500,11
153510,14
153520,14
153530,267
153540,384
153550,3663
153560,3655
153570,3670
153580,3654
153590,3655
153600,3654
153610,2957
153620,2511
153630,2138
153640,1777
153650,2864
153660,3635
153670,3613
153680,3567
153690,3571
153700,3635
153710,3625
153720,2146
153730,3657
153740,3663
153750,3664
153760,3663
153770,3655
153780,3664
153790,3657
153800,3658
153810,3661
153820,2527
153830,996
153840,3664
153850,3657
153860,3667
153870,3655
153880,3663
153890,3657
153900,3655
153910,3648
153920,3057
153930,2605
153940,2218
153950,1866
153960,1494
153970,1202
153980,960
153990,763
154000,609
154010,485
154020,3655
154030,3663
154040,3664
154050,3662
154060,3653
154070,3660
154080,3643
154090,3201
154100,2694
154110,2291
154120,2032
154130,3661
154140,3651
154150,3663
154160,3653
154170,3655
154180,3679
154190,3651
154200,3659
154210,3654
154220,3407
154230,2814
154240,2386
154250,2031
154260,1664
154270,1341
154280,1072
154290,850
154300,681
154310,543
154320,429
154330,3661
154340,3653
154350,3658
154360,3661
154370,939
154380,276
154390,3664
154400,3659
154410,3657
154420,3644
154430,3429
154440,2821
154450,2397
154460,2035
154470,1669
154480,1330
154490,1085
154500,859
154510,681
154520,2433
154530,1577
154540,1970
154550,1634
154560,1299
154570,1039
154580,817
154590,654
154600,525
154610,416
154620,0
154630,265
154640,206
154650,164
154660,306
154670,912
154680,2291
154690,1100
154700,2608
154710,2341
154720,2165
154730,1799
154740,1445
154750,1170
154760,973
154770,793
154780,1291
154790,1220
154800,1393
154810,1258
154820,1047
154830,960
154840,831
154850,765
154860,670
154870,547
154880,464
154890,397
154900,330
154910,272
154920,225
154930,191
154940,160
154950,135
154960,128
154970,109
154980,97
154990,90
155000,78
155010,77
155020,63
155030,1145
155040,3686
155050,3670
155060,3696
155070,3699
155080,3689
155090,3679
155100,3677
155110,3297
155120,2864
155130,2556
155140,2266
155150,1955
155160,1599
155170,3056
155180,3664
155190,3393
155200,2751
155210,1129
155220,3691
155230,3687
155240,3686
155250,3689
155260,910
155270,0
155280,2014
155290,3680
155300,3352
155310,2939
155320,2599
155330,1083
155340,0
155350,0
155360,0
155370,1082
155380,871
155390,704
155400,567
155410,287
155420,0
155430,11
155440,0
155450,0
155460,0
155470,0
155480,3664
155490,3667
155500,3637
155510,3654
155520,3647
155530,3647
155540,3634
155550,3626
155560,3602
155570,3136
155580,2624
155590,2259
155600,1899
155610,1523
155620,1215
155630,1391
155640,1806
155650,1629
155660,3583
155670,3609
155680,3603
155690,3583
155700,3583
155710,3595
155720,3583
155730,3332
155740,3347
155750,3600
155760,3600
155770,3600
155780,3597
155790,3459
155800,3293
155810,3237
155820,3574
155830,3635
155840,3611
155850,3597
155860,3615
155870,3629
155880,3622
155890,3627
155900,3620
155910,3627
155920,3627
155930,3472
155940,3548
155950,3570
155960,3244
155970,2709
155980,2461
155990,2128
156000,3625
156010,3628
156020,3629
156030,3599
156040,2423
156050,3629
156060,3622
156070,3630
156080,3623
156090,3630
156100,1233
156110,64
156120,1862
156130,3632
156140,3628
156150,3621
156160,3631
156170,3629
156180,1936
156190,3392
156200,3252
156210,1730
156220,296
156230,3627
156240,3632
156250,3633
156260,830
156270,2691
156280,1127
156290,0
156300,0
156310,0
156320,0
156330,3199
156340,1949
156350,231
156360,0
156370,3648
156380,3645
156390,3663
156400,3659
156410,3655
156420,3628
156430,3634
156440,2131
156450,3606
156460,3632
156470,3631
156480,3639
156490,3636
156500,3632
156510,3641
156520,3632
156530,3637
156540,3632
156550,3632
156560,3637
156570,3634
156580,3630
156590,3634
156600,3627
156610,3642
156620,3632
156630,3633
156640,3632
156650,3630
156660,3631
156670,3632
156680,3635
156690,3632
156700,3623
156710,3625
156720,3618
156730,3617
156740,3623
156750,3623
156760,3620
156770,3628
156780,3621
156790,3623
156800,3621
156810,3619
156820,3619
156830,3015
156840,3595
156850,3621
156860,3617
156870,2662
156880,633
156890,0
156900,0
156910,3623
156920,3626
156930,3621
156940,3626
156950,3615
156960,3614
156970,3615
156980,2955
156990,3483
157000,3181
157010,2688
157020,2295
157030,2047
157040,1683
157050,1362
157060,1103
157070,871
157080,657
157090,567
157100,2224
157110,3472
157120,3623
157130,3625
157140,3045
157150,3495
157160,3624
157170,3621
157180,3615
157190,3615
157200,3603
157210,3619
157220,3613
157230,3616
157240,3616
157250,3619
157260,3611
157270,3617
157280,3611
157290,3622
157300,3619
157310,3618
157320,3610
157330,3613
157340,3622
157350,3614
157360,3616
157370,3612
157380,3615
157390,3616
157400,3616
157410,3623
157420,3613
157430,3617
157440,3609
157450,3619
157460,3616
157470,3615
157480,3608
157490,3611
157500,3609
157510,3605
157520,3600
157530,3602
157540,3607
157550,3602
157560,3606
157570,3165
157580,2718
157590,2352
157600,2016
157610,1656
157620,1339
157630,3411
157640,3605
157650,3606
157660,3617
157670,3617
157680,3609
157690,3605
157700,3600
157710,3610
157720,3617
157730,3609
157740,3614
157750,3618
157760,3610
157770,3563
157780,3527
157790,3470
157800,3249
157810,3284
157820,3603
157830,3601
157840,3599
157850,3007
157860,2608
157870,2256
157880,1995
157890,1659
157900,1328
157910,1062
157920,864
157930,674
157940,525
157950,555
157960,562
157970,473
157980,691
157990,1535
158000,3647
158010,3648
158020,3657
158030,3648
158040,3647
158050,3641
158060,3649
158070,3648
158080,3647
158090,3649
158100,3648
158110,3645
158120,3645
158130,3647
158140,3639
158150,3646
158160,3652
158170,3649
158180,3647
158190,3648
158200,3645
158210,3651
158220,3650
158230,3645
158240,3647
158250,3643
158260,3632
158270,3648
158280,3639
158290,3642
158300,3646
158310,3632
158320,3633
158330,3661
158340,3655
158350,3657
158360,3653
158370,3643
158380,3643
158390,3645
158400,3647
158410,3645
158420,3643
158430,3646
158440,3645
158450,3650
158460,1280
158470,3440
158480,3621
158490,3632
158500,1069
158510,3648
158520,3650
158530,3645
158540,3648
158550,983
158560,0
158570,2934
158580,3646
158590,3649
158600,3648
158610,880
158620,3431
158630,3502
158640,3632
158650,3613
158660,3033
158670,2559
158680,1972
158690,1852
158700,1481
158710,1196
158720,950
158730,758
158740,784
158750,685
158760,551
158770,432
158780,351
158790,282
158800,227
158810,191
158820,154
158830,139
158840,106
158850,81
158860,67
158870,277
158880,3648
158890,3658
158900,3657
158910,3662
158920,3658
158930,3658
158940,3655
158950,3662
158960,3651
158970,3652
158980,3659
158990,3661
159000,3648
159010,3501
159020,3010
159030,2581
159040,2166
159050,1808
159060,1498
159070,1415
159080,1392
159090,1535
159100,2759
159110,3653
159120,3652
159130,3663
159140,3651
159150,3661
159160,3658
159170,3664
159180,3663
159190,3648
159200,3664
159210,3657
159220,3667
159230,3672
159240,3666
159250,3664
159260,3651
159270,3623
159280,3664
159290,3666
159300,3651
159310,3664
159320,3659
159330,1395
159340,2559
159350,2191
159360,1831
159370,1466
159380,1163
159390,943
159400,749
159410,593
159420,464
159430,376
159440,290
159450,94
159460,192
159470,149
159480,126
159490,118
159500,0
159510,86
159520,67
159530,70
159540,61
159550,47
159560,34
159570,33
159580,20
159590,4
159600,13
159610,25
159620,23
159630,19
159640,12
159650,13
159660,13
159670,3
159680,6
159690,12
159700,5
159710,0
159720,1
159730,0
159740,5
159750,5
159760,0
159770,0
159780,0
159790,3
159800,0
159810,0
159820,0
159830,0
159840,0
159850,4
159860,0
159870,0
159880,4
159890,1
159900,2
159910,5
159920,11
159930,11
159940,11
159950,7
159960,7
159970,11
159980,10
159990,11
160000,10
160010,13
160020,1661
160030,3669
160040,3667
160050,3664
160060,3377
160070,3665
160080,3664
160090,3665
160100,3663
160110,3663
160120,3666
160130,3664
160140,3664
160150,3667
160160,3663
160170,3673
160180,3673
160190,3664
160200,3669
160210,3671
160220,3664
160230,3661
160240,2983
160250,2519
160260,2201
160270,1879
160280,1518
160290,1230
160300,981
160310,789
160320,631
160330,499
160340,397
160350,320
160360,254
160370,207
160380,156
160390,133
160400,106
160410,83
160420,67
160430,3673
160440,3664
160450,3665
160460,3665
160470,3666
160480,3665
160490,3665
160500,3667
160510,3669
160520,3664
160530,3669
160540,3665
160550,3664
160560,3676
160570,3671
160580,3665
160590,3668
160600,3663
160610,3672
160620,3668
160630,3675
160640,3669
160650,3664
160660,3662
160670,3662
160680,3673
160690,3677
160700,3681
160710,3673
160720,3664
160730,3684
160740,3686
160750,3687
160760,3679
160770,3664
160780,3664
160790,3666
160800,3121
160810,3659
160820,3665
160830,3669
160840,3616
160850,3663
160860,3670
160870,3663
160880,3667
160890,3653
160900,2923
160910,2479
160920,2106
160930,1745
160940,1394
160950,1126
160960,896
160970,713
160980,564
160990,3665
161000,3674
161010,3671
161020,3671
161030,3665
161040,3671
161050,3663
161060,3662
161070,3649
161080,3649
161090,2983
161100,2535
161110,2160
161120,1797
161130,1439
161140,1165
161150,917
161160,755
161170,603
161180,477
161190,384
161200,311
161210,251
161220,195
161230,156
161240,127
161250,99
161260,71
161270,64
161280,53
161290,45
161300,35
161310,32
161320,3653
161330,3651
161340,3654
161350,3651
161360,3661
161370,3653
161380,3659
161390,3650
161400,3653
161410,3653
161420,3649
161430,3654
161440,3643
161450,3646
161460,3111
161470,2627
161480,2239
161490,1903
161500,1574
161510,1264
161520,1007
161530,851
161540,778
161550,729
161560,596
161570,485
161580,398
161590,3696
161600,3693
161610,3697
161620,3696
161630,3696
161640,3654
161650,3682
161660,3696
161670,3691
161680,3680
161690,3684
161700,3681
161710,3146
161720,2739
161730,2387
161740,2070
161750,1709
161760,1391
161770,1131
161780,909
161790,729
161800,1038
161810,3623
161820,3472
161830,3690
161840,3683
161850,3682
161860,3691
161870,3682
161880,3691
161890,3686
161900,3669
161910,3647
161920,3307
161930,2771
161940,2372
161950,2023
161960,1662
161970,1334
161980,1078
161990,909
162000,733
162010,597
162020,467
162030,384
162040,304
162050,269
162060,221
162070,182
162080,145
162090,118
162100,112
162110,107
162120,87
162130,80
162140,78
162150,65
162160,63
162170,58
162180,59
162190,74
162200,103
162210,474
162220,479
162230,1591
162240,1873
162250,2799
162260,2646
162270,2354
162280,2171
162290,1841
162300,1484
162310,1198
162320,977
162330,802
162340,658
162350,1597
162360,1472
162370,1218
162380,976
162390,3671
162400,3669
162410,3674
162420,3681
162430,3682
162440,3670
162450,3669
162460,3664
162470,3671
162480,3661
162490,2950
162500,2512
162510,2150
162520,1783
162530,1427
162540,1152
162550,915
162560,731
162570,582
162580,464
162590,368
162600,3667
162610,3667
162620,3665
162630,3653
162640,3683
162650,3669
162660,3639
162670,3664
162680,3662
162690,3664
162700,3670
162710,3671
162720,3667
162730,3659
162740,3670
162750,3664
162760,3269
162770,2938
162780,3344
162790,2967
162800,2469
162810,2119
162820,1773
162830,1448
162840,1185
162850,1043
162860,1520
162870,1761
162880,1505
162890,1260
162900,1015
162910,805
162920,655
162930,528
162940,419
162950,329
162960,268
162970,210
162980,175
162990,426
163000,429
163010,973
163020,1034
163030,910
163040,895
163050,1069
163060,1094
163070,947
163080,805
163090,752
163100,624
163110,532
163120,455
163130,413
163140,368
163150,365
163160,314
163170,3360
163180,3670
163190,3670
163200,3686
163210,3668
163220,3679
163230,3509
163240,3677
163250,3671
163260,3335
163270,2782
163280,2383
163290,2027
163300,1654
163310,1331
163320,1078
163330,853
163340,688
163350,546
163360,433
163370,345
163380,281
163390,225
163400,179
163410,144
163420,114
163430,93
163440,78
163450,54
163460,48
163470,43
163480,34
163490,194
163500,173
163510,164
163520,143
163530,123
163540,112
163550,94
163560,82
163570,75
163580,65
163590,61
163600,64
163610,1074
163620,3679
163630,3694
163640,3683
163650,3690
163660,3685
163670,3683
163680,3675
163690,3681
163700,3675
163710,3670
163720,3683
163730,3681
163740,3681
163750,3685
163760,3683
163770,3689
163780,3674
163790,3671
163800,3664
163810,3682
163820,3681
163830,3679
163840,3665
163850,3666
163860,3679
163870,3680
163880,3673
163890,3673
163900,3664
163910,3657
163920,3667
163930,3662
163940,3664
163950,3666
163960,3655
163970,3664
163980,3665
163990,3664
164000,3654
164010,3659
164020,3661
164030,3664
164040,3665
164050,3665
164060,3665
164070,3664
164080,3661
164090,3664
164100,3662
164110,3654
164120,3660
164130,3648
164140,2962
164150,2512
164160,2129
164170,1772
164180,1413
164190,1147
164200,906
164210,727
164220,576
164230,601
164240,564
164250,485
164260,511
164270,432
164280,362
164290,295
164300,355
164310,365
164320,791
164330,1058
164340,1232
164350,3712
164360,3671
164370,3664
164380,3673
164390,3668
164400,3667
164410,3671
164420,3675
164430,3664
164440,3673
164450,3666
164460,3664
164470,3669
164480,3675
164490,3674
164500,3673
164510,3659
164520,3259
164530,2781
164540,2367
164550,2002
164560,1680
164570,3671
164580,3670
164590,3670
164600,3662
164610,3275
164620,3001
164630,3669
164640,3671
164650,3671
164660,3666
164670,3667
164680,3671
164690,3675
164700,3679
164710,3675
164720,3671
164730,3669
164740,3663
164750,3680
164760,3669
164770,3667
164780,3665
164790,3671
164800,3688
164810,3667
164820,3679
164830,3673
164840,3676
164850,3680
164860,3666
164870,3665
164880,3221
164890,2758
164900,2378
164910,2042
164920,1682
164930,1358
164940,1099
164950,880
164960,702
164970,567
164980,448
164990,365
165000,293
165010,240
165020,192
165030,156
165040,129
165050,111
165060,94
165070,75
165080,62
165090,68
165100,67
165110,115
165120,224
165130,211
165140,193
165150,161
165160,139
165170,117
165180,141
165190,171
165200,3675
165210,3674
165220,3663
165230,3671
165240,3668
165250,3664
165260,3669
165270,3668
165280,3669
165290,3674
165300,3673
165310,3665
165320,3668
165330,3669
165340,3665
165350,3662
165360,3199
165370,3071
165380,3660
165390,3664
165400,3666
165410,3664
165420,3664
165430,3674
165440,3666
165450,3663
165460,3665
165470,3677
165480,3679
165490,3678
165500,3674
165510,3669
165520,3373
165530,2879
165540,2446
165550,2109
165560,1742
165570,1398
165580,1168
165590,3665
165600,3669
165610,3667
165620,3658
165630,3664
165640,3664
165650,3661
165660,1628
165670,66
165680,2399
165690,2054
165700,1698
165710,1372
165720,1104
165730,882
165740,322
165750,560
165760,448
165770,363
165780,290
165790,208
165800,187
165810,139
165820,124
165830,0
165840,82
165850,68
165860,57
165870,47
165880,37
165890,35
165900,46
165910,144
165920,162
165930,187
165940,162
165950,134
165960,131
165970,119
165980,119
165990,95
166000,79
166010,66
166020,55
166030,46
166040,44
166050,34
166060,3673
166070,3669
166080,3668
166090,3654
166100,3664
166110,3665
166120,3677
166130,3669
166140,3667
166150,3678
166160,3670
166170,3667
166180,3676
166190,3664
166200,3662
166210,3675
166220,3664
166230,3687
166240,3665
166250,3671
166260,3676
166270,3662
166280,3669
166290,3663
166300,3648
166310,3649
166320,3638
166330,3617
166340,3119
166350,2608
166360,2197
166370,1843
166380,1471
166390,3499
166400,3655
166410,3664
166420,3653
166430,3661
166440,3654
166450,3642
166460,3614
166470,3632
166480,3651
166490,3057
166500,2559
166510,2179
166520,1821
166530,1456
166540,1169
166550,930
166560,739
166570,587
166580,465
166590,369
166600,297
166610,234
166620,182
166630,177
166640,370
166650,774
166660,1136
166670,1144
166680,1168
166690,1040
166700,828
166710,684
166720,564
166730,454
166740,377
166750,3526
166760,3536
166770,3615
166780,3635
166790,3627
166800,3611
166810,3648
166820,3664
166830,3653
166840,3659
166850,3657
166860,3664
166870,3658
166880,3664
166890,3662
166900,3664
166910,3633
166920,3659
166930,3653
166940,3659
166950,3658
166960,3654
166970,3659
166980,3664
166990,3647
167000,3651
167010,3647
167020,3653
167030,3655
167040,3658
167050,3648
167060,3663
167070,3245
167080,2681
167090,2265
167100,2000
167110,3667
167120,3666
167130,3664
167140,3664
167150,3653
167160,3659
167170,3654
167180,1975
167190,3637
167200,3642
167210,3634
167220,3648
167230,3490
167240,3664
167250,3654
167260,3661
167270,3664
167280,3664
167290,3682
167300,3451
167310,3677
167320,3414
167330,2874
167340,2515
167350,2736
167360,2405
167370,1953
167380,1946
167390,2081
167400,1737
167410,1407
167420,1296
167430,1233
167440,1088
167450,1042
167460,892
167470,710
167480,566
167490,1957
167500,3653
167510,3662
167520,3664
167530,3658
167540,3664
167550,3662
167560,3664
167570,3654
167580,3664
167590,3414
167600,3657
167610,3660
167620,3648
167630,3651
167640,3637
167650,3645
167660,3634
167670,3647
167680,3639
167690,3649
167700,3627
167710,3617
167720,3628
167730,3633
167740,3644
167750,3395
167760,2672
167770,2213
167780,2026
167790,1787
167800,2368
167810,3599
167820,3654
167830,3649
167840,3648
167850,3659
167860,3652
167870,3651
167880,3657
167890,3661
167900,3648
167910,3650
167920,3663
167930,3650
167940,3649
167950,3661
167960,3648
167970,3403
167980,3630
167990,3651
168000,3652
168010,3654
168020,3659
168030,3664
168040,3693
168050,3705
168060,3657
168070,3662
168080,3632
168090,3522
168100,3663
168110,3655
168120,3658
168130,3175
168140,2610
168150,2187
168160,1809
168170,1448
168180,1157
168190,913
168200,710
168210,576
168220,465
168230,441
168240,467
168250,434
168260,350
168270,278
168280,221
168290,174
168300,137
168310,2422
168320,3651
168330,3648
168340,3653
168350,3648
168360,3647
168370,3645
168380,3645
168390,3648
168400,3648
168410,3651
168420,3645
168430,3645
168440,3541
168450,2790
168460,2323
168470,1951
168480,1583
168490,1264
168500,995
168510,795
168520,627
168530,496
168540,398
168550,310
168560,247
168570,195
168580,154
168590,123
168600,94
168610,78
168620,59
168630,45
168640,31
168650,23
168660,16
168670,11
168680,8
168690,14
168700,3
168710,3632
168720,3631
168730,3630
168740,3621
168750,3602
168760,3595
168770,3546
168780,3230
168790,3551
168800,3489
168810,3583
168820,2735
168830,3558
168840,3501
168850,3488
168860,3477
168870,3483
168880,3505
168890,3532
168900,3434
168910,2938
168920,2508
168930,2161
168940,1826
168950,1453
168960,1179
168970,938
168980,739
168990,581
169000,103
169010,368
169020,294
169030,138
169040,191
169050,149
169060,138
169070,125
169080,83
169090,69
169100,59
169110,80
169120,66
169130,52
169140,34
169150,26
169160,65
169170,120
169180,189
169190,155
169200,144
169210,110
169220,98
169230,83
169240,82
169250,87
169260,73
169270,65
169280,48
169290,38
169300,36
169310,26
169320,17
169330,14
169340,7
169350,2
169360,1
169370,0
169380,0
169390,0
169400,0
169410,0
169420,0
169430,0
169440,0
169450,0
169460,0
169470,0
169480,0
169490,0
169500,0
169510,0
169520,0
169530,0
169540,0
169550,3621
169560,3619
169570,3581
169580,3616
169590,3632
169600,3633
169610,3649
169620,3647
169630,3639
169640,3641
169650,3649
169660,3646
169670,3611
169680,3536
169690,3329
169700,2707
169710,3130
169720,2583
169730,1991
169740,1811
169750,1415
169760,1136
169770,925
169780,713
169790,587
169800,471
169810,470
169820,657
169830,624
169840,577
169850,594
169860,481
169870,400
169880,319
169890,267
169900,208
169910,171
169920,130
169930,102
169940,80
169950,66
169960,48
169970,47
169980,33
169990,21
170000,19
170010,16
170020,15
170030,10
170040,3
170050,2
170060,10
170070,0
170080,0
170090,2
170100,0
170110,0
170120,0
170130,0
170140,0
170150,0
170160,0
170170,0
170180,0
170190,0
170200,0
170210,0
170220,0
170230,0
170240,0
170250,0
170260,0
170270,0
170280,0
170290,3637
170300,3643
170310,3638
170320,3642
170330,3632
170340,3632
170350,1999
170360,3568
170370,3623
170380,3632
170390,3513
170400,3631
170410,3634
170420,3626
170430,3632
170440,3632
170450,3631
170460,3645
170470,2846
170480,2559
170490,2167
170500,1804
170510,1441
170520,1157
170530,912
170540,726
170550,585
170560,342
170570,352
170580,257
170590,213
170600,170
170610,106
170620,102
170630,91
170640,68
170650,53
170660,16
170670,24
170680,19
170690,4
170700,15
170710,1
170720,1
170730,0
170740,0
170750,0
170760,0
170770,0
170780,0
170790,0
170800,0
170810,10
170820,1
170830,0
170840,10
170850,0
170860,0
170870,2
170880,5
170890,3
170900,0
170910,1
170920,0
170930,0
170940,1
170950,0
170960,0
170970,0
170980,0
170990,0
171000,0
171010,0
171020,0
171030,0
171040,1
171050,0
171060,0
171070,0
171080,0
171090,0
171100,0
171110,3653
171120,3648
171130,3653
171140,3658
171150,3654
171160,2647
171170,3445
171180,3502
171190,3205
171200,3633
171210,3632
171220,3633
171230,3628
171240,3635
171250,3538
171260,3186
171270,3264
171280,973
171290,3635
171300,2945
171310,2462
171320,2064
171330,1689
171340,1356
171350,1086
171360,842
171370,685
171380,544
171390,430
171400,336
171410,257
171420,203
171430,168
171440,136
171450,105
171460,85
171470,71
171480,52
171490,47
171500,48
171510,48
171520,32
171530,23
171540,23
171550,37
171560,61
171570,58
171580,77
171590,90
171600,91
171610,134
171620,113
171630,192
171640,474
171650,672
171660,553
171670,491
171680,432
171690,350
171700,294
171710,251
171720,208
171730,167
171740,133
171750,104
171760,84
171770,68
171780,59
171790,53
171800,39
171810,30
171820,23
171830,21
171840,14
171850,13
171860,4
171870,5
171880,0
171890,0
171900,4
171910,0
171920,0
171930,0
171940,2598
171950,2986
171960,3647
171970,3632
171980,3535
171990,3407
172000,3647
172010,3639
172020,3634
172030,3630
172040,3635
172050,3611
172060,3633
172070,3167
172080,3378
172090,3631
172100,3527
172110,2806
172120,2353
172130,1981
172140,1607
172150,1250
172160,1017
172170,808
172180,640
172190,508
172200,401
172210,314
172220,238
172230,193
172240,154
172250,119
172260,84
172270,76
172280,53
172290,48
172300,31
172310,23
172320,16
172330,12
172340,10
172350,10
172360,38
172370,73
172380,83
172390,141
172400,143
172410,177
172420,187
172430,153
172440,161
172450,247
172460,219
172470,183
172480,149
172490,114
172500,108
172510,80
172520,62
172530,58
172540,45
172550,30
172560,16
172570,12
172580,9
172590,5
172600,3
172610,1
172620,0
172630,0
172640,2
172650,0
172660,0
172670,0
172680,0
172690,0
172700,0
172710,0
172720,0
172730,0
172740,0
172750,0
172760,0
172770,0
172780,3637
172790,3648
172800,3639
172810,3639
172820,3651
172830,3646
172840,3657
172850,3639
172860,3651
172870,3645
172880,3647
172890,3648
172900,3645
172910,3648
172920,2907
172930,2429
172940,2042
172950,1664
172960,1341
172970,1084
172980,880
172990,709
173000,556
173010,432
173020,359
173030,300
173040,240
173050,198
173060,190
173070,163
173080,128
173090,102
173100,73
173110,61
173120,3009
173130,3615
173140,3605
173150,3614
173160,3609
173170,3599
173180,3631
173190,3606
173200,3620
173210,3628
173220,3617
173230,3607
173240,3623
173250,3602
173260,3318
173270,2789
173280,2351
173290,3648
173300,3631
173310,3649
173320,3651
173330,3648
173340,3647
173350,3648
173360,3648
173370,3637
173380,3039
173390,2522
173400,2126
173410,1754
173420,1397
173430,1119
173440,896
173450,717
173460,576
173470,452
173480,365
173490,293
173500,229
173510,178
173520,141
173530,109
173540,83
173550,64
173560,49
173570,40
173580,26
173590,19
173600,3660
173610,3659
173620,3664
173630,3661
173640,3664
173650,3667
173660,3659
173670,3647
173680,3648
173690,3649
173700,3287
173710,2599
173720,2145
173730,1801
173740,1502
173750,2691
173760,3164
173770,2627
173780,2154
173790,1791
173800,2301
173810,2417
173820,2619
173830,2671
173840,2559
173850,2675
173860,2598
173870,2672
173880,2269
173890,2432
173900,3621
173910,3632
173920,3635
173930,3648
173940,3648
173950,3638
173960,3639
173970,3629
173980,3623
173990,3619
174000,3613
174010,3534
174020,2832
174030,2369
174040,1993
174050,1616
174060,1327
174070,1072
174080,851
174090,675
174100,550
174110,441
174120,353
174130,282
174140,226
174150,180
174160,144
174170,112
174180,83
174190,65
174200,51
174210,46
174220,38
174230,33
174240,85
174250,98
174260,103
174270,385
174280,592
174290,511
174300,405
174310,322
174320,257
174330,201
174340,157
174350,119
174360,96
174370,3646
174380,3553
174390,3652
174400,3613
174410,3646
174420,3566
174430,3654
174440,3648
174450,3643
174460,3641
174470,3648
174480,3644
174490,3613
174500,3583
174510,3638
174520,3625
174530,3634
174540,3644
174550,3643
174560,3650
174570,3654
174580,3648
174590,3649
174600,3659
174610,3649
174620,3648
174630,3326
174640,2763
174650,2309
174660,1936
174670,1565
174680,1242
174690,991
174700,784
174710,625
174720,496
174730,386
174740,310
174750,242
174760,192
174770,150
174780,122
174790,98
174800,70
174810,57
174820,46
174830,45
174840,51
174850,48
174860,35
174870,61
174880,90
174890,104
174900,89
174910,109
174920,82
174930,70
174940,50
174950,34
174960,29
174970,23
174980,13
174990,11
175000,3
175010,4
175020,0
175030,0
175040,0
175050,22
175060,33
175070,37
175080,28
175090,23
175100,17
175110,5
175120,6
175130,0
175140,0
175150,2908
175160,3630
175170,3629
175180,3630
175190,3622
175200,3631
175210,3638
175220,3259
175230,2256
175240,3637
175250,3632
175260,3641
175270,3645
175280,3638
175290,3542
175300,3630
175310,3511
175320,3309
175330,2656
175340,2325
175350,1958
175360,1583
175370,1265
175380,1003
175390,787
175400,625
175410,491
175420,397
175430,305
175440,249
175450,193
175460,144
175470,112
175480,72
175490,73
175500,55
175510,45
175520,30
175530,23
175540,18
175550,16
175560,7
175570,6
175580,1
175590,0
175600,0
175610,0
175620,0
175630,0
175640,0
175650,0
175660,7
175670,8
175680,12
175690,58
175700,50
175710,64
175720,54
175730,50
175740,38
175750,33
175760,26
175770,28
175780,17
175790,23
175800,30
175810,27
175820,66
175830,166
175840,165
175850,132
175860,101
175870,77
175880,60
175890,49
175900,37
175910,32
175920,17
175930,13
175940,11
175950,4
175960,3563
175970,3617
175980,3525
175990,3547
176000,2098
176010,3649
176020,3649
176030,3657
176040,3658
176050,3652
176060,3612
176070,3143
176080,3455
176090,1861
176100,3206
176110,2635
176120,2218
176130,1840
176140,1465
176150,1177
176160,928
176170,737
176180,582
176190,462
176200,363
176210,290
176220,230
176230,176
176240,143
176250,112
176260,83
176270,69
176280,64
176290,80
176300,64
176310,55
176320,42
176330,29
176340,22
176350,16
176360,12
176370,2
176380,6
176390,13
176400,9
176410,5
176420,6
176430,2
176440,6
176450,49
176460,49
176470,48
176480,61
176490,73
176500,73
176510,59
176520,42
176530,33
176540,23
176550,19
176560,21
176570,20
176580,16
176590,7
176600,17
176610,16
176620,29
176630,19
176640,17
176650,11
176660,9
176670,2
176680,6
176690,2
176700,330
176710,3632
176720,3617
176730,3625
176740,3623
176750,3643
176760,3633
176770,3557
176780,3596
176790,3601
176800,3609
176810,3627
176820,3639
176830,3634
176840,3634
176850,3099
176860,3626
176870,3632
176880,3024
176890,2258
176900,2096
176910,1729
176920,1360
176930,944
176940,77
176950,711
176960,572
176970,0
176980,0
176990,190
177000,0
177010,172
177020,130
177030,112
177040,0
177050,81
177060,68
177070,53
177080,45
177090,33
177100,21
177110,19
177120,17
177130,27
177140,38
177150,33
177160,25
177170,48
177180,96
177190,101
177200,117
177210,106
177220,203
177230,247
177240,208
177250,197
177260,154
177270,128
177280,109
177290,91
177300,434
177310,2091
177320,1951
177330,1658
177340,1323
177350,1058
177360,839
177370,3651
177380,3643
177390,3654
177400,3654
177410,3651
177420,3652
177430,3659
177440,3654
177450,3641
177460,3654
177470,3641
177480,3647
177490,3649
177500,3650
177510,3635
177520,3645
177530,3610
177540,3626
177550,3433
177560,3630
177570,3638
177580,3643
177590,2754
177600,3648
177610,3637
177620,3638
177630,3639
177640,3639
177650,3629
177660,3152
177670,2714
177680,2243
177690,1989
177700,1642
177710,1279
177720,1040
177730,841
177740,668
177750,528
177760,419
177770,334
177780,0
177790,158
177800,150
177810,16
177820,113
177830,0
177840,80
177850,58
177860,48
177870,36
177880,33
177890,31
177900,21
177910,20
177920,16
177930,19
177940,15
177950,13
177960,16
177970,15
177980,20
177990,41
178000,59
178010,78
178020,99
178030,81
178040,84
178050,82
178060,106
178070,151
178080,462
178090,497
178100,544
178110,435
178120,350
178130,297
178140,263
178150,234
178160,191
178170,153
178180,183
178190,178
178200,197
178210,3648
178220,3654
178230,3651
178240,3649
178250,3650
178260,3657
178270,3660
178280,3655
178290,3654
178300,3659
178310,3653
178320,3646
178330,2297
178340,3583
178350,3518
178360,3604
178370,3583
178380,3643
178390,3643
178400,3651
178410,3648
178420,3649
178430,3658
178440,3361
178450,2790
178460,2333
178470,1553
178480,1609
178490,1290
178500,1023
178510,778
178520,638
178530,506
178540,384
178550,320
178560,255
178570,204
178580,30
178590,78
178600,82
178610,131
178620,160
178630,359
178640,728
178650,827
178660,685
178670,605
178680,492
178690,386
178700,368
178710,388
178720,382
178730,331
178740,293
178750,233
178760,183
178770,144
178780,121
178790,109
178800,90
178810,92
178820,103
178830,98
178840,118
178850,106
178860,81
178870,64
178880,53
178890,39
178900,34
178910,36
178920,40
178930,29
178940,33
178950,29
178960,39
178970,46
178980,48
178990,48
179000,46
179010,25
179020,22
179030,16
179040,11
179050,3638
179060,3652
179070,3655
179080,3647
179090,3650
179100,3653
179110,3648
179120,3648
179130,2448
179140,3582
179150,3629
179160,3626
179170,3283
179180,3632
179190,3632
179200,3632
179210,3627
179220,3626
179230,3627
179240,3627
179250,3177
179260,3510
179270,2855
179280,2394
179290,2075
179300,1723
179310,1382
179320,1103
179330,873
179340,631
179350,528
179360,422
179370,368
179380,272
179390,216
179400,165
179410,131
179420,102
179430,64
179440,49
179450,32
179460,97
179470,40
179480,36
179490,28
179500,21
179510,9
179520,11
179530,2
179540,1
179550,6
179560,11
179570,7
179580,0
179590,10
179600,14
179610,48
179620,128
179630,134
179640,243
179650,320
179660,272
179670,304
179680,257
179690,206
179700,161
179710,127
179720,98
179730,77
179740,64
179750,52
179760,72
179770,84
179780,128
179790,111
179800,89
179810,71
179820,79
179830,64
179840,46
179850,45
179860,45
179870,35
179880,147
179890,3511
179900,3515
179910,3507
179920,3504
179930,3518
179940,3514
179950,3523
179960,3525
179970,3511
179980,3509
179990,3507
180000,3556
180010,3258
180020,3581
180030,3583
180040,3579
180050,3583
180060,3594
180070,3600
180080,3601
180090,3331
180100,2684
180110,2335
180120,1932
180130,1613
180140,1311
180150,1055
180160,833
180170,658
180180,528
180190,414
180200,331
180210,264
180220,208
180230,161
180240,128
180250,99
180260,84
180270,84
180280,79
180290,80
180300,70
180310,58
180320,48
180330,45
180340,38
180350,25
180360,20
180370,16
180380,14
180390,7
180400,3550
180410,3497
180420,3047
180430,3068
180440,3248
180450,3583
180460,3573
180470,3568
180480,3599
180490,3614
180500,3622
180510,3615
180520,3631
180530,3623
180540,3626
180550,3627
180560,3596
180570,3613
180580,3623
180590,3597
180600,3583
180610,3615
180620,3621
180630,3632
180640,3632
180650,3635
180660,3632
180670,3640
180680,3639
180690,3647
180700,3645
180710,3637
180720,3641
180730,3648
180740,3641
180750,3600
180760,3583
180770,3200
180780,3623
180790,3629
180800,3634
180810,3248
180820,3643
180830,3634
180840,3632
180850,3639
180860,3632
180870,3634
180880,2953
180890,2533
180900,2196
180910,1855
180920,1486
180930,1198
180940,955
180950,727
180960,727
180970,495
180980,395
180990,64
181000,90
181010,257
181020,145
181030,93
181040,102
181050,16
181060,128
181070,128
181080,106
181090,97
181100,75
181110,113
181120,175
181130,144
181140,121
181150,105
181160,109
181170,101
181180,83
181190,101
181200,80
181210,102
181220,112
181230,156
181240,165
181250,140
181260,114
181270,128
181280,144
181290,115
181300,86
181310,75
181320,54
181330,48
181340,51
181350,96
181360,127
181370,112
181380,91
181390,83
181400,75
181410,66
181420,60
181430,46
181440,42
181450,35
181460,3595
181470,3598
181480,3563
181490,3550
181500,3536
181510,3537
181520,3534
181530,3315
181540,3597
181550,3553
181560,3469
181570,3329
181580,3497
181590,3553
181600,2911
181610,3579
181620,3603
181630,3619
181640,3635
181650,3628
181660,3629
181670,3597
181680,3456
181690,2998
181700,2603
181710,2256
181720,1920
181730,1526
181740,1261
181750,1010
181760,800
181770,626
181780,508
181790,404
181800,324
181810,276
181820,179
181830,144
181840,849
181850,1019
181860,837
181870,658
181880,530
181890,421
181900,3529
181910,3534
181920,3531
181930,3535
181940,3539
181950,3583
181960,3583
181970,3600
181980,3450
181990,3359
182000,3302
182010,3571
182020,3546
182030,3515
182040,3535
182050,3475
182060,3466
182070,3473
182080,3455
182090,3571
182100,3583
182110,3583
182120,3583
182130,3600
182140,3554
182150,3559
182160,3631
182170,3597
182180,3601
182190,3599
182200,3607
182210,3616
182220,3626
182230,3626
182240,3632
182250,3633
182260,3632
182270,3632
182280,3632
182290,3637
182300,3632
182310,3635
182320,3625
182330,3494
182340,3620
182350,3605
182360,3614
182370,2863
182380,3617
182390,3621
182400,3637
182410,3663
182420,3641
182430,3635
182440,2203
182450,3255
182460,3392
182470,3197
182480,2750
182490,2416
182500,770
182510,1712
182520,1375
182530,1103
182540,714
182550,677
182560,598
182570,412
182580,101
182590,272
182600,216
182610,176
182620,133
182630,107
182640,91
182650,66
182660,0
182670,85
182680,101
182690,98
182700,118
182710,176
182720,165
182730,161
182740,183
182750,175
182760,300
182770,317
182780,256
182790,203
182800,161
182810,145
182820,146
182830,169
182840,426
182850,377
182860,302
182870,240
182880,205
182890,187
182900,145
182910,128
182920,103
182930,91
182940,87
182950,82
182960,117
182970,112
182980,107
182990,100
183000,78
183010,64
183020,51
183030,42
183040,32
183050,3639
183060,3648
183070,3648
183080,3643
183090,3655
183100,3657
183110,3583
183120,3599
183130,3581
183140,3025
183150,3600
183160,3600
183170,3600
183180,3602
183190,3599
183200,3597
183210,3580
183220,3575
183230,3571
183240,3447
183250,2832
183260,2419
183270,1887
183280,1703
183290,1360
183300,1075
183310,819
183320,2624
183330,2416
183340,2134
183350,1820
183360,832
183370,1090
183380,902
183390,697
183400,381
183410,462
183420,737
183430,1582
183440,1872
183450,1817
183460,1600
183470,1424
183480,1344
183490,1164
183500,959
183510,848
183520,748
183530,848
183540,716
183550,661
183560,529
183570,959
183580,1499
183590,1280
183600,1023
183610,831
183620,656
183630,526
183640,417
183650,336
183660,261
183670,210
183680,193
183690,192
183700,186
183710,163
183720,146
183730,119
183740,98
183750,80
183760,64
183770,65
183780,95
183790,80
183800,77
183810,57
183820,48
183830,37
183840,22
183850,18
183860,16
183870,12
183880,3613
183890,3583
183900,3602
183910,3583
183920,3535
183930,2709
183940,3642
183950,3635
183960,3664
183970,3679
183980,3687
183990,3649
184000,3648
184010,3649
184020,3643
184030,3648
184040,3648
184050,3648
184060,3285
184070,3414
184080,3099
184090,2480
184100,2263
184110,1901
184120,1525
184130,1236
184140,883
184150,0
184160,549
184170,465
184180,327
184190,275
184200,0
184210,199
184220,157
184230,0
184240,80
184250,47
184260,240
184270,206
184280,1293
184290,1694
184300,3214
184310,3381
184320,3383
184330,3381
184340,3473
184350,2975
184360,3262
184370,3081
184380,3542
184390,3551
184400,3554
184410,3548
184420,3545
184430,3539
184440,3533
184450,2882
184460,2453
184470,2240
184480,2033
184490,1729
184500,1383
184510,1111
184520,885
184530,717
184540,575
184550,463
184560,378
184570,306
184580,256
184590,216
184600,183
184610,252
184620,326
184630,320
184640,272
184650,220
184660,332
184670,3663
184680,3662
184690,3665
184700,3658
184710,3662
184720,3658
184730,3651
184740,3633
184750,3635
184760,3264
184770,3632
184780,3629
184790,3632
184800,3632
184810,3626
184820,3635
184830,3630
184840,3628
184850,3621
184860,3621
184870,3216
184880,3046
184890,3223
184900,3002
184910,3114
184920,3620
184930,3606
184940,3607
184950,2929
184960,2496
184970,2129
184980,1773
184990,1228
185000,1075
185010,906
185020,715
185030,499
185040,453
185050,367
185060,330
185070,352
185080,355
185090,292
185100,236
185110,192
185120,181
185130,144
185140,203
185150,216
185160,206
185170,384
185180,409
185190,336
185200,281
185210,331
185220,299
185230,466
185240,593
185250,651
185260,541
185270,432
185280,352
185290,305
185300,252
185310,202
185320,163
185330,135
185340,110
185350,92
185360,82
185370,119
185380,173
185390,572
185400,1232
185410,1096
185420,1136
185430,997
185440,799
185450,635
185460,497
185470,400
185480,3600
185490,3611
185500,3605
185510,3611
185520,3620
185530,3603
185540,3286
185550,2999
185560,3389
185570,3111
185580,3610
185590,3618
185600,3614
185610,3613
185620,3617
185630,3195
185640,3414
185650,3601
185660,1683
185670,3215
185680,2726
185690,2335
185700,1983
185710,1159
185720,1435
185730,1698
185740,1425
185750,1299
185760,1058
185770,847
185780,627
185790,511
185800,434
185810,357
185820,272
185830,251
185840,240
185850,254
185860,306
185870,487
185880,688
185890,789
185900,665
185910,742
185920,653
185930,543
185940,471
185950,503
185960,416
185970,362
185980,368
185990,1041
186000,2219
186010,2534
186020,2381
186030,2207
186040,1913
186050,1535
186060,1232
186070,982
186080,781
186090,623
186100,490
186110,394
186120,309
186130,246
186140,205
186150,178
186160,144
186170,118
186180,123
186190,144
186200,265
186210,336
186220,304
186230,270
186240,261
186250,280
186260,277
186270,3571
186280,3610
186290,3621
186300,3469
186310,3667
186320,3649
186330,3649
186340,3651
186350,3641
186360,3639
186370,3642
186380,3637
186390,3632
186400,3623
186410,3120
186420,3313
186430,3232
186440,3252
186450,1392
186460,3625
186470,3625
186480,3178
186490,2873
186500,2687
186510,2445
186520,2112
186530,1843
186540,1490
186550,1219
186560,559
186570,678
186580,612
186590,485
186600,341
186610,73
186620,279
186630,236
186640,256
186650,0
186660,297
186670,289
186680,235
186690,190
186700,161
186710,131
186720,107
186730,81
186740,69
186750,53
186760,77
186770,80
186780,166
186790,203
186800,163
186810,139
186820,113
186830,84
186840,70
186850,55
186860,51
186870,79
186880,77
186890,69
186900,52
186910,45
186920,43
186930,31
186940,378
186950,699
186960,735
186970,867
186980,851
186990,698
187000,665
187010,575
187020,450
187030,366
187040,288
187050,225
187060,185
187070,3621
187080,3621
187090,3648
187100,3575
187110,3520
187120,3137
187130,3514
187140,3503
187150,3457
187160,3394
187170,2883
187180,2906
187190,3161
187200,3123
187210,1434
187220,3440
187230,3439
187240,3455
187250,3011
187260,3201
187270,2917
187280,2511
187290,2489
187300,2229
187310,1951
187320,1602
187330,1344
187340,1103
187350,958
187360,857
187370,875
187380,1646
187390,1387
187400,1135
187410,915
187420,738
187430,583
187440,467
187450,405
187460,330
187470,272
187480,222
187490,180
187500,146
187510,112
187520,93
187530,75
187540,57
187550,53
187560,64
187570,278
187580,329
187590,265
187600,221
187610,173
187620,139
187630,112
187640,90
187650,80
187660,183
187670,176
187680,197
187690,237
187700,208
187710,207
187720,189
187730,320
187740,441
187750,447
187760,444
187770,353
187780,283
187790,247
187800,522
187810,734
187820,909
187830,784
187840,629
187850,504
187860,3639
187870,3633
187880,3633
187890,3639
187900,3636
187910,3639
187920,3610
187930,3622
187940,3597
187950,3603
187960,3601
187970,3601
187980,3625
187990,3615
188000,3627
188010,3629
188020,3630
188030,3631
188040,3625
188050,3609
188060,3611
188070,3597
188080,2032
188090,2475
188100,2356
188110,1517
188120,1712
188130,1371
188140,1105
188150,878
188160,694
188170,208
188180,219
188190,337
188200,0
188210,0
188220,178
188230,144
188240,110
188250,80
188260,66
188270,48
188280,48
188290,0
188300,158
188310,147
188320,129
188330,122
188340,128
188350,128
188360,112
188370,83
188380,75
188390,79
188400,93
188410,314
188420,355
188430,386
188440,334
188450,272
188460,218
188470,173
188480,134
188490,110
188500,90
188510,70
188520,56
188530,44
188540,38
188550,29
188560,20
188570,15
188580,15
188590,28
188600,47
188610,30
188620,64
188630,203
188640,274
188650,269
188660,225
188670,342
188680,425
188690,359
188700,317
188710,3661
188720,3664
188730,3657
188740,3669
188750,3669
188760,3669
188770,3632
188780,3309
188790,3402
188800,3635
188810,3632
188820,3632
188830,3635
188840,3637
188850,3632
188860,2879
188870,2416
188880,2039
188890,1662
188900,1330
188910,1072
188920,847
188930,675
188940,511
188950,374
188960,254
188970,181
188980,192
188990,128
189000,134
189010,31
189020,48
189030,45
189040,53
189050,5
189060,0
189070,32
189080,25
189090,18
189100,24
189110,48
189120,59
189130,63
189140,66
189150,63
189160,64
189170,400
189180,937
189190,1245
189200,1134
189210,939
189220,1089
189230,1983
189240,1698
189250,2435
189260,2278
189270,2016
189280,1667
189290,1392
189300,1129
189310,958
189320,1181
189330,1083
189340,977
189350,855
189360,704
189370,733
189380,683
189390,1871
189400,2160
189410,1871
189420,2096
189430,1754
189440,1397
189450,1118
189460,880
189470,703
189480,560
189490,438
189500,356
189510,295
189520,246
189530,3381
189540,3557
189550,2989
189560,3612
189570,3616
189580,3629
189590,3631
189600,3627
189610,3632
189620,3627
189630,3618
189640,3619
189650,3154
189660,1389
189670,2223
189680,1862
189690,1487
189700,606
189710,964
189720,773
189730,624
189740,481
189750,393
189760,342
189770,0
189780,234
189790,190
189800,158
189810,143
189820,151
189830,167
189840,144
189850,0
189860,128
189870,117
189880,138
189890,215
189900,227
189910,213
189920,320
189930,290
189940,240
189950,245
189960,328
189970,346
189980,477
189990,476
190000,382
190010,314
190020,250
190030,206
190040,759
190050,709
190060,814
190070,1136
190080,1863
190090,1750
190100,2120
190110,1954
190120,1625
190130,1343
190140,1124
190150,917
190160,767
190170,678
190180,805
190190,1033
190200,2106
190210,2325
190220,1993
190230,1638
190240,2216
190250,2367
190260,2849
190270,2704
190280,2262
190290,1863
190300,1489
190310,1203
190320,961
190330,763
190340,3615
190350,3606
190360,3515
190370,3575
190380,3552
190390,3385
190400,3553
190410,3551
190420,3537
190430,3548
190440,3549
190450,3538
190460,3535
190470,3533
190480,3519
190490,3255
190500,772
190510,23
190520,0
190530,1754
190540,1402
190550,1133
190560,900
190570,715
190580,592
190590,450
190600,359
190610,285
190620,225
190630,169
190640,0
190650,0
190660,0
190670,0
190680,101
190690,99
190700,233
190710,192
190720,155
190730,128
190740,107
190750,85
190760,128
190770,218
190780,176
190790,442
190800,679
190810,566
190820,458
190830,374
190840,318
190850,273
190860,752
190870,641
190880,555
190890,733
190900,945
190910,1399
190920,1157
190930,960
190940,782
190950,634
190960,505
190970,417
190980,341
190990,276
191000,229
191010,521
191020,664
191030,769
191040,617
191050,535
191060,655
191070,683
191080,2371
191090,3637
191100,3637
191110,3632
191120,3635
191130,3610
191140,3609
191150,3569
191160,3561
191170,3563
191180,3567
191190,3563
191200,3568
191210,3557
191220,3545
191230,3532
191240,3525
191250,3519
191260,3025
191270,2748
191280,2782
191290,2375
191300,1297
191310,58
191320,1471
191330,1182
191340,938
191350,752
191360,598
191370,466
191380,379
191390,302
191400,108
191410,0
191420,0
191430,245
191440,0
191450,80
191460,78
191470,112
191480,338
191490,859
191500,991
191510,2014
191520,1699
191530,1424
191540,1170
191550,956
191560,759
191570,606
191580,479
191590,423
191600,355
191610,289
191620,223
191630,206
191640,161
191650,148
191660,124
191670,96
191680,134
191690,172
191700,142
191710,128
191720,116
191730,99
191740,90
191750,84
191760,75
191770,66
191780,56
191790,89
191800,74
191810,64
191820,46
191830,38
191840,32
191850,27
191860,27
191870,30
191880,51
191890,70
191900,3645
191910,3636
191920,3649
191930,3643
191940,1820
191950,2203
191960,3491
191970,3600
191980,3641
191990,3650
192000,3648
192010,3643
192020,3637
192030,3635
192040,3642
192050,3639
192060,3645
192070,3036
192080,3327
192090,2752
192100,2352
192110,1111
192120,1820
192130,1454
192140,1168
192150,928
192160,439
192170,547
192180,496
192190,302
192200,295
192210,239
192220,188
192230,149
192240,108
192250,61
192260,52
192270,49
192280,55
192290,43
192300,31
192310,23
192320,13
192330,15
192340,19
192350,46
192360,59
192370,88
192380,86
192390,83
192400,71
192410,53
192420,48
192430,42
192440,36
192450,27
192460,94
192470,208
192480,178
192490,149
192500,128
192510,112
192520,3626
192530,3643
192540,3633
192550,3622
192560,3619
192570,3639
192580,3616
192590,3631
192600,3648
192610,3634
192620,3609
192630,3568
192640,3105
192650,3580
192660,3578
192670,3600
192680,3600
192690,3583
192700,3605
192710,3597
192720,3562
192730,3563
192740,3551
192750,3558
192760,3409
192770,3540
192780,3538
192790,3536
192800,3539
192810,3540
192820,3541
192830,2218
192840,457
192850,3108
192860,3195
192870,3403
192880,2405
192890,3355
192900,3045
192910,2730
192920,2431
192930,2144
192940,1794
192950,1436
192960,1187
192970,942
192980,855
192990,651
193000,532
193010,432
193020,358
193030,351
193040,234
193050,89
193060,0
193070,166
193080,142
193090,127
193100,112
193110,100
193120,82
193130,79
193140,80
193150,81
193160,90
193170,559
193180,558
193190,447
193200,365
193210,315
193220,256
193230,199
193240,167
193250,137
193260,112
193270,87
193280,80
193290,77
193300,60
193310,48
193320,39
193330,32
193340,27
193350,3623
193360,3621
193370,3623
193380,3626
193390,3647
193400,3632
193410,3616
193420,3597
193430,3615
193440,3607
193450,3614
193460,3615
193470,2992
193480,3625
193490,3638
193500,3625
193510,3637
193520,3632
193530,3601
193540,3615
193550,3616
193560,3052
193570,3090
193580,3607
193590,3604
193600,3598
193610,3597
193620,3601
193630,3604
193640,3385
193650,939
193660,0
193670,0
193680,3613
193690,3600
193700,2963
193710,2537
193720,2179
193730,1535
193740,1469
193750,723
193760,883
193770,720
193780,691
193790,409
193800,0
193810,222
193820,245
193830,197
193840,0
193850,0
193860,0
193870,0
193880,29
193890,62
193900,54
193910,49
193920,39
193930,46
193940,38
193950,47
193960,47
193970,51
193980,66
193990,96
194000,89
194010,116
194020,963
194030,3677
194040,3632
194050,3647
194060,3575
194070,3566
194080,3572
194090,3581
194100,3573
194110,3565
194120,3553
194130,3555
194140,3079
194150,2663
194160,2323
194170,1979
194180,1607
194190,1299
194200,1036
194210,834
194220,724
194230,603
194240,478
194250,384
194260,3556
194270,3573
194280,3615
194290,3618
194300,3623
194310,3622
194320,3648
194330,3655
194340,3582
194350,3567
194360,3120
194370,3581
194380,3581
194390,3583
194400,3581
194410,3583
194420,3583
194430,3577
194440,3581
194450,3597
194460,3583
194470,3519
194480,2927
194490,2671
194500,2499
194510,2210
194520,1903
194530,625
194540,1339
194550,1119
194560,923
194570,768
194580,641
194590,561
194600,525
194610,992
194620,0
194630,0
194640,0
194650,631
194660,611
194670,496
194680,397
194690,322
194700,308
194710,250
194720,202
194730,157
194740,146
194750,319
194760,359
194770,400
194780,435
194790,410
194800,349
194810,289
194820,240
194830,208
194840,180
194850,147
194860,120
194870,100
194880,71
194890,3456
194900,3440
194910,3456
194920,3451
194930,3472
194940,3465
194950,3505
194960,3438
194970,3488
194980,3487
194990,3527
195000,3561
195010,3583
195020,3622
195030,3567
195040,3568
195050,3583
195060,3571
195070,3573
195080,3574
195090,3575
195100,3583
195110,3581
195120,3583
195130,3381
195140,3446
195150,1599
195160,3541
195170,3545
195180,3550
195190,3539
195200,3541
195210,1870
195220,2741
195230,3070
195240,2870
195250,979
195260,3011
195270,2622
195280,2284
195290,1958
195300,1593
195310,1287
195320,46
195330,0
195340,647
195350,523
195360,409
195370,326
195380,259
195390,206
195400,0
195410,0
195420,105
195430,90
195440,69
195450,73
195460,89
195470,70
195480,62
195490,55
195500,287
195510,338
195520,320
195530,289
195540,258
195550,320
195560,747
195570,1778
195580,1568
195590,1295
195600,1130
195610,907
195620,720
195630,582
195640,462
195650,375
195660,295
195670,241
195680,194
195690,157
195700,128
195710,122
195720,3347
195730,3271
195740,3466
195750,3515
195760,3558
195770,3551
195780,3582
195790,3583
195800,3603
195810,3601
195820,3698
195830,3701
195840,3709
195850,3651
195860,3655
195870,3661
195880,3642
195890,3579
195900,3600
195910,3595
195920,3600
195930,3280
195940,3630
195950,3056
195960,3630
195970,3635
195980,3637
195990,3645
196000,3650
196010,3595
196020,2771
196030,2512
196040,3151
196050,2672
196060,1409
196070,2485
196080,2150
196090,1810
196100,1454
196110,1183
196120,157
196130,470
196140,510
196150,158
196160,384
196170,309
196180,250
196190,0
196200,0
196210,0
196220,0
196230,85
196240,74
196250,64
196260,59
196270,49
196280,129
196290,176
196300,163
196310,159
196320,272
196330,362
196340,423
196350,463
196360,447
196370,423
196380,477
196390,435
196400,375
196410,384
196420,683
196430,745
196440,693
196450,981
196460,1087
196470,1523
196480,1302
196490,1129
196500,991
196510,1296
196520,1503
196530,2001
196540,1777
196550,1582
196560,2320
196570,3342
196580,3071
196590,3312
196600,2893
196610,2558
196620,2220
196630,1878
196640,1535
196650,1266
196660,1042
196670,852
196680,699
196690,612
196700,523
196710,422
196720,351
196730,370
196740,410
196750,348
196760,304
196770,287
196780,335
196790,471
196800,1637
196810,1615
196820,1329
196830,1104
196840,894
196850,710
196860,571
196870,448
196880,358
196890,281
196900,222
196910,178
196920,142
196930,29
196940,67
196950,38
196960,48
196970,16
196980,0
196990,32
197000,22
197010,20
197020,0
197030,0
197040,10
197050,14
197060,6
197070,13
197080,11
197090,12
197100,12
197110,15
197120,13
197130,10
197140,10
197150,3
197160,6
197170,10
197180,16
197190,46
197200,981
197210,3515
197220,3494
197230,3518
197240,3411
197250,3417
197260,3435
197270,3437
197280,3422
197290,3413
197300,3422
197310,3434
197320,3426
197330,3424
197340,3399
197350,3477
197360,3466
197370,3440
197380,3488
197390,3493
197400,3520
197410,3494
197420,3453
197430,3460
197440,3463
197450,3455
197460,3462
197470,2974
197480,2619
197490,3473
197500,3478
197510,3482
197520,3479
197530,3477
197540,3200
197550,3473
197560,3473
197570,3446
197580,3463
197590,3471
197600,3153
197610,3439
197620,3334
197630,3081
197640,3229
197650,2943
197660,2845
197670,1342
197680,3523
197690,3520
197700,2843
197710,2989
197720,2794
197730,2721
197740,3397
197750,3180
197760,2819
197770,3029
197780,3261
197790,3229
197800,3233
197810,2993
197820,857
197830,83
197840,3503
197850,3505
197860,3133
197870,2753
197880,2534
197890,2287
197900,2064
197910,2783
197920,2336
197930,3510
197940,3501
197950,3381
197960,3414
197970,3575
197980,3562
197990,3575
198000,3583
198010,3583
198020,3434
198030,3299
198040,3261
198050,3253
198060,3332
198070,3354
198080,3148
198090,2831
198100,2559
198110,2352
198120,2230
198130,2002
198140,1643
198150,1376
198160,1136
198170,912
198180,752
198190,674
198200,839
198210,996
198220,834
198230,695
198240,584
198250,490
198260,423
198270,3547
198280,3554
198290,3537
198300,3541
198310,2515
198320,1823
198330,3178
198340,626
198350,3504
198360,3505
198370,3502
198380,2838
198390,2391
198400,2223
198410,2669
198420,2025
198430,2947
198440,3157
198450,3070
198460,3311
198470,3439
198480,3395
198490,3135
198500,2765
198510,2559
198520,2266
198530,821
198540,1773
198550,1501
198560,1062
198570,959
198580,811
198590,193
198600,543
198610,433
198620,353
198630,286
198640,236
198650,144
198660,160
198670,148
198680,122
198690,96
198700,80
198710,74
198720,62
198730,78
198740,66
198750,67
198760,3610
198770,3568
198780,3629
198790,3571
198800,3501
198810,3617
198820,3620
198830,3632
198840,3601
198850,3568
198860,3545
198870,3551
198880,3447
198890,2893
198900,2533
198910,2222
198920,1895
198930,1535
198940,1269
198950,1019
198960,869
198970,831
198980,715
198990,847
199000,880
199010,3437
199020,3456
199030,3447
199040,3463
199050,3488
199060,3405
199070,3453
199080,2634
199090,2321
199100,3429
199110,3409
199120,3444
199130,3408
199140,3401
199150,2704
199160,2535
199170,2542
199180,3430
199190,3417
199200,3447
199210,3426
199220,3101
199230,2861
199240,2976
199250,1745
199260,3414
199270,3442
199280,3523
199290,2989
199300,3327
199310,1938
199320,3452
199330,3426
199340,3409
199350,3395
199360,3376
199370,3167
199380,2368
199390,3012
199400,2497
199410,2199
199420,1905
199430,707
199440,1710
199450,1716
199460,2277
199470,1937
199480,2031
199490,1701
199500,1793
199510,1603
199520,1303
199530,1050
199540,838
199550,721
199560,584
199570,463
199580,374
199590,316
199600,272
199610,247
199620,272
199630,272
199640,258
199650,225
199660,190
199670,147
199680,119
199690,90
199700,73
199710,55
199720,46
199730,26
199740,21
199750,19
199760,16
199770,11
199780,6
199790,4
199800,7
199810,1
199820,3
199830,4
199840,1
199850,0
199860,0
199870,0
199880,0
199890,27
199900,105
199910,96
199920,71
199930,83
199940,74
199950,70
199960,74
199970,57
199980,11
199990,477
200000,511
200010,445
200020,529
200030,911
200040,2938
200050,2438
200060,2046
200070,1779
200080,1993
200090,2094
200100,1890
200110,2182
200120,1872
200130,1882
200140,1590
200150,1498
200160,1227
200170,1338
200180,1301
200190,1338
200200,1229
200210,1008
200220,803
200230,644
200240,570
200250,429
200260,401
200270,359
200280,304
200290,246
200300,196
200310,190
200320,150
200330,109
200340,87
200350,65
200360,53
200370,40
200380,149
200390,162
200400,129
200410,144
200420,214
200430,254
200440,239
200450,207
200460,199
200470,240
200480,409
200490,576
200500,592
200510,528
200520,451
200530,390
200540,349
200550,320
200560,289
200570,272
200580,251
200590,192
200600,384
200610,370
200620,344
200630,326
200640,319
200650,308
200660,290
200670,383
200680,381
200690,373
200700,373
200710,473
200720,494
200730,461
200740,388
200750,348
200760,410
200770,400
200780,359
200790,0
200800,208
200810,194
200820,171
200830,141
200840,116
200850,99
200860,801
200870,299
200880,43
200890,471
200900,353
200910,276
200920,287
200930,433
200940,384
200950,315
200960,256
200970,195
200980,166
200990,144
201000,112
201010,100
201020,84
201030,3696
201040,3697
201050,3696
201060,3280
201070,2902
201080,2337
201090,2320
201100,1968
201110,2061
201120,1763
201130,1735
201140,2147
201150,1982
201160,2533
201170,2864
201180,3414
201190,3538
201200,3666
201210,3664
201220,3665
201230,3661
201240,3659
201250,3664
201260,3651
201270,3648
201280,3649
201290,3651
201300,3671
201310,3696
201320,3683
201330,3184
201340,2880
201350,2594
201360,2315
201370,2034
201380,1680
201390,1571
201400,1687
201410,1725
201420,3658
201430,3648
201440,3653
201450,3653
201460,3664
201470,3654
201480,3650
201490,3652
201500,3654
201510,3652
201520,3661
201530,3649
201540,3663
201550,3244
201560,3662
201570,3651
201580,3661
201590,3660
201600,3654
201610,3653
201620,3651
201630,3659
201640,3329
201650,3261
201660,3661
201670,3655
201680,3658
201690,3662
201700,3659
201710,3655
201720,3657
201730,3651
201740,3005
201750,2507
201760,2115
201770,1748
201780,1395
201790,1109
201800,880
201810,698
201820,554
201830,432
201840,342
201850,287
201860,219
201870,175
201880,154
201890,119
201900,1
201910,0
201920,0
201930,0
201940,105
201950,118
201960,191
201970,74
201980,368
201990,381
202000,1081
202010,1216
202020,983
202030,784
202040,638
202050,507
202060,405
202070,335
202080,275
202090,223
202100,192
202110,154
202120,127
202130,110
202140,131
202150,105
202160,83
202170,68
202180,48
202190,38
202200,35
202210,25
202220,16
202230,16
202240,7
202250,24
202260,0
202270,0
202280,0
202290,0
202300,16
202310,26
202320,25
202330,17
202340,10
202350,1006
202360,3506
202370,1494
202380,3709
202390,3694
202400,3695
202410,3696
202420,3696
202430,3698
202440,3673
202450,3695
202460,3251
202470,2672
202480,2390
202490,2146
202500,1897
202510,1643
202520,1373
202530,1129
202540,1700
202550,1724
202560,1461
202570,1190
202580,1950
202590,1725
202600,1970
202610,2061
202620,1986
202630,1749
202640,1459
202650,1362
202660,1690
202670,1670
202680,2352
202690,2326
202700,2073
202710,2032
202720,0
202730,2471
202740,3635
202750,3643
202760,3635
202770,3582
202780,3597
202790,2335
202800,2143
202810,400
202820,3555
202830,3503
202840,3636
202850,3647
202860,3639
202870,3648
202880,3630
202890,3663
202900,3653
202910,3657
202920,3648
202930,3661
202940,3664
202950,3654
202960,3657
202970,3663
202980,3661
202990,3664
203000,3648
203010,3661
203020,3664
203030,3654
203040,3659
203050,3653
203060,3654
203070,3657
203080,3658
203090,3651
203100,3627
203110,3649
203120,3646
203130,3632
203140,3633
203150,3638
203160,3645
203170,3632
203180,3410
203190,3517
203200,3643
203210,3641
203220,3646
203230,3651
203240,3650
203250,3650
203260,3654
203270,3653
203280,3656
203290,3653
203300,3648
203310,3659
203320,3653
203330,3658
203340,3657
203350,3658
203360,3648
203370,3318
203380,2682
203390,2240
203400,1866
203410,1493
203420,1194
203430,942
203440,750
203450,577
203460,455
203470,374
203480,299
203490,238
203500,189
203510,146
203520,115
203530,84
203540,64
203550,49
203560,36
203570,32
203580,16
203590,16
203600,0
203610,5
203620,0
203630,0
203640,0
203650,0
203660,1
203670,0
203680,0
203690,0
203700,0
203710,0
203720,0
203730,0
203740,0
203750,0
203760,0
203770,0
203780,0
203790,0
203800,0
203810,0
203820,0
203830,0
203840,0
203850,0
203860,0
203870,0
203880,0
203890,0
203900,940
203910,3660
203920,3666
203930,3662
203940,3660
203950,3654
203960,3648
203970,3661
203980,3650
203990,3661
204000,3655
204010,3659
204020,3661
204030,3664
204040,3651
204050,3664
204060,3664
204070,3662
204080,3666
204090,3660
204100,3664
204110,3655
204120,3658
204130,3610
204140,3632
204150,3655
204160,3652
204170,3239
204180,2645
204190,2215
204200,1845
204210,1467
204220,1180
204230,936
204240,742
204250,587
204260,460
204270,367
204280,291
204290,230
204300,177
204310,144
204320,112
204330,96
204340,68
204350,51
204360,44
204370,30
204380,0
204390,16
204400,11
204410,5
204420,4
204430,0
204440,0
204450,0
204460,0
204470,0
204480,0
204490,0
204500,0
204510,0
204520,0
204530,0
204540,0
204550,0
204560,0
204570,0
204580,0
204590,0
204600,0
204610,0
204620,0
204630,0
204640,0
204650,0
204660,0
204670,0
204680,0
204690,0
204700,0
204710,0
204720,0
204730,0
204740,0
204750,0
204760,0
204770,0
204780,0
204790,0
204800,0
204810,0
204820,0
204830,0
204840,0
204850,0
204860,0
204870,0
204880,0
204890,0
204900,0
204910,0
204920,0
204930,0
204940,0
204950,0
204960,0
204970,0
204980,0
204990,0
205000,0
205010,0
205020,0
205030,0
205040,0
205050,0
205060,0
205070,0
205080,0
205090,0
205100,0
205110,0
205120,0
205130,0
205140,0
205150,0
205160,0
205170,0
205180,0
205190,0
205200,0
205210,0
205220,0
205230,0
205240,0
205250,0
205260,0
205270,0
205280,0
205290,0
205300,0
205310,0
205320,0
205330,0
205340,0
205350,0
205360,0
205370,0
205380,0
205390,0
205400,0
205410,0
205420,0
205430,0
205440,0
205450,0
205460,0
205470,0
205480,0
205490,0
205500,0
205510,0
205520,0
205530,0
205540,0
205550,0
205560,0
205570,0
205580,0
205590,0
205600,0
205610,0
205620,0
205630,0
205640,0
205650,0
205660,0
205670,0
205680,0
205690,0
205700,0
205710,0
205720,0
205730,0
205740,0
205750,0
205760,0
205770,0
205780,0
205790,0
205800,0
205810,0
205820,0
205830,0
205840,0
205850,0
205860,0
205870,0
205880,0
205890,0
205900,0
205910,0
205920,26
205930,93
205940,117
205950,91
205960,77
205970,78
205980,55
205990,50
206000,38
206010,29
206020,18
206030,11
206040,5
206050,5
