X [s],L DELTOID MEDIUS: EMG 8 [V],L DELTOID MEDIUS: EMG 8->filter (FilterSlidingRMS21) [V]
0.000000e+000,0.000000e+000,0.000000e+000
7.941176e-004,0.000000e+000,0.000000e+000
1.588235e-003,0.000000e+000,0.000000e+000
2.382353e-003,0.000000e+000,0.000000e+000
3.176471e-003,0.000000e+000,0.000000e+000
3.970588e-003,0.000000e+000,0.000000e+000
4.764706e-003,0.000000e+000,0.000000e+000
5.558824e-003,0.000000e+000,0.000000e+000
6.352941e-003,0.000000e+000,0.000000e+000
7.147059e-003,0.000000e+000,0.000000e+000
7.941176e-003,0.000000e+000,0.000000e+000
8.735294e-003,0.000000e+000,0.000000e+000
9.529412e-003,0.000000e+000,0.000000e+000
1.032353e-002,0.000000e+000,0.000000e+000
1.111765e-002,0.000000e+000,0.000000e+000
1.191176e-002,0.000000e+000,0.000000e+000
1.270588e-002,0.000000e+000,0.000000e+000
1.350000e-002,0.000000e+000,0.000000e+000
1.429412e-002,0.000000e+000,0.000000e+000
1.508824e-002,0.000000e+000,0.000000e+000
1.588235e-002,0.000000e+000,0.000000e+000
1.667647e-002,0.000000e+000,0.000000e+000
1.747059e-002,0.000000e+000,0.000000e+000
1.826471e-002,0.000000e+000,0.000000e+000
1.905882e-002,0.000000e+000,0.000000e+000
1.985294e-002,0.000000e+000,0.000000e+000
2.064706e-002,0.000000e+000,0.000000e+000
2.144118e-002,0.000000e+000,0.000000e+000
2.223529e-002,0.000000e+000,0.000000e+000
2.302941e-002,0.000000e+000,0.000000e+000
2.382353e-002,0.000000e+000,0.000000e+000
2.461765e-002,0.000000e+000,0.000000e+000
2.541176e-002,0.000000e+000,0.000000e+000
2.620588e-002,0.000000e+000,0.000000e+000
2.700000e-002,0.000000e+000,0.000000e+000
2.779412e-002,0.000000e+000,0.000000e+000
2.858824e-002,0.000000e+000,0.000000e+000
2.938235e-002,0.000000e+000,0.000000e+000
3.017647e-002,0.000000e+000,0.000000e+000
3.097059e-002,0.000000e+000,0.000000e+000
3.176471e-002,0.000000e+000,0.000000e+000
3.255882e-002,0.000000e+000,0.000000e+000
3.335294e-002,0.000000e+000,0.000000e+000
3.414706e-002,0.000000e+000,0.000000e+000
3.494118e-002,0.000000e+000,0.000000e+000
3.573529e-002,0.000000e+000,0.000000e+000
3.652941e-002,0.000000e+000,0.000000e+000
3.732353e-002,0.000000e+000,0.000000e+000
3.811765e-002,0.000000e+000,0.000000e+000
3.891176e-002,0.000000e+000,0.000000e+000
3.970588e-002,0.000000e+000,0.000000e+000
4.050000e-002,0.000000e+000,0.000000e+000
4.129412e-002,0.000000e+000,0.000000e+000
4.208824e-002,0.000000e+000,0.000000e+000
4.288235e-002,0.000000e+000,0.000000e+000
4.367647e-002,0.000000e+000,0.000000e+000
4.447059e-002,0.000000e+000,0.000000e+000
4.526471e-002,0.000000e+000,0.000000e+000
4.605882e-002,0.000000e+000,0.000000e+000
4.685294e-002,0.000000e+000,0.000000e+000
4.764706e-002,0.000000e+000,0.000000e+000
4.844118e-002,0.000000e+000,0.000000e+000
4.923529e-002,0.000000e+000,0.000000e+000
5.002941e-002,0.000000e+000,0.000000e+000
5.082353e-002,0.000000e+000,0.000000e+000
5.161765e-002,0.000000e+000,0.000000e+000
5.241176e-002,0.000000e+000,0.000000e+000
5.320588e-002,0.000000e+000,0.000000e+000
5.400000e-002,0.000000e+000,0.000000e+000
5.479412e-002,0.000000e+000,0.000000e+000
5.558824e-002,0.000000e+000,0.000000e+000
5.638235e-002,0.000000e+000,0.000000e+000
5.717647e-002,0.000000e+000,0.000000e+000
5.797059e-002,0.000000e+000,0.000000e+000
5.876471e-002,0.000000e+000,0.000000e+000
5.955882e-002,0.000000e+000,0.000000e+000
6.035294e-002,0.000000e+000,0.000000e+000
6.114706e-002,0.000000e+000,0.000000e+000
6.194118e-002,0.000000e+000,0.000000e+000
6.273529e-002,0.000000e+000,0.000000e+000
6.352941e-002,0.000000e+000,0.000000e+000
6.432353e-002,0.000000e+000,0.000000e+000
6.511765e-002,0.000000e+000,0.000000e+000
6.591176e-002,0.000000e+000,0.000000e+000
6.670588e-002,0.000000e+000,0.000000e+000
6.750000e-002,0.000000e+000,0.000000e+000
6.829412e-002,0.000000e+000,0.000000e+000
6.908824e-002,0.000000e+000,0.000000e+000
6.988235e-002,0.000000e+000,0.000000e+000
7.067647e-002,0.000000e+000,0.000000e+000
7.147059e-002,0.000000e+000,0.000000e+000
7.226471e-002,0.000000e+000,0.000000e+000
7.305882e-002,0.000000e+000,0.000000e+000
7.385294e-002,0.000000e+000,0.000000e+000
7.464706e-002,0.000000e+000,0.000000e+000
7.544118e-002,0.000000e+000,0.000000e+000
7.623529e-002,0.000000e+000,0.000000e+000
7.702941e-002,0.000000e+000,0.000000e+000
7.782353e-002,0.000000e+000,0.000000e+000
7.861765e-002,0.000000e+000,0.000000e+000
7.941176e-002,0.000000e+000,0.000000e+000
8.020588e-002,0.000000e+000,0.000000e+000
8.100000e-002,0.000000e+000,0.000000e+000
8.179412e-002,0.000000e+000,0.000000e+000
8.258824e-002,0.000000e+000,0.000000e+000
8.338235e-002,0.000000e+000,0.000000e+000
8.417647e-002,0.000000e+000,0.000000e+000
8.497059e-002,0.000000e+000,0.000000e+000
8.576471e-002,0.000000e+000,0.000000e+000
8.655882e-002,0.000000e+000,0.000000e+000
8.735294e-002,0.000000e+000,0.000000e+000
8.814706e-002,0.000000e+000,0.000000e+000
8.894118e-002,0.000000e+000,0.000000e+000
8.973529e-002,0.000000e+000,0.000000e+000
9.052941e-002,0.000000e+000,0.000000e+000
9.132353e-002,0.000000e+000,0.000000e+000
9.211765e-002,0.000000e+000,0.000000e+000
9.291176e-002,0.000000e+000,0.000000e+000
9.370588e-002,0.000000e+000,0.000000e+000
9.450000e-002,0.000000e+000,0.000000e+000
9.529412e-002,0.000000e+000,0.000000e+000
9.608824e-002,0.000000e+000,0.000000e+000
9.688235e-002,0.000000e+000,0.000000e+000
9.767647e-002,0.000000e+000,0.000000e+000
9.847059e-002,0.000000e+000,0.000000e+000
9.926471e-002,0.000000e+000,0.000000e+000
1.000588e-001,0.000000e+000,0.000000e+000
1.008529e-001,0.000000e+000,0.000000e+000
1.016471e-001,0.000000e+000,0.000000e+000
1.024412e-001,0.000000e+000,0.000000e+000
1.032353e-001,0.000000e+000,0.000000e+000
1.040294e-001,0.000000e+000,0.000000e+000
1.048235e-001,0.000000e+000,0.000000e+000
1.056176e-001,0.000000e+000,0.000000e+000
1.064118e-001,0.000000e+000,0.000000e+000
1.072059e-001,0.000000e+000,0.000000e+000
1.080000e-001,-2.182040e-005,0.000000e+000
1.087941e-001,-2.030976e-005,0.000000e+000
1.095882e-001,-2.030976e-005,0.000000e+000
1.103824e-001,-1.795987e-005,0.000000e+000
1.111765e-001,-1.577783e-005,0.000000e+000
1.119706e-001,-1.560998e-005,0.000000e+000
1.127647e-001,-1.728847e-005,0.000000e+000
1.135588e-001,-1.762417e-005,0.000000e+000
1.143529e-001,-1.527428e-005,0.000000e+000
1.151471e-001,-1.493858e-005,0.000000e+000
1.159412e-001,-1.695277e-005,0.000000e+000
1.167353e-001,-1.779202e-005,0.000000e+000
1.175294e-001,-1.560998e-005,0.000000e+000
1.183235e-001,-1.292439e-005,0.000000e+000
1.191176e-001,-1.292439e-005,0.000000e+000
1.199118e-001,-1.191730e-005,0.000000e+000
1.207059e-001,-1.393149e-005,0.000000e+000
1.215000e-001,-1.292439e-005,0.000000e+000
1.222941e-001,-1.191730e-005,0.000000e+000
1.230882e-001,-1.191730e-005,0.000000e+000
1.238824e-001,-1.292439e-005,0.000000e+000
1.246765e-001,-1.359579e-005,0.000000e+000
1.254706e-001,-1.057450e-005,0.000000e+000
1.262647e-001,-1.359579e-005,0.000000e+000
1.270588e-001,-1.577783e-005,0.000000e+000
1.278529e-001,-1.493858e-005,0.000000e+000
1.286471e-001,-1.628138e-005,0.000000e+000
1.294412e-001,-1.695277e-005,0.000000e+000
1.302353e-001,-1.493858e-005,0.000000e+000
1.310294e-001,-1.359579e-005,0.000000e+000
1.318235e-001,-1.594568e-005,0.000000e+000
1.326176e-001,-1.577783e-005,0.000000e+000
1.334118e-001,-1.426719e-005,0.000000e+000
1.342059e-001,-1.191730e-005,0.000000e+000
1.350000e-001,-9.903105e-006,0.000000e+000
1.357941e-001,-1.124590e-005,0.000000e+000
1.365882e-001,-1.258869e-005,0.000000e+000
1.373824e-001,-1.426719e-005,0.000000e+000
1.381765e-001,-1.359579e-005,0.000000e+000
1.389706e-001,-1.359579e-005,0.000000e+000
1.397647e-001,-1.107805e-005,0.000000e+000
1.405588e-001,-1.426719e-005,0.000000e+000
1.413529e-001,-1.628138e-005,0.000000e+000
1.421471e-001,-1.359579e-005,0.000000e+000
1.429412e-001,-1.107805e-005,0.000000e+000
1.437353e-001,-1.107805e-005,0.000000e+000
1.445294e-001,-1.225299e-005,0.000000e+000
1.453235e-001,-1.091020e-005,0.000000e+000
1.461176e-001,-1.359579e-005,0.000000e+000
1.469118e-001,-1.460288e-005,0.000000e+000
1.477059e-001,-1.292439e-005,0.000000e+000
1.485000e-001,-1.560998e-005,0.000000e+000
1.492941e-001,-1.628138e-005,0.000000e+000
1.500882e-001,-1.594568e-005,0.000000e+000
1.508824e-001,-1.426719e-005,0.000000e+000
1.516765e-001,-1.493858e-005,0.000000e+000
1.524706e-001,-1.426719e-005,0.000000e+000
1.532647e-001,-1.460288e-005,0.000000e+000
1.540588e-001,-1.023880e-005,0.000000e+000
1.548529e-001,-1.225299e-005,0.000000e+000
1.556471e-001,-1.292439e-005,0.000000e+000
1.564412e-001,-1.174945e-005,0.000000e+000
1.572353e-001,-1.158160e-005,0.000000e+000
1.580294e-001,-1.426719e-005,0.000000e+000
1.588235e-001,-1.426719e-005,0.000000e+000
1.596176e-001,-9.567407e-006,0.000000e+000
1.604118e-001,-6.881819e-006,0.000000e+000
1.612059e-001,-9.567407e-006,0.000000e+000
1.620000e-001,-1.158160e-005,0.000000e+000
1.627941e-001,-1.225299e-005,0.000000e+000
1.635882e-001,-1.225299e-005,0.000000e+000
1.643824e-001,-9.903105e-006,0.000000e+000
1.651765e-001,-1.258869e-005,0.000000e+000
1.659706e-001,-1.359579e-005,0.000000e+000
1.667647e-001,-1.091020e-005,0.000000e+000
1.675588e-001,-1.225299e-005,0.000000e+000
1.683529e-001,-1.359579e-005,0.000000e+000
1.691471e-001,-1.258869e-005,0.000000e+000
1.699412e-001,-1.426719e-005,0.000000e+000
1.707353e-001,-1.510643e-005,0.000000e+000
1.715294e-001,-1.762417e-005,0.000000e+000
1.723235e-001,-2.030976e-005,0.000000e+000
1.731176e-001,-1.812772e-005,0.000000e+000
1.739118e-001,-1.762417e-005,0.000000e+000
1.747059e-001,-1.728847e-005,0.000000e+000
1.755000e-001,-1.879912e-005,0.000000e+000
1.762941e-001,-1.896696e-005,0.000000e+000
1.770882e-001,-1.158160e-005,0.000000e+000
1.778824e-001,-1.359579e-005,0.000000e+000
1.786765e-001,-1.359579e-005,0.000000e+000
1.794706e-001,-1.191730e-005,0.000000e+000
1.802647e-001,-1.426719e-005,0.000000e+000
1.810588e-001,-1.493858e-005,0.000000e+000
1.818529e-001,-1.426719e-005,0.000000e+000
1.826471e-001,-1.174945e-005,0.000000e+000
1.834412e-001,-9.903105e-006,0.000000e+000
1.842353e-001,-1.023880e-005,0.000000e+000
1.850294e-001,-1.225299e-005,0.000000e+000
1.858235e-001,-1.359579e-005,0.000000e+000
1.866176e-001,-1.225299e-005,0.000000e+000
1.874118e-001,-1.409934e-005,0.000000e+000
1.882059e-001,-1.628138e-005,0.000000e+000
1.890000e-001,-1.426719e-005,0.000000e+000
1.897941e-001,-1.393149e-005,0.000000e+000
1.905882e-001,-1.225299e-005,0.000000e+000
1.913824e-001,-1.158160e-005,0.000000e+000
1.921765e-001,-1.091020e-005,0.000000e+000
1.929706e-001,-1.393149e-005,0.000000e+000
1.937647e-001,-1.359579e-005,0.000000e+000
1.945588e-001,-1.309224e-005,0.000000e+000
1.953529e-001,-1.426719e-005,0.000000e+000
1.961471e-001,-1.258869e-005,0.000000e+000
1.969412e-001,-1.225299e-005,0.000000e+000
1.977353e-001,-1.426719e-005,0.000000e+000
1.985294e-001,-1.460288e-005,0.000000e+000
1.993235e-001,-1.359579e-005,0.000000e+000
2.001176e-001,-1.225299e-005,0.000000e+000
2.009118e-001,-1.426719e-005,0.000000e+000
2.017059e-001,-1.628138e-005,0.000000e+000
2.025000e-001,-1.225299e-005,0.000000e+000
2.032941e-001,-1.493858e-005,0.000000e+000
2.040882e-001,-1.829557e-005,0.000000e+000
2.048824e-001,-1.493858e-005,0.000000e+000
2.056765e-001,-1.426719e-005,0.000000e+000
2.064706e-001,-1.359579e-005,0.000000e+000
2.072647e-001,-1.057450e-005,0.000000e+000
2.080588e-001,-1.091020e-005,0.000000e+000
2.088529e-001,-1.225299e-005,0.000000e+000
2.096471e-001,-1.225299e-005,0.000000e+000
2.104412e-001,-1.023880e-005,0.000000e+000
2.112353e-001,-1.091020e-005,0.000000e+000
2.120294e-001,-1.091020e-005,0.000000e+000
2.128235e-001,-1.426719e-005,0.000000e+000
2.136176e-001,-1.577783e-005,0.000000e+000
2.144118e-001,-1.560998e-005,0.000000e+000
2.152059e-001,-1.628138e-005,0.000000e+000
2.160000e-001,-1.762417e-005,0.000000e+000
2.167941e-001,-1.493858e-005,0.000000e+000
2.175882e-001,-1.527428e-005,0.000000e+000
2.183824e-001,-1.560998e-005,0.000000e+000
2.191765e-001,-1.510643e-005,0.000000e+000
2.199706e-001,-1.846342e-005,0.000000e+000
2.207647e-001,-1.225299e-005,0.000000e+000
2.215588e-001,-1.393149e-005,0.000000e+000
2.223529e-001,-1.661708e-005,0.000000e+000
2.231471e-001,-1.577783e-005,0.000000e+000
2.239412e-001,-1.292439e-005,0.000000e+000
2.247353e-001,-1.460288e-005,0.000000e+000
2.255294e-001,-1.493858e-005,0.000000e+000
2.263235e-001,-1.309224e-005,0.000000e+000
2.271176e-001,-1.292439e-005,0.000000e+000
2.279118e-001,-1.225299e-005,0.000000e+000
2.287059e-001,-1.124590e-005,0.000000e+000
2.295000e-001,-1.057450e-005,0.000000e+000
2.302941e-001,-1.359579e-005,0.000000e+000
2.310882e-001,-1.158160e-005,0.000000e+000
2.318824e-001,-1.158160e-005,0.000000e+000
2.326765e-001,-1.023880e-005,0.000000e+000
2.334706e-001,-1.426719e-005,0.000000e+000
2.342647e-001,-1.527428e-005,0.000000e+000
2.350588e-001,-1.644922e-005,0.000000e+000
2.358529e-001,-1.963836e-005,0.000000e+000
2.366471e-001,-1.779202e-005,0.000000e+000
2.374412e-001,-1.510643e-005,0.000000e+000
2.382353e-001,-1.326009e-005,0.000000e+000
2.390294e-001,-1.124590e-005,0.000000e+000
2.398235e-001,-9.567407e-006,0.000000e+000
2.406176e-001,-1.359579e-005,0.000000e+000
2.414118e-001,-1.225299e-005,0.000000e+000
2.422059e-001,-1.023880e-005,0.000000e+000
2.430000e-001,-1.359579e-005,0.000000e+000
2.437941e-001,-1.359579e-005,0.000000e+000
2.445882e-001,-1.124590e-005,0.000000e+000
2.453824e-001,-1.292439e-005,0.000000e+000
2.461765e-001,-1.594568e-005,0.000000e+000
2.469706e-001,-1.560998e-005,0.000000e+000
2.477647e-001,-1.393149e-005,0.000000e+000
2.485588e-001,-1.174945e-005,0.000000e+000
2.493529e-001,-1.225299e-005,1.059276e-005
2.501471e-001,-1.174945e-005,1.061531e-005
2.509412e-001,-1.158160e-005,1.063600e-005
2.517353e-001,-1.292439e-005,1.065606e-005
2.525294e-001,-1.292439e-005,1.068099e-005
2.533235e-001,-1.426719e-005,1.070586e-005
2.541176e-001,-1.359579e-005,1.073610e-005
2.549118e-001,-1.493858e-005,1.076348e-005
2.557059e-001,-1.493858e-005,1.079644e-005
2.565000e-001,-1.158160e-005,1.082931e-005
2.572941e-001,-9.567407e-006,1.084901e-005
2.580882e-001,-6.881819e-006,1.086244e-005
2.588824e-001,-1.091020e-005,1.086938e-005
2.596765e-001,-1.225299e-005,1.088680e-005
2.604706e-001,-1.225299e-005,1.090874e-005
2.612647e-001,-1.426719e-005,1.093063e-005
2.620588e-001,-1.728847e-005,1.096025e-005
2.628529e-001,-1.779202e-005,1.100358e-005
2.636471e-001,-1.829557e-005,1.104930e-005
2.644412e-001,-1.594568e-005,1.109743e-005
2.652353e-001,-1.292439e-005,1.113386e-005
2.660294e-001,-1.846342e-005,1.115772e-005
2.668235e-001,-1.829557e-005,1.120627e-005
2.676176e-001,-1.628138e-005,1.125373e-005
2.684118e-001,-1.628138e-005,1.129117e-005
2.692059e-001,-1.661708e-005,1.132850e-005
2.700000e-001,-1.762417e-005,1.136724e-005
2.707941e-001,-1.762417e-005,1.141067e-005
2.715882e-001,-1.493858e-005,1.145394e-005
2.723824e-001,-1.359579e-005,1.148492e-005
2.731765e-001,-1.493858e-005,1.151052e-005
2.739706e-001,-1.292439e-005,1.154135e-005
2.747647e-001,-1.158160e-005,1.156437e-005
2.755588e-001,-1.762417e-005,1.158283e-005
2.763529e-001,-1.728847e-005,1.162545e-005
2.771471e-001,-1.493858e-005,1.166632e-005
2.779412e-001,-1.661708e-005,1.169674e-005
2.787353e-001,-1.359579e-005,1.173427e-005
2.795294e-001,-1.359579e-005,1.175933e-005
2.803235e-001,-1.258869e-005,1.178433e-005
2.811176e-001,-1.225299e-005,1.180572e-005
2.819118e-001,-1.326009e-005,1.182596e-005
2.827059e-001,-1.124590e-005,1.184961e-005
2.835000e-001,-1.023880e-005,1.186659e-005
2.842941e-001,-6.881819e-006,1.188065e-005
2.850882e-001,-8.392462e-006,1.188700e-005
2.858824e-001,-1.091020e-005,1.189643e-005
2.866765e-001,-9.567407e-006,1.191235e-005
2.874706e-001,-9.567407e-006,1.192458e-005
2.882647e-001,-1.023880e-005,1.193680e-005
2.890588e-001,-1.258869e-005,1.195077e-005
2.898529e-001,-1.359579e-005,1.197187e-005
2.906471e-001,-1.393149e-005,1.199643e-005
2.914412e-001,-1.493858e-005,1.202217e-005
2.922353e-001,-1.594568e-005,1.205169e-005
2.930294e-001,-1.510643e-005,1.208524e-005
2.938235e-001,-1.661708e-005,1.211527e-005
2.946176e-001,-1.896696e-005,1.215151e-005
2.954118e-001,-1.695277e-005,1.219856e-005
2.962059e-001,-1.644922e-005,1.223602e-005
2.970000e-001,-1.829557e-005,1.227118e-005
2.977941e-001,-1.762417e-005,1.231454e-005
2.985882e-001,-1.628138e-005,1.235464e-005
2.993824e-001,-1.577783e-005,1.238875e-005
3.001765e-001,-1.661708e-005,1.242071e-005
3.009706e-001,-1.628138e-005,1.245606e-005
3.017647e-001,-1.560998e-005,1.248990e-005
3.025588e-001,-1.594568e-005,1.252093e-005
3.033529e-001,-1.762417e-005,1.255322e-005
3.041471e-001,-1.963836e-005,1.259256e-005
3.049412e-001,-1.762417e-005,1.264124e-005
3.057353e-001,-1.309224e-005,1.268030e-005
3.065294e-001,-1.426719e-005,1.270181e-005
3.073235e-001,-1.258869e-005,1.272730e-005
3.081176e-001,-1.007095e-005,1.274711e-005
3.089118e-001,-1.359579e-005,1.275978e-005
3.097059e-001,-1.493858e-005,1.278282e-005
3.105000e-001,-1.359579e-005,1.281059e-005
3.112941e-001,-1.158160e-005,1.283355e-005
3.120882e-001,-1.040665e-005,1.285018e-005
3.128824e-001,-9.567407e-006,1.286359e-005
3.136765e-001,-9.903105e-006,1.287492e-005
3.144706e-001,-9.231709e-006,1.288704e-005
3.152647e-001,-8.560311e-006,1.289757e-005
3.160588e-001,-1.091020e-005,1.290661e-005
3.168529e-001,-1.258869e-005,1.292129e-005
3.176471e-001,-1.292439e-005,1.294080e-005
3.184412e-001,-1.124590e-005,1.296134e-005
3.192353e-001,-1.225299e-005,1.297687e-005
3.200294e-001,-1.426719e-005,1.299528e-005
3.208235e-001,-1.628138e-005,1.302020e-005
3.216176e-001,-1.527428e-005,1.305258e-005
3.224118e-001,-1.258869e-005,1.308101e-005
3.232059e-001,-1.124590e-005,1.310029e-005
3.240000e-001,-1.292439e-005,1.311565e-005
3.247941e-001,-1.191730e-005,1.313591e-005
3.255882e-001,-1.225299e-005,1.315312e-005
3.263824e-001,-1.292439e-005,1.317128e-005
3.271765e-001,-1.393149e-005,1.319146e-005
3.279706e-001,-1.560998e-005,1.321487e-005
3.287647e-001,-1.359579e-005,1.324420e-005
3.295588e-001,-1.359579e-005,1.326640e-005
3.303529e-001,-1.628138e-005,1.328857e-005
3.311471e-001,-1.762417e-005,1.332030e-005
3.319412e-001,-1.812772e-005,1.335738e-005
3.327353e-001,-1.829557e-005,1.339649e-005
3.335294e-001,-1.661708e-005,1.343622e-005
3.343235e-001,-1.628138e-005,1.346891e-005
3.351176e-001,-1.359579e-005,1.350021e-005
3.359118e-001,-1.359579e-005,1.352200e-005
3.367059e-001,-1.258869e-005,1.354374e-005
3.375000e-001,-1.191730e-005,1.356236e-005
3.382941e-001,-1.225299e-005,1.357903e-005
3.390882e-001,-1.426719e-005,1.359662e-005
3.398824e-001,-1.326009e-005,1.362044e-005
3.406765e-001,-9.567407e-006,1.364098e-005
3.414706e-001,-9.567407e-006,1.365166e-005
3.422647e-001,-8.896010e-006,1.366234e-005
3.430588e-001,-8.224612e-006,1.367156e-005
3.438529e-001,-1.023880e-005,1.367943e-005
3.446471e-001,-1.527428e-005,1.369163e-005
3.454412e-001,-1.443504e-005,1.371874e-005
3.462353e-001,-1.493858e-005,1.374290e-005
3.470294e-001,-1.661708e-005,1.376873e-005
3.478235e-001,-1.628138e-005,1.380063e-005
3.486176e-001,-1.426719e-005,1.383118e-005
3.494118e-001,-1.359579e-005,1.385460e-005
3.502059e-001,-1.594568e-005,1.387583e-005
3.510000e-001,-1.359579e-005,1.390498e-005
3.517941e-001,-1.292439e-005,1.392613e-005
3.525882e-001,-1.225299e-005,1.394521e-005
3.533824e-001,-1.124590e-005,1.396235e-005
3.541765e-001,-1.107805e-005,1.397676e-005
3.549706e-001,-1.158160e-005,1.399074e-005
3.557647e-001,-9.735256e-006,1.400600e-005
3.565588e-001,-9.231709e-006,1.401677e-005
3.573529e-001,-1.359579e-005,1.402645e-005
3.581471e-001,-1.560998e-005,1.399334e-005
3.589412e-001,-1.628138e-005,1.397412e-005
3.597353e-001,-1.695277e-005,1.395731e-005
3.605294e-001,-1.510643e-005,1.395330e-005
3.613235e-001,-1.359579e-005,1.395093e-005
3.621176e-001,-1.258869e-005,1.394421e-005
3.629118e-001,-1.628138e-005,1.392817e-005
3.637059e-001,-1.795987e-005,1.392297e-005
3.645000e-001,-1.930266e-005,1.393317e-005
3.652941e-001,-1.963836e-005,1.395024e-005
3.660882e-001,-1.829557e-005,1.396145e-005
3.668824e-001,-1.628138e-005,1.396352e-005
3.676765e-001,-1.762417e-005,1.396596e-005
3.684706e-001,-1.695277e-005,1.398232e-005
3.692647e-001,-1.359579e-005,1.399602e-005
3.700588e-001,-1.544213e-005,1.400089e-005
3.708529e-001,-1.594568e-005,1.400594e-005
3.716471e-001,-1.426719e-005,1.401585e-005
3.724412e-001,-8.896010e-006,1.402284e-005
3.732353e-001,-1.091020e-005,1.401570e-005
3.740294e-001,-1.292439e-005,1.401024e-005
3.748235e-001,-1.091020e-005,1.400822e-005
3.756176e-001,-1.091020e-005,1.400904e-005
3.764118e-001,-1.292439e-005,1.400156e-005
3.772059e-001,-1.493858e-005,1.399224e-005
3.780000e-001,-1.359579e-005,1.399224e-005
3.787941e-001,-1.158160e-005,1.398311e-005
3.795882e-001,-1.225299e-005,1.396564e-005
3.803824e-001,-1.393149e-005,1.395731e-005
3.811765e-001,-1.560998e-005,1.395837e-005
3.819706e-001,-1.628138e-005,1.395716e-005
3.827647e-001,-1.527428e-005,1.395900e-005
3.835588e-001,-1.426719e-005,1.396239e-005
3.843529e-001,-1.225299e-005,1.396941e-005
3.851471e-001,-1.309224e-005,1.397534e-005
3.859412e-001,-1.527428e-005,1.398046e-005
3.867353e-001,-1.560998e-005,1.398898e-005
3.875294e-001,-1.863127e-005,1.399355e-005
3.883235e-001,-1.628138e-005,1.401200e-005
3.891176e-001,-1.091020e-005,1.402112e-005
3.899118e-001,-1.124590e-005,1.402070e-005
3.907059e-001,-1.493858e-005,1.401194e-005
3.915000e-001,-1.258869e-005,1.400718e-005
3.922941e-001,-1.158160e-005,1.400418e-005
3.930882e-001,-1.225299e-005,1.400548e-005
3.938824e-001,-1.023880e-005,1.400859e-005
3.946765e-001,-9.903105e-006,1.400344e-005
3.954706e-001,-1.107805e-005,1.400106e-005
3.962647e-001,-6.881819e-006,1.399399e-005
3.970588e-001,-9.903105e-006,1.397510e-005
3.978529e-001,-1.258869e-005,1.396724e-005
3.986471e-001,-1.057450e-005,1.395753e-005
3.994412e-001,-1.091020e-005,1.394003e-005
4.002353e-001,-1.191730e-005,1.392457e-005
4.010294e-001,-1.091020e-005,1.391754e-005
4.018235e-001,-1.225299e-005,1.390562e-005
4.026176e-001,-1.258869e-005,1.389950e-005
4.034118e-001,-1.225299e-005,1.389322e-005
4.042059e-001,-1.426719e-005,1.389841e-005
4.050000e-001,-1.493858e-005,1.390453e-005
4.057941e-001,-1.795987e-005,1.391096e-005
4.065882e-001,-1.695277e-005,1.393206e-005
4.073824e-001,-1.560998e-005,1.394957e-005
4.081765e-001,-1.393149e-005,1.395415e-005
4.089706e-001,-1.409934e-005,1.395307e-005
4.097647e-001,-1.359579e-005,1.396530e-005
4.105588e-001,-1.174945e-005,1.398097e-005
4.113529e-001,-1.426719e-005,1.398627e-005
4.121471e-001,-1.628138e-005,1.399417e-005
4.129412e-001,-1.560998e-005,1.400724e-005
4.137353e-001,-1.493858e-005,1.401787e-005
4.145294e-001,-1.577783e-005,1.403207e-005
4.153235e-001,-1.577783e-005,1.404233e-005
4.161176e-001,-1.560998e-005,1.404960e-005
4.169118e-001,-1.393149e-005,1.406372e-005
4.177059e-001,-1.527428e-005,1.406870e-005
4.185000e-001,-1.493858e-005,1.407418e-005
4.192941e-001,-1.493858e-005,1.408150e-005
4.200882e-001,-1.426719e-005,1.408371e-005
4.208824e-001,-1.225299e-005,1.408093e-005
4.216765e-001,-1.393149e-005,1.406277e-005
4.224706e-001,-1.527428e-005,1.403801e-005
4.232647e-001,-1.594568e-005,1.402720e-005
4.240588e-001,-1.577783e-005,1.402080e-005
4.248529e-001,-1.695277e-005,1.401513e-005
4.256471e-001,-1.493858e-005,1.400763e-005
4.264412e-001,-1.158160e-005,1.399209e-005
4.272353e-001,-1.258869e-005,1.399209e-005
4.280294e-001,-1.292439e-005,1.398909e-005
4.288235e-001,-1.359579e-005,1.398706e-005
4.296176e-001,-1.292439e-005,1.399194e-005
4.304118e-001,-1.393149e-005,1.398778e-005
4.312059e-001,-1.527428e-005,1.398447e-005
4.320000e-001,-1.527428e-005,1.398786e-005
4.327941e-001,-1.493858e-005,1.399870e-005
4.335882e-001,-1.896696e-005,1.401292e-005
4.343824e-001,-1.795987e-005,1.404186e-005
4.351765e-001,-1.695277e-005,1.406139e-005
4.359706e-001,-1.493858e-005,1.407300e-005
4.367647e-001,-1.493858e-005,1.408126e-005
4.375588e-001,-1.577783e-005,1.408402e-005
4.383529e-001,-1.309224e-005,1.408219e-005
4.391471e-001,-1.091020e-005,1.407856e-005
4.399412e-001,-1.023880e-005,1.407007e-005
4.407353e-001,-1.191730e-005,1.406494e-005
4.415294e-001,-1.242084e-005,1.406583e-005
4.423235e-001,-1.292439e-005,1.406982e-005
4.431176e-001,-1.292439e-005,1.406676e-005
4.439118e-001,-1.258869e-005,1.406474e-005
4.447059e-001,-1.158160e-005,1.406328e-005
4.455000e-001,-8.560311e-006,1.405542e-005
4.462941e-001,-9.063859e-006,1.404576e-005
4.470882e-001,-1.091020e-005,1.403805e-005
4.478824e-001,-1.258869e-005,1.402846e-005
4.486765e-001,-1.225299e-005,1.402225e-005
4.494706e-001,-1.292439e-005,1.401830e-005
4.502647e-001,-1.225299e-005,1.402022e-005
4.510588e-001,-1.292439e-005,1.401416e-005
4.518529e-001,-1.661708e-005,1.400301e-005
4.526471e-001,-1.628138e-005,1.401733e-005
4.534412e-001,-1.628138e-005,1.402209e-005
4.542353e-001,-1.510643e-005,1.401418e-005
4.550294e-001,-1.359579e-005,1.401475e-005
4.558235e-001,-1.292439e-005,1.401263e-005
4.566176e-001,-1.107805e-005,1.401060e-005
4.574118e-001,-1.107805e-005,1.401184e-005
4.582059e-001,-1.124590e-005,1.401226e-005
4.590000e-001,-1.225299e-005,1.400957e-005
4.597941e-001,-1.359579e-005,1.400957e-005
4.605882e-001,-1.309224e-005,1.401866e-005
4.613824e-001,-1.158160e-005,1.402461e-005
4.621765e-001,-1.426719e-005,1.402633e-005
4.629706e-001,-1.594568e-005,1.402633e-005
4.637647e-001,-1.359579e-005,1.402693e-005
4.645588e-001,-1.359579e-005,1.402025e-005
4.653529e-001,-1.023880e-005,1.401114e-005
4.661471e-001,-1.225299e-005,1.398773e-005
4.669412e-001,-1.493858e-005,1.397941e-005
4.677353e-001,-1.292439e-005,1.397826e-005
4.685294e-001,-1.242084e-005,1.396953e-005
4.693235e-001,-1.359579e-005,1.396110e-005
4.701176e-001,-1.309224e-005,1.394329e-005
4.709118e-001,-1.393149e-005,1.394572e-005
4.717059e-001,-1.426719e-005,1.394572e-005
4.725000e-001,-1.258869e-005,1.393743e-005
4.732941e-001,-1.225299e-005,1.392709e-005
4.740882e-001,-1.292439e-005,1.392516e-005
4.748824e-001,-1.393149e-005,1.391987e-005
4.756765e-001,-1.426719e-005,1.391654e-005
4.764706e-001,-1.661708e-005,1.392022e-005
4.772647e-001,-1.695277e-005,1.393269e-005
4.780588e-001,-1.762417e-005,1.394837e-005
4.788529e-001,-1.963836e-005,1.396938e-005
4.796471e-001,-1.510643e-005,1.400056e-005
4.804412e-001,-1.493858e-005,1.400549e-005
4.812353e-001,-1.309224e-005,1.401561e-005
4.820294e-001,-1.426719e-005,1.401984e-005
4.828235e-001,-1.527428e-005,1.403105e-005
4.836176e-001,-1.292439e-005,1.403443e-005
4.844118e-001,-1.275654e-005,1.402691e-005
4.852059e-001,-1.258869e-005,1.401466e-005
4.860000e-001,-1.225299e-005,1.398882e-005
4.867941e-001,-1.426719e-005,1.396986e-005
4.875882e-001,-1.309224e-005,1.396705e-005
4.883824e-001,-1.225299e-005,1.396655e-005
4.891765e-001,-1.527428e-005,1.396925e-005
4.899706e-001,-1.560998e-005,1.398540e-005
4.907647e-001,-1.292439e-005,1.399210e-005
4.915588e-001,-1.493858e-005,1.399402e-005
4.923529e-001,-1.594568e-005,1.400748e-005
4.931471e-001,-1.544213e-005,1.401537e-005
4.939412e-001,-1.628138e-005,1.402146e-005
4.947353e-001,-1.292439e-005,1.403719e-005
4.955294e-001,-1.762417e-005,1.403719e-005
4.963235e-001,-1.829557e-005,1.404358e-005
4.971176e-001,-1.359579e-005,1.405390e-005
4.979118e-001,-1.510643e-005,1.405285e-005
4.987059e-001,-1.896696e-005,1.406306e-005
4.995000e-001,-1.527428e-005,1.408678e-005
5.002941e-001,-1.527428e-005,1.409754e-005
5.010882e-001,-1.594568e-005,1.410874e-005
5.018824e-001,-1.527428e-005,1.411858e-005
5.026765e-001,-1.426719e-005,1.412605e-005
5.034706e-001,-1.124590e-005,1.412605e-005
5.042647e-001,-1.258869e-005,1.411947e-005
5.050588e-001,-1.091020e-005,1.411217e-005
5.058529e-001,-1.124590e-005,1.410042e-005
5.066471e-001,-1.359579e-005,1.409955e-005
5.074412e-001,-1.225299e-005,1.411009e-005
5.082353e-001,-1.258869e-005,1.412168e-005
5.090294e-001,-1.426719e-005,1.412613e-005
5.098235e-001,-1.124590e-005,1.413215e-005
5.106176e-001,-8.224612e-006,1.412948e-005
5.114118e-001,-8.560311e-006,1.411416e-005
5.122059e-001,-1.091020e-005,1.408868e-005
5.130000e-001,-9.567407e-006,1.406634e-005
5.137941e-001,-1.158160e-005,1.403878e-005
5.145882e-001,-1.225299e-005,1.402515e-005
5.153824e-001,-9.567407e-006,1.402323e-005
5.161765e-001,-8.224612e-006,1.399488e-005
5.169706e-001,-1.158160e-005,1.396446e-005
5.177647e-001,-1.242084e-005,1.394952e-005
5.185588e-001,-1.242084e-005,1.393687e-005
5.193529e-001,-1.225299e-005,1.392294e-005
5.201471e-001,-1.376364e-005,1.390457e-005
5.209412e-001,-1.326009e-005,1.389069e-005
5.217353e-001,-1.258869e-005,1.388526e-005
5.225294e-001,-1.426719e-005,1.388224e-005
5.233235e-001,-1.292439e-005,1.387999e-005
5.241176e-001,-1.460288e-005,1.387999e-005
5.249118e-001,-1.628138e-005,1.388906e-005
5.257059e-001,-1.762417e-005,1.388384e-005
5.265000e-001,-1.426719e-005,1.388518e-005
5.272941e-001,-1.191730e-005,1.388293e-005
5.280882e-001,-1.460288e-005,1.386754e-005
5.288824e-001,-1.510643e-005,1.387080e-005
5.296765e-001,-1.577783e-005,1.387578e-005
5.304706e-001,-1.628138e-005,1.388616e-005
5.312647e-001,-1.292439e-005,1.389933e-005
5.320588e-001,-1.510643e-005,1.389833e-005
5.328529e-001,-1.695277e-005,1.390998e-005
5.336471e-001,-1.628138e-005,1.393086e-005
5.344412e-001,-1.191730e-005,1.395573e-005
5.352353e-001,-1.091020e-005,1.396389e-005
5.360294e-001,-1.225299e-005,1.396389e-005
5.368235e-001,-1.326009e-005,1.397057e-005
5.376176e-001,-1.527428e-005,1.398018e-005
5.384118e-001,-1.359579e-005,1.399480e-005
5.392059e-001,-1.628138e-005,1.399780e-005
5.400000e-001,-1.829557e-005,1.400693e-005
5.407941e-001,-1.661708e-005,1.402290e-005
5.415882e-001,-1.695277e-005,1.402892e-005
5.423824e-001,-1.376364e-005,1.403268e-005
5.431765e-001,-1.359579e-005,1.402828e-005
5.439706e-001,-1.292439e-005,1.401791e-005
5.447647e-001,-1.309224e-005,1.399601e-005
5.455588e-001,-1.762417e-005,1.398280e-005
5.463529e-001,-1.661708e-005,1.398736e-005
5.471471e-001,-1.426719e-005,1.398069e-005
5.479412e-001,-1.426719e-005,1.396849e-005
5.487353e-001,-1.493858e-005,1.396147e-005
5.495294e-001,-1.560998e-005,1.395853e-005
5.503235e-001,-1.393149e-005,1.395483e-005
5.511176e-001,-1.359579e-005,1.394673e-005
5.519118e-001,-1.426719e-005,1.394001e-005
5.527059e-001,-1.544213e-005,1.393421e-005
5.535000e-001,-1.527428e-005,1.392597e-005
5.542941e-001,-1.712062e-005,1.390853e-005
5.550882e-001,-1.393149e-005,1.390653e-005
5.558824e-001,-9.567407e-006,1.390913e-005
5.566765e-001,-9.903105e-006,1.389630e-005
5.574706e-001,-1.225299e-005,1.388937e-005
5.582647e-001,-1.225299e-005,1.389496e-005
5.590588e-001,-1.091020e-005,1.389098e-005
5.598529e-001,-8.392462e-006,1.387904e-005
5.606471e-001,-1.023880e-005,1.386591e-005
5.614412e-001,-1.091020e-005,1.386254e-005
5.622353e-001,-8.896010e-006,1.386377e-005
5.630294e-001,-9.567407e-006,1.386235e-005
5.638235e-001,-1.292439e-005,1.386160e-005
5.646176e-001,-1.527428e-005,1.387099e-005
5.654118e-001,-1.577783e-005,1.388935e-005
5.662059e-001,-1.560998e-005,1.390424e-005
5.670000e-001,-1.527428e-005,1.391399e-005
5.677941e-001,-1.829557e-005,1.392157e-005
5.685882e-001,-1.795987e-005,1.394537e-005
5.693824e-001,-1.258869e-005,1.396505e-005
5.701765e-001,-1.628138e-005,1.395991e-005
5.709706e-001,-1.493858e-005,1.395991e-005
5.717647e-001,-1.158160e-005,1.395875e-005
5.725588e-001,-1.158160e-005,1.395597e-005
5.733529e-001,-1.393149e-005,1.395685e-005
5.741471e-001,-1.560998e-005,1.395993e-005
5.749412e-001,-1.493858e-005,1.397152e-005
5.757353e-001,-1.695277e-005,1.397984e-005
5.765294e-001,-1.594568e-005,1.399354e-005
5.773235e-001,-1.560998e-005,1.400039e-005
5.781176e-001,-1.225299e-005,1.400039e-005
5.789118e-001,-8.392462e-006,1.399644e-005
5.797059e-001,-1.124590e-005,1.398342e-005
5.805000e-001,-1.661708e-005,1.396762e-005
5.812941e-001,-1.628138e-005,1.396369e-005
5.820882e-001,-1.628138e-005,1.395645e-005
5.828824e-001,-1.359579e-005,1.394850e-005
5.836765e-001,-1.225299e-005,1.393807e-005
5.844706e-001,-1.393149e-005,1.392494e-005
5.852647e-001,-1.527428e-005,1.392599e-005
5.860588e-001,-1.376364e-005,1.393153e-005
5.868529e-001,-1.359579e-005,1.393507e-005
5.876471e-001,-1.460288e-005,1.393996e-005
5.884412e-001,-1.292439e-005,1.394717e-005
5.892353e-001,-1.225299e-005,1.394300e-005
5.900294e-001,-1.426719e-005,1.394007e-005
5.908235e-001,-9.903105e-006,1.395286e-005
5.916176e-001,-1.091020e-005,1.395360e-005
5.924118e-001,-1.158160e-005,1.395815e-005
5.932059e-001,-9.903105e-006,1.396574e-005
5.940000e-001,-9.231709e-006,1.396497e-005
5.947941e-001,-1.359579e-005,1.394807e-005
5.955882e-001,-1.225299e-005,1.394539e-005
5.963824e-001,-1.225299e-005,1.393705e-005
5.971765e-001,-1.225299e-005,1.392264e-005
5.979706e-001,-1.258869e-005,1.390949e-005
5.987647e-001,-1.258869e-005,1.390433e-005
5.995588e-001,-9.567407e-006,1.390131e-005
6.003529e-001,-1.124590e-005,1.388266e-005
6.011471e-001,-1.728847e-005,1.387596e-005
6.019412e-001,-1.493858e-005,1.389108e-005
6.027353e-001,-1.225299e-005,1.389945e-005
6.035294e-001,-1.728847e-005,1.390216e-005
6.043235e-001,-1.695277e-005,1.392232e-005
6.051176e-001,-1.560998e-005,1.393984e-005
6.059118e-001,-1.628138e-005,1.395684e-005
6.067059e-001,-1.628138e-005,1.397735e-005
6.075000e-001,-1.712062e-005,1.398648e-005
6.082941e-001,-1.628138e-005,1.399211e-005
6.090882e-001,-1.493858e-005,1.399211e-005
6.098824e-001,-1.560998e-005,1.398480e-005
6.106765e-001,-1.426719e-005,1.398656e-005
6.114706e-001,-1.795987e-005,1.398869e-005
6.122647e-001,-1.560998e-005,1.400736e-005
6.130588e-001,-1.426719e-005,1.400492e-005
6.138529e-001,-1.443504e-005,1.399138e-005
6.146471e-001,-1.258869e-005,1.397268e-005
6.154412e-001,-1.493858e-005,1.394677e-005
6.162353e-001,-1.762417e-005,1.393402e-005
6.170294e-001,-1.661708e-005,1.393923e-005
6.178235e-001,-1.493858e-005,1.393529e-005
6.186176e-001,-1.141375e-005,1.392794e-005
6.194118e-001,-1.107805e-005,1.392170e-005
6.202059e-001,-1.359579e-005,1.390846e-005
6.210000e-001,-1.292439e-005,1.390051e-005
6.217941e-001,-1.426719e-005,1.389633e-005
6.225882e-001,-1.040665e-005,1.391058e-005
6.233824e-001,-8.896010e-006,1.390935e-005
6.241765e-001,-9.735256e-006,1.389928e-005
6.249706e-001,-1.158160e-005,1.389650e-005
6.257647e-001,-1.158160e-005,1.389823e-005
6.265588e-001,-1.107805e-005,1.389446e-005
6.273529e-001,-1.091020e-005,1.388294e-005
6.281471e-001,-1.124590e-005,1.387539e-005
6.289412e-001,-1.158160e-005,1.387452e-005
6.297353e-001,-1.225299e-005,1.387268e-005
6.305294e-001,-1.292439e-005,1.386763e-005
6.313235e-001,-1.695277e-005,1.385883e-005
6.321176e-001,-1.426719e-005,1.386140e-005
6.329118e-001,-1.359579e-005,1.385798e-005
6.337059e-001,-1.443504e-005,1.385583e-005
6.345000e-001,-1.292439e-005,1.386252e-005
6.352941e-001,-1.460288e-005,1.386202e-005
6.360882e-001,-1.493858e-005,1.385971e-005
6.368824e-001,-1.326009e-005,1.385736e-005
6.376765e-001,-1.258869e-005,1.383766e-005
6.384706e-001,-1.158160e-005,1.382538e-005
6.392647e-001,-1.426719e-005,1.382712e-005
6.400588e-001,-1.560998e-005,1.383600e-005
6.408529e-001,-1.225299e-005,1.383836e-005
6.416471e-001,-1.091020e-005,1.383740e-005
6.424412e-001,-1.158160e-005,1.383566e-005
6.432353e-001,-1.426719e-005,1.383382e-005
6.440294e-001,-1.124590e-005,1.384518e-005
6.448235e-001,-1.023880e-005,1.384844e-005
6.456176e-001,-1.158160e-005,1.384638e-005
6.464118e-001,-1.393149e-005,1.385636e-005
6.472059e-001,-1.359579e-005,1.386739e-005
6.480000e-001,-1.393149e-005,1.387042e-005
6.487941e-001,-1.493858e-005,1.387986e-005
6.495882e-001,-1.510643e-005,1.389180e-005
6.503824e-001,-1.493858e-005,1.390167e-005
6.511765e-001,-1.560998e-005,1.391360e-005
6.519706e-001,-1.628138e-005,1.392430e-005
6.527647e-001,-1.628138e-005,1.393648e-005
6.535588e-001,-1.712062e-005,1.394961e-005
6.543529e-001,-1.829557e-005,1.395983e-005
6.551471e-001,-2.098116e-005,1.397255e-005
6.559412e-001,-1.896696e-005,1.398595e-005
6.567353e-001,-1.829557e-005,1.399419e-005
6.575294e-001,-1.661708e-005,1.400454e-005
6.583235e-001,-1.846342e-005,1.401387e-005
6.591176e-001,-1.695277e-005,1.403001e-005
6.599118e-001,-1.510643e-005,1.404164e-005
6.607059e-001,-1.577783e-005,1.405186e-005
6.615000e-001,-1.527428e-005,1.405701e-005
6.622941e-001,-1.628138e-005,1.405340e-005
6.630882e-001,-1.426719e-005,1.405583e-005
6.638824e-001,-1.493858e-005,1.405361e-005
6.646765e-001,-1.728847e-005,1.405069e-005
6.654706e-001,-1.560998e-005,1.405635e-005
6.662647e-001,-1.560998e-005,1.405635e-005
6.670588e-001,-1.628138e-005,1.406196e-005
6.678529e-001,-1.258869e-005,1.406556e-005
6.686471e-001,-9.567407e-006,1.405824e-005
6.694412e-001,-9.903105e-006,1.404332e-005
6.702353e-001,-1.359579e-005,1.403135e-005
6.710294e-001,-1.107805e-005,1.403529e-005
6.718235e-001,-1.158160e-005,1.402719e-005
6.726176e-001,-1.091020e-005,1.401593e-005
6.734118e-001,-1.258869e-005,1.400056e-005
6.742059e-001,-1.443504e-005,1.399027e-005
6.750000e-001,-1.091020e-005,1.398127e-005
6.757941e-001,-1.309224e-005,1.396940e-005
6.765882e-001,-1.762417e-005,1.397365e-005
6.773824e-001,-1.326009e-005,1.399098e-005
6.781765e-001,-9.903105e-006,1.399198e-005
6.789706e-001,-9.903105e-006,1.398210e-005
6.797647e-001,-7.553216e-006,1.397424e-005
6.805588e-001,-8.224612e-006,1.395862e-005
6.813529e-001,-1.040665e-005,1.393971e-005
6.821471e-001,-1.225299e-005,1.392542e-005
6.829412e-001,-1.292439e-005,1.391707e-005
6.837353e-001,-1.225299e-005,1.389500e-005
6.845294e-001,-1.225299e-005,1.387523e-005
6.853235e-001,-1.091020e-005,1.385947e-005
6.861176e-001,-1.393149e-005,1.384750e-005
6.869118e-001,-1.225299e-005,1.384416e-005
6.877059e-001,-1.359579e-005,1.383279e-005
6.885000e-001,-1.560998e-005,1.383433e-005
6.892941e-001,-1.359579e-005,1.384867e-005
6.900882e-001,-1.376364e-005,1.385787e-005
6.908824e-001,-1.158160e-005,1.386332e-005
6.916765e-001,-1.040665e-005,1.386100e-005
6.924706e-001,-1.359579e-005,1.385425e-005
6.932647e-001,-1.359579e-005,1.385630e-005
6.940588e-001,-1.225299e-005,1.385933e-005
6.948529e-001,-1.493858e-005,1.386117e-005
6.956471e-001,-1.292439e-005,1.387837e-005
6.964412e-001,-1.191730e-005,1.388811e-005
6.972353e-001,-1.242084e-005,1.389075e-005
6.980294e-001,-1.393149e-005,1.389027e-005
6.988235e-001,-1.628138e-005,1.389530e-005
6.996176e-001,-1.712062e-005,1.390653e-005
7.004118e-001,-1.628138e-005,1.392290e-005
7.012059e-001,-1.728847e-005,1.393410e-005
7.020000e-001,-1.628138e-005,1.393670e-005
7.027941e-001,-1.493858e-005,1.393670e-005
7.035882e-001,-1.359579e-005,1.393191e-005
7.043824e-001,-1.158160e-005,1.392696e-005
7.051765e-001,-1.359579e-005,1.392116e-005
7.059706e-001,-1.560998e-005,1.392320e-005
7.067647e-001,-1.359579e-005,1.393702e-005
7.075588e-001,-1.191730e-005,1.394412e-005
7.083529e-001,-1.393149e-005,1.394589e-005
7.091471e-001,-1.628138e-005,1.395091e-005
7.099412e-001,-1.863127e-005,1.396007e-005
7.107353e-001,-1.628138e-005,1.398009e-005
7.115294e-001,-1.560998e-005,1.399500e-005
7.123235e-001,-1.846342e-005,1.399957e-005
7.131176e-001,-1.661708e-005,1.400942e-005
7.139118e-001,-1.393149e-005,1.401979e-005
7.147059e-001,-1.493858e-005,1.402084e-005
7.155000e-001,-1.359579e-005,1.403427e-005
7.162941e-001,-1.225299e-005,1.403821e-005
7.170882e-001,-1.376364e-005,1.402992e-005
7.178824e-001,-1.426719e-005,1.403246e-005
7.186765e-001,-1.510643e-005,1.403805e-005
7.194706e-001,-1.510643e-005,1.404297e-005
7.202647e-001,-1.493858e-005,1.404941e-005
7.210588e-001,-1.292439e-005,1.405271e-005
7.218529e-001,-1.174945e-005,1.404857e-005
7.226471e-001,-1.376364e-005,1.404625e-005
7.234412e-001,-9.567407e-006,1.405071e-005
7.242353e-001,-1.040665e-005,1.404215e-005
7.250294e-001,-1.292439e-005,1.403242e-005
7.258235e-001,-1.560998e-005,1.402827e-005
7.266176e-001,-1.695277e-005,1.402459e-005
7.274118e-001,-1.225299e-005,1.402459e-005
7.282059e-001,-1.158160e-005,1.400635e-005
7.290000e-001,-1.258869e-005,1.397773e-005
7.297941e-001,-9.567407e-006,1.396978e-005
7.305882e-001,-8.896010e-006,1.395477e-005
7.313824e-001,-8.224612e-006,1.394424e-005
7.321765e-001,-8.896010e-006,1.392871e-005
7.329706e-001,-1.124590e-005,1.391107e-005
7.337647e-001,-1.426719e-005,1.390643e-005
7.345588e-001,-1.292439e-005,1.391110e-005
7.353529e-001,-1.091020e-005,1.391208e-005
7.361471e-001,-9.567407e-006,1.390852e-005
7.369412e-001,-9.567407e-006,1.389569e-005
7.377353e-001,-1.023880e-005,1.388654e-005
7.385294e-001,-1.191730e-005,1.388134e-005
7.393235e-001,-1.225299e-005,1.387087e-005
7.401176e-001,-1.023880e-005,1.386012e-005
7.409118e-001,-1.527428e-005,1.385297e-005
7.417059e-001,-1.795987e-005,1.385414e-005
7.425000e-001,-1.695277e-005,1.386199e-005
7.432941e-001,-1.594568e-005,1.386761e-005
7.440882e-001,-1.560998e-005,1.386636e-005
7.448824e-001,-1.527428e-005,1.387516e-005
7.456765e-001,-1.762417e-005,1.386629e-005
7.464706e-001,-1.762417e-005,1.386352e-005
7.472647e-001,-1.393149e-005,1.387796e-005
7.480588e-001,-1.560998e-005,1.387404e-005
7.488529e-001,-1.443504e-005,1.386071e-005
7.496471e-001,-1.158160e-005,1.385785e-005
7.504412e-001,-1.292439e-005,1.384645e-005
7.512353e-001,-1.493858e-005,1.383641e-005
7.520294e-001,-1.560998e-005,1.383524e-005
7.528235e-001,-1.393149e-005,1.383986e-005
7.536176e-001,-1.359579e-005,1.384764e-005
7.544118e-001,-1.359579e-005,1.385067e-005
7.552059e-001,-1.594568e-005,1.385823e-005
7.560000e-001,-1.577783e-005,1.387291e-005
7.567941e-001,-1.426719e-005,1.388027e-005
7.575882e-001,-1.728847e-005,1.388639e-005
7.583824e-001,-1.644922e-005,1.390248e-005
7.591765e-001,-1.225299e-005,1.391016e-005
7.599706e-001,-1.426719e-005,1.391287e-005
7.607647e-001,-1.527428e-005,1.392841e-005
7.615588e-001,-1.359579e-005,1.394670e-005
7.623529e-001,-1.158160e-005,1.395421e-005
7.631471e-001,-1.460288e-005,1.395907e-005
7.639412e-001,-1.359579e-005,1.396809e-005
7.647353e-001,-1.225299e-005,1.397205e-005
7.655294e-001,-1.393149e-005,1.397872e-005
7.663235e-001,-1.426719e-005,1.399312e-005
7.671176e-001,-1.191730e-005,1.400102e-005
7.679118e-001,-1.107805e-005,1.399962e-005
7.687059e-001,-1.107805e-005,1.399603e-005
7.695000e-001,-1.292439e-005,1.399292e-005
7.702941e-001,-1.493858e-005,1.399037e-005
7.710882e-001,-1.544213e-005,1.399576e-005
7.718824e-001,-1.560998e-005,1.400485e-005
7.726765e-001,-1.628138e-005,1.400941e-005
7.734706e-001,-1.896696e-005,1.402055e-005
7.742647e-001,-1.829557e-005,1.403718e-005
7.750588e-001,-1.628138e-005,1.404508e-005
7.758529e-001,-1.829557e-005,1.403992e-005
7.766471e-001,-1.661708e-005,1.405479e-005
7.774412e-001,-1.560998e-005,1.406997e-005
7.782353e-001,-1.426719e-005,1.407341e-005
7.790294e-001,-1.258869e-005,1.407063e-005
7.798235e-001,-1.225299e-005,1.406038e-005
7.806176e-001,-1.359579e-005,1.404736e-005
7.814118e-001,-1.191730e-005,1.404938e-005
7.822059e-001,-1.426719e-005,1.403961e-005
7.830000e-001,-1.292439e-005,1.403009e-005
7.837941e-001,-1.426719e-005,1.401896e-005
7.845882e-001,-1.174945e-005,1.402595e-005
7.853824e-001,-9.567407e-006,1.402811e-005
7.861765e-001,-1.091020e-005,1.402146e-005
7.869706e-001,-1.107805e-005,1.401500e-005
7.877647e-001,-1.258869e-005,1.400243e-005
7.885588e-001,-1.057450e-005,1.399943e-005
7.893529e-001,-1.225299e-005,1.398199e-005
7.901471e-001,-1.493858e-005,1.396095e-005
7.909412e-001,-1.091020e-005,1.395491e-005
7.917353e-001,-1.107805e-005,1.393569e-005
7.925294e-001,-1.409934e-005,1.392806e-005
7.933235e-001,-1.124590e-005,1.392966e-005
7.941176e-001,-6.546120e-006,1.392502e-005
7.949118e-001,-7.888914e-006,1.391031e-005
7.957059e-001,-1.225299e-005,1.388185e-005
7.965000e-001,-1.359579e-005,1.386739e-005
7.972941e-001,-1.628138e-005,1.386524e-005
7.980882e-001,-1.829557e-005,1.387230e-005
7.988824e-001,-1.963836e-005,1.388510e-005
7.996765e-001,-2.064546e-005,1.390138e-005
8.004706e-001,-1.846342e-005,1.392794e-005
8.012647e-001,-1.628138e-005,1.394577e-005
8.020588e-001,-1.057450e-005,1.395280e-005
8.028529e-001,-1.158160e-005,1.393834e-005
8.036471e-001,-1.242084e-005,1.392700e-005
8.044412e-001,-1.158160e-005,1.391112e-005
8.052353e-001,-1.258869e-005,1.390426e-005
8.060294e-001,-1.493858e-005,1.391192e-005
8.068235e-001,-1.326009e-005,1.392623e-005
8.076176e-001,-1.309224e-005,1.392917e-005
8.084118e-001,-1.493858e-005,1.393160e-005
8.092059e-001,-1.560998e-005,1.394350e-005
8.100000e-001,-1.695277e-005,1.396327e-005
8.107941e-001,-1.426719e-005,1.398407e-005
8.115882e-001,-1.359579e-005,1.399369e-005
8.123824e-001,-1.393149e-005,1.400571e-005
8.131765e-001,-1.242084e-005,1.401737e-005
8.139706e-001,-8.224612e-006,1.401592e-005
8.147647e-001,-8.560311e-006,1.399709e-005
8.155588e-001,-1.023880e-005,1.397709e-005
8.163529e-001,-1.023880e-005,1.396126e-005
8.171471e-001,-1.393149e-005,1.394660e-005
8.179412e-001,-1.510643e-005,1.393053e-005
8.187353e-001,-1.191730e-005,1.391975e-005
8.195294e-001,-1.292439e-005,1.391786e-005
8.203235e-001,-1.426719e-005,1.390664e-005
8.211176e-001,-1.258869e-005,1.390440e-005
8.219118e-001,-1.292439e-005,1.390718e-005
8.227059e-001,-1.644922e-005,1.391095e-005
8.235000e-001,-1.376364e-005,1.391970e-005
8.242941e-001,-1.225299e-005,1.391350e-005
8.250882e-001,-1.493858e-005,1.390514e-005
8.258824e-001,-1.326009e-005,1.389778e-005
8.266765e-001,-1.426719e-005,1.388879e-005
8.274706e-001,-1.628138e-005,1.388419e-005
8.282647e-001,-1.896696e-005,1.389737e-005
8.290588e-001,-1.695277e-005,1.393048e-005
8.298529e-001,-1.393149e-005,1.394886e-005
8.306471e-001,-1.594568e-005,1.393949e-005
8.314412e-001,-1.292439e-005,1.393825e-005
8.322353e-001,-1.158160e-005,1.392705e-005
8.330294e-001,-1.225299e-005,1.392125e-005
8.338235e-001,-1.326009e-005,1.392125e-005
8.346176e-001,-1.292439e-005,1.391916e-005
8.354118e-001,-8.560311e-006,1.391158e-005
8.362059e-001,-9.903105e-006,1.389828e-005
8.370000e-001,-1.242084e-005,1.388833e-005
8.377941e-001,-1.057450e-005,1.388157e-005
8.385882e-001,-1.359579e-005,1.387523e-005
8.393824e-001,-1.594568e-005,1.387922e-005
8.401765e-001,-1.359579e-005,1.388503e-005
8.409706e-001,-1.393149e-005,1.389498e-005
8.417647e-001,-1.225299e-005,1.390358e-005
8.425588e-001,-1.426719e-005,1.390541e-005
8.433529e-001,-1.527428e-005,1.391749e-005
8.441471e-001,-1.594568e-005,1.393442e-005
8.449412e-001,-1.829557e-005,1.394235e-005
8.457353e-001,-1.829557e-005,1.396341e-005
8.465294e-001,-1.661708e-005,1.398445e-005
8.473235e-001,-1.560998e-005,1.399879e-005
8.481176e-001,-1.695277e-005,1.400848e-005
8.489118e-001,-1.560998e-005,1.402312e-005
8.497059e-001,-1.560998e-005,1.404039e-005
8.505000e-001,-1.628138e-005,1.405367e-005
8.512941e-001,-1.258869e-005,1.404984e-005
8.520882e-001,-1.258869e-005,1.404251e-005
8.528824e-001,-1.493858e-005,1.404345e-005
8.536765e-001,-1.359579e-005,1.403486e-005
8.544706e-001,-1.493858e-005,1.402323e-005
8.552647e-001,-1.258869e-005,1.402089e-005
8.560588e-001,-1.158160e-005,1.400878e-005
8.568529e-001,-1.359579e-005,1.399389e-005
8.576471e-001,-1.628138e-005,1.398156e-005
8.584412e-001,-1.426719e-005,1.398156e-005
8.592353e-001,-1.023880e-005,1.397933e-005
8.600294e-001,-1.124590e-005,1.396351e-005
8.608235e-001,-1.426719e-005,1.395471e-005
8.616176e-001,-1.359579e-005,1.394113e-005
8.624118e-001,-1.376364e-005,1.393441e-005
8.632059e-001,-1.292439e-005,1.393279e-005
8.640000e-001,-1.359579e-005,1.392807e-005
8.647941e-001,-1.493858e-005,1.393108e-005
8.655882e-001,-1.191730e-005,1.393108e-005
8.663824e-001,-1.225299e-005,1.391180e-005
8.671765e-001,-1.560998e-005,1.389737e-005
8.679706e-001,-1.628138e-005,1.389972e-005
8.687647e-001,-1.460288e-005,1.391516e-005
8.695588e-001,-1.359579e-005,1.392551e-005
8.703529e-001,-1.242084e-005,1.392551e-005
8.711471e-001,-1.292439e-005,1.392405e-005
8.719412e-001,-1.326009e-005,1.391988e-005
8.727353e-001,-1.258869e-005,1.392760e-005
8.735294e-001,-1.359579e-005,1.393667e-005
8.743235e-001,-1.225299e-005,1.394695e-005
8.751176e-001,-1.359579e-005,1.394878e-005
8.759118e-001,-1.695277e-005,1.395457e-005
8.767059e-001,-1.577783e-005,1.397335e-005
8.775000e-001,-1.577783e-005,1.398814e-005
8.782941e-001,-1.695277e-005,1.400208e-005
8.790882e-001,-1.863127e-005,1.401950e-005
8.798824e-001,-1.628138e-005,1.404185e-005
8.806765e-001,-1.712062e-005,1.405297e-005
8.814706e-001,-1.628138e-005,1.405361e-005
8.822647e-001,-1.560998e-005,1.406059e-005
8.830588e-001,-1.359579e-005,1.406725e-005
8.838529e-001,-1.091020e-005,1.406458e-005
8.846471e-001,-9.567407e-006,1.405915e-005
8.854412e-001,-6.881819e-006,1.404535e-005
8.862353e-001,-8.224612e-006,1.402541e-005
8.870294e-001,-1.023880e-005,1.401312e-005
8.878235e-001,-1.326009e-005,1.400702e-005
8.886176e-001,-1.292439e-005,1.401176e-005
8.894118e-001,-1.158160e-005,1.400761e-005
8.902059e-001,-1.393149e-005,1.399516e-005
8.910000e-001,-1.527428e-005,1.400016e-005
8.917941e-001,-1.292439e-005,1.401315e-005
8.925882e-001,-8.560311e-006,1.401688e-005
8.933824e-001,-1.040665e-005,1.400208e-005
8.941765e-001,-1.258869e-005,1.400001e-005
8.949706e-001,-1.091020e-005,1.400611e-005
8.957647e-001,-1.191730e-005,1.400439e-005
8.965588e-001,-1.359579e-005,1.399847e-005
8.973529e-001,-1.309224e-005,1.399847e-005
8.981471e-001,-1.426719e-005,1.399589e-005
8.989412e-001,-1.493858e-005,1.399366e-005
8.997353e-001,-1.560998e-005,1.399309e-005
9.005294e-001,-1.594568e-005,1.399542e-005
9.013235e-001,-1.762417e-005,1.399663e-005
9.021176e-001,-1.359579e-005,1.400181e-005
9.029118e-001,-1.225299e-005,1.399268e-005
9.037059e-001,-1.174945e-005,1.397640e-005
9.045000e-001,-1.393149e-005,1.395397e-005
9.052941e-001,-1.510643e-005,1.392586e-005
9.060882e-001,-1.560998e-005,1.391081e-005
9.068824e-001,-1.762417e-005,1.390038e-005
9.076765e-001,-1.762417e-005,1.390433e-005
9.084706e-001,-1.628138e-005,1.390086e-005
9.092647e-001,-1.628138e-005,1.389831e-005
9.100588e-001,-1.762417e-005,1.390253e-005
9.108529e-001,-1.577783e-005,1.390959e-005
9.116471e-001,-1.695277e-005,1.391138e-005
9.124412e-001,-1.158160e-005,1.391394e-005
9.132353e-001,-8.224612e-006,1.390599e-005
9.140294e-001,-9.567407e-006,1.388817e-005
9.148235e-001,-6.881819e-006,1.386437e-005
9.156176e-001,-7.217518e-006,1.384181e-005
9.164118e-001,-9.567407e-006,1.381975e-005
9.172059e-001,-1.023880e-005,1.379974e-005
9.180000e-001,-1.023880e-005,1.379355e-005
9.187941e-001,-9.735256e-006,1.379509e-005
9.195882e-001,-1.107805e-005,1.379471e-005
9.203824e-001,-1.124590e-005,1.378753e-005
9.211765e-001,-1.359579e-005,1.378797e-005
9.219706e-001,-1.560998e-005,1.379382e-005
9.227647e-001,-1.359579e-005,1.380820e-005
9.235588e-001,-1.292439e-005,1.381124e-005
9.243529e-001,-1.393149e-005,1.380648e-005
9.251471e-001,-1.460288e-005,1.381513e-005
9.259412e-001,-1.510643e-005,1.381995e-005
9.267353e-001,-1.493858e-005,1.381045e-005
9.275294e-001,-1.779202e-005,1.381591e-005
9.283235e-001,-1.661708e-005,1.384107e-005
9.291176e-001,-1.426719e-005,1.386154e-005
9.299118e-001,-1.628138e-005,1.387835e-005
9.307059e-001,-1.728847e-005,1.390099e-005
9.315000e-001,-1.359579e-005,1.392281e-005
9.322941e-001,-1.443504e-005,1.392677e-005
9.330882e-001,-1.728847e-005,1.393150e-005
9.338824e-001,-1.762417e-005,1.394849e-005
9.346765e-001,-1.795987e-005,1.396680e-005
9.354706e-001,-1.762417e-005,1.398998e-005
9.362647e-001,-1.527428e-005,1.400324e-005
9.370588e-001,-1.242084e-005,1.401269e-005
9.378529e-001,-1.225299e-005,1.400922e-005
9.386471e-001,-1.225299e-005,1.399859e-005
9.394412e-001,-1.426719e-005,1.399464e-005
9.402353e-001,-1.426719e-005,1.399624e-005
9.410294e-001,-1.628138e-005,1.400414e-005
9.418235e-001,-1.628138e-005,1.402195e-005
9.426176e-001,-1.560998e-005,1.403106e-005
9.434118e-001,-1.829557e-005,1.403774e-005
9.442059e-001,-1.728847e-005,1.405866e-005
9.450000e-001,-1.493858e-005,1.406724e-005
9.457941e-001,-1.393149e-005,1.407359e-005
9.465882e-001,-1.493858e-005,1.407948e-005
9.473824e-001,-1.493858e-005,1.408726e-005
9.481765e-001,-1.560998e-005,1.409055e-005
9.489706e-001,-1.493858e-005,1.408813e-005
9.497647e-001,-1.426719e-005,1.408022e-005
9.505588e-001,-1.393149e-005,1.407326e-005
9.513529e-001,-1.527428e-005,1.406140e-005
9.521471e-001,-1.409934e-005,1.405780e-005
9.529412e-001,-1.359579e-005,1.405504e-005
9.537353e-001,-1.091020e-005,1.405504e-005
9.545294e-001,-9.567407e-006,1.405333e-005
9.553235e-001,-1.091020e-005,1.404275e-005
9.561176e-001,-1.091020e-005,1.402861e-005
9.569118e-001,-1.191730e-005,1.402114e-005
9.577059e-001,-1.292439e-005,1.402114e-005
9.585000e-001,-1.393149e-005,1.401807e-005
9.592941e-001,-1.493858e-005,1.401000e-005
9.600882e-001,-1.527428e-005,1.399590e-005
9.608824e-001,-1.426719e-005,1.399229e-005
9.616765e-001,-1.258869e-005,1.398772e-005
9.624706e-001,-1.493858e-005,1.396694e-005
9.632647e-001,-1.359579e-005,1.396090e-005
9.640588e-001,-1.007095e-005,1.395984e-005
9.648529e-001,-1.091020e-005,1.394595e-005
9.656471e-001,-1.191730e-005,1.393843e-005
9.664412e-001,-9.567407e-006,1.393751e-005
9.672353e-001,-8.224612e-006,1.392632e-005
9.680294e-001,-1.091020e-005,1.391077e-005
9.688235e-001,-1.292439e-005,1.389827e-005
9.696176e-001,-1.493858e-005,1.389126e-005
9.704118e-001,-1.527428e-005,1.389126e-005
9.712059e-001,-1.359579e-005,1.389885e-005
9.720000e-001,-1.359579e-005,1.390421e-005
9.727941e-001,-1.376364e-005,1.390368e-005
9.735882e-001,-1.359579e-005,1.391489e-005
9.743824e-001,-1.158160e-005,1.392365e-005
9.751765e-001,-1.258869e-005,1.391989e-005
9.759706e-001,-1.779202e-005,1.391014e-005
9.767647e-001,-1.795987e-005,1.391347e-005
9.775588e-001,-1.527428e-005,1.393319e-005
9.783529e-001,-1.326009e-005,1.394452e-005
9.791471e-001,-1.292439e-005,1.394650e-005
9.799412e-001,-1.091020e-005,1.395512e-005
9.807353e-001,-8.224612e-006,1.395967e-005
9.815294e-001,-1.292439e-005,1.395967e-005
9.823235e-001,-1.292439e-005,1.396970e-005
9.831176e-001,-1.174945e-005,1.397432e-005
9.839118e-001,-1.493858e-005,1.396686e-005
9.847059e-001,-1.779202e-005,1.397325e-005
9.855000e-001,-1.560998e-005,1.399574e-005
9.862941e-001,-1.326009e-005,1.401304e-005
9.870882e-001,-1.258869e-005,1.402262e-005
9.878824e-001,-1.393149e-005,1.402871e-005
9.886765e-001,-1.309224e-005,1.403461e-005
9.894706e-001,-1.560998e-005,1.403703e-005
9.902647e-001,-1.493858e-005,1.405277e-005
9.910588e-001,-9.063859e-006,1.405162e-005
9.918529e-001,-1.091020e-005,1.402435e-005
9.926471e-001,-1.359579e-005,1.400522e-005
9.934412e-001,-1.426719e-005,1.399733e-005
9.942353e-001,-1.091020e-005,1.399276e-005
9.950294e-001,-1.091020e-005,1.397975e-005
9.958235e-001,-1.527428e-005,1.395791e-005
9.966176e-001,-1.326009e-005,1.394909e-005
9.974118e-001,-1.359579e-005,1.394701e-005
9.982059e-001,-1.426719e-005,1.394029e-005
9.990000e-001,-1.628138e-005,1.393974e-005
9.997941e-001,-1.493858e-005,1.395469e-005
1.000588e+000,-1.258869e-005,1.396109e-005
1.001382e+000,-1.091020e-005,1.395371e-005
1.002176e+000,-1.158160e-005,1.393948e-005
1.002971e+000,-1.393149e-005,1.393263e-005
1.003765e+000,-1.393149e-005,1.393369e-005
1.004559e+000,-1.309224e-005,1.393474e-005
1.005353e+000,-1.242084e-005,1.392527e-005
1.006147e+000,-1.393149e-005,1.391444e-005
1.006941e+000,-1.091020e-005,1.391336e-005
1.007735e+000,-1.309224e-005,1.389276e-005
1.008529e+000,-1.493858e-005,1.388139e-005
1.009324e+000,-1.091020e-005,1.388976e-005
1.010118e+000,-1.107805e-005,1.388007e-005
1.010912e+000,-1.225299e-005,1.386738e-005
1.011706e+000,-1.326009e-005,1.386339e-005
1.012500e+000,-1.258869e-005,1.386818e-005
1.013294e+000,-1.091020e-005,1.386189e-005
1.014088e+000,-1.426719e-005,1.385433e-005
1.014882e+000,-1.560998e-005,1.386047e-005
1.015676e+000,-1.292439e-005,1.386616e-005
1.016471e+000,-1.292439e-005,1.386197e-005
1.017265e+000,-1.376364e-005,1.386484e-005
1.018059e+000,-1.359579e-005,1.387250e-005
1.018853e+000,-1.577783e-005,1.387963e-005
1.019647e+000,-1.795987e-005,1.388902e-005
1.020441e+000,-2.030976e-005,1.390041e-005
1.021235e+000,-1.829557e-005,1.392033e-005
1.022029e+000,-1.628138e-005,1.393075e-005
1.022824e+000,-1.695277e-005,1.393075e-005
1.023618e+000,-1.443504e-005,1.392247e-005
1.024412e+000,-1.376364e-005,1.390801e-005
1.025206e+000,-1.493858e-005,1.389935e-005
1.026000e+000,-1.628138e-005,1.388656e-005
1.026794e+000,-1.560998e-005,1.388530e-005
1.027588e+000,-1.443504e-005,1.388530e-005
1.028382e+000,-1.124590e-005,1.388585e-005
1.029176e+000,-1.158160e-005,1.388218e-005
1.029971e+000,-1.326009e-005,1.388034e-005
1.030765e+000,-1.359579e-005,1.387931e-005
1.031559e+000,-1.376364e-005,1.388422e-005
1.032353e+000,-1.258869e-005,1.388260e-005
1.033147e+000,-1.292439e-005,1.388162e-005
1.033941e+000,-1.309224e-005,1.387743e-005
1.034735e+000,-1.158160e-005,1.388126e-005
1.035529e+000,-1.124590e-005,1.388615e-005
1.036324e+000,-1.091020e-005,1.388700e-005
1.037118e+000,-1.158160e-005,1.388658e-005
1.037912e+000,-1.225299e-005,1.388378e-005
1.038706e+000,-1.493858e-005,1.388818e-005
1.039500e+000,-1.359579e-005,1.389655e-005
1.040294e+000,-1.527428e-005,1.389216e-005
1.041088e+000,-1.628138e-005,1.390525e-005
1.041882e+000,-1.258869e-005,1.392154e-005
1.042676e+000,-1.124590e-005,1.391693e-005
1.043471e+000,-1.158160e-005,1.391693e-005
1.044265e+000,-1.258869e-005,1.392737e-005
1.045059e+000,-1.359579e-005,1.393837e-005
1.045853e+000,-1.359579e-005,1.394233e-005
1.046647e+000,-1.292439e-005,1.394233e-005
1.047441e+000,-1.560998e-005,1.393113e-005
1.048235e+000,-1.493858e-005,1.392072e-005
1.049029e+000,-1.326009e-005,1.390212e-005
1.049824e+000,-1.359579e-005,1.387341e-005
1.050618e+000,-1.393149e-005,1.385549e-005
1.051412e+000,-1.242084e-005,1.384732e-005
1.052206e+000,-1.158160e-005,1.385221e-005
1.053000e+000,-1.191730e-005,1.385220e-005
1.053794e+000,-1.326009e-005,1.385080e-005
1.054588e+000,-1.510643e-005,1.385559e-005
1.055382e+000,-1.326009e-005,1.386360e-005
1.056176e+000,-1.107805e-005,1.385816e-005
1.056971e+000,-1.426719e-005,1.385206e-005
1.057765e+000,-1.628138e-005,1.385575e-005
1.058559e+000,-1.560998e-005,1.386057e-005
1.059353e+000,-1.225299e-005,1.386057e-005
1.060147e+000,-1.393149e-005,1.384479e-005
1.060941e+000,-1.426719e-005,1.384370e-005
1.061735e+000,-9.903105e-006,1.384586e-005
1.062529e+000,-1.292439e-005,1.383481e-005
1.063324e+000,-1.393149e-005,1.383628e-005
1.064118e+000,-1.091020e-005,1.385082e-005
1.064912e+000,-1.359579e-005,1.385608e-005
1.065706e+000,-1.493858e-005,1.386527e-005
1.066500e+000,-1.393149e-005,1.387886e-005
1.067294e+000,-1.258869e-005,1.387885e-005
1.068088e+000,-1.191730e-005,1.387085e-005
1.068882e+000,-1.158160e-005,1.387085e-005
1.069676e+000,-1.443504e-005,1.386707e-005
1.070471e+000,-1.292439e-005,1.386763e-005
1.071265e+000,-1.158160e-005,1.386861e-005
1.072059e+000,-1.057450e-005,1.386483e-005
1.072853e+000,-1.426719e-005,1.384659e-005
1.073647e+000,-1.728847e-005,1.384821e-005
1.074441e+000,-1.795987e-005,1.386530e-005
1.075235e+000,-1.695277e-005,1.387671e-005
1.076029e+000,-1.829557e-005,1.388951e-005
1.076824e+000,-1.963836e-005,1.390454e-005
1.077618e+000,-1.930266e-005,1.391834e-005
1.078412e+000,-1.493858e-005,1.391981e-005
1.079206e+000,-1.695277e-005,1.391246e-005
1.080000e+000,-1.560998e-005,1.392314e-005
1.080794e+000,-1.795987e-005,1.392193e-005
1.081588e+000,-1.628138e-005,1.393970e-005
1.082382e+000,-1.393149e-005,1.395465e-005
1.083176e+000,-1.292439e-005,1.395967e-005
1.083971e+000,-1.158160e-005,1.395866e-005
1.084765e+000,-1.309224e-005,1.395491e-005
1.085559e+000,-1.661708e-005,1.396610e-005
1.086353e+000,-1.493858e-005,1.398639e-005
1.087147e+000,-1.644922e-005,1.399423e-005
1.087941e+000,-1.359579e-005,1.401228e-005
1.088735e+000,-1.141375e-005,1.401228e-005
1.089529e+000,-1.091020e-005,1.399818e-005
1.090324e+000,-1.057450e-005,1.399070e-005
1.091118e+000,-1.158160e-005,1.398133e-005
1.091912e+000,-1.158160e-005,1.397951e-005
1.092706e+000,-1.309224e-005,1.397160e-005
1.093500e+000,-1.158160e-005,1.396454e-005
1.094294e+000,-1.225299e-005,1.395084e-005
1.095088e+000,-1.158160e-005,1.392975e-005
1.095882e+000,-1.158160e-005,1.390680e-005
1.096676e+000,-1.292439e-005,1.389053e-005
1.097471e+000,-1.628138e-005,1.388175e-005
1.098265e+000,-1.560998e-005,1.387919e-005
1.099059e+000,-1.460288e-005,1.387919e-005
1.099853e+000,-1.762417e-005,1.387570e-005
1.100647e+000,-1.712062e-005,1.388092e-005
1.101441e+000,-1.795987e-005,1.389636e-005
1.102235e+000,-1.460288e-005,1.391515e-005
1.103029e+000,-1.359579e-005,1.391401e-005
1.103824e+000,-1.326009e-005,1.391401e-005
1.104618e+000,-1.359579e-005,1.390859e-005
1.105412e+000,-1.560998e-005,1.391161e-005
1.106206e+000,-1.359579e-005,1.392414e-005
1.107000e+000,-1.393149e-005,1.392414e-005
1.107794e+000,-1.527428e-005,1.391602e-005
1.108588e+000,-1.393149e-005,1.391943e-005
1.109382e+000,-1.023880e-005,1.392963e-005
1.110176e+000,-1.091020e-005,1.392716e-005
1.110971e+000,-1.292439e-005,1.391749e-005
1.111765e+000,-1.359579e-005,1.391545e-005
1.112559e+000,-1.426719e-005,1.391493e-005
1.113353e+000,-1.460288e-005,1.391911e-005
1.114147e+000,-1.376364e-005,1.392236e-005
1.114941e+000,-1.359579e-005,1.391850e-005
1.115735e+000,-1.426719e-005,1.392340e-005
1.116529e+000,-1.225299e-005,1.392950e-005
1.117324e+000,-1.359579e-005,1.391881e-005
1.118118e+000,-1.158160e-005,1.390963e-005
1.118912e+000,-8.896010e-006,1.390057e-005
1.119706e+000,-1.292439e-005,1.388845e-005
1.120500e+000,-9.231709e-006,1.388991e-005
1.121294e+000,-7.553216e-006,1.388053e-005
1.122088e+000,-1.292439e-005,1.386690e-005
1.122882e+000,-1.426719e-005,1.386788e-005
1.123676e+000,-1.393149e-005,1.387003e-005
1.124471e+000,-1.326009e-005,1.387507e-005
1.125265e+000,-1.225299e-005,1.387404e-005
1.126059e+000,-1.359579e-005,1.385828e-005
1.126853e+000,-1.359579e-005,1.385091e-005
1.127647e+000,-1.393149e-005,1.384354e-005
1.128441e+000,-1.426719e-005,1.383280e-005
1.129235e+000,-1.661708e-005,1.381627e-005
1.130029e+000,-1.661708e-005,1.381754e-005
1.130824e+000,-1.326009e-005,1.381558e-005
1.131618e+000,-1.191730e-005,1.380529e-005
1.132412e+000,-1.258869e-005,1.379356e-005
1.133206e+000,-1.376364e-005,1.379052e-005
1.134000e+000,-1.326009e-005,1.379864e-005
1.134794e+000,-1.359579e-005,1.380837e-005
1.135588e+000,-1.577783e-005,1.382421e-005
1.136382e+000,-1.292439e-005,1.384508e-005
1.137176e+000,-1.426719e-005,1.385223e-005
1.137971e+000,-1.560998e-005,1.385542e-005
1.138765e+000,-1.560998e-005,1.386422e-005
1.139559e+000,-1.628138e-005,1.387680e-005
1.140353e+000,-1.493858e-005,1.388494e-005
1.141147e+000,-1.493858e-005,1.388378e-005
1.141941e+000,-1.426719e-005,1.389022e-005
1.142735e+000,-1.225299e-005,1.390514e-005
1.143529e+000,-1.560998e-005,1.390993e-005
1.144324e+000,-1.829557e-005,1.391968e-005
1.145118e+000,-1.510643e-005,1.394433e-005
1.145912e+000,-1.393149e-005,1.395417e-005
1.146706e+000,-1.292439e-005,1.395522e-005
1.147500e+000,-1.426719e-005,1.395473e-005
1.148294e+000,-1.594568e-005,1.395473e-005
1.149088e+000,-1.493858e-005,1.395828e-005
1.149882e+000,-1.091020e-005,1.395594e-005
1.150676e+000,-1.359579e-005,1.394050e-005
1.151471e+000,-1.493858e-005,1.392612e-005
1.152265e+000,-1.309224e-005,1.393050e-005
1.153059e+000,-1.393149e-005,1.393293e-005
1.153853e+000,-1.376364e-005,1.393934e-005
1.154647e+000,-1.191730e-005,1.393881e-005
1.155441e+000,-1.292439e-005,1.392896e-005
1.156235e+000,-1.158160e-005,1.392019e-005
1.157029e+000,-1.258869e-005,1.389999e-005
1.157824e+000,-1.258869e-005,1.388255e-005
1.158618e+000,-1.091020e-005,1.387032e-005
1.159412e+000,-1.359579e-005,1.385354e-005
1.160206e+000,-1.443504e-005,1.383908e-005
1.161000e+000,-1.359579e-005,1.383441e-005
1.161794e+000,-1.628138e-005,1.382260e-005
1.162588e+000,-1.560998e-005,1.383768e-005
1.163382e+000,-1.560998e-005,1.385792e-005
1.164176e+000,-1.678492e-005,1.387539e-005
1.164971e+000,-1.359579e-005,1.390226e-005
1.165765e+000,-1.023880e-005,1.391746e-005
1.166559e+000,-1.124590e-005,1.391898e-005
1.167353e+000,-1.091020e-005,1.392145e-005
1.168147e+000,-9.567407e-006,1.392308e-005
1.168941e+000,-1.225299e-005,1.392271e-005
1.169735e+000,-1.091020e-005,1.392584e-005
1.170529e+000,-1.040665e-005,1.392499e-005
1.171324e+000,-1.091020e-005,1.391624e-005
1.172118e+000,-9.231709e-006,1.390197e-005
1.172912e+000,-9.903105e-006,1.389055e-005
1.173706e+000,-1.527428e-005,1.388264e-005
1.174500e+000,-1.309224e-005,1.388714e-005
1.175294e+000,-1.124590e-005,1.388234e-005
1.176088e+000,-1.091020e-005,1.387067e-005
1.176882e+000,-1.174945e-005,1.385871e-005
1.177676e+000,-1.393149e-005,1.383818e-005
1.178471e+000,-1.628138e-005,1.382874e-005
1.179265e+000,-1.359579e-005,1.383582e-005
1.180059e+000,-1.493858e-005,1.382659e-005
1.180853e+000,-1.628138e-005,1.381786e-005
1.181647e+000,-1.762417e-005,1.382711e-005
1.182441e+000,-1.846342e-005,1.383887e-005
1.183235e+000,-1.460288e-005,1.384371e-005
1.184029e+000,-1.493858e-005,1.383250e-005
1.184824e+000,-1.493858e-005,1.382106e-005
1.185618e+000,-1.527428e-005,1.381098e-005
1.186412e+000,-1.443504e-005,1.381098e-005
1.187206e+000,-1.661708e-005,1.381721e-005
1.188000e+000,-1.510643e-005,1.383172e-005
1.188794e+000,-1.493858e-005,1.384071e-005
1.189588e+000,-1.795987e-005,1.384296e-005
1.190382e+000,-1.728847e-005,1.385665e-005
1.191176e+000,-1.493858e-005,1.386053e-005
1.191971e+000,-1.644922e-005,1.385571e-005
1.192765e+000,-1.560998e-005,1.385881e-005
1.193559e+000,-1.426719e-005,1.384834e-005
1.194353e+000,-1.225299e-005,1.383737e-005
1.195147e+000,-1.292439e-005,1.382897e-005
1.195941e+000,-1.091020e-005,1.382585e-005
1.196735e+000,-1.091020e-005,1.381385e-005
1.197529e+000,-1.527428e-005,1.380185e-005
1.198324e+000,-1.426719e-005,1.380065e-005
1.199118e+000,-1.359579e-005,1.379839e-005
1.199912e+000,-1.326009e-005,1.379623e-005
1.200706e+000,-1.158160e-005,1.379412e-005
1.201500e+000,-9.567407e-006,1.378267e-005
1.202294e+000,-1.158160e-005,1.377027e-005
1.203088e+000,-1.426719e-005,1.376441e-005
1.203882e+000,-1.426719e-005,1.377418e-005
1.204676e+000,-1.359579e-005,1.378712e-005
1.205471e+000,-1.359579e-005,1.379472e-005
1.206265e+000,-1.426719e-005,1.380232e-005
1.207059e+000,-1.326009e-005,1.380941e-005
1.207853e+000,-1.376364e-005,1.381043e-005
1.208647e+000,-1.628138e-005,1.380989e-005
1.209441e+000,-1.695277e-005,1.381472e-005
1.210235e+000,-1.560998e-005,1.382096e-005
1.211029e+000,-1.644922e-005,1.382558e-005
1.211824e+000,-1.242084e-005,1.383848e-005
1.212618e+000,-1.460288e-005,1.383056e-005
1.213412e+000,-1.560998e-005,1.383383e-005
1.214206e+000,-1.628138e-005,1.385019e-005
1.215000e+000,-1.560998e-005,1.386697e-005
1.215794e+000,-1.913481e-005,1.387864e-005
1.216588e+000,-1.762417e-005,1.391011e-005
1.217382e+000,-1.560998e-005,1.393790e-005
1.218176e+000,-1.493858e-005,1.395213e-005
1.218971e+000,-1.628138e-005,1.395853e-005
1.219765e+000,-1.829557e-005,1.396331e-005
1.220559e+000,-1.493858e-005,1.397487e-005
1.221353e+000,-1.091020e-005,1.397924e-005
1.222147e+000,-1.527428e-005,1.397174e-005
1.222941e+000,-1.426719e-005,1.397674e-005
1.223735e+000,-1.091020e-005,1.397887e-005
1.224529e+000,-1.091020e-005,1.397715e-005
1.225324e+000,-1.091020e-005,1.397266e-005
1.226118e+000,-1.225299e-005,1.395013e-005
1.226912e+000,-1.023880e-005,1.393043e-005
1.227706e+000,-1.258869e-005,1.391574e-005
1.228500e+000,-8.560311e-006,1.391375e-005
1.229294e+000,-7.553216e-006,1.390302e-005
1.230088e+000,-1.124590e-005,1.389592e-005
1.230882e+000,-1.023880e-005,1.390266e-005
1.231676e+000,-1.225299e-005,1.389553e-005
1.232471e+000,-1.359579e-005,1.389359e-005
1.233265e+000,-1.359579e-005,1.389896e-005
1.234059e+000,-1.158160e-005,1.389457e-005
1.234853e+000,-1.426719e-005,1.387364e-005
1.235647e+000,-1.292439e-005,1.386904e-005
1.236441e+000,-1.057450e-005,1.386803e-005
1.237235e+000,-1.158160e-005,1.386267e-005
1.238029e+000,-1.158160e-005,1.385578e-005
1.238824e+000,-1.359579e-005,1.385150e-005
1.239618e+000,-1.560998e-005,1.384473e-005
1.240412e+000,-1.527428e-005,1.384709e-005
1.241206e+000,-1.628138e-005,1.386446e-005
1.242000e+000,-1.393149e-005,1.388123e-005
1.242794e+000,-1.091020e-005,1.388229e-005
1.243588e+000,-1.292439e-005,1.387259e-005
1.244382e+000,-1.191730e-005,1.387810e-005
1.245176e+000,-1.023880e-005,1.388074e-005
1.245971e+000,-1.091020e-005,1.386599e-005
1.246765e+000,-1.091020e-005,1.385947e-005
1.247559e+000,-1.191730e-005,1.385190e-005
1.248353e+000,-1.359579e-005,1.384483e-005
1.249147e+000,-1.426719e-005,1.383560e-005
1.249941e+000,-1.628138e-005,1.383334e-005
1.250735e+000,-1.762417e-005,1.384561e-005
1.251529e+000,-1.695277e-005,1.386762e-005
1.252324e+000,-1.661708e-005,1.388521e-005
1.253118e+000,-1.628138e-005,1.389461e-005
1.253912e+000,-1.359579e-005,1.390275e-005
1.254706e+000,-1.409934e-005,1.390429e-005
1.255500e+000,-1.560998e-005,1.390938e-005
1.256294e+000,-1.359579e-005,1.391506e-005
1.257088e+000,-1.326009e-005,1.392259e-005
1.257882e+000,-1.426719e-005,1.392309e-005
1.258676e+000,-1.560998e-005,1.392085e-005
1.259471e+000,-1.258869e-005,1.393510e-005
1.260265e+000,-1.393149e-005,1.393919e-005
1.261059e+000,-1.225299e-005,1.394421e-005
1.261853e+000,-1.493858e-005,1.394127e-005
1.262647e+000,-1.695277e-005,1.394866e-005
1.263441e+000,-1.426719e-005,1.396786e-005
1.264235e+000,-9.903105e-006,1.396786e-005
1.265029e+000,-1.426719e-005,1.395126e-005
1.265824e+000,-1.896696e-005,1.395542e-005
1.266618e+000,-1.963836e-005,1.397739e-005
1.267412e+000,-1.896696e-005,1.399973e-005
1.268206e+000,-1.997406e-005,1.401961e-005
1.269000e+000,-1.644922e-005,1.403664e-005
1.269794e+000,-1.426719e-005,1.403074e-005
1.270588e+000,-1.628138e-005,1.400701e-005
1.271382e+000,-1.628138e-005,1.399909e-005
1.272176e+000,-1.628138e-005,1.399909e-005
1.272971e+000,-1.493858e-005,1.399655e-005
1.273765e+000,-1.258869e-005,1.399823e-005
1.274559e+000,-1.225299e-005,1.399471e-005
1.275353e+000,-1.493858e-005,1.398640e-005
1.276147e+000,-1.242084e-005,1.398163e-005
1.276941e+000,-1.023880e-005,1.397144e-005
1.277735e+000,-1.091020e-005,1.395964e-005
1.278529e+000,-8.224612e-006,1.395879e-005
1.279324e+000,-1.091020e-005,1.395120e-005
1.280118e+000,-1.158160e-005,1.394472e-005
1.280912e+000,-9.903105e-006,1.393892e-005
1.281706e+000,-1.292439e-005,1.392848e-005
1.282500e+000,-1.225299e-005,1.392946e-005
1.283294e+000,-1.225299e-005,1.392753e-005
1.284088e+000,-1.091020e-005,1.392510e-005
1.284882e+000,-1.393149e-005,1.392337e-005
1.285676e+000,-1.628138e-005,1.393110e-005
1.286471e+000,-1.577783e-005,1.394778e-005
1.287265e+000,-1.426719e-005,1.396089e-005
1.288059e+000,-1.426719e-005,1.396698e-005
1.288853e+000,-1.091020e-005,1.396474e-005
1.289647e+000,-1.023880e-005,1.395723e-005
1.290441e+000,-1.040665e-005,1.394257e-005
1.291235e+000,-1.158160e-005,1.392465e-005
1.292029e+000,-1.393149e-005,1.392187e-005
1.292824e+000,-1.091020e-005,1.392960e-005
1.293618e+000,-9.063859e-006,1.392787e-005
1.294412e+000,-1.242084e-005,1.391915e-005
1.295206e+000,-1.594568e-005,1.391565e-005
1.296000e+000,-1.560998e-005,1.392359e-005
1.296794e+000,-1.527428e-005,1.393235e-005
1.297588e+000,-1.661708e-005,1.393117e-005
1.298382e+000,-1.594568e-005,1.393722e-005
1.299176e+000,-1.628138e-005,1.394618e-005
1.299971e+000,-1.510643e-005,1.395534e-005
1.300765e+000,-1.493858e-005,1.395923e-005
1.301559e+000,-1.493858e-005,1.396708e-005
1.302353e+000,-1.644922e-005,1.397723e-005
1.303147e+000,-1.426719e-005,1.399187e-005
1.303941e+000,-1.292439e-005,1.399502e-005
1.304735e+000,-1.560998e-005,1.398806e-005
1.305529e+000,-1.577783e-005,1.399578e-005
1.306324e+000,-8.560311e-006,1.401014e-005
1.307118e+000,-5.203327e-006,1.399532e-005
1.307912e+000,-9.063859e-006,1.396822e-005
1.308706e+000,-1.242084e-005,1.394979e-005
1.309500e+000,-1.493858e-005,1.395026e-005
1.310294e+000,-1.460288e-005,1.395358e-005
1.311088e+000,-1.426719e-005,1.395469e-005
1.311882e+000,-1.191730e-005,1.396672e-005
1.312676e+000,-1.393149e-005,1.396387e-005
1.313471e+000,-1.560998e-005,1.396387e-005
1.314265e+000,-1.359579e-005,1.397807e-005
1.315059e+000,-1.242084e-005,1.397807e-005
1.315853e+000,-1.594568e-005,1.397022e-005
1.316647e+000,-1.594568e-005,1.397708e-005
1.317441e+000,-1.493858e-005,1.398799e-005
1.318235e+000,-1.695277e-005,1.399722e-005
1.319029e+000,-1.728847e-005,1.401465e-005
1.319824e+000,-2.030976e-005,1.402493e-005
1.320618e+000,-1.896696e-005,1.405277e-005
1.321412e+000,-1.560998e-005,1.407831e-005
1.322206e+000,-1.577783e-005,1.409321e-005
1.323000e+000,-1.728847e-005,1.409834e-005
1.323794e+000,-1.695277e-005,1.409834e-005
1.324588e+000,-1.359579e-005,1.409437e-005
1.325382e+000,-1.191730e-005,1.408278e-005
1.326176e+000,-1.393149e-005,1.406097e-005
1.326971e+000,-1.426719e-005,1.403926e-005
1.327765e+000,-1.292439e-005,1.402007e-005
1.328559e+000,-1.426719e-005,1.401370e-005
1.329353e+000,-1.628138e-005,1.400417e-005
1.330147e+000,-1.661708e-005,1.400660e-005
1.330941e+000,-1.292439e-005,1.400132e-005
1.331735e+000,-1.057450e-005,1.399017e-005
1.332529e+000,-1.225299e-005,1.398080e-005
1.333324e+000,-1.359579e-005,1.397888e-005
1.334118e+000,-1.292439e-005,1.398465e-005
1.334912e+000,-1.359579e-005,1.398416e-005
1.335706e+000,-1.493858e-005,1.397376e-005
1.336500e+000,-1.359579e-005,1.397376e-005
1.337294e+000,-1.124590e-005,1.396399e-005
1.338088e+000,-9.903105e-006,1.395733e-005
1.338882e+000,-1.091020e-005,1.395365e-005
1.339676e+000,-1.326009e-005,1.395365e-005
1.340471e+000,-1.158160e-005,1.396095e-005
1.341265e+000,-1.023880e-005,1.396095e-005
1.342059e+000,-1.225299e-005,1.395761e-005
1.342853e+000,-1.225299e-005,1.395518e-005
1.343647e+000,-1.225299e-005,1.395701e-005
1.344441e+000,-1.124590e-005,1.395701e-005
1.345235e+000,-1.107805e-005,1.395614e-005
1.346029e+000,-1.493858e-005,1.395483e-005
1.346824e+000,-1.225299e-005,1.396124e-005
1.347618e+000,-1.124590e-005,1.394812e-005
1.348412e+000,-1.292439e-005,1.393473e-005
1.349206e+000,-1.426719e-005,1.392945e-005
1.350000e+000,-1.359579e-005,1.391721e-005
1.350794e+000,-1.393149e-005,1.390482e-005
1.351588e+000,-1.191730e-005,1.389010e-005
1.352382e+000,-1.258869e-005,1.388193e-005
1.353176e+000,-1.628138e-005,1.387890e-005
1.353971e+000,-1.695277e-005,1.388914e-005
1.354765e+000,-1.359579e-005,1.390089e-005
1.355559e+000,-1.560998e-005,1.389415e-005
1.356353e+000,-1.695277e-005,1.390089e-005
1.357147e+000,-1.644922e-005,1.391158e-005
1.357941e+000,-1.493858e-005,1.391584e-005
1.358735e+000,-1.292439e-005,1.391917e-005
1.359529e+000,-1.158160e-005,1.392628e-005
1.360324e+000,-1.258869e-005,1.392801e-005
1.361118e+000,-1.124590e-005,1.392703e-005
1.361912e+000,-1.443504e-005,1.392035e-005
1.362706e+000,-1.443504e-005,1.392091e-005
1.363500e+000,-1.326009e-005,1.392035e-005
1.364294e+000,-1.292439e-005,1.391879e-005
1.365088e+000,-1.359579e-005,1.391675e-005
1.365882e+000,-1.359579e-005,1.391461e-005
1.366676e+000,-1.191730e-005,1.391858e-005
1.367471e+000,-1.091020e-005,1.391368e-005
1.368265e+000,-1.124590e-005,1.391196e-005
1.369059e+000,-1.174945e-005,1.391737e-005
1.369853e+000,-1.158160e-005,1.391405e-005
1.370647e+000,-9.903105e-006,1.391965e-005
1.371441e+000,-9.231709e-006,1.392434e-005
1.372235e+000,-8.224612e-006,1.391498e-005
1.373029e+000,-1.023880e-005,1.389942e-005
1.373824e+000,-1.158160e-005,1.388919e-005
1.374618e+000,-1.158160e-005,1.388441e-005
1.375412e+000,-1.091020e-005,1.388258e-005
1.376206e+000,-1.426719e-005,1.387503e-005
1.377000e+000,-1.309224e-005,1.387717e-005
1.377794e+000,-1.107805e-005,1.387457e-005
1.378588e+000,-1.158160e-005,1.386529e-005
1.379382e+000,-1.091020e-005,1.384897e-005
1.380176e+000,-1.158160e-005,1.383090e-005
1.380971e+000,-9.903105e-006,1.382610e-005
1.381765e+000,-1.091020e-005,1.382104e-005
1.382559e+000,-1.258869e-005,1.381649e-005
1.383353e+000,-1.359579e-005,1.381292e-005
1.384147e+000,-1.527428e-005,1.381396e-005
1.384941e+000,-1.829557e-005,1.381955e-005
1.385735e+000,-1.460288e-005,1.382943e-005
1.386529e+000,-1.225299e-005,1.383475e-005
1.387324e+000,-1.393149e-005,1.382860e-005
1.388118e+000,-1.443504e-005,1.382289e-005
1.388912e+000,-1.426719e-005,1.381882e-005
1.389706e+000,-1.560998e-005,1.381173e-005
1.390500e+000,-1.728847e-005,1.381409e-005
1.391294e+000,-1.863127e-005,1.382282e-005
1.392088e+000,-1.896696e-005,1.383935e-005
1.392882e+000,-1.779202e-005,1.386344e-005
1.393676e+000,-1.661708e-005,1.387181e-005
1.394471e+000,-1.980621e-005,1.386508e-005
1.395265e+000,-1.980621e-005,1.388392e-005
1.396059e+000,-1.628138e-005,1.390663e-005
1.396853e+000,-1.829557e-005,1.391785e-005
1.397647e+000,-1.863127e-005,1.393285e-005
1.398441e+000,-1.762417e-005,1.394346e-005
1.399235e+000,-1.628138e-005,1.395344e-005
1.400029e+000,-1.661708e-005,1.397010e-005
1.400824e+000,-1.577783e-005,1.398050e-005
1.401618e+000,-1.779202e-005,1.398344e-005
1.402412e+000,-1.896696e-005,1.399996e-005
1.403206e+000,-1.963836e-005,1.401879e-005
1.404000e+000,-1.829557e-005,1.404106e-005
1.404794e+000,-1.795987e-005,1.406290e-005
1.405588e+000,-1.963836e-005,1.408049e-005
1.406382e+000,-1.661708e-005,1.410891e-005
1.407176e+000,-1.493858e-005,1.412218e-005
1.407971e+000,-1.527428e-005,1.412947e-005
1.408765e+000,-1.510643e-005,1.414235e-005
1.409559e+000,-1.326009e-005,1.414723e-005
1.410353e+000,-9.903105e-006,1.414356e-005
1.411147e+000,-1.359579e-005,1.413379e-005
1.411941e+000,-1.628138e-005,1.412475e-005
1.412735e+000,-1.292439e-005,1.412716e-005
1.413529e+000,-1.258869e-005,1.411852e-005
1.414324e+000,-1.091020e-005,1.410461e-005
1.415118e+000,-1.225299e-005,1.409718e-005
1.415912e+000,-1.225299e-005,1.410230e-005
1.416706e+000,-1.326009e-005,1.410497e-005
1.417500e+000,-1.225299e-005,1.411138e-005
1.418294e+000,-1.292439e-005,1.411799e-005
1.419088e+000,-1.225299e-005,1.411990e-005
1.419882e+000,-1.124590e-005,1.412341e-005
1.420676e+000,-1.158160e-005,1.412545e-005
1.421471e+000,-9.567407e-006,1.412716e-005
1.422265e+000,-9.735256e-006,1.412787e-005
1.423059e+000,-1.158160e-005,1.412750e-005
1.423853e+000,-1.359579e-005,1.411631e-005
1.424647e+000,-1.158160e-005,1.411783e-005
1.425441e+000,-9.567407e-006,1.411869e-005
1.426235e+000,-1.292439e-005,1.411559e-005
1.427029e+000,-1.426719e-005,1.411886e-005
1.427824e+000,-1.359579e-005,1.411993e-005
1.428618e+000,-1.560998e-005,1.411088e-005
1.429412e+000,-1.292439e-005,1.411751e-005
1.430206e+000,-1.376364e-005,1.411118e-005
1.431000e+000,-9.903105e-006,1.410264e-005
1.431794e+000,-7.553216e-006,1.407863e-005
1.432588e+000,-7.217518e-006,1.404648e-005
1.433382e+000,-8.224612e-006,1.402820e-005
1.434176e+000,-1.225299e-005,1.401054e-005
1.434971e+000,-1.359579e-005,1.400224e-005
1.435765e+000,-1.091020e-005,1.399673e-005
1.436559e+000,-1.258869e-005,1.398656e-005
1.437353e+000,-1.292439e-005,1.397316e-005
1.438147e+000,-1.493858e-005,1.396619e-005
1.438941e+000,-1.628138e-005,1.396619e-005
1.439735e+000,-1.426719e-005,1.395963e-005
1.440529e+000,-1.158160e-005,1.394875e-005
1.441324e+000,-1.091020e-005,1.393859e-005
1.442118e+000,-1.225299e-005,1.392126e-005
1.442912e+000,-1.191730e-005,1.391056e-005
1.443706e+000,-1.359579e-005,1.390351e-005
1.444500e+000,-1.527428e-005,1.390749e-005
1.445294e+000,-1.426719e-005,1.391507e-005
1.446088e+000,-1.309224e-005,1.392474e-005
1.446882e+000,-1.124590e-005,1.393073e-005
1.447676e+000,-1.359579e-005,1.391851e-005
1.448471e+000,-1.560998e-005,1.391637e-005
1.449265e+000,-1.527428e-005,1.392310e-005
1.450059e+000,-1.359579e-005,1.392967e-005
1.450853e+000,-1.359579e-005,1.393547e-005
1.451647e+000,-1.242084e-005,1.394613e-005
1.452441e+000,-1.359579e-005,1.394843e-005
1.453235e+000,-1.560998e-005,1.394629e-005
1.454029e+000,-1.661708e-005,1.395087e-005
1.454824e+000,-1.963836e-005,1.396129e-005
1.455618e+000,-1.863127e-005,1.398417e-005
1.456412e+000,-1.863127e-005,1.400051e-005
1.457206e+000,-1.930266e-005,1.401998e-005
1.458000e+000,-1.628138e-005,1.404077e-005
1.458794e+000,-1.510643e-005,1.404077e-005
1.459588e+000,-1.661708e-005,1.403405e-005
1.460382e+000,-1.628138e-005,1.403773e-005
1.461176e+000,-1.359579e-005,1.403711e-005
1.461971e+000,-1.258869e-005,1.404058e-005
1.462765e+000,-1.326009e-005,1.403437e-005
1.463559e+000,-9.903105e-006,1.402667e-005
1.464353e+000,-6.881819e-006,1.400769e-005
1.465147e+000,-1.023880e-005,1.398536e-005
1.465941e+000,-1.158160e-005,1.395558e-005
1.466735e+000,-1.191730e-005,1.393542e-005
1.467529e+000,-1.258869e-005,1.392380e-005
1.468324e+000,-1.191730e-005,1.391640e-005
1.469118e+000,-1.292439e-005,1.390232e-005
1.469912e+000,-1.359579e-005,1.388310e-005
1.470706e+000,-1.493858e-005,1.387870e-005
1.471500e+000,-1.628138e-005,1.389064e-005
1.472294e+000,-1.359579e-005,1.389429e-005
1.473088e+000,-1.393149e-005,1.389214e-005
1.473882e+000,-1.292439e-005,1.390074e-005
1.474676e+000,-1.309224e-005,1.390624e-005
1.475471e+000,-1.023880e-005,1.391224e-005
1.476265e+000,-1.057450e-005,1.390705e-005
1.477059e+000,-1.158160e-005,1.390785e-005
1.477853e+000,-1.393149e-005,1.390506e-005
1.478647e+000,-1.393149e-005,1.391889e-005
1.479441e+000,-1.443504e-005,1.393456e-005
1.480235e+000,-1.292439e-005,1.394391e-005
1.481029e+000,-1.359579e-005,1.395102e-005
1.481824e+000,-1.359579e-005,1.395498e-005
1.482618e+000,-1.158160e-005,1.395498e-005
1.483412e+000,-1.191730e-005,1.394919e-005
1.484206e+000,-1.292439e-005,1.395009e-005
1.485000e+000,-1.661708e-005,1.394592e-005
1.485794e+000,-1.493858e-005,1.395837e-005
1.486588e+000,-1.628138e-005,1.397107e-005
1.487382e+000,-1.359579e-005,1.398598e-005
1.488176e+000,-1.426719e-005,1.399176e-005
1.488971e+000,-1.695277e-005,1.399389e-005
1.489765e+000,-1.762417e-005,1.399886e-005
1.490559e+000,-1.594568e-005,1.400765e-005
1.491353e+000,-1.393149e-005,1.400642e-005
1.492147e+000,-1.493858e-005,1.400642e-005
1.492941e+000,-1.359579e-005,1.401825e-005
1.493735e+000,-1.158160e-005,1.402028e-005
1.494529e+000,-1.359579e-005,1.401938e-005
1.495324e+000,-1.695277e-005,1.402847e-005
1.496118e+000,-1.493858e-005,1.404756e-005
1.496912e+000,-1.326009e-005,1.405936e-005
1.497706e+000,-1.326009e-005,1.406319e-005
1.498500e+000,-1.292439e-005,1.406217e-005
1.499294e+000,-1.527428e-005,1.405804e-005
1.500088e+000,-1.527428e-005,1.405444e-005
1.500882e+000,-1.359579e-005,1.404567e-005
1.501676e+000,-1.393149e-005,1.403404e-005
1.502471e+000,-1.258869e-005,1.402473e-005
1.503265e+000,-1.158160e-005,1.401262e-005
1.504059e+000,-1.091020e-005,1.400686e-005
1.504853e+000,-1.292439e-005,1.399779e-005
1.505647e+000,-1.158160e-005,1.398907e-005
1.506441e+000,-1.158160e-005,1.398329e-005
1.507235e+000,-1.023880e-005,1.397854e-005
1.508029e+000,-1.326009e-005,1.396729e-005
1.508824e+000,-1.393149e-005,1.395956e-005
1.509618e+000,-1.191730e-005,1.396362e-005
1.510412e+000,-1.258869e-005,1.395768e-005
1.511206e+000,-1.309224e-005,1.395863e-005
1.512000e+000,-1.426719e-005,1.395273e-005
1.512794e+000,-1.292439e-005,1.394315e-005
1.513588e+000,-1.057450e-005,1.393898e-005
1.514382e+000,-1.560998e-005,1.394055e-005
1.515176e+000,-1.695277e-005,1.394514e-005
1.515971e+000,-1.527428e-005,1.393687e-005
1.516765e+000,-1.258869e-005,1.391945e-005
1.517559e+000,-1.040665e-005,1.389641e-005
1.518353e+000,-1.309224e-005,1.386306e-005
1.519147e+000,-1.124590e-005,1.385167e-005
1.519941e+000,-1.158160e-005,1.384280e-005
1.520735e+000,-1.376364e-005,1.382773e-005
1.521529e+000,-1.359579e-005,1.381902e-005
1.522324e+000,-1.426719e-005,1.380977e-005
1.523118e+000,-1.309224e-005,1.380751e-005
1.523912e+000,-1.393149e-005,1.380900e-005
1.524706e+000,-1.560998e-005,1.381407e-005
1.525500e+000,-1.628138e-005,1.381643e-005
1.526294e+000,-1.493858e-005,1.382920e-005
1.527088e+000,-1.493858e-005,1.384281e-005
1.527882e+000,-1.695277e-005,1.385479e-005
1.528676e+000,-1.846342e-005,1.388002e-005
1.529471e+000,-1.695277e-005,1.390545e-005
1.530265e+000,-1.326009e-005,1.392299e-005
1.531059e+000,-1.426719e-005,1.393188e-005
1.531853e+000,-1.560998e-005,1.393605e-005
1.532647e+000,-1.359579e-005,1.394674e-005
1.533441e+000,-1.426719e-005,1.395070e-005
1.534235e+000,-1.124590e-005,1.396034e-005
1.535029e+000,-1.124590e-005,1.395263e-005
1.535824e+000,-1.326009e-005,1.393680e-005
1.536618e+000,-1.359579e-005,1.392844e-005
1.537412e+000,-1.460288e-005,1.392631e-005
1.538206e+000,-1.661708e-005,1.392741e-005
1.539000e+000,-1.359579e-005,1.394536e-005
1.539794e+000,-1.292439e-005,1.395450e-005
1.540588e+000,-1.191730e-005,1.396120e-005
1.541382e+000,-1.225299e-005,1.396210e-005
1.542176e+000,-1.225299e-005,1.395708e-005
1.542971e+000,-1.158160e-005,1.396063e-005
1.543765e+000,-1.225299e-005,1.396656e-005
1.544559e+000,-1.393149e-005,1.396609e-005
1.545353e+000,-1.409934e-005,1.395923e-005
1.546147e+000,-1.493858e-005,1.395411e-005
1.546941e+000,-1.426719e-005,1.395295e-005
1.547735e+000,-1.158160e-005,1.394466e-005
1.548529e+000,-1.158160e-005,1.393094e-005
1.549324e+000,-1.124590e-005,1.391596e-005
1.550118e+000,-1.258869e-005,1.390432e-005
1.550912e+000,-1.359579e-005,1.389691e-005
1.551706e+000,-1.359579e-005,1.389252e-005
1.552500e+000,-1.292439e-005,1.388269e-005
1.553294e+000,-1.023880e-005,1.387850e-005
1.554088e+000,-1.225299e-005,1.387136e-005
1.554882e+000,-1.158160e-005,1.386062e-005
1.555676e+000,-1.292439e-005,1.384742e-005
1.556471e+000,-1.493858e-005,1.385820e-005
1.557265e+000,-1.577783e-005,1.388071e-005
1.558059e+000,-1.460288e-005,1.389983e-005
1.558853e+000,-1.393149e-005,1.390658e-005
1.559647e+000,-1.359579e-005,1.390325e-005
1.560441e+000,-1.426719e-005,1.390000e-005
1.561235e+000,-1.393149e-005,1.390000e-005
1.562029e+000,-1.426719e-005,1.390596e-005
1.562824e+000,-1.493858e-005,1.390705e-005
1.563618e+000,-1.510643e-005,1.390470e-005
1.564412e+000,-1.426719e-005,1.390966e-005
1.565206e+000,-1.762417e-005,1.391530e-005
1.566000e+000,-1.795987e-005,1.392175e-005
1.566794e+000,-1.712062e-005,1.392956e-005
1.567588e+000,-1.863127e-005,1.393755e-005
1.568382e+000,-1.628138e-005,1.394437e-005
1.569176e+000,-1.728847e-005,1.394051e-005
1.569971e+000,-1.829557e-005,1.392753e-005
1.570765e+000,-1.661708e-005,1.392467e-005
1.571559e+000,-1.359579e-005,1.392838e-005
1.572353e+000,-1.225299e-005,1.392105e-005
1.573147e+000,-1.091020e-005,1.390403e-005
1.573941e+000,-1.023880e-005,1.388473e-005
1.574735e+000,-1.292439e-005,1.387555e-005
1.575529e+000,-1.158160e-005,1.387842e-005
1.576324e+000,-8.896010e-006,1.387154e-005
1.577118e+000,-1.174945e-005,1.385725e-005
1.577912e+000,-1.527428e-005,1.385392e-005
1.578706e+000,-1.527428e-005,1.385734e-005
1.579500e+000,-9.063859e-006,1.385369e-005
1.580294e+000,-8.392462e-006,1.383138e-005
1.581088e+000,-1.124590e-005,1.382025e-005
1.581882e+000,-9.567407e-006,1.382194e-005
1.582676e+000,-1.040665e-005,1.381518e-005
1.583471e+000,-1.426719e-005,1.380636e-005
1.584265e+000,-1.594568e-005,1.381057e-005
1.585059e+000,-1.628138e-005,1.381857e-005
1.585853e+000,-1.326009e-005,1.382340e-005
1.586647e+000,-1.493858e-005,1.382236e-005
1.587441e+000,-1.393149e-005,1.383350e-005
1.588235e+000,-1.258869e-005,1.384455e-005
1.589029e+000,-1.493858e-005,1.384908e-005
1.589824e+000,-1.292439e-005,1.385452e-005
1.590618e+000,-1.158160e-005,1.385830e-005
1.591412e+000,-1.359579e-005,1.386167e-005
1.592206e+000,-1.695277e-005,1.386566e-005
1.593000e+000,-1.762417e-005,1.388141e-005
1.593794e+000,-1.493858e-005,1.389981e-005
1.594588e+000,-1.326009e-005,1.391088e-005
1.595382e+000,-1.158160e-005,1.391696e-005
1.596176e+000,-1.359579e-005,1.390677e-005
1.596971e+000,-1.594568e-005,1.391074e-005
1.597765e+000,-1.544213e-005,1.392536e-005
1.598559e+000,-1.359579e-005,1.393353e-005
1.599353e+000,-1.577783e-005,1.393139e-005
1.600147e+000,-1.712062e-005,1.393871e-005
1.600941e+000,-1.863127e-005,1.395002e-005
1.601735e+000,-1.829557e-005,1.397341e-005
1.602529e+000,-1.695277e-005,1.399348e-005
1.603324e+000,-1.527428e-005,1.399602e-005
1.604118e+000,-1.493858e-005,1.398986e-005
1.604912e+000,-1.376364e-005,1.399423e-005
1.605706e+000,-1.426719e-005,1.398805e-005
1.606500e+000,-1.393149e-005,1.397851e-005
1.607294e+000,-1.309224e-005,1.396979e-005
1.608088e+000,-1.326009e-005,1.396389e-005
1.608882e+000,-1.292439e-005,1.396489e-005
1.609676e+000,-1.376364e-005,1.396864e-005
1.610471e+000,-1.661708e-005,1.397217e-005
1.611265e+000,-1.493858e-005,1.398922e-005
1.612059e+000,-1.359579e-005,1.399090e-005
1.612853e+000,-1.258869e-005,1.398822e-005
1.613647e+000,-1.359579e-005,1.398625e-005
1.614441e+000,-1.359579e-005,1.398827e-005
1.615235e+000,-1.225299e-005,1.398827e-005
1.616029e+000,-1.644922e-005,1.398432e-005
1.616824e+000,-1.762417e-005,1.399895e-005
1.617618e+000,-1.560998e-005,1.402073e-005
1.618412e+000,-1.560998e-005,1.403403e-005
1.619206e+000,-1.577783e-005,1.404601e-005
1.620000e+000,-1.426719e-005,1.405902e-005
1.620794e+000,-1.191730e-005,1.407096e-005
1.621588e+000,-1.124590e-005,1.407739e-005
1.622382e+000,-1.158160e-005,1.408404e-005
1.623176e+000,-1.359579e-005,1.408735e-005
1.623971e+000,-1.527428e-005,1.409309e-005
1.624765e+000,-1.510643e-005,1.410429e-005
1.625559e+000,-1.292439e-005,1.411661e-005
1.626353e+000,-1.326009e-005,1.411249e-005
1.627147e+000,-1.225299e-005,1.411299e-005
1.627941e+000,-1.023880e-005,1.411608e-005
1.628735e+000,-1.225299e-005,1.411277e-005
1.629529e+000,-1.225299e-005,1.411628e-005
1.630324e+000,-1.359579e-005,1.411809e-005
1.631118e+000,-1.057450e-005,1.412787e-005
1.631912e+000,-9.735256e-006,1.412706e-005
1.632706e+000,-1.057450e-005,1.411988e-005
1.633500e+000,-1.292439e-005,1.411164e-005
1.634294e+000,-1.560998e-005,1.410416e-005
1.635088e+000,-1.359579e-005,1.409387e-005
1.635882e+000,-1.258869e-005,1.409067e-005
1.636676e+000,-1.527428e-005,1.409161e-005
1.637471e+000,-1.661708e-005,1.409604e-005
1.638265e+000,-1.426719e-005,1.410369e-005
1.639059e+000,-1.158160e-005,1.410369e-005
1.639853e+000,-1.225299e-005,1.409132e-005
1.640647e+000,-1.460288e-005,1.407450e-005
1.641441e+000,-1.174945e-005,1.405934e-005
1.642235e+000,-1.225299e-005,1.403421e-005
1.643029e+000,-1.225299e-005,1.401532e-005
1.643824e+000,-1.393149e-005,1.400100e-005
1.644618e+000,-1.124590e-005,1.397844e-005
1.645412e+000,-1.124590e-005,1.394812e-005
1.646206e+000,-1.493858e-005,1.393229e-005
1.647000e+000,-1.258869e-005,1.391953e-005
1.647794e+000,-8.896010e-006,1.389793e-005
1.648588e+000,-9.567407e-006,1.387139e-005
1.649382e+000,-1.258869e-005,1.385145e-005
1.650176e+000,-1.174945e-005,1.383792e-005
1.650971e+000,-1.091020e-005,1.382515e-005
1.651765e+000,-1.426719e-005,1.380238e-005
1.652559e+000,-1.426719e-005,1.378435e-005
1.653353e+000,-1.258869e-005,1.376330e-005
1.654147e+000,-1.174945e-005,1.374289e-005
1.654941e+000,-1.460288e-005,1.372150e-005
1.655735e+000,-1.426719e-005,1.370147e-005
1.656529e+000,-1.695277e-005,1.369304e-005
1.657324e+000,-1.728847e-005,1.370050e-005
1.658118e+000,-1.560998e-005,1.370812e-005
1.658912e+000,-1.460288e-005,1.370992e-005
1.659706e+000,-1.493858e-005,1.371427e-005
1.660500e+000,-1.628138e-005,1.372878e-005
1.661294e+000,-1.628138e-005,1.373809e-005
1.662088e+000,-1.779202e-005,1.373809e-005
1.662882e+000,-1.493858e-005,1.375541e-005
1.663676e+000,-1.560998e-005,1.376289e-005
1.664471e+000,-1.762417e-005,1.377730e-005
1.665265e+000,-1.661708e-005,1.379584e-005
1.666059e+000,-1.728847e-005,1.381037e-005
1.666853e+000,-1.896696e-005,1.382456e-005
1.667647e+000,-1.762417e-005,1.384868e-005
1.668441e+000,-1.695277e-005,1.386518e-005
1.669235e+000,-1.359579e-005,1.388093e-005
1.670029e+000,-1.225299e-005,1.388763e-005
1.670824e+000,-1.309224e-005,1.388946e-005
1.671618e+000,-1.225299e-005,1.389862e-005
1.672412e+000,-1.560998e-005,1.390496e-005
1.673206e+000,-1.628138e-005,1.391750e-005
1.674000e+000,-1.359579e-005,1.392667e-005
1.674794e+000,-1.158160e-005,1.393247e-005
1.675588e+000,-1.359579e-005,1.393734e-005
1.676382e+000,-1.258869e-005,1.393937e-005
1.677176e+000,-1.124590e-005,1.393422e-005
1.677971e+000,-1.258869e-005,1.392755e-005
1.678765e+000,-1.359579e-005,1.391780e-005
1.679559e+000,-1.628138e-005,1.391984e-005
1.680353e+000,-1.493858e-005,1.392849e-005
1.681147e+000,-1.292439e-005,1.394278e-005
1.681941e+000,-1.493858e-005,1.395534e-005
1.682735e+000,-1.560998e-005,1.397485e-005
1.683529e+000,-1.661708e-005,1.399489e-005
1.684324e+000,-1.493858e-005,1.400922e-005
1.685118e+000,-1.628138e-005,1.401357e-005
1.685912e+000,-1.644922e-005,1.403016e-005
1.686706e+000,-1.292439e-005,1.404288e-005
1.687500e+000,-1.292439e-005,1.404288e-005
1.688294e+000,-1.426719e-005,1.403651e-005
1.689088e+000,-1.292439e-005,1.402953e-005
1.689882e+000,-7.721065e-006,1.402538e-005
1.690676e+000,-7.217518e-006,1.401692e-005
1.691471e+000,-6.881819e-006,1.400931e-005
1.692265e+000,-8.392462e-006,1.399763e-005
1.693059e+000,-9.063859e-006,1.398948e-005
1.693853e+000,-9.735256e-006,1.397779e-005
1.694647e+000,-1.242084e-005,1.396200e-005
1.695441e+000,-1.426719e-005,1.395638e-005
1.696235e+000,-1.124590e-005,1.396004e-005
1.697029e+000,-1.326009e-005,1.396004e-005
1.697824e+000,-1.326009e-005,1.395902e-005
1.698618e+000,-1.091020e-005,1.395127e-005
1.699412e+000,-1.225299e-005,1.393823e-005
1.700206e+000,-1.628138e-005,1.393426e-005
1.701000e+000,-1.560998e-005,1.394343e-005
1.701794e+000,-1.493858e-005,1.395363e-005
1.702588e+000,-1.493858e-005,1.395800e-005
1.703382e+000,-1.510643e-005,1.395566e-005
1.704176e+000,-1.560998e-005,1.395019e-005
1.704971e+000,-1.628138e-005,1.393397e-005
1.705765e+000,-1.359579e-005,1.392460e-005
1.706559e+000,-1.191730e-005,1.390603e-005
1.707353e+000,-1.191730e-005,1.387960e-005
1.708147e+000,-1.091020e-005,1.386547e-005
1.708941e+000,-1.091020e-005,1.385293e-005
1.709735e+000,-8.224612e-006,1.383486e-005
1.710529e+000,-1.174945e-005,1.381212e-005
1.711324e+000,-1.527428e-005,1.380672e-005
1.712118e+000,-1.359579e-005,1.381535e-005
1.712912e+000,-1.712062e-005,1.381639e-005
1.713706e+000,-1.762417e-005,1.383885e-005
1.714500e+000,-1.628138e-005,1.386911e-005
1.715294e+000,-1.493858e-005,1.388749e-005
1.716088e+000,-1.695277e-005,1.389770e-005
1.716882e+000,-1.493858e-005,1.391434e-005
1.717676e+000,-1.628138e-005,1.392174e-005
1.718471e+000,-1.560998e-005,1.393581e-005
1.719265e+000,-1.426719e-005,1.394457e-005
1.720059e+000,-1.292439e-005,1.394670e-005
1.720853e+000,-1.376364e-005,1.394029e-005
1.721647e+000,-1.292439e-005,1.393165e-005
1.722441e+000,-1.158160e-005,1.392962e-005
1.723235e+000,-1.158160e-005,1.392276e-005
1.724029e+000,-1.091020e-005,1.391900e-005
1.724824e+000,-1.091020e-005,1.391300e-005
1.725618e+000,-1.393149e-005,1.391463e-005
1.726412e+000,-1.493858e-005,1.392404e-005
1.727206e+000,-1.493858e-005,1.393422e-005
1.728000e+000,-1.510643e-005,1.393754e-005
1.728794e+000,-1.493858e-005,1.394144e-005
1.729588e+000,-1.225299e-005,1.394313e-005
1.730382e+000,-1.091020e-005,1.394120e-005
1.731176e+000,-1.191730e-005,1.393368e-005
1.731971e+000,-1.628138e-005,1.392878e-005
1.732765e+000,-1.493858e-005,1.394374e-005
1.733559e+000,-1.158160e-005,1.395301e-005
1.734353e+000,-1.510643e-005,1.394925e-005
1.735147e+000,-1.628138e-005,1.394378e-005
1.735941e+000,-1.628138e-005,1.394857e-005
1.736735e+000,-1.493858e-005,1.394857e-005
1.737529e+000,-1.493858e-005,1.395294e-005
1.738324e+000,-1.359579e-005,1.395518e-005
1.739118e+000,-1.292439e-005,1.394347e-005
1.739912e+000,-1.594568e-005,1.392707e-005
1.740706e+000,-1.896696e-005,1.392707e-005
1.741500e+000,-1.695277e-005,1.394599e-005
1.742294e+000,-1.628138e-005,1.395332e-005
1.743088e+000,-1.695277e-005,1.396248e-005
1.743882e+000,-1.359579e-005,1.397995e-005
1.744676e+000,-1.426719e-005,1.397995e-005
1.745471e+000,-1.359579e-005,1.397039e-005
1.746265e+000,-1.443504e-005,1.396603e-005
1.747059e+000,-1.359579e-005,1.396973e-005
1.747853e+000,-1.426719e-005,1.397076e-005
1.748647e+000,-1.493858e-005,1.397492e-005
1.749441e+000,-1.527428e-005,1.397377e-005
1.750235e+000,-1.292439e-005,1.397377e-005
1.751029e+000,-1.359579e-005,1.397174e-005
1.751824e+000,-1.359579e-005,1.397069e-005
1.752618e+000,-1.493858e-005,1.397369e-005
1.753412e+000,-1.393149e-005,1.398383e-005
1.754206e+000,-1.527428e-005,1.399238e-005
1.755000e+000,-1.695277e-005,1.399992e-005
1.755794e+000,-1.560998e-005,1.401734e-005
1.756588e+000,-1.577783e-005,1.402978e-005
1.757382e+000,-1.695277e-005,1.404612e-005
1.758176e+000,-1.292439e-005,1.405876e-005
1.758971e+000,-1.158160e-005,1.405570e-005
1.759765e+000,-1.158160e-005,1.405481e-005
1.760559e+000,-7.553216e-006,1.405205e-005
1.761353e+000,-1.023880e-005,1.403908e-005
1.762147e+000,-1.023880e-005,1.402788e-005
1.762941e+000,-4.867628e-006,1.402082e-005
1.763735e+000,-3.524834e-006,1.401081e-005
1.764529e+000,-8.896010e-006,1.398450e-005
1.765324e+000,-9.903105e-006,1.396077e-005
1.766118e+000,-8.896010e-006,1.394533e-005
1.766912e+000,-1.158160e-005,1.393627e-005
1.767706e+000,-1.225299e-005,1.393922e-005
1.768500e+000,-1.091020e-005,1.393679e-005
1.769294e+000,-9.567407e-006,1.393594e-005
1.770088e+000,-1.326009e-005,1.393107e-005
1.770882e+000,-1.292439e-005,1.392952e-005
1.771676e+000,-1.393149e-005,1.392748e-005
1.772471e+000,-1.896696e-005,1.392640e-005
1.773265e+000,-1.762417e-005,1.394792e-005
1.774059e+000,-1.644922e-005,1.396122e-005
1.774853e+000,-1.493858e-005,1.396428e-005
1.775647e+000,-1.560998e-005,1.395950e-005
1.776441e+000,-1.829557e-005,1.396184e-005
1.777235e+000,-1.829557e-005,1.397456e-005
1.778029e+000,-1.661708e-005,1.397995e-005
1.778824e+000,-1.292439e-005,1.397257e-005
1.779618e+000,-1.292439e-005,1.395885e-005
1.780412e+000,-1.594568e-005,1.395785e-005
1.781206e+000,-1.460288e-005,1.396363e-005
1.782000e+000,-1.560998e-005,1.396016e-005
1.782794e+000,-1.426719e-005,1.396687e-005
1.783588e+000,-1.527428e-005,1.396687e-005
1.784382e+000,-1.560998e-005,1.397905e-005
1.785176e+000,-1.359579e-005,1.399239e-005
1.785971e+000,-1.577783e-005,1.399341e-005
1.786765e+000,-1.628138e-005,1.400071e-005
1.787559e+000,-1.393149e-005,1.400660e-005
1.788353e+000,-1.225299e-005,1.399727e-005
1.789147e+000,-1.292439e-005,1.399332e-005
1.789941e+000,-1.560998e-005,1.399332e-005
1.790735e+000,-1.493858e-005,1.400488e-005
1.791529e+000,-1.426719e-005,1.401319e-005
1.792324e+000,-1.191730e-005,1.401925e-005
1.793118e+000,-1.091020e-005,1.402015e-005
1.793912e+000,-1.023880e-005,1.401662e-005
1.794706e+000,-1.258869e-005,1.400647e-005
1.795500e+000,-1.292439e-005,1.400189e-005
1.796294e+000,-1.393149e-005,1.399551e-005
1.797088e+000,-1.661708e-005,1.399443e-005
1.797882e+000,-1.779202e-005,1.401058e-005
1.798676e+000,-1.594568e-005,1.403129e-005
1.799471e+000,-1.560998e-005,1.404579e-005
1.800265e+000,-1.560998e-005,1.405544e-005
1.801059e+000,-1.426719e-005,1.406211e-005
1.801853e+000,-1.493858e-005,1.406423e-005
1.802647e+000,-1.107805e-005,1.407058e-005
1.803441e+000,-1.158160e-005,1.407260e-005
1.804235e+000,-1.359579e-005,1.407079e-005
1.805029e+000,-1.393149e-005,1.407653e-005
1.805824e+000,-9.231709e-006,1.407959e-005
1.806618e+000,-9.567407e-006,1.406398e-005
1.807412e+000,-1.359579e-005,1.404615e-005
1.808206e+000,-1.393149e-005,1.404293e-005
1.809000e+000,-1.376364e-005,1.404293e-005
1.809794e+000,-1.628138e-005,1.404345e-005
1.810588e+000,-1.510643e-005,1.405042e-005
1.811382e+000,-1.728847e-005,1.405429e-005
1.812176e+000,-1.594568e-005,1.406509e-005
1.812971e+000,-1.359579e-005,1.406861e-005
1.813765e+000,-1.560998e-005,1.406370e-005
1.814559e+000,-1.460288e-005,1.406824e-005
1.815353e+000,-1.426719e-005,1.405722e-005
1.816147e+000,-1.225299e-005,1.404373e-005
1.816941e+000,-1.258869e-005,1.402751e-005
1.817735e+000,-1.158160e-005,1.400608e-005
1.818529e+000,-1.359579e-005,1.399118e-005
1.819324e+000,-1.426719e-005,1.397819e-005
1.820118e+000,-1.091020e-005,1.396324e-005
1.820912e+000,-1.309224e-005,1.394532e-005
1.821706e+000,-1.393149e-005,1.394378e-005
1.822500e+000,-1.091020e-005,1.394880e-005
1.823294e+000,-1.309224e-005,1.394880e-005
1.824088e+000,-1.359579e-005,1.395640e-005
1.824882e+000,-9.567407e-006,1.395843e-005
1.825676e+000,-1.057450e-005,1.395357e-005
1.826471e+000,-1.426719e-005,1.395730e-005
1.827265e+000,-1.426719e-005,1.396477e-005
1.828059e+000,-1.560998e-005,1.396138e-005
1.828853e+000,-1.628138e-005,1.396256e-005
1.829647e+000,-1.712062e-005,1.398340e-005
1.830441e+000,-1.762417e-005,1.400874e-005
1.831235e+000,-1.695277e-005,1.402966e-005
1.832029e+000,-1.695277e-005,1.405187e-005
1.832824e+000,-1.426719e-005,1.407215e-005
1.833618e+000,-1.040665e-005,1.407215e-005
1.834412e+000,-1.258869e-005,1.405562e-005
1.835206e+000,-1.258869e-005,1.404354e-005
1.836000e+000,-1.359579e-005,1.404157e-005
1.836794e+000,-1.292439e-005,1.403723e-005
1.837588e+000,-1.560998e-005,1.403416e-005
1.838382e+000,-1.963836e-005,1.404382e-005
1.839176e+000,-1.762417e-005,1.406224e-005
1.839971e+000,-1.359579e-005,1.407848e-005
1.840765e+000,-9.567407e-006,1.408422e-005
1.841559e+000,-8.224612e-006,1.407366e-005
1.842353e+000,-9.063859e-006,1.404878e-005
1.843147e+000,-1.091020e-005,1.402286e-005
1.843941e+000,-1.124590e-005,1.401103e-005
1.844735e+000,-1.091020e-005,1.400542e-005
1.845529e+000,-1.225299e-005,1.400370e-005
1.846324e+000,-1.258869e-005,1.399976e-005
1.847118e+000,-9.567407e-006,1.398886e-005
1.847912e+000,-1.191730e-005,1.397212e-005
1.848706e+000,-1.560998e-005,1.396724e-005
1.849500e+000,-1.628138e-005,1.396664e-005
1.850294e+000,-1.225299e-005,1.396344e-005
1.851088e+000,-1.527428e-005,1.394096e-005
1.851882e+000,-1.527428e-005,1.392937e-005
1.852676e+000,-1.359579e-005,1.392319e-005
1.853471e+000,-1.023880e-005,1.391764e-005
1.854265e+000,-1.258869e-005,1.390410e-005
1.855059e+000,-1.560998e-005,1.390055e-005
1.855853e+000,-1.628138e-005,1.390515e-005
1.856647e+000,-1.560998e-005,1.391327e-005
1.857441e+000,-1.527428e-005,1.392154e-005
1.858235e+000,-1.661708e-005,1.392811e-005
1.859029e+000,-1.628138e-005,1.394058e-005
1.859824e+000,-1.762417e-005,1.394922e-005
1.860618e+000,-1.963836e-005,1.395315e-005
1.861412e+000,-1.947051e-005,1.397169e-005
1.862206e+000,-1.896696e-005,1.399381e-005
1.863000e+000,-1.695277e-005,1.401669e-005
1.863794e+000,-1.527428e-005,1.402834e-005
1.864588e+000,-1.393149e-005,1.403384e-005
1.865382e+000,-1.107805e-005,1.403882e-005
1.866176e+000,-1.225299e-005,1.402204e-005
1.866971e+000,-1.359579e-005,1.400381e-005
1.867765e+000,-1.158160e-005,1.399712e-005
1.868559e+000,-1.158160e-005,1.398465e-005
1.869353e+000,-1.359579e-005,1.397157e-005
1.870147e+000,-1.326009e-005,1.396944e-005
1.870941e+000,-1.158160e-005,1.397329e-005
1.871735e+000,-1.242084e-005,1.397416e-005
1.872529e+000,-1.577783e-005,1.397646e-005
1.873324e+000,-1.426719e-005,1.398376e-005
1.874118e+000,-1.292439e-005,1.398037e-005
1.874912e+000,-1.158160e-005,1.397340e-005
1.875706e+000,-1.359579e-005,1.396965e-005
1.876500e+000,-1.326009e-005,1.397068e-005
1.877294e+000,-1.493858e-005,1.397361e-005
1.878088e+000,-1.426719e-005,1.398709e-005
1.878882e+000,-1.191730e-005,1.399317e-005
1.879676e+000,-8.224612e-006,1.399224e-005
1.880471e+000,-7.553216e-006,1.397890e-005
1.881265e+000,-1.091020e-005,1.397266e-005
1.882059e+000,-1.158160e-005,1.397542e-005
1.882853e+000,-1.242084e-005,1.397796e-005
1.883647e+000,-1.091020e-005,1.397651e-005
1.884441e+000,-1.091020e-005,1.396230e-005
1.885235e+000,-1.023880e-005,1.395480e-005
1.886029e+000,-1.393149e-005,1.394867e-005
1.886824e+000,-1.426719e-005,1.394420e-005
1.887618e+000,-1.023880e-005,1.393591e-005
1.888412e+000,-8.896010e-006,1.392462e-005
1.889206e+000,-1.141375e-005,1.391833e-005
1.890000e+000,-1.359579e-005,1.391606e-005
1.890794e+000,-1.460288e-005,1.391281e-005
1.891588e+000,-1.527428e-005,1.392141e-005
1.892382e+000,-1.191730e-005,1.393092e-005
1.893176e+000,-1.292439e-005,1.393000e-005
1.893971e+000,-1.560998e-005,1.392690e-005
1.894765e+000,-1.628138e-005,1.394030e-005
1.895559e+000,-1.661708e-005,1.395612e-005
1.896353e+000,-1.695277e-005,1.396217e-005
1.897147e+000,-1.695277e-005,1.397686e-005
1.897941e+000,-1.930266e-005,1.400057e-005
1.898735e+000,-1.930266e-005,1.403250e-005
1.899529e+000,-1.846342e-005,1.405677e-005
1.900324e+000,-1.628138e-005,1.407973e-005
1.901118e+000,-1.426719e-005,1.409624e-005
1.901912e+000,-1.460288e-005,1.409624e-005
1.902706e+000,-1.292439e-005,1.409733e-005
1.903500e+000,-1.225299e-005,1.409830e-005
1.904294e+000,-1.225299e-005,1.409967e-005
1.905088e+000,-1.359579e-005,1.409254e-005
1.905882e+000,-1.393149e-005,1.409042e-005
1.906676e+000,-1.292439e-005,1.407987e-005
1.907471e+000,-1.225299e-005,1.406496e-005
1.908265e+000,-1.426719e-005,1.405436e-005
1.909059e+000,-1.628138e-005,1.405326e-005
1.909853e+000,-1.795987e-005,1.405801e-005
1.910647e+000,-1.762417e-005,1.406452e-005
1.911441e+000,-1.493858e-005,1.406968e-005
1.912235e+000,-1.493858e-005,1.405910e-005
1.913029e+000,-1.644922e-005,1.405910e-005
1.913824e+000,-1.661708e-005,1.406215e-005
1.914618e+000,-1.258869e-005,1.405824e-005
1.915412e+000,-1.309224e-005,1.404491e-005
1.916206e+000,-1.326009e-005,1.403045e-005
1.917000e+000,-1.292439e-005,1.400956e-005
1.917794e+000,-1.661708e-005,1.399323e-005
1.918588e+000,-1.628138e-005,1.399195e-005
1.919382e+000,-1.493858e-005,1.400108e-005
1.920176e+000,-1.628138e-005,1.400938e-005
1.920971e+000,-1.628138e-005,1.402002e-005
1.921765e+000,-1.493858e-005,1.403307e-005
1.922559e+000,-1.426719e-005,1.403075e-005
1.923353e+000,-1.258869e-005,1.402376e-005
1.924147e+000,-1.460288e-005,1.402077e-005
1.924941e+000,-1.292439e-005,1.402975e-005
1.925735e+000,-1.896696e-005,1.402773e-005
1.926529e+000,-2.265965e-005,1.405056e-005
1.927324e+000,-2.198825e-005,1.409435e-005
1.928118e+000,-2.601663e-005,1.413102e-005
1.928912e+000,-2.534523e-005,1.418635e-005
1.929706e+000,-2.517739e-005,1.422864e-005
1.930500e+000,-2.316319e-005,1.427453e-005
1.931294e+000,-2.030976e-005,1.431569e-005
1.932088e+000,-1.460288e-005,1.433673e-005
1.932882e+000,-5.035477e-006,1.433335e-005
1.933676e+000,6.546120e-006,1.430547e-005
1.934471e+000,2.265965e-005,1.428538e-005
1.935265e+000,3.726253e-005,1.431304e-005
1.936059e+000,4.464790e-005,1.443688e-005
1.936853e+000,3.877317e-005,1.463694e-005
1.937647e+000,1.997406e-005,1.478160e-005
1.938441e+000,8.392462e-007,1.480264e-005
1.939235e+000,-9.903105e-006,1.478473e-005
1.940029e+000,-1.762417e-005,1.478887e-005
1.940824e+000,-1.997406e-005,1.481668e-005
1.941618e+000,-2.232395e-005,1.485442e-005
1.942412e+000,-2.366674e-005,1.490023e-005
1.943206e+000,-2.467384e-005,1.495122e-005
1.944000e+000,-2.568093e-005,1.500586e-005
1.944794e+000,-2.702373e-005,1.505938e-005
1.945588e+000,-2.769513e-005,1.511497e-005
1.946382e+000,-2.568093e-005,1.518230e-005
1.947176e+000,-2.030976e-005,1.523295e-005
1.947971e+000,-2.383459e-005,1.525767e-005
1.948765e+000,-2.870222e-005,1.530446e-005
1.949559e+000,-2.970932e-005,1.537439e-005
1.950353e+000,-3.407340e-005,1.543822e-005
1.951147e+000,-3.373770e-005,1.553255e-005
1.951941e+000,-3.524834e-005,1.562608e-005
1.952735e+000,-5.807584e-005,1.572961e-005
1.953529e+000,-7.351797e-005,1.604479e-005
1.954324e+000,-5.320821e-005,1.654909e-005
1.955118e+000,-2.433814e-005,1.679417e-005
1.955912e+000,-1.174945e-006,1.683277e-005
1.956706e+000,6.546120e-006,1.681946e-005
1.957500e+000,1.728847e-005,1.681007e-005
1.958294e+000,2.064546e-005,1.682709e-005
1.959088e+000,1.091020e-005,1.685614e-005
1.959882e+000,9.231709e-006,1.686099e-005
1.960676e+000,1.460288e-005,1.685600e-005
1.961471e+000,1.426719e-005,1.685411e-005
1.962265e+000,1.174945e-006,1.685588e-005
1.963059e+000,-1.023880e-005,1.682829e-005
1.963853e+000,-1.493858e-005,1.680881e-005
1.964647e+000,-1.426719e-005,1.680484e-005
1.965441e+000,-1.359579e-005,1.680298e-005
1.966235e+000,-9.567407e-006,1.679326e-005
1.967029e+000,-8.224612e-006,1.678077e-005
1.967824e+000,-4.867628e-006,1.676203e-005
1.968618e+000,-1.510643e-006,1.674112e-005
1.969412e+000,-1.510643e-006,1.672196e-005
1.970206e+000,-3.524834e-006,1.670627e-005
1.971000e+000,-1.225299e-005,1.668939e-005
1.971794e+000,-2.030976e-005,1.668777e-005
1.972588e+000,-2.366674e-005,1.671431e-005
1.973382e+000,-2.668803e-005,1.675485e-005
1.974176e+000,-2.484169e-005,1.681113e-005
1.974971e+000,-2.568093e-005,1.685824e-005
1.975765e+000,-3.675899e-005,1.690215e-005
1.976559e+000,-4.515145e-005,1.700809e-005
1.977353e+000,-3.675899e-005,1.717722e-005
1.978147e+000,-2.165255e-005,1.728102e-005
1.978941e+000,-1.661708e-005,1.730364e-005
1.979735e+000,-3.105211e-005,1.731523e-005
1.980529e+000,-7.234302e-005,1.739278e-005
1.981324e+000,-8.140688e-005,1.785284e-005
1.982118e+000,-3.440909e-005,1.841154e-005
1.982912e+000,1.460288e-005,1.849445e-005
1.983706e+000,2.970932e-005,1.850127e-005
1.984500e+000,2.383459e-005,1.855751e-005
1.985294e+000,2.534523e-005,1.858349e-005
1.986088e+000,4.145876e-005,1.861579e-005
1.986882e+000,4.280156e-005,1.874329e-005
1.987676e+000,3.474479e-005,1.887947e-005
1.988471e+000,2.870222e-005,1.896551e-005
1.989265e+000,2.265965e-005,1.902057e-005
1.990059e+000,1.057450e-005,1.904226e-005
1.990853e+000,-5.371176e-006,1.902151e-005
1.991647e+000,-2.265965e-005,1.899986e-005
1.992441e+000,-4.179446e-005,1.902066e-005
1.993235e+000,-5.320821e-005,1.914245e-005
1.994029e+000,-4.985122e-005,1.936133e-005
1.994824e+000,-4.112306e-005,1.954807e-005
1.995618e+000,-3.642328e-005,1.967039e-005
1.996412e+000,-2.568093e-005,1.976071e-005
1.997206e+000,-1.728847e-005,1.979892e-005
1.998000e+000,-4.246586e-005,1.980658e-005
1.998794e+000,-5.807584e-005,1.993322e-005
1.999588e+000,-3.189136e-005,2.018246e-005
2.000382e+000,-8.560311e-006,2.024941e-005
2.001176e+000,-1.309224e-005,2.024064e-005
2.001971e+000,-1.628138e-005,2.023958e-005
2.002765e+000,-9.903105e-006,2.024288e-005
2.003559e+000,-8.896010e-006,2.023533e-005
2.004353e+000,-1.191730e-005,2.022319e-005
2.005147e+000,-1.728847e-005,2.021174e-005
2.005941e+000,-1.460288e-005,2.021609e-005
2.006735e+000,-1.258869e-005,2.021328e-005
2.007529e+000,-1.577783e-005,2.020312e-005
2.008324e+000,-2.568093e-005,2.020957e-005
2.009118e+000,-3.659113e-005,2.025093e-005
2.009912e+000,-3.508049e-005,2.034544e-005
2.010706e+000,-2.433814e-005,2.043709e-005
2.011500e+000,-1.158160e-005,2.047504e-005
2.012294e+000,-4.196231e-006,2.047732e-005
2.013088e+000,1.174945e-006,2.047684e-005
2.013882e+000,1.124590e-005,2.047598e-005
2.014676e+000,1.527428e-005,2.047966e-005
2.015471e+000,8.896010e-006,2.049018e-005
2.016265e+000,-5.035477e-007,2.049018e-005
2.017059e+000,-7.553216e-006,2.047977e-005
2.017853e+000,-8.896010e-006,2.047253e-005
2.018647e+000,1.174945e-006,2.046943e-005
2.019441e+000,7.721065e-006,2.046241e-005
2.020235e+000,-3.054856e-005,2.045337e-005
2.021029e+000,-5.622950e-005,2.051293e-005
2.021824e+000,-4.448005e-005,2.074202e-005
2.022618e+000,-2.098116e-005,2.086592e-005
2.023412e+000,-1.510643e-006,2.087581e-005
2.024206e+000,2.853437e-006,2.085533e-005
2.025000e+000,-1.846342e-006,2.083891e-005
2.025794e+000,-3.189136e-006,2.082054e-005
2.026588e+000,1.728847e-005,2.079571e-005
2.027382e+000,1.997406e-005,2.079296e-005
2.028176e+000,1.594568e-005,2.080236e-005
2.028971e+000,-9.903105e-006,2.080904e-005
2.029765e+000,-3.172351e-005,2.080376e-005
2.030559e+000,-3.440909e-005,2.086125e-005
2.031353e+000,-4.179446e-005,2.093522e-005
2.032147e+000,-4.750134e-005,2.104924e-005
2.032941e+000,-4.649424e-005,2.120396e-005
2.033735e+000,-1.795987e-005,2.134829e-005
2.034529e+000,1.174945e-006,2.135417e-005
2.035324e+000,3.860533e-006,2.134049e-005
2.036118e+000,3.189136e-006,2.132302e-005
2.036912e+000,4.867628e-006,2.130397e-005
2.037706e+000,3.071641e-005,2.129123e-005
2.038500e+000,2.517739e-005,2.135048e-005
2.039294e+000,8.392462e-006,2.138527e-005
2.040088e+000,-8.392462e-007,2.137237e-005
2.040882e+000,-3.323415e-005,2.135579e-005
2.041676e+000,-6.596475e-005,2.142286e-005
2.042471e+000,-5.824369e-005,2.173349e-005
2.043265e+000,-4.464790e-005,2.197200e-005
2.044059e+000,-4.414435e-005,2.210845e-005
2.044853e+000,-6.059357e-005,2.223702e-005
2.045647e+000,-5.354391e-005,2.248657e-005
2.046441e+000,1.258869e-005,2.267506e-005
2.047235e+000,5.690089e-005,2.266680e-005
2.048029e+000,3.944457e-005,2.287109e-005
2.048824e+000,1.292439e-005,2.296153e-005
2.049618e+000,-1.309224e-005,2.295622e-005
2.050412e+000,-3.910887e-005,2.295120e-005
2.051206e+000,-3.944457e-005,2.304302e-005
2.052000e+000,-3.508049e-005,2.313493e-005
2.052794e+000,-2.568093e-005,2.321106e-005
2.053588e+000,-2.735943e-005,2.324707e-005
2.054382e+000,-4.783703e-005,2.328565e-005
2.055176e+000,-5.941863e-005,2.342843e-005
2.055971e+000,-5.119402e-005,2.366144e-005
2.056765e+000,-4.716563e-005,2.383105e-005
2.057559e+000,-3.575189e-005,2.396696e-005
2.058353e+000,-1.376364e-005,2.403887e-005
2.059147e+000,1.292439e-005,2.403887e-005
2.059941e+000,4.817273e-005,2.403238e-005
2.060735e+000,6.227207e-005,2.417062e-005
2.061529e+000,4.347295e-005,2.440526e-005
2.062324e+000,2.534523e-005,2.451175e-005
2.063118e+000,4.364080e-006,2.454145e-005
2.063912e+000,-9.567407e-006,2.452687e-005
2.064706e+000,-2.165255e-005,2.451897e-005
2.065500e+000,-3.407340e-005,2.453619e-005
2.066294e+000,-3.877317e-005,2.460171e-005
2.067088e+000,-3.675899e-005,2.468860e-005
2.067882e+000,-3.004501e-005,2.476698e-005
2.068676e+000,-2.702373e-005,2.481309e-005
2.069471e+000,-2.366674e-005,2.484687e-005
2.070265e+000,-2.534523e-005,2.487512e-005
2.071059e+000,-2.165255e-005,2.490525e-005
2.071853e+000,-1.460288e-005,2.492281e-005
2.072647e+000,-1.191730e-005,2.492883e-005
2.073441e+000,-1.393149e-005,2.492695e-005
2.074235e+000,-1.493858e-005,2.492754e-005
2.075029e+000,-1.191730e-005,2.493595e-005
2.075824e+000,-3.524834e-006,2.493788e-005
2.076618e+000,-1.007095e-006,2.492567e-005
2.077412e+000,-4.196231e-006,2.491273e-005
2.078206e+000,-4.867628e-006,2.489828e-005
2.079000e+000,-2.853437e-006,2.488283e-005
2.079794e+000,6.546120e-006,2.486459e-005
2.080588e+000,6.546120e-006,2.484744e-005
2.081382e+000,2.467384e-005,2.483176e-005
2.082176e+000,3.743038e-005,2.485236e-005
2.082971e+000,-1.158160e-005,2.492897e-005
2.083765e+000,-6.663615e-005,2.493062e-005
2.084559e+000,-7.737850e-005,2.520263e-005
2.085353e+000,-5.253681e-005,2.556826e-005
2.086147e+000,-3.038071e-005,2.572814e-005
2.086941e+000,-3.340200e-005,2.577489e-005
2.087735e+000,-4.112306e-005,2.582871e-005
2.088529e+000,-1.594568e-005,2.590906e-005
2.089324e+000,-2.853437e-006,2.590560e-005
2.090118e+000,-9.063859e-006,2.589473e-005
2.090912e+000,-5.539025e-006,2.589416e-005
2.091706e+000,1.007095e-006,2.589189e-005
2.092500e+000,9.231709e-006,2.588689e-005
2.093294e+000,9.231709e-006,2.588482e-005
2.094088e+000,-1.091020e-005,2.588228e-005
2.094882e+000,-2.131685e-005,2.588228e-005
2.095676e+000,-1.426719e-005,2.590099e-005
2.096471e+000,-8.224612e-006,2.590376e-005
2.097265e+000,-9.567407e-006,2.590229e-005
2.098059e+000,-2.568093e-005,2.589919e-005
2.098853e+000,-5.857939e-005,2.592474e-005
2.099647e+000,-5.455100e-005,2.611851e-005
2.100441e+000,-1.913481e-005,2.629022e-005
2.101235e+000,1.124590e-005,2.629826e-005
2.102029e+000,1.426719e-005,2.629179e-005
2.102824e+000,5.874723e-006,2.629293e-005
2.103618e+000,7.217518e-006,2.628867e-005
2.104412e+000,4.531929e-006,2.628222e-005
2.105206e+000,1.846342e-006,2.626870e-005
2.106000e+000,2.786297e-005,2.625283e-005
2.106794e+000,5.925078e-005,2.628512e-005
2.107588e+000,7.100023e-005,2.648292e-005
2.108382e+000,4.733349e-005,2.676789e-005
2.109176e+000,9.231709e-006,2.688514e-005
2.109971e+000,-2.098116e-005,2.687179e-005
2.110765e+000,-4.783703e-005,2.687502e-005
2.111559e+000,-7.267872e-005,2.698791e-005
2.112353e+000,-7.838559e-005,2.727680e-005
2.113147e+000,-8.409247e-005,2.761660e-005
2.113941e+000,-8.879225e-005,2.800811e-005
2.114735e+000,-8.342107e-005,2.844195e-005
2.115529e+000,-7.804990e-005,2.882215e-005
2.116324e+000,-6.193637e-005,2.914857e-005
2.117118e+000,-3.843748e-005,2.934735e-005
2.117912e+000,-2.400244e-005,2.942015e-005
2.118706e+000,-1.695277e-005,2.944406e-005
2.119500e+000,-4.867628e-006,2.944961e-005
2.120294e+000,4.531929e-006,2.944138e-005
2.121088e+000,1.980621e-005,2.943524e-005
2.121882e+000,3.205920e-005,2.944811e-005
2.122676e+000,2.265965e-005,2.949019e-005
2.123471e+000,9.231709e-006,2.950692e-005
2.124265e+000,6.210422e-006,2.950251e-005
2.125059e+000,4.867628e-006,2.949735e-005
2.125853e+000,-2.182040e-006,2.948865e-005
2.126647e+000,1.174945e-006,2.947941e-005
2.127441e+000,1.863127e-005,2.946743e-005
2.128235e+000,8.560311e-006,2.947518e-005
2.129029e+000,-1.829557e-005,2.947147e-005
2.129824e+000,-3.508049e-005,2.948590e-005
2.130618e+000,-4.112306e-005,2.954921e-005
2.131412e+000,-3.541619e-005,2.963380e-005
2.132206e+000,-2.568093e-005,2.969393e-005
2.133000e+000,-1.762417e-005,2.972101e-005
2.133794e+000,-8.560311e-006,2.973128e-005
2.134588e+000,5.203327e-006,2.972883e-005
2.135382e+000,1.124590e-005,2.972466e-005
2.136176e+000,1.846342e-006,2.972104e-005
2.136971e+000,4.531929e-006,2.971031e-005
2.137765e+000,7.553216e-006,2.970580e-005
2.138559e+000,2.182040e-006,2.970461e-005
2.139353e+000,-1.091020e-005,2.969788e-005
2.140147e+000,-1.863127e-005,2.969435e-005
2.140941e+000,-2.165255e-005,2.970153e-005
2.141735e+000,-2.534523e-005,2.971415e-005
2.142529e+000,-2.500954e-005,2.974096e-005
2.143324e+000,-1.426719e-005,2.976549e-005
2.144118e+000,-1.628138e-005,2.976335e-005
2.144912e+000,-3.961242e-005,2.976335e-005
2.145706e+000,-3.910887e-005,2.983244e-005
2.146500e+000,5.874723e-006,2.989867e-005
2.147294e+000,2.920577e-005,2.988520e-005
2.148088e+000,7.217518e-006,2.991078e-005
2.148882e+000,-1.527428e-005,2.989371e-005
2.149676e+000,-1.040665e-005,2.988798e-005
2.150471e+000,-1.023880e-005,2.987963e-005
2.151265e+000,-1.493858e-005,2.987437e-005
2.152059e+000,-1.426719e-005,2.987489e-005
2.152853e+000,-8.560311e-006,2.987684e-005
2.153647e+000,-3.004501e-005,2.987275e-005
2.154441e+000,-6.395056e-005,2.991284e-005
2.155235e+000,-7.435722e-005,3.011998e-005
2.156029e+000,-6.965744e-005,3.040072e-005
2.156824e+000,-5.656519e-005,3.064514e-005
2.157618e+000,-3.524834e-005,3.080318e-005
2.158412e+000,-2.299535e-005,3.085684e-005
2.159206e+000,-2.702373e-005,3.087045e-005
2.160000e+000,-2.064546e-005,3.089147e-005
2.160794e+000,-9.903105e-006,3.089743e-005
2.161588e+000,-1.678492e-007,3.089098e-005
2.162382e+000,1.292439e-005,3.087948e-005
2.163176e+000,7.217518e-006,3.087414e-005
2.163971e+000,-2.853437e-006,3.086258e-005
2.164765e+000,-4.196231e-006,3.085482e-005
2.165559e+000,-7.553216e-006,3.084688e-005
2.166353e+000,-1.225299e-005,3.084075e-005
2.167147e+000,-1.678492e-007,3.083988e-005
