X [s],L DELTOID MEDIUS: EMG 8 [V],L DELTOID MEDIUS: EMG 8->filter (FilterSlidingRMS21) [V]
0.000000e+000,0.000000e+000,0.000000e+000
7.941176e-004,0.000000e+000,0.000000e+000
1.588235e-003,0.000000e+000,0.000000e+000
2.382353e-003,0.000000e+000,0.000000e+000
3.176471e-003,0.000000e+000,0.000000e+000
3.970588e-003,0.000000e+000,0.000000e+000
4.764706e-003,0.000000e+000,0.000000e+000
5.558824e-003,0.000000e+000,0.000000e+000
6.352941e-003,0.000000e+000,0.000000e+000
7.147059e-003,0.000000e+000,0.000000e+000
7.941176e-003,0.000000e+000,0.000000e+000
8.735294e-003,0.000000e+000,0.000000e+000
9.529412e-003,0.000000e+000,0.000000e+000
1.032353e-002,0.000000e+000,0.000000e+000
1.111765e-002,0.000000e+000,0.000000e+000
1.191176e-002,0.000000e+000,0.000000e+000
1.270588e-002,0.000000e+000,0.000000e+000
1.350000e-002,0.000000e+000,0.000000e+000
1.429412e-002,0.000000e+000,0.000000e+000
1.508824e-002,0.000000e+000,0.000000e+000
1.588235e-002,0.000000e+000,0.000000e+000
1.667647e-002,0.000000e+000,0.000000e+000
1.747059e-002,0.000000e+000,0.000000e+000
1.826471e-002,0.000000e+000,0.000000e+000
1.905882e-002,0.000000e+000,0.000000e+000
1.985294e-002,0.000000e+000,0.000000e+000
2.064706e-002,0.000000e+000,0.000000e+000
2.144118e-002,0.000000e+000,0.000000e+000
2.223529e-002,0.000000e+000,0.000000e+000
2.302941e-002,0.000000e+000,0.000000e+000
2.382353e-002,0.000000e+000,0.000000e+000
2.461765e-002,0.000000e+000,0.000000e+000
2.541176e-002,0.000000e+000,0.000000e+000
2.620588e-002,0.000000e+000,0.000000e+000
2.700000e-002,0.000000e+000,0.000000e+000
2.779412e-002,0.000000e+000,0.000000e+000
2.858824e-002,0.000000e+000,0.000000e+000
2.938235e-002,0.000000e+000,0.000000e+000
3.017647e-002,0.000000e+000,0.000000e+000
3.097059e-002,0.000000e+000,0.000000e+000
3.176471e-002,0.000000e+000,0.000000e+000
3.255882e-002,0.000000e+000,0.000000e+000
3.335294e-002,0.000000e+000,0.000000e+000
3.414706e-002,0.000000e+000,0.000000e+000
3.494118e-002,0.000000e+000,0.000000e+000
3.573529e-002,0.000000e+000,0.000000e+000
3.652941e-002,0.000000e+000,0.000000e+000
3.732353e-002,0.000000e+000,0.000000e+000
3.811765e-002,0.000000e+000,0.000000e+000
3.891176e-002,0.000000e+000,0.000000e+000
3.970588e-002,0.000000e+000,0.000000e+000
4.050000e-002,0.000000e+000,0.000000e+000
4.129412e-002,0.000000e+000,0.000000e+000
4.208824e-002,0.000000e+000,0.000000e+000
4.288235e-002,0.000000e+000,0.000000e+000
4.367647e-002,0.000000e+000,0.000000e+000
4.447059e-002,0.000000e+000,0.000000e+000
4.526471e-002,0.000000e+000,0.000000e+000
4.605882e-002,0.000000e+000,0.000000e+000
4.685294e-002,0.000000e+000,0.000000e+000
4.764706e-002,0.000000e+000,0.000000e+000
4.844118e-002,0.000000e+000,0.000000e+000
4.923529e-002,0.000000e+000,0.000000e+000
5.002941e-002,0.000000e+000,0.000000e+000
5.082353e-002,0.000000e+000,0.000000e+000
5.161765e-002,0.000000e+000,0.000000e+000
5.241176e-002,0.000000e+000,0.000000e+000
5.320588e-002,0.000000e+000,0.000000e+000
5.400000e-002,0.000000e+000,0.000000e+000
5.479412e-002,0.000000e+000,0.000000e+000
5.558824e-002,0.000000e+000,0.000000e+000
5.638235e-002,0.000000e+000,0.000000e+000
5.717647e-002,0.000000e+000,0.000000e+000
5.797059e-002,0.000000e+000,0.000000e+000
5.876471e-002,0.000000e+000,0.000000e+000
5.955882e-002,0.000000e+000,0.000000e+000
6.035294e-002,0.000000e+000,0.000000e+000
6.114706e-002,0.000000e+000,0.000000e+000
6.194118e-002,0.000000e+000,0.000000e+000
6.273529e-002,0.000000e+000,0.000000e+000
6.352941e-002,0.000000e+000,0.000000e+000
6.432353e-002,0.000000e+000,0.000000e+000
6.511765e-002,0.000000e+000,0.000000e+000
6.591176e-002,0.000000e+000,0.000000e+000
6.670588e-002,0.000000e+000,0.000000e+000
6.750000e-002,0.000000e+000,0.000000e+000
6.829412e-002,0.000000e+000,0.000000e+000
6.908824e-002,0.000000e+000,0.000000e+000
6.988235e-002,0.000000e+000,0.000000e+000
7.067647e-002,0.000000e+000,0.000000e+000
7.147059e-002,0.000000e+000,0.000000e+000
7.226471e-002,0.000000e+000,0.000000e+000
7.305882e-002,0.000000e+000,0.000000e+000
7.385294e-002,0.000000e+000,0.000000e+000
7.464706e-002,0.000000e+000,0.000000e+000
7.544118e-002,0.000000e+000,0.000000e+000
7.623529e-002,0.000000e+000,0.000000e+000
7.702941e-002,0.000000e+000,0.000000e+000
7.782353e-002,0.000000e+000,0.000000e+000
7.861765e-002,0.000000e+000,0.000000e+000
7.941176e-002,0.000000e+000,0.000000e+000
8.020588e-002,0.000000e+000,0.000000e+000
8.100000e-002,0.000000e+000,0.000000e+000
8.179412e-002,0.000000e+000,0.000000e+000
8.258824e-002,0.000000e+000,0.000000e+000
8.338235e-002,0.000000e+000,0.000000e+000
8.417647e-002,0.000000e+000,0.000000e+000
8.497059e-002,0.000000e+000,0.000000e+000
8.576471e-002,0.000000e+000,0.000000e+000
8.655882e-002,0.000000e+000,0.000000e+000
8.735294e-002,0.000000e+000,0.000000e+000
8.814706e-002,0.000000e+000,0.000000e+000
8.894118e-002,0.000000e+000,0.000000e+000
8.973529e-002,0.000000e+000,0.000000e+000
9.052941e-002,0.000000e+000,0.000000e+000
9.132353e-002,0.000000e+000,0.000000e+000
9.211765e-002,0.000000e+000,0.000000e+000
9.291176e-002,0.000000e+000,0.000000e+000
9.370588e-002,0.000000e+000,0.000000e+000
9.450000e-002,-2.165255e-005,0.000000e+000
9.529412e-002,-1.426719e-005,0.000000e+000
9.608824e-002,-1.527428e-005,0.000000e+000
9.688235e-002,-1.292439e-005,0.000000e+000
9.767647e-002,-8.560311e-006,0.000000e+000
9.847059e-002,-1.091020e-005,0.000000e+000
9.926471e-002,-1.359579e-005,0.000000e+000
1.000588e-001,-1.359579e-005,0.000000e+000
1.008529e-001,-1.493858e-005,0.000000e+000
1.016471e-001,-1.426719e-005,0.000000e+000
1.024412e-001,-1.661708e-005,0.000000e+000
1.032353e-001,-1.292439e-005,0.000000e+000
1.040294e-001,-1.191730e-005,0.000000e+000
1.048235e-001,-1.191730e-005,0.000000e+000
1.056176e-001,-6.881819e-006,0.000000e+000
1.064118e-001,-8.224612e-006,0.000000e+000
1.072059e-001,-1.091020e-005,0.000000e+000
1.080000e-001,-1.158160e-005,0.000000e+000
1.087941e-001,-1.023880e-005,0.000000e+000
1.095882e-001,-1.258869e-005,0.000000e+000
1.103824e-001,-1.493858e-005,0.000000e+000
1.111765e-001,-1.493858e-005,0.000000e+000
1.119706e-001,-1.225299e-005,0.000000e+000
1.127647e-001,-1.393149e-005,0.000000e+000
1.135588e-001,-1.460288e-005,0.000000e+000
1.143529e-001,-1.628138e-005,0.000000e+000
1.151471e-001,-1.359579e-005,0.000000e+000
1.159412e-001,-1.091020e-005,0.000000e+000
1.167353e-001,-1.124590e-005,0.000000e+000
1.175294e-001,-1.409934e-005,0.000000e+000
1.183235e-001,-1.393149e-005,0.000000e+000
1.191176e-001,-1.560998e-005,0.000000e+000
1.199118e-001,-1.258869e-005,0.000000e+000
1.207059e-001,-9.063859e-006,0.000000e+000
1.215000e-001,-1.191730e-005,0.000000e+000
1.222941e-001,-1.493858e-005,0.000000e+000
1.230882e-001,-1.829557e-005,0.000000e+000
1.238824e-001,-1.795987e-005,0.000000e+000
1.246765e-001,-1.426719e-005,0.000000e+000
1.254706e-001,-9.567407e-006,0.000000e+000
1.262647e-001,-1.527428e-005,0.000000e+000
1.270588e-001,-1.560998e-005,0.000000e+000
1.278529e-001,-1.560998e-005,0.000000e+000
1.286471e-001,-1.493858e-005,0.000000e+000
1.294412e-001,-1.158160e-005,0.000000e+000
1.302353e-001,-1.158160e-005,0.000000e+000
1.310294e-001,-1.124590e-005,0.000000e+000
1.318235e-001,-1.124590e-005,0.000000e+000
1.326176e-001,-1.158160e-005,0.000000e+000
1.334118e-001,-1.560998e-005,0.000000e+000
1.342059e-001,-1.393149e-005,0.000000e+000
1.350000e-001,-1.242084e-005,0.000000e+000
1.357941e-001,-1.292439e-005,0.000000e+000
1.365882e-001,-1.628138e-005,0.000000e+000
1.373824e-001,-1.795987e-005,0.000000e+000
1.381765e-001,-1.896696e-005,0.000000e+000
1.389706e-001,-1.829557e-005,0.000000e+000
1.397647e-001,-1.560998e-005,0.000000e+000
1.405588e-001,-1.359579e-005,0.000000e+000
1.413529e-001,-1.242084e-005,0.000000e+000
1.421471e-001,-1.292439e-005,0.000000e+000
1.429412e-001,-1.493858e-005,0.000000e+000
1.437353e-001,-1.460288e-005,0.000000e+000
1.445294e-001,-1.376364e-005,0.000000e+000
1.453235e-001,-1.225299e-005,0.000000e+000
1.461176e-001,-1.527428e-005,0.000000e+000
1.469118e-001,-1.762417e-005,0.000000e+000
1.477059e-001,-1.326009e-005,0.000000e+000
1.485000e-001,-1.628138e-005,0.000000e+000
1.492941e-001,-1.628138e-005,0.000000e+000
1.500882e-001,-1.628138e-005,0.000000e+000
1.508824e-001,-1.292439e-005,0.000000e+000
1.516765e-001,-1.225299e-005,0.000000e+000
1.524706e-001,-1.527428e-005,0.000000e+000
1.532647e-001,-1.493858e-005,0.000000e+000
1.540588e-001,-1.326009e-005,0.000000e+000
1.548529e-001,-1.292439e-005,0.000000e+000
1.556471e-001,-9.567407e-006,0.000000e+000
1.564412e-001,-7.217518e-006,0.000000e+000
1.572353e-001,-6.881819e-006,0.000000e+000
1.580294e-001,-1.023880e-005,0.000000e+000
1.588235e-001,-1.376364e-005,0.000000e+000
1.596176e-001,-9.567407e-006,0.000000e+000
1.604118e-001,-8.896010e-006,0.000000e+000
1.612059e-001,-1.124590e-005,0.000000e+000
1.620000e-001,-1.225299e-005,0.000000e+000
1.627941e-001,-1.493858e-005,0.000000e+000
1.635882e-001,-1.493858e-005,0.000000e+000
1.643824e-001,-1.225299e-005,0.000000e+000
1.651765e-001,-1.426719e-005,0.000000e+000
1.659706e-001,-1.560998e-005,0.000000e+000
1.667647e-001,-1.846342e-005,0.000000e+000
1.675588e-001,-1.728847e-005,0.000000e+000
1.683529e-001,-1.493858e-005,0.000000e+000
1.691471e-001,-1.829557e-005,0.000000e+000
1.699412e-001,-1.896696e-005,0.000000e+000
1.707353e-001,-1.963836e-005,0.000000e+000
1.715294e-001,-1.728847e-005,0.000000e+000
1.723235e-001,-1.728847e-005,0.000000e+000
1.731176e-001,-1.493858e-005,0.000000e+000
1.739118e-001,-1.326009e-005,0.000000e+000
1.747059e-001,-1.225299e-005,0.000000e+000
1.755000e-001,-1.326009e-005,0.000000e+000
1.762941e-001,-1.359579e-005,0.000000e+000
1.770882e-001,-1.057450e-005,0.000000e+000
1.778824e-001,-1.527428e-005,0.000000e+000
1.786765e-001,-1.460288e-005,0.000000e+000
1.794706e-001,-1.628138e-005,0.000000e+000
1.802647e-001,-1.426719e-005,0.000000e+000
1.810588e-001,-1.359579e-005,0.000000e+000
1.818529e-001,-1.527428e-005,0.000000e+000
1.826471e-001,-1.426719e-005,0.000000e+000
1.834412e-001,-1.393149e-005,0.000000e+000
1.842353e-001,-1.191730e-005,0.000000e+000
1.850294e-001,-1.359579e-005,0.000000e+000
1.858235e-001,-1.493858e-005,0.000000e+000
1.866176e-001,-1.359579e-005,0.000000e+000
1.874118e-001,-1.661708e-005,0.000000e+000
1.882059e-001,-1.292439e-005,0.000000e+000
1.890000e-001,-8.896010e-006,0.000000e+000
1.897941e-001,-8.560311e-006,0.000000e+000
1.905882e-001,-1.023880e-005,0.000000e+000
1.913824e-001,-1.326009e-005,0.000000e+000
1.921765e-001,-1.493858e-005,0.000000e+000
1.929706e-001,-1.359579e-005,0.000000e+000
1.937647e-001,-1.258869e-005,0.000000e+000
1.945588e-001,-1.225299e-005,0.000000e+000
1.953529e-001,-1.527428e-005,0.000000e+000
1.961471e-001,-1.225299e-005,0.000000e+000
1.969412e-001,-1.393149e-005,0.000000e+000
1.977353e-001,-1.628138e-005,0.000000e+000
1.985294e-001,-1.292439e-005,0.000000e+000
1.993235e-001,-1.292439e-005,0.000000e+000
2.001176e-001,-1.527428e-005,0.000000e+000
2.009118e-001,-1.292439e-005,0.000000e+000
2.017059e-001,-1.460288e-005,0.000000e+000
2.025000e-001,-1.510643e-005,0.000000e+000
2.032941e-001,-9.567407e-006,0.000000e+000
2.040882e-001,-9.903105e-006,0.000000e+000
2.048824e-001,-8.560311e-006,0.000000e+000
2.056765e-001,-7.721065e-006,0.000000e+000
2.064706e-001,-7.553216e-006,0.000000e+000
2.072647e-001,-1.057450e-005,0.000000e+000
2.080588e-001,-1.426719e-005,0.000000e+000
2.088529e-001,-1.560998e-005,0.000000e+000
2.096471e-001,-1.426719e-005,0.000000e+000
2.104412e-001,-1.225299e-005,0.000000e+000
2.112353e-001,-1.393149e-005,0.000000e+000
2.120294e-001,-1.376364e-005,0.000000e+000
2.128235e-001,-1.695277e-005,0.000000e+000
2.136176e-001,-1.863127e-005,0.000000e+000
2.144118e-001,-1.712062e-005,0.000000e+000
2.152059e-001,-1.628138e-005,0.000000e+000
2.160000e-001,-1.493858e-005,0.000000e+000
2.167941e-001,-9.567407e-006,0.000000e+000
2.175882e-001,-9.567407e-006,0.000000e+000
2.183824e-001,-9.567407e-006,0.000000e+000
2.191765e-001,-9.567407e-006,0.000000e+000
2.199706e-001,-1.057450e-005,0.000000e+000
2.207647e-001,-1.158160e-005,0.000000e+000
2.215588e-001,-1.359579e-005,0.000000e+000
2.223529e-001,-1.158160e-005,0.000000e+000
2.231471e-001,-1.292439e-005,0.000000e+000
2.239412e-001,-1.426719e-005,0.000000e+000
2.247353e-001,-1.695277e-005,0.000000e+000
2.255294e-001,-1.326009e-005,0.000000e+000
2.263235e-001,-1.158160e-005,0.000000e+000
2.271176e-001,-1.225299e-005,0.000000e+000
2.279118e-001,-1.359579e-005,0.000000e+000
2.287059e-001,-1.359579e-005,0.000000e+000
2.295000e-001,-1.560998e-005,0.000000e+000
2.302941e-001,-1.896696e-005,0.000000e+000
2.310882e-001,-1.762417e-005,0.000000e+000
2.318824e-001,-1.594568e-005,0.000000e+000
2.326765e-001,-1.863127e-005,0.000000e+000
2.334706e-001,-2.030976e-005,0.000000e+000
2.342647e-001,-1.628138e-005,0.000000e+000
2.350588e-001,-1.628138e-005,0.000000e+000
2.358529e-001,-1.577783e-005,0.000000e+000
2.366471e-001,-1.225299e-005,0.000000e+000
2.374412e-001,-1.359579e-005,0.000000e+000
2.382353e-001,-1.695277e-005,0.000000e+000
2.390294e-001,-1.930266e-005,0.000000e+000
2.398235e-001,-1.661708e-005,0.000000e+000
2.406176e-001,-1.560998e-005,0.000000e+000
2.414118e-001,-1.376364e-005,0.000000e+000
2.422059e-001,-1.359579e-005,0.000000e+000
2.430000e-001,-1.258869e-005,0.000000e+000
2.437941e-001,-1.292439e-005,0.000000e+000
2.445882e-001,-1.023880e-005,0.000000e+000
2.453824e-001,-8.224612e-006,0.000000e+000
2.461765e-001,-1.225299e-005,0.000000e+000
2.469706e-001,-1.091020e-005,0.000000e+000
2.477647e-001,-1.091020e-005,0.000000e+000
2.485588e-001,-1.661708e-005,0.000000e+000
2.493529e-001,-1.795987e-005,1.100037e-005
2.501471e-001,-1.661708e-005,1.104697e-005
2.509412e-001,-1.376364e-005,1.108670e-005
2.517353e-001,-1.493858e-005,1.111387e-005
2.525294e-001,-1.628138e-005,1.114580e-005
2.533235e-001,-1.661708e-005,1.118361e-005
2.541176e-001,-1.426719e-005,1.122285e-005
2.549118e-001,-1.426719e-005,1.125170e-005
2.557059e-001,-1.628138e-005,1.128047e-005
2.565000e-001,-1.577783e-005,1.131783e-005
2.572941e-001,-1.426719e-005,1.135280e-005
2.580882e-001,-1.023880e-005,1.138131e-005
2.588824e-001,-1.258869e-005,1.139597e-005
2.596765e-001,-1.258869e-005,1.141809e-005
2.604706e-001,-1.225299e-005,1.144017e-005
2.612647e-001,-1.309224e-005,1.146105e-005
2.620588e-001,-9.567407e-006,1.148484e-005
2.628529e-001,-6.881819e-006,1.149752e-005
2.636471e-001,-9.735256e-006,1.150408e-005
2.644412e-001,-1.527428e-005,1.151719e-005
2.652353e-001,-1.426719e-005,1.154940e-005
2.660294e-001,-1.309224e-005,1.157743e-005
2.668235e-001,-1.426719e-005,1.160098e-005
2.676176e-001,-1.359579e-005,1.162889e-005
2.684118e-001,-1.258869e-005,1.165417e-005
2.692059e-001,-1.493858e-005,1.167581e-005
2.700000e-001,-1.695277e-005,1.170620e-005
2.707941e-001,-1.695277e-005,1.174523e-005
2.715882e-001,-1.560998e-005,1.178413e-005
2.723824e-001,-1.460288e-005,1.181701e-005
2.731765e-001,-1.258869e-005,1.184571e-005
2.739706e-001,-8.560311e-006,1.186699e-005
2.747647e-001,-1.091020e-005,1.187682e-005
2.755588e-001,-1.091020e-005,1.189277e-005
2.763529e-001,-1.091020e-005,1.190870e-005
2.771471e-001,-1.493858e-005,1.192460e-005
2.779412e-001,-1.258869e-005,1.195437e-005
2.787353e-001,-1.426719e-005,1.197546e-005
2.795294e-001,-1.393149e-005,1.200249e-005
2.803235e-001,-1.174945e-005,1.202821e-005
2.811176e-001,-1.091020e-005,1.204648e-005
2.819118e-001,-1.309224e-005,1.206220e-005
2.827059e-001,-1.560998e-005,1.208481e-005
2.835000e-001,-2.030976e-005,1.211687e-005
2.842941e-001,-2.165255e-005,1.217096e-005
2.850882e-001,-1.695277e-005,1.223214e-005
2.858824e-001,-1.426719e-005,1.226950e-005
2.866765e-001,-1.359579e-005,1.229589e-005
2.874706e-001,-1.292439e-005,1.231980e-005
2.882647e-001,-1.426719e-005,1.234137e-005
2.890588e-001,-1.393149e-005,1.236761e-005
2.898529e-001,-1.426719e-005,1.239257e-005
2.906471e-001,-1.258869e-005,1.241870e-005
2.914412e-001,-1.191730e-005,1.243901e-005
2.922353e-001,-9.567407e-006,1.245717e-005
2.930294e-001,-9.903105e-006,1.246887e-005
2.938235e-001,-1.191730e-005,1.248139e-005
2.946176e-001,-1.258869e-005,1.249949e-005
2.954118e-001,-8.896010e-006,1.251966e-005
2.962059e-001,-9.063859e-006,1.252973e-005
2.970000e-001,-9.063859e-006,1.254016e-005
2.977941e-001,-9.567407e-006,1.255059e-005
2.985882e-001,-8.896010e-006,1.256220e-005
2.993824e-001,-1.023880e-005,1.257223e-005
3.001765e-001,-1.426719e-005,1.258550e-005
3.009706e-001,-1.577783e-005,1.261122e-005
3.017647e-001,-1.628138e-005,1.264262e-005
3.025588e-001,-1.695277e-005,1.267596e-005
3.033529e-001,-1.628138e-005,1.271201e-005
3.041471e-001,-1.728847e-005,1.274517e-005
3.049412e-001,-1.493858e-005,1.278246e-005
3.057353e-001,-1.426719e-005,1.281023e-005
3.065294e-001,-1.661708e-005,1.283551e-005
3.073235e-001,-1.493858e-005,1.286972e-005
3.081176e-001,-1.258869e-005,1.289730e-005
3.089118e-001,-1.493858e-005,1.291685e-005
3.097059e-001,-1.292439e-005,1.294434e-005
3.105000e-001,-1.393149e-005,1.296487e-005
3.112941e-001,-1.628138e-005,1.298868e-005
3.120882e-001,-1.493858e-005,1.302114e-005
3.128824e-001,-1.560998e-005,1.304840e-005
3.136765e-001,-1.560998e-005,1.307810e-005
3.144706e-001,-1.309224e-005,1.310774e-005
3.152647e-001,-1.359579e-005,1.312855e-005
3.160588e-001,-1.779202e-005,1.315095e-005
3.168529e-001,-2.030976e-005,1.318922e-005
3.176471e-001,-2.165255e-005,1.323893e-005
3.184412e-001,-1.493858e-005,1.329520e-005
3.192353e-001,-9.735256e-006,1.332190e-005
3.200294e-001,-6.210422e-006,1.333322e-005
3.208235e-001,-5.203327e-006,1.333783e-005
3.216176e-001,-9.567407e-006,1.334106e-005
3.224118e-001,-1.359579e-005,1.335198e-005
3.232059e-001,-1.326009e-005,1.337401e-005
3.240000e-001,-1.393149e-005,1.339493e-005
3.247941e-001,-1.426719e-005,1.341798e-005
3.255882e-001,-1.292439e-005,1.344211e-005
3.263824e-001,-1.628138e-005,1.346189e-005
3.271765e-001,-1.628138e-005,1.349321e-005
3.279706e-001,-1.359579e-005,1.352445e-005
3.287647e-001,-1.560998e-005,1.354620e-005
3.295588e-001,-1.493858e-005,1.357481e-005
3.303529e-001,-1.023880e-005,1.360096e-005
3.311471e-001,-1.091020e-005,1.361323e-005
3.319412e-001,-1.393149e-005,1.362715e-005
3.327353e-001,-1.510643e-005,1.364981e-005
3.335294e-001,-1.225299e-005,1.367640e-005
3.343235e-001,-1.326009e-005,1.369387e-005
3.351176e-001,-1.644922e-005,1.371430e-005
3.359118e-001,-1.527428e-005,1.374569e-005
3.367059e-001,-1.359579e-005,1.377269e-005
3.375000e-001,-1.493858e-005,1.379404e-005
3.382941e-001,-1.661708e-005,1.381978e-005
3.390882e-001,-1.695277e-005,1.385156e-005
3.398824e-001,-1.426719e-005,1.388456e-005
3.406765e-001,-1.023880e-005,1.390788e-005
3.414706e-001,-1.326009e-005,1.391988e-005
3.422647e-001,-1.225299e-005,1.393998e-005
3.430588e-001,-1.560998e-005,1.395712e-005
3.438529e-001,-1.628138e-005,1.398489e-005
3.446471e-001,-1.258869e-005,1.396167e-005
3.454412e-001,-1.258869e-005,1.395653e-005
3.462353e-001,-1.359579e-005,1.394799e-005
3.470294e-001,-1.560998e-005,1.395002e-005
3.478235e-001,-1.393149e-005,1.396946e-005
3.486176e-001,-1.225299e-005,1.397801e-005
3.494118e-001,-1.124590e-005,1.397406e-005
3.502059e-001,-1.460288e-005,1.396740e-005
3.510000e-001,-1.628138e-005,1.396627e-005
3.517941e-001,-1.359579e-005,1.397329e-005
3.525882e-001,-1.091020e-005,1.396288e-005
3.533824e-001,-1.040665e-005,1.395740e-005
3.541765e-001,-1.309224e-005,1.395356e-005
3.549706e-001,-1.292439e-005,1.395691e-005
3.557647e-001,-1.460288e-005,1.397056e-005
3.565588e-001,-1.628138e-005,1.398714e-005
3.573529e-001,-1.460288e-005,1.400376e-005
3.581471e-001,-1.426719e-005,1.401275e-005
3.589412e-001,-1.292439e-005,1.402397e-005
3.597353e-001,-1.426719e-005,1.402494e-005
3.605294e-001,-1.493858e-005,1.402271e-005
3.613235e-001,-1.124590e-005,1.402271e-005
3.621176e-001,-1.258869e-005,1.402003e-005
3.629118e-001,-1.292439e-005,1.401598e-005
3.637059e-001,-1.258869e-005,1.401073e-005
3.645000e-001,-1.426719e-005,1.399861e-005
3.652941e-001,-1.460288e-005,1.400074e-005
3.660882e-001,-1.628138e-005,1.401145e-005
3.668824e-001,-1.695277e-005,1.402719e-005
3.676765e-001,-1.258869e-005,1.403724e-005
3.684706e-001,-1.158160e-005,1.403320e-005
3.692647e-001,-1.124590e-005,1.402077e-005
3.700588e-001,-1.225299e-005,1.401713e-005
3.708529e-001,-1.292439e-005,1.402486e-005
3.716471e-001,-1.292439e-005,1.402770e-005
3.724412e-001,-1.225299e-005,1.402132e-005
3.732353e-001,-1.242084e-005,1.400034e-005
3.740294e-001,-1.577783e-005,1.398119e-005
3.748235e-001,-1.695277e-005,1.398636e-005
3.756176e-001,-1.661708e-005,1.400864e-005
3.764118e-001,-1.393149e-005,1.401351e-005
3.772059e-001,-1.560998e-005,1.400787e-005
3.780000e-001,-1.628138e-005,1.400787e-005
3.787941e-001,-1.409934e-005,1.401264e-005
3.795882e-001,-1.527428e-005,1.401998e-005
3.803824e-001,-1.560998e-005,1.403124e-005
3.811765e-001,-1.460288e-005,1.404454e-005
3.819706e-001,-1.628138e-005,1.405437e-005
3.827647e-001,-1.493858e-005,1.406920e-005
3.835588e-001,-1.896696e-005,1.406688e-005
3.843529e-001,-1.829557e-005,1.408562e-005
3.851471e-001,-1.158160e-005,1.410600e-005
3.859412e-001,-9.231709e-006,1.410229e-005
3.867353e-001,-1.393149e-005,1.408197e-005
3.875294e-001,-1.443504e-005,1.406743e-005
3.883235e-001,-1.258869e-005,1.405029e-005
3.891176e-001,-1.292439e-005,1.403030e-005
3.899118e-001,-9.735256e-006,1.402160e-005
3.907059e-001,-9.231709e-006,1.401136e-005
3.915000e-001,-7.553216e-006,1.400351e-005
3.922941e-001,-6.210422e-006,1.399100e-005
3.930882e-001,-6.210422e-006,1.396998e-005
3.938824e-001,-6.881819e-006,1.395005e-005
3.946765e-001,-7.553216e-006,1.393383e-005
3.954706e-001,-8.224612e-006,1.392318e-005
3.962647e-001,-1.124590e-005,1.390422e-005
3.970588e-001,-1.762417e-005,1.388312e-005
3.978529e-001,-1.829557e-005,1.389857e-005
3.986471e-001,-1.493858e-005,1.390655e-005
3.994412e-001,-1.359579e-005,1.390175e-005
4.002353e-001,-1.426719e-005,1.389255e-005
4.010294e-001,-1.393149e-005,1.389674e-005
4.018235e-001,-1.426719e-005,1.390177e-005
4.026176e-001,-1.493858e-005,1.389837e-005
4.034118e-001,-1.930266e-005,1.389837e-005
4.042059e-001,-1.795987e-005,1.392089e-005
4.050000e-001,-1.628138e-005,1.393867e-005
4.057941e-001,-1.426719e-005,1.395848e-005
4.065882e-001,-1.795987e-005,1.397575e-005
4.073824e-001,-1.695277e-005,1.400707e-005
4.081765e-001,-1.460288e-005,1.402781e-005
4.089706e-001,-1.225299e-005,1.403051e-005
4.097647e-001,-1.258869e-005,1.403716e-005
4.105588e-001,-1.493858e-005,1.404616e-005
4.113529e-001,-1.930266e-005,1.405711e-005
4.121471e-001,-1.628138e-005,1.408229e-005
4.129412e-001,-1.225299e-005,1.408703e-005
4.137353e-001,-9.567407e-006,1.407877e-005
4.145294e-001,-1.225299e-005,1.407214e-005
4.153235e-001,-1.258869e-005,1.406610e-005
4.161176e-001,-1.258869e-005,1.405645e-005
4.169118e-001,-1.326009e-005,1.403577e-005
4.177059e-001,-1.393149e-005,1.402180e-005
4.185000e-001,-1.560998e-005,1.401850e-005
4.192941e-001,-1.493858e-005,1.400815e-005
4.200882e-001,-1.460288e-005,1.399262e-005
4.208824e-001,-1.426719e-005,1.397298e-005
4.216765e-001,-1.493858e-005,1.396211e-005
4.224706e-001,-1.577783e-005,1.395347e-005
4.232647e-001,-1.560998e-005,1.395641e-005
4.240588e-001,-1.460288e-005,1.396415e-005
4.248529e-001,-1.191730e-005,1.397135e-005
4.256471e-001,-1.292439e-005,1.396749e-005
4.264412e-001,-1.258869e-005,1.396546e-005
4.272353e-001,-1.091020e-005,1.397078e-005
4.280294e-001,-1.158160e-005,1.395775e-005
4.288235e-001,-1.359579e-005,1.394872e-005
4.296176e-001,-1.393149e-005,1.393956e-005
4.304118e-001,-1.158160e-005,1.393848e-005
4.312059e-001,-1.242084e-005,1.393268e-005
4.320000e-001,-1.493858e-005,1.392365e-005
4.327941e-001,-1.225299e-005,1.392589e-005
4.335882e-001,-1.023880e-005,1.392087e-005
4.343824e-001,-1.393149e-005,1.391661e-005
4.351765e-001,-1.577783e-005,1.391767e-005
4.359706e-001,-1.258869e-005,1.392062e-005
4.367647e-001,-1.124590e-005,1.391760e-005
4.375588e-001,-1.258869e-005,1.390047e-005
4.383529e-001,-1.359579e-005,1.389949e-005
4.391471e-001,-1.359579e-005,1.391159e-005
4.399412e-001,-1.040665e-005,1.392436e-005
4.407353e-001,-1.158160e-005,1.392475e-005
4.415294e-001,-1.225299e-005,1.391999e-005
4.423235e-001,-1.225299e-005,1.391163e-005
4.431176e-001,-1.594568e-005,1.390766e-005
4.439118e-001,-1.493858e-005,1.391862e-005
4.447059e-001,-1.594568e-005,1.392697e-005
4.455000e-001,-1.594568e-005,1.392937e-005
4.462941e-001,-1.460288e-005,1.394127e-005
4.470882e-001,-1.695277e-005,1.394345e-005
4.478824e-001,-1.896696e-005,1.394600e-005
4.486765e-001,-1.527428e-005,1.396799e-005
4.494706e-001,-1.225299e-005,1.397554e-005
4.502647e-001,-1.292439e-005,1.396606e-005
4.510588e-001,-1.426719e-005,1.396606e-005
4.518529e-001,-1.628138e-005,1.396496e-005
4.526471e-001,-1.527428e-005,1.396916e-005
4.534412e-001,-1.460288e-005,1.398531e-005
4.542353e-001,-1.091020e-005,1.399842e-005
4.550294e-001,-1.292439e-005,1.400362e-005
4.558235e-001,-1.359579e-005,1.401583e-005
4.566176e-001,-1.091020e-005,1.403034e-005
4.574118e-001,-1.258869e-005,1.403116e-005
4.582059e-001,-1.560998e-005,1.402604e-005
4.590000e-001,-1.359579e-005,1.402604e-005
4.597941e-001,-1.057450e-005,1.402392e-005
4.605882e-001,-1.191730e-005,1.401957e-005
4.613824e-001,-1.023880e-005,1.401365e-005
4.621765e-001,-9.231709e-006,1.400404e-005
4.629706e-001,-9.735256e-006,1.398103e-005
4.637647e-001,-1.225299e-005,1.395226e-005
4.645588e-001,-1.376364e-005,1.393593e-005
4.653529e-001,-1.560998e-005,1.392729e-005
4.661471e-001,-1.359579e-005,1.392963e-005
4.669412e-001,-1.661708e-005,1.394029e-005
4.677353e-001,-1.359579e-005,1.396136e-005
4.685294e-001,-1.560998e-005,1.397200e-005
4.693235e-001,-1.628138e-005,1.398933e-005
4.701176e-001,-1.829557e-005,1.400676e-005
4.709118e-001,-1.779202e-005,1.402955e-005
4.717059e-001,-1.712062e-005,1.404449e-005
4.725000e-001,-1.644922e-005,1.406251e-005
4.732941e-001,-1.292439e-005,1.407422e-005
4.740882e-001,-1.091020e-005,1.407009e-005
4.748824e-001,-1.258869e-005,1.405103e-005
4.756765e-001,-1.359579e-005,1.404906e-005
4.764706e-001,-1.091020e-005,1.405481e-005
4.772647e-001,-1.225299e-005,1.405128e-005
4.780588e-001,-1.628138e-005,1.404735e-005
4.788529e-001,-1.628138e-005,1.405644e-005
4.796471e-001,-1.560998e-005,1.405886e-005
4.804412e-001,-1.493858e-005,1.404571e-005
4.812353e-001,-1.158160e-005,1.403579e-005
4.820294e-001,-1.225299e-005,1.402216e-005
4.828235e-001,-1.309224e-005,1.399977e-005
4.836176e-001,-1.426719e-005,1.397232e-005
4.844118e-001,-1.258869e-005,1.396531e-005
4.852059e-001,-1.107805e-005,1.395315e-005
4.860000e-001,-1.560998e-005,1.393873e-005
4.867941e-001,-1.527428e-005,1.394941e-005
4.875882e-001,-1.393149e-005,1.395494e-005
4.883824e-001,-1.628138e-005,1.394429e-005
4.891765e-001,-1.409934e-005,1.393201e-005
4.899706e-001,-1.225299e-005,1.392317e-005
4.907647e-001,-1.493858e-005,1.391246e-005
4.915588e-001,-1.493858e-005,1.391632e-005
4.923529e-001,-1.225299e-005,1.392071e-005
4.931471e-001,-9.567407e-006,1.391975e-005
4.939412e-001,-7.553216e-006,1.391111e-005
4.947353e-001,-8.896010e-006,1.390564e-005
4.955294e-001,-6.210422e-006,1.390696e-005
4.963235e-001,-8.896010e-006,1.389418e-005
4.971176e-001,-1.091020e-005,1.388961e-005
4.979118e-001,-9.231709e-006,1.388960e-005
4.987059e-001,-6.881819e-006,1.386770e-005
4.995000e-001,-9.735256e-006,1.383607e-005
5.002941e-001,-1.560998e-005,1.381518e-005
5.010882e-001,-1.628138e-005,1.382143e-005
5.018824e-001,-1.661708e-005,1.382626e-005
5.026765e-001,-2.114900e-005,1.382753e-005
5.034706e-001,-1.963836e-005,1.384723e-005
5.042647e-001,-1.779202e-005,1.386815e-005
5.050588e-001,-1.829557e-005,1.388112e-005
5.058529e-001,-1.443504e-005,1.388911e-005
5.066471e-001,-1.527428e-005,1.388446e-005
5.074412e-001,-1.359579e-005,1.388787e-005
5.082353e-001,-1.292439e-005,1.389704e-005
5.090294e-001,-1.359579e-005,1.389802e-005
5.098235e-001,-1.158160e-005,1.390104e-005
5.106176e-001,-1.225299e-005,1.389921e-005
5.114118e-001,-1.493858e-005,1.389677e-005
5.122059e-001,-1.359579e-005,1.391184e-005
5.130000e-001,-1.359579e-005,1.392757e-005
5.137941e-001,-1.426719e-005,1.393787e-005
5.145882e-001,-1.560998e-005,1.393447e-005
5.153824e-001,-1.426719e-005,1.393905e-005
5.161765e-001,-1.225299e-005,1.394272e-005
5.169706e-001,-1.023880e-005,1.393662e-005
5.177647e-001,-1.091020e-005,1.392747e-005
5.185588e-001,-1.712062e-005,1.392296e-005
5.193529e-001,-1.997406e-005,1.393096e-005
5.201471e-001,-1.829557e-005,1.394371e-005
5.209412e-001,-1.695277e-005,1.394911e-005
5.217353e-001,-1.896696e-005,1.395410e-005
5.225294e-001,-2.165255e-005,1.397081e-005
5.233235e-001,-2.114900e-005,1.400614e-005
5.241176e-001,-1.762417e-005,1.404860e-005
5.249118e-001,-1.493858e-005,1.407029e-005
5.257059e-001,-1.158160e-005,1.408207e-005
5.265000e-001,-1.258869e-005,1.408378e-005
5.272941e-001,-1.023880e-005,1.407647e-005
5.280882e-001,-8.896010e-006,1.407040e-005
5.288824e-001,-1.225299e-005,1.405631e-005
5.296765e-001,-1.359579e-005,1.405133e-005
5.304706e-001,-1.258869e-005,1.405663e-005
5.312647e-001,-1.493858e-005,1.406110e-005
5.320588e-001,-1.359579e-005,1.406696e-005
5.328529e-001,-8.224612e-006,1.406030e-005
5.336471e-001,-8.224612e-006,1.402119e-005
5.344412e-001,-9.567407e-006,1.397555e-005
5.352353e-001,-1.225299e-005,1.395322e-005
5.360294e-001,-1.393149e-005,1.394712e-005
5.368235e-001,-1.762417e-005,1.394818e-005
5.376176e-001,-1.896696e-005,1.396456e-005
5.384118e-001,-1.560998e-005,1.398236e-005
5.392059e-001,-1.493858e-005,1.398800e-005
5.400000e-001,-1.258869e-005,1.399023e-005
5.407941e-001,-1.091020e-005,1.399024e-005
5.415882e-001,-1.309224e-005,1.398762e-005
5.423824e-001,-1.359579e-005,1.399671e-005
5.431765e-001,-1.359579e-005,1.400658e-005
5.439706e-001,-1.158160e-005,1.401144e-005
5.447647e-001,-1.191730e-005,1.400868e-005
5.455588e-001,-1.460288e-005,1.401582e-005
5.463529e-001,-1.493858e-005,1.403071e-005
5.471471e-001,-1.661708e-005,1.404670e-005
5.479412e-001,-1.493858e-005,1.406761e-005
5.487353e-001,-1.158160e-005,1.408391e-005
5.495294e-001,-9.231709e-006,1.408722e-005
5.503235e-001,-9.231709e-006,1.407384e-005
5.511176e-001,-9.231709e-006,1.405530e-005
5.519118e-001,-1.091020e-005,1.403491e-005
5.527059e-001,-8.560311e-006,1.401579e-005
5.535000e-001,-1.292439e-005,1.399399e-005
5.542941e-001,-1.091020e-005,1.397898e-005
5.550882e-001,-1.359579e-005,1.396711e-005
5.558824e-001,-1.426719e-005,1.396498e-005
5.566765e-001,-1.493858e-005,1.395670e-005
5.574706e-001,-1.628138e-005,1.395670e-005
5.582647e-001,-1.577783e-005,1.396886e-005
5.590588e-001,-1.661708e-005,1.397179e-005
5.598529e-001,-1.426719e-005,1.398422e-005
5.606471e-001,-1.158160e-005,1.398530e-005
5.614412e-001,-1.258869e-005,1.397038e-005
5.622353e-001,-1.359579e-005,1.396301e-005
5.630294e-001,-1.225299e-005,1.395630e-005
5.638235e-001,-1.359579e-005,1.394562e-005
5.646176e-001,-1.158160e-005,1.394715e-005
5.654118e-001,-1.359579e-005,1.394136e-005
5.662059e-001,-1.393149e-005,1.392631e-005
5.670000e-001,-1.560998e-005,1.390132e-005
5.677941e-001,-1.661708e-005,1.387550e-005
5.685882e-001,-1.493858e-005,1.388158e-005
5.693824e-001,-1.225299e-005,1.389630e-005
5.701765e-001,-1.393149e-005,1.390908e-005
5.709706e-001,-1.359579e-005,1.392818e-005
5.717647e-001,-1.426719e-005,1.393885e-005
5.725588e-001,-1.695277e-005,1.394098e-005
5.733529e-001,-1.560998e-005,1.395372e-005
5.741471e-001,-1.091020e-005,1.395938e-005
5.749412e-001,-1.560998e-005,1.394973e-005
5.757353e-001,-1.560998e-005,1.395848e-005
5.765294e-001,-1.359579e-005,1.395604e-005
5.773235e-001,-1.426719e-005,1.394688e-005
5.781176e-001,-1.393149e-005,1.394901e-005
5.789118e-001,-1.292439e-005,1.394335e-005
5.797059e-001,-1.292439e-005,1.393694e-005
5.805000e-001,-1.426719e-005,1.394405e-005
5.812941e-001,-1.225299e-005,1.395370e-005
5.820882e-001,-1.174945e-005,1.394868e-005
5.828824e-001,-1.426719e-005,1.393839e-005
5.836765e-001,-1.359579e-005,1.394449e-005
5.844706e-001,-1.091020e-005,1.394552e-005
5.852647e-001,-1.141375e-005,1.392820e-005
5.860588e-001,-1.040665e-005,1.391642e-005
5.868529e-001,-1.091020e-005,1.390766e-005
5.876471e-001,-1.628138e-005,1.389573e-005
5.884412e-001,-1.460288e-005,1.389446e-005
5.892353e-001,-1.510643e-005,1.388596e-005
5.900294e-001,-1.930266e-005,1.388879e-005
5.908235e-001,-2.064546e-005,1.391945e-005
5.916176e-001,-1.762417e-005,1.394807e-005
5.924118e-001,-1.896696e-005,1.396638e-005
5.932059e-001,-1.963836e-005,1.397961e-005
5.940000e-001,-1.829557e-005,1.399333e-005
5.947941e-001,-1.628138e-005,1.401338e-005
5.955882e-001,-1.292439e-005,1.402549e-005
5.963824e-001,-1.158160e-005,1.402346e-005
5.971765e-001,-6.881819e-006,1.401102e-005
5.979706e-001,-6.378271e-006,1.399433e-005
5.987647e-001,-1.023880e-005,1.398187e-005
5.995588e-001,-1.191730e-005,1.397941e-005
6.003529e-001,-1.158160e-005,1.397130e-005
6.011471e-001,-9.231709e-006,1.395636e-005
6.019412e-001,-9.567407e-006,1.394499e-005
6.027353e-001,-1.091020e-005,1.394185e-005
6.035294e-001,-1.359579e-005,1.394308e-005
6.043235e-001,-1.359579e-005,1.394461e-005
6.051176e-001,-1.560998e-005,1.394664e-005
6.059118e-001,-1.863127e-005,1.395012e-005
6.067059e-001,-1.493858e-005,1.395948e-005
6.075000e-001,-1.393149e-005,1.396061e-005
6.082941e-001,-1.158160e-005,1.395953e-005
6.090882e-001,-1.258869e-005,1.395578e-005
6.098824e-001,-1.057450e-005,1.395063e-005
6.106765e-001,-1.023880e-005,1.393792e-005
6.114706e-001,-1.023880e-005,1.393545e-005
6.122647e-001,-1.225299e-005,1.392932e-005
6.130588e-001,-1.292439e-005,1.392738e-005
6.138529e-001,-1.225299e-005,1.392836e-005
6.146471e-001,-1.242084e-005,1.392225e-005
6.154412e-001,-1.359579e-005,1.391551e-005
6.162353e-001,-1.493858e-005,1.390632e-005
6.170294e-001,-1.258869e-005,1.389897e-005
6.178235e-001,-1.023880e-005,1.389897e-005
6.186176e-001,-1.040665e-005,1.389561e-005
6.194118e-001,-1.426719e-005,1.389353e-005
6.202059e-001,-1.628138e-005,1.389965e-005
6.210000e-001,-1.460288e-005,1.391088e-005
6.217941e-001,-1.426719e-005,1.391616e-005
6.225882e-001,-1.493858e-005,1.392227e-005
6.233824e-001,-1.225299e-005,1.393015e-005
6.241765e-001,-1.124590e-005,1.391885e-005
6.249706e-001,-1.225299e-005,1.390043e-005
6.257647e-001,-1.124590e-005,1.388599e-005
6.265588e-001,-1.359579e-005,1.387823e-005
6.273529e-001,-1.326009e-005,1.387148e-005
6.281471e-001,-1.577783e-005,1.386123e-005
6.289412e-001,-1.560998e-005,1.386699e-005
6.297353e-001,-1.560998e-005,1.386818e-005
6.305294e-001,-1.628138e-005,1.386818e-005
6.313235e-001,-2.030976e-005,1.387413e-005
6.321176e-001,-1.997406e-005,1.389104e-005
6.329118e-001,-1.762417e-005,1.391118e-005
6.337059e-001,-1.594568e-005,1.390555e-005
6.345000e-001,-1.795987e-005,1.389634e-005
6.352941e-001,-1.829557e-005,1.391791e-005
6.360882e-001,-1.829557e-005,1.394643e-005
6.368824e-001,-1.560998e-005,1.396248e-005
6.376765e-001,-1.376364e-005,1.396650e-005
6.384706e-001,-1.426719e-005,1.397003e-005
6.392647e-001,-1.762417e-005,1.397419e-005
6.400588e-001,-2.131685e-005,1.399877e-005
6.408529e-001,-2.299535e-005,1.404070e-005
6.416471e-001,-1.896696e-005,1.409410e-005
6.424412e-001,-1.225299e-005,1.413034e-005
6.432353e-001,-1.426719e-005,1.414290e-005
6.440294e-001,-1.359579e-005,1.416048e-005
6.448235e-001,-1.191730e-005,1.417484e-005
6.456176e-001,-8.896010e-006,1.418320e-005
6.464118e-001,-8.224612e-006,1.417788e-005
6.472059e-001,-7.888914e-006,1.415057e-005
6.480000e-001,-1.158160e-005,1.411987e-005
6.487941e-001,-1.023880e-005,1.410982e-005
6.495882e-001,-9.567407e-006,1.410079e-005
6.503824e-001,-1.242084e-005,1.408813e-005
6.511765e-001,-1.560998e-005,1.408363e-005
6.519706e-001,-1.292439e-005,1.408817e-005
6.527647e-001,-1.091020e-005,1.408182e-005
6.535588e-001,-9.735256e-006,1.405312e-005
6.543529e-001,-1.309224e-005,1.402729e-005
6.551471e-001,-1.191730e-005,1.401665e-005
6.559412e-001,-1.091020e-005,1.400966e-005
6.567353e-001,-1.057450e-005,1.398651e-005
6.575294e-001,-1.225299e-005,1.396650e-005
6.583235e-001,-1.762417e-005,1.395931e-005
6.591176e-001,-1.527428e-005,1.397760e-005
6.599118e-001,-1.091020e-005,1.398612e-005
6.607059e-001,-8.224612e-006,1.397426e-005
6.615000e-001,-1.225299e-005,1.393947e-005
6.622941e-001,-1.225299e-005,1.392633e-005
6.630882e-001,-7.888914e-006,1.392633e-005
6.638824e-001,-1.158160e-005,1.392298e-005
6.646765e-001,-1.594568e-005,1.392115e-005
6.654706e-001,-1.393149e-005,1.393210e-005
6.662647e-001,-1.225299e-005,1.393617e-005
6.670588e-001,-1.258869e-005,1.393324e-005
6.678529e-001,-1.493858e-005,1.392917e-005
6.686471e-001,-1.560998e-005,1.392682e-005
6.694412e-001,-1.560998e-005,1.392917e-005
6.702353e-001,-1.628138e-005,1.393264e-005
6.710294e-001,-1.594568e-005,1.393968e-005
6.718235e-001,-1.628138e-005,1.394323e-005
6.726176e-001,-1.728847e-005,1.394507e-005
6.734118e-001,-1.795987e-005,1.395137e-005
6.742059e-001,-1.460288e-005,1.396385e-005
6.750000e-001,-1.527428e-005,1.397196e-005
6.757941e-001,-1.695277e-005,1.397951e-005
6.765882e-001,-1.460288e-005,1.399419e-005
6.773824e-001,-1.560998e-005,1.400491e-005
6.781765e-001,-1.393149e-005,1.401736e-005
6.789706e-001,-1.460288e-005,1.401841e-005
6.797647e-001,-9.567407e-006,1.402058e-005
6.805588e-001,-7.217518e-006,1.401574e-005
6.813529e-001,-9.567407e-006,1.400413e-005
6.821471e-001,-1.174945e-005,1.398916e-005
6.829412e-001,-1.292439e-005,1.398778e-005
6.837353e-001,-1.544213e-005,1.399486e-005
6.845294e-001,-1.527428e-005,1.399991e-005
6.853235e-001,-1.426719e-005,1.399813e-005
6.861176e-001,-1.661708e-005,1.400326e-005
6.869118e-001,-1.577783e-005,1.402026e-005
6.877059e-001,-1.174945e-005,1.403053e-005
6.885000e-001,-1.225299e-005,1.402522e-005
6.892941e-001,-1.242084e-005,1.402128e-005
6.900882e-001,-1.174945e-005,1.402650e-005
6.908824e-001,-1.426719e-005,1.402694e-005
6.916765e-001,-1.225299e-005,1.403301e-005
6.924706e-001,-1.225299e-005,1.403301e-005
6.932647e-001,-1.426719e-005,1.402119e-005
6.940588e-001,-1.426719e-005,1.401896e-005
6.948529e-001,-1.661708e-005,1.401320e-005
6.956471e-001,-1.628138e-005,1.401568e-005
6.964412e-001,-1.628138e-005,1.402157e-005
6.972353e-001,-1.560998e-005,1.401904e-005
6.980294e-001,-1.225299e-005,1.400585e-005
6.988235e-001,-1.426719e-005,1.399639e-005
6.996176e-001,-1.594568e-005,1.400246e-005
7.004118e-001,-1.628138e-005,1.401238e-005
7.012059e-001,-1.493858e-005,1.401937e-005
7.020000e-001,-1.309224e-005,1.401461e-005
7.027941e-001,-1.359579e-005,1.400757e-005
7.035882e-001,-1.359579e-005,1.400434e-005
7.043824e-001,-1.057450e-005,1.401183e-005
7.051765e-001,-1.091020e-005,1.400555e-005
7.059706e-001,-1.426719e-005,1.399806e-005
7.067647e-001,-1.712062e-005,1.400768e-005
7.075588e-001,-1.628138e-005,1.402297e-005
7.083529e-001,-1.292439e-005,1.402541e-005
7.091471e-001,-1.225299e-005,1.402338e-005
7.099412e-001,-1.242084e-005,1.402773e-005
7.107353e-001,-1.225299e-005,1.402912e-005
7.115294e-001,-1.091020e-005,1.403426e-005
7.123235e-001,-1.124590e-005,1.403810e-005
7.131176e-001,-1.023880e-005,1.404170e-005
7.139118e-001,-1.359579e-005,1.403656e-005
7.147059e-001,-1.762417e-005,1.403604e-005
7.155000e-001,-1.762417e-005,1.404363e-005
7.162941e-001,-1.527428e-005,1.405788e-005
7.170882e-001,-1.292439e-005,1.405303e-005
7.178824e-001,-1.292439e-005,1.405101e-005
7.186765e-001,-1.359579e-005,1.404232e-005
7.194706e-001,-1.359579e-005,1.403322e-005
7.202647e-001,-1.225299e-005,1.401621e-005
7.210588e-001,-1.510643e-005,1.399729e-005
7.218529e-001,-1.628138e-005,1.398990e-005
7.226471e-001,-1.225299e-005,1.398927e-005
7.234412e-001,-1.326009e-005,1.398735e-005
7.242353e-001,-1.393149e-005,1.399381e-005
7.250294e-001,-1.560998e-005,1.399787e-005
7.258235e-001,-1.359579e-005,1.400456e-005
7.266176e-001,-1.460288e-005,1.401204e-005
7.274118e-001,-1.393149e-005,1.401921e-005
7.282059e-001,-1.292439e-005,1.401114e-005
7.290000e-001,-1.158160e-005,1.399999e-005
7.297941e-001,-6.378271e-006,1.398753e-005
7.305882e-001,-5.874723e-006,1.396674e-005
7.313824e-001,-1.158160e-005,1.395538e-005
7.321765e-001,-1.661708e-005,1.395355e-005
7.329706e-001,-1.628138e-005,1.396550e-005
7.337647e-001,-1.560998e-005,1.397251e-005
7.345588e-001,-1.628138e-005,1.398222e-005
7.353529e-001,-1.628138e-005,1.399842e-005
7.361471e-001,-1.493858e-005,1.400086e-005
7.369412e-001,-1.628138e-005,1.399970e-005
7.377353e-001,-1.225299e-005,1.400778e-005
7.385294e-001,-1.174945e-005,1.399470e-005
7.393235e-001,-1.359579e-005,1.398779e-005
7.401176e-001,-1.359579e-005,1.399174e-005
7.409118e-001,-1.359579e-005,1.398738e-005
7.417059e-001,-1.074235e-005,1.398302e-005
7.425000e-001,-1.158160e-005,1.397906e-005
7.432941e-001,-1.023880e-005,1.398391e-005
7.440882e-001,-1.158160e-005,1.398935e-005
7.448824e-001,-1.493858e-005,1.399561e-005
7.456765e-001,-1.762417e-005,1.401660e-005
7.464706e-001,-1.493858e-005,1.404287e-005
7.472647e-001,-1.326009e-005,1.405467e-005
7.480588e-001,-1.560998e-005,1.406493e-005
7.488529e-001,-1.309224e-005,1.408714e-005
7.496471e-001,-1.426719e-005,1.409580e-005
7.504412e-001,-1.393149e-005,1.409127e-005
7.512353e-001,-1.426719e-005,1.408324e-005
7.520294e-001,-1.292439e-005,1.407504e-005
7.528235e-001,-1.292439e-005,1.404329e-005
7.536176e-001,-1.393149e-005,1.401848e-005
7.544118e-001,-1.628138e-005,1.400456e-005
7.552059e-001,-1.560998e-005,1.399664e-005
7.560000e-001,-1.091020e-005,1.400066e-005
7.567941e-001,-9.903105e-006,1.398766e-005
7.575882e-001,-1.023880e-005,1.397777e-005
7.583824e-001,-1.158160e-005,1.397069e-005
7.591765e-001,-1.225299e-005,1.396491e-005
7.599706e-001,-8.896010e-006,1.396673e-005
7.607647e-001,-7.217518e-006,1.395863e-005
7.615588e-001,-1.158160e-005,1.393910e-005
7.623529e-001,-1.426719e-005,1.393331e-005
7.631471e-001,-1.443504e-005,1.393545e-005
7.639412e-001,-1.661708e-005,1.393600e-005
7.647353e-001,-1.728847e-005,1.393971e-005
7.655294e-001,-1.510643e-005,1.395059e-005
7.663235e-001,-1.560998e-005,1.395950e-005
7.671176e-001,-1.158160e-005,1.397533e-005
7.679118e-001,-1.292439e-005,1.397705e-005
7.687059e-001,-1.309224e-005,1.396268e-005
7.695000e-001,-1.292439e-005,1.393670e-005
7.702941e-001,-1.829557e-005,1.391753e-005
7.710882e-001,-2.030976e-005,1.392295e-005
7.718824e-001,-1.493858e-005,1.392898e-005
7.726765e-001,-1.158160e-005,1.390086e-005
7.734706e-001,-1.426719e-005,1.386494e-005
7.742647e-001,-1.560998e-005,1.385264e-005
7.750588e-001,-1.292439e-005,1.385500e-005
7.758529e-001,-1.258869e-005,1.385878e-005
7.766471e-001,-1.158160e-005,1.385878e-005
7.774412e-001,-1.493858e-005,1.386215e-005
7.782353e-001,-9.567407e-006,1.387868e-005
7.790294e-001,-8.896010e-006,1.387196e-005
7.798235e-001,-1.225299e-005,1.385982e-005
7.806176e-001,-7.553216e-006,1.385886e-005
7.814118e-001,-1.023880e-005,1.383976e-005
7.822059e-001,-1.292439e-005,1.383055e-005
7.830000e-001,-1.560998e-005,1.384199e-005
7.837941e-001,-1.963836e-005,1.386223e-005
7.845882e-001,-1.628138e-005,1.389597e-005
7.853824e-001,-1.460288e-005,1.390914e-005
7.861765e-001,-1.292439e-005,1.391133e-005
7.869706e-001,-1.493858e-005,1.389489e-005
7.877647e-001,-1.426719e-005,1.387923e-005
7.885588e-001,-1.124590e-005,1.387462e-005
7.893529e-001,-1.057450e-005,1.386352e-005
7.901471e-001,-1.023880e-005,1.385816e-005
7.909412e-001,-1.326009e-005,1.385653e-005
7.917353e-001,-1.460288e-005,1.385704e-005
7.925294e-001,-1.225299e-005,1.386030e-005
7.933235e-001,-1.594568e-005,1.385631e-005
7.941176e-001,-1.628138e-005,1.387011e-005
7.949118e-001,-1.560998e-005,1.388423e-005
7.957059e-001,-1.292439e-005,1.388772e-005
7.965000e-001,-1.560998e-005,1.388128e-005
7.972941e-001,-1.493858e-005,1.387756e-005
7.980882e-001,-1.795987e-005,1.387756e-005
7.988824e-001,-1.762417e-005,1.389916e-005
7.996765e-001,-1.527428e-005,1.392496e-005
8.004706e-001,-1.628138e-005,1.394188e-005
8.012647e-001,-1.426719e-005,1.396241e-005
8.020588e-001,-1.292439e-005,1.397205e-005
8.028529e-001,-1.292439e-005,1.398273e-005
8.036471e-001,-1.460288e-005,1.398273e-005
8.044412e-001,-1.426719e-005,1.399345e-005
8.052353e-001,-1.460288e-005,1.399558e-005
8.060294e-001,-1.762417e-005,1.399669e-005
8.068235e-001,-1.695277e-005,1.400663e-005
8.076176e-001,-1.359579e-005,1.400917e-005
8.084118e-001,-1.292439e-005,1.400188e-005
8.092059e-001,-1.258869e-005,1.398947e-005
8.100000e-001,-1.426719e-005,1.398434e-005
8.107941e-001,-1.326009e-005,1.399224e-005
8.115882e-001,-1.091020e-005,1.399421e-005
8.123824e-001,-1.359579e-005,1.398672e-005
8.131765e-001,-1.124590e-005,1.399067e-005
8.139706e-001,-1.158160e-005,1.398403e-005
8.147647e-001,-1.158160e-005,1.398403e-005
8.155588e-001,-1.242084e-005,1.397825e-005
8.163529e-001,-1.158160e-005,1.397372e-005
8.171471e-001,-9.567407e-006,1.396123e-005
8.179412e-001,-1.225299e-005,1.394016e-005
8.187353e-001,-1.661708e-005,1.393181e-005
8.195294e-001,-1.426719e-005,1.394621e-005
8.203235e-001,-1.359579e-005,1.394729e-005
8.211176e-001,-1.225299e-005,1.394729e-005
8.219118e-001,-1.258869e-005,1.394119e-005
8.227059e-001,-1.258869e-005,1.392646e-005
8.235000e-001,-1.393149e-005,1.391671e-005
8.242941e-001,-1.695277e-005,1.392530e-005
8.250882e-001,-1.460288e-005,1.393030e-005
8.258824e-001,-1.460288e-005,1.392682e-005
8.266765e-001,-1.225299e-005,1.393006e-005
8.274706e-001,-9.567407e-006,1.392396e-005
8.282647e-001,-1.158160e-005,1.391222e-005
8.290588e-001,-1.258869e-005,1.390846e-005
8.298529e-001,-8.896010e-006,1.390748e-005
8.306471e-001,-9.567407e-006,1.389322e-005
8.314412e-001,-1.091020e-005,1.388651e-005
8.322353e-001,-8.896010e-006,1.388433e-005
8.330294e-001,-1.091020e-005,1.387005e-005
8.338235e-001,-1.292439e-005,1.386249e-005
8.346176e-001,-1.359579e-005,1.386801e-005
8.354118e-001,-1.393149e-005,1.387427e-005
8.362059e-001,-1.628138e-005,1.388411e-005
8.370000e-001,-1.695277e-005,1.390085e-005
8.377941e-001,-1.695277e-005,1.390341e-005
8.385882e-001,-1.762417e-005,1.391190e-005
8.393824e-001,-1.376364e-005,1.392133e-005
8.401765e-001,-1.426719e-005,1.390036e-005
8.409706e-001,-1.577783e-005,1.387483e-005
8.417647e-001,-1.695277e-005,1.386775e-005
8.425588e-001,-1.493858e-005,1.385944e-005
8.433529e-001,-1.577783e-005,1.384076e-005
8.441471e-001,-1.829557e-005,1.383088e-005
8.449412e-001,-1.762417e-005,1.383890e-005
8.457353e-001,-1.577783e-005,1.385541e-005
8.465294e-001,-1.292439e-005,1.386860e-005
8.473235e-001,-1.225299e-005,1.388233e-005
8.481176e-001,-1.124590e-005,1.389488e-005
8.489118e-001,-1.124590e-005,1.389736e-005
8.497059e-001,-1.527428e-005,1.389558e-005
8.505000e-001,-1.510643e-005,1.390694e-005
8.512941e-001,-1.258869e-005,1.392330e-005
8.520882e-001,-1.225299e-005,1.393095e-005
8.528824e-001,-1.359579e-005,1.393451e-005
8.536765e-001,-9.735256e-006,1.393451e-005
8.544706e-001,-8.392462e-006,1.392421e-005
8.552647e-001,-1.023880e-005,1.390439e-005
8.560588e-001,-1.309224e-005,1.387661e-005
8.568529e-001,-1.124590e-005,1.387067e-005
8.576471e-001,-8.560311e-006,1.386291e-005
8.584412e-001,-8.896010e-006,1.385592e-005
8.592353e-001,-1.023880e-005,1.384679e-005
8.600294e-001,-1.292439e-005,1.384599e-005
8.608235e-001,-1.191730e-005,1.385314e-005
8.616176e-001,-1.158160e-005,1.385742e-005
8.624118e-001,-1.527428e-005,1.385558e-005
8.632059e-001,-1.997406e-005,1.386319e-005
8.640000e-001,-1.896696e-005,1.389174e-005
8.647941e-001,-1.628138e-005,1.391528e-005
8.655882e-001,-1.560998e-005,1.392445e-005
8.663824e-001,-1.493858e-005,1.392680e-005
8.671765e-001,-1.393149e-005,1.393419e-005
8.679706e-001,-1.527428e-005,1.394439e-005
8.687647e-001,-1.695277e-005,1.395866e-005
8.695588e-001,-2.030976e-005,1.396822e-005
8.703529e-001,-1.762417e-005,1.398501e-005
8.711471e-001,-1.359579e-005,1.399609e-005
8.719412e-001,-1.359579e-005,1.399396e-005
8.727353e-001,-1.560998e-005,1.398960e-005
8.735294e-001,-1.846342e-005,1.400025e-005
8.743235e-001,-1.795987e-005,1.402461e-005
8.751176e-001,-1.527428e-005,1.404418e-005
8.759118e-001,-1.762417e-005,1.405629e-005
8.767059e-001,-1.695277e-005,1.407053e-005
8.775000e-001,-1.628138e-005,1.408315e-005
8.782941e-001,-1.795987e-005,1.408497e-005
8.790882e-001,-9.903105e-006,1.409389e-005
8.798824e-001,-7.553216e-006,1.407743e-005
8.806765e-001,-1.091020e-005,1.405388e-005
8.814706e-001,-1.359579e-005,1.402059e-005
8.822647e-001,-1.225299e-005,1.399625e-005
8.830588e-001,-9.903105e-006,1.397798e-005
8.838529e-001,-9.567407e-006,1.396017e-005
8.846471e-001,-1.225299e-005,1.393380e-005
8.854412e-001,-9.567407e-006,1.391269e-005
8.862353e-001,-1.493858e-005,1.388482e-005
8.870294e-001,-1.628138e-005,1.388247e-005
8.878235e-001,-1.124590e-005,1.389115e-005
8.886176e-001,-9.063859e-006,1.388231e-005
8.894118e-001,-9.567407e-006,1.385608e-005
8.902059e-001,-9.903105e-006,1.381431e-005
8.910000e-001,-9.903105e-006,1.376458e-005
8.917941e-001,-1.292439e-005,1.373427e-005
8.925882e-001,-1.225299e-005,1.373623e-005
8.933824e-001,-9.567407e-006,1.373004e-005
8.941765e-001,-9.567407e-006,1.371921e-005
8.949706e-001,-1.292439e-005,1.371335e-005
8.957647e-001,-1.359579e-005,1.372355e-005
8.965588e-001,-1.577783e-005,1.373714e-005
8.973529e-001,-1.628138e-005,1.375877e-005
8.981471e-001,-1.393149e-005,1.377392e-005
8.989412e-001,-1.510643e-005,1.378423e-005
8.997353e-001,-1.896696e-005,1.380001e-005
9.005294e-001,-1.661708e-005,1.382370e-005
9.013235e-001,-1.225299e-005,1.382744e-005
9.021176e-001,-9.231709e-006,1.382549e-005
9.029118e-001,-1.023880e-005,1.382160e-005
9.037059e-001,-1.023880e-005,1.382275e-005
9.045000e-001,-1.326009e-005,1.381508e-005
9.052941e-001,-1.426719e-005,1.381898e-005
9.060882e-001,-1.577783e-005,1.382872e-005
9.068824e-001,-1.560998e-005,1.384450e-005
9.076765e-001,-1.292439e-005,1.385525e-005
9.084706e-001,-1.326009e-005,1.383874e-005
9.092647e-001,-1.292439e-005,1.383212e-005
9.100588e-001,-1.091020e-005,1.383765e-005
9.108529e-001,-1.242084e-005,1.384356e-005
9.116471e-001,-1.896696e-005,1.384404e-005
9.124412e-001,-1.896696e-005,1.386813e-005
9.132353e-001,-1.560998e-005,1.390224e-005
9.140294e-001,-1.762417e-005,1.391479e-005
9.148235e-001,-1.695277e-005,1.392123e-005
9.156176e-001,-1.359579e-005,1.393190e-005
9.164118e-001,-1.493858e-005,1.393587e-005
9.172059e-001,-1.628138e-005,1.394326e-005
9.180000e-001,-1.393149e-005,1.394804e-005
9.187941e-001,-1.242084e-005,1.394238e-005
9.195882e-001,-1.023880e-005,1.393217e-005
9.203824e-001,-1.359579e-005,1.391384e-005
9.211765e-001,-1.443504e-005,1.390589e-005
9.219706e-001,-1.460288e-005,1.389940e-005
9.227647e-001,-1.560998e-005,1.388958e-005
9.235588e-001,-1.628138e-005,1.388054e-005
9.243529e-001,-1.829557e-005,1.388648e-005
9.251471e-001,-1.695277e-005,1.389811e-005
9.259412e-001,-1.393149e-005,1.389811e-005
9.267353e-001,-1.493858e-005,1.389591e-005
9.275294e-001,-1.393149e-005,1.389356e-005
9.283235e-001,-1.594568e-005,1.389356e-005
9.291176e-001,-1.527428e-005,1.389826e-005
9.299118e-001,-1.376364e-005,1.391450e-005
9.307059e-001,-1.258869e-005,1.393020e-005
9.315000e-001,-1.091020e-005,1.393785e-005
9.322941e-001,-9.903105e-006,1.393568e-005
9.330882e-001,-9.567407e-006,1.392780e-005
9.338824e-001,-9.567407e-006,1.391099e-005
9.346765e-001,-6.881819e-006,1.389475e-005
9.354706e-001,-7.217518e-006,1.387684e-005
9.362647e-001,-1.124590e-005,1.385111e-005
9.370588e-001,-1.426719e-005,1.383703e-005
9.378529e-001,-1.158160e-005,1.384456e-005
9.386471e-001,-1.091020e-005,1.384272e-005
9.394412e-001,-1.225299e-005,1.383867e-005
9.402353e-001,-1.426719e-005,1.384006e-005
9.410294e-001,-1.393149e-005,1.384006e-005
9.418235e-001,-1.426719e-005,1.384511e-005
9.426176e-001,-1.225299e-005,1.385125e-005
9.434118e-001,-1.359579e-005,1.384511e-005
9.442059e-001,-1.628138e-005,1.384296e-005
9.450000e-001,-1.493858e-005,1.384169e-005
9.457941e-001,-1.560998e-005,1.383687e-005
9.465882e-001,-1.695277e-005,1.383440e-005
9.473824e-001,-1.292439e-005,1.383943e-005
9.481765e-001,-1.359579e-005,1.384138e-005
9.489706e-001,-1.762417e-005,1.383923e-005
9.497647e-001,-1.628138e-005,1.384571e-005
9.505588e-001,-1.628138e-005,1.384571e-005
9.513529e-001,-1.795987e-005,1.385053e-005
9.521471e-001,-1.560998e-005,1.386790e-005
9.529412e-001,-1.560998e-005,1.387465e-005
9.537353e-001,-1.510643e-005,1.388140e-005
9.545294e-001,-1.225299e-005,1.389474e-005
9.553235e-001,-1.393149e-005,1.389831e-005
9.561176e-001,-1.292439e-005,1.389722e-005
9.569118e-001,-1.124590e-005,1.388277e-005
9.577059e-001,-1.426719e-005,1.386686e-005
9.585000e-001,-1.560998e-005,1.387105e-005
9.592941e-001,-1.309224e-005,1.388178e-005
9.600882e-001,-9.903105e-006,1.388375e-005
9.608824e-001,-8.560311e-006,1.387778e-005
9.616765e-001,-9.063859e-006,1.387253e-005
9.624706e-001,-1.023880e-005,1.386744e-005
9.632647e-001,-1.023880e-005,1.386744e-005
9.640588e-001,-1.242084e-005,1.385825e-005
9.648529e-001,-1.158160e-005,1.384027e-005
9.656471e-001,-1.158160e-005,1.381995e-005
9.664412e-001,-1.443504e-005,1.380852e-005
9.672353e-001,-1.661708e-005,1.381329e-005
9.680294e-001,-1.460288e-005,1.382586e-005
9.688235e-001,-1.091020e-005,1.382913e-005
9.696176e-001,-1.275654e-005,1.382155e-005
9.704118e-001,-1.242084e-005,1.382300e-005
9.712059e-001,-1.258869e-005,1.381448e-005
9.720000e-001,-1.359579e-005,1.380218e-005
9.727941e-001,-1.292439e-005,1.380619e-005
9.735882e-001,-1.426719e-005,1.380517e-005
9.743824e-001,-1.225299e-005,1.380626e-005
9.751765e-001,-1.158160e-005,1.379547e-005
9.759706e-001,-9.567407e-006,1.378962e-005
9.767647e-001,-1.091020e-005,1.377556e-005
9.775588e-001,-1.292439e-005,1.376688e-005
9.783529e-001,-1.762417e-005,1.376688e-005
9.791471e-001,-1.846342e-005,1.378727e-005
9.799412e-001,-1.426719e-005,1.382190e-005
9.807353e-001,-1.393149e-005,1.384137e-005
9.815294e-001,-1.225299e-005,1.384826e-005
9.823235e-001,-1.191730e-005,1.383377e-005
9.831176e-001,-1.359579e-005,1.381959e-005
9.839118e-001,-1.426719e-005,1.381281e-005
9.847059e-001,-1.292439e-005,1.380572e-005
9.855000e-001,-1.443504e-005,1.379441e-005
9.862941e-001,-1.628138e-005,1.379270e-005
9.870882e-001,-1.896696e-005,1.379270e-005
9.878824e-001,-1.829557e-005,1.381688e-005
9.886765e-001,-1.191730e-005,1.383952e-005
9.894706e-001,-9.567407e-006,1.383460e-005
9.902647e-001,-1.091020e-005,1.382385e-005
9.910588e-001,-1.359579e-005,1.381627e-005
9.918529e-001,-1.493858e-005,1.382427e-005
9.926471e-001,-1.225299e-005,1.383452e-005
9.934412e-001,-1.695277e-005,1.383974e-005
9.942353e-001,-1.980621e-005,1.385736e-005
9.950294e-001,-1.560998e-005,1.387678e-005
9.958235e-001,-1.225299e-005,1.386910e-005
9.966176e-001,-1.158160e-005,1.386071e-005
9.974118e-001,-1.628138e-005,1.385592e-005
9.982059e-001,-1.661708e-005,1.385838e-005
9.990000e-001,-1.527428e-005,1.387041e-005
9.997941e-001,-1.527428e-005,1.387382e-005
1.000588e+000,-1.426719e-005,1.387832e-005
1.001382e+000,-1.124590e-005,1.387832e-005
1.002176e+000,-1.174945e-005,1.387367e-005
1.002971e+000,-1.158160e-005,1.387034e-005
1.003765e+000,-1.023880e-005,1.386345e-005
1.004559e+000,-1.493858e-005,1.384503e-005
1.005353e+000,-1.493858e-005,1.384267e-005
1.006147e+000,-1.560998e-005,1.385465e-005
1.006941e+000,-1.326009e-005,1.387137e-005
1.007735e+000,-1.091020e-005,1.387952e-005
1.008529e+000,-1.191730e-005,1.387779e-005
1.009324e+000,-1.560998e-005,1.387686e-005
1.010118e+000,-1.695277e-005,1.389572e-005
1.010912e+000,-1.762417e-005,1.392266e-005
1.011706e+000,-1.628138e-005,1.394283e-005
1.012500e+000,-1.258869e-005,1.394986e-005
1.013294e+000,-1.124590e-005,1.394416e-005
1.014088e+000,-1.460288e-005,1.392706e-005
1.014882e+000,-1.426719e-005,1.391726e-005
1.015676e+000,-1.091020e-005,1.391444e-005
1.016471e+000,-1.191730e-005,1.390017e-005
1.017265e+000,-1.426719e-005,1.390108e-005
1.018059e+000,-1.225299e-005,1.390526e-005
1.018853e+000,-1.258869e-005,1.390282e-005
1.019647e+000,-1.225299e-005,1.390184e-005
1.020441e+000,-1.023880e-005,1.388068e-005
1.021235e+000,-1.091020e-005,1.384534e-005
1.022029e+000,-9.735256e-006,1.383336e-005
1.022824e+000,-9.567407e-006,1.382883e-005
1.023618e+000,-8.224612e-006,1.381593e-005
1.024412e+000,-8.896010e-006,1.379562e-005
1.025206e+000,-1.023880e-005,1.378547e-005
1.026000e+000,-8.560311e-006,1.377928e-005
1.026794e+000,-1.560998e-005,1.377224e-005
1.027588e+000,-1.628138e-005,1.377461e-005
1.028382e+000,-1.493858e-005,1.379466e-005
1.029176e+000,-1.460288e-005,1.381128e-005
1.029971e+000,-1.359579e-005,1.381855e-005
1.030765e+000,-1.628138e-005,1.383327e-005
1.031559e+000,-1.980621e-005,1.385170e-005
1.032353e+000,-1.829557e-005,1.387757e-005
1.033147e+000,-1.829557e-005,1.388802e-005
1.033941e+000,-1.963836e-005,1.388217e-005
1.034735e+000,-1.493858e-005,1.389600e-005
1.035529e+000,-9.567407e-006,1.389713e-005
1.036324e+000,-1.225299e-005,1.388848e-005
1.037118e+000,-1.376364e-005,1.388011e-005
1.037912e+000,-1.426719e-005,1.387849e-005
1.038706e+000,-1.359579e-005,1.388733e-005
1.039500e+000,-1.258869e-005,1.389570e-005
1.040294e+000,-1.460288e-005,1.390184e-005
1.041088e+000,-1.695277e-005,1.390613e-005
1.041882e+000,-1.661708e-005,1.391462e-005
1.042676e+000,-1.225299e-005,1.392903e-005
1.043471e+000,-1.057450e-005,1.391712e-005
1.044265e+000,-1.359579e-005,1.389957e-005
1.045059e+000,-1.158160e-005,1.389283e-005
1.045853e+000,-1.023880e-005,1.388906e-005
1.046647e+000,-1.258869e-005,1.387313e-005
1.047441e+000,-1.158160e-005,1.386571e-005
1.048235e+000,-1.309224e-005,1.384405e-005
1.049029e+000,-1.628138e-005,1.382803e-005
1.049824e+000,-1.628138e-005,1.383169e-005
1.050618e+000,-1.863127e-005,1.383169e-005
1.051412e+000,-1.829557e-005,1.384821e-005
1.052206e+000,-1.661708e-005,1.386748e-005
1.053000e+000,-1.863127e-005,1.388000e-005
1.053794e+000,-1.628138e-005,1.389535e-005
1.054588e+000,-1.091020e-005,1.390240e-005
1.055382e+000,-1.292439e-005,1.389160e-005
1.056176e+000,-1.225299e-005,1.387514e-005
1.056971e+000,-1.091020e-005,1.385937e-005
1.057765e+000,-1.258869e-005,1.385181e-005
1.058559e+000,-1.426719e-005,1.385083e-005
1.059353e+000,-1.493858e-005,1.385601e-005
1.060147e+000,-1.258869e-005,1.385826e-005
1.060941e+000,-9.567407e-006,1.385627e-005
1.061735e+000,-9.567407e-006,1.385311e-005
1.062529e+000,-9.231709e-006,1.384238e-005
1.063324e+000,-8.224612e-006,1.383763e-005
1.064118e+000,-7.888914e-006,1.382998e-005
1.064912e+000,-1.057450e-005,1.382170e-005
1.065706e+000,-1.393149e-005,1.381680e-005
1.066500e+000,-1.091020e-005,1.382371e-005
1.067294e+000,-9.903105e-006,1.382688e-005
1.068088e+000,-1.158160e-005,1.382088e-005
1.068882e+000,-1.309224e-005,1.380451e-005
1.069676e+000,-1.493858e-005,1.380081e-005
1.070471e+000,-1.963836e-005,1.380523e-005
1.071265e+000,-1.997406e-005,1.383237e-005
1.072059e+000,-2.232395e-005,1.386002e-005
1.072853e+000,-1.795987e-005,1.389902e-005
1.073647e+000,-1.493858e-005,1.391373e-005
1.074441e+000,-1.510643e-005,1.390637e-005
1.075235e+000,-1.762417e-005,1.390809e-005
1.076029e+000,-1.695277e-005,1.391923e-005
1.076824e+000,-1.762417e-005,1.393492e-005
1.077618e+000,-1.695277e-005,1.395994e-005
1.078412e+000,-1.560998e-005,1.397741e-005
1.079206e+000,-1.695277e-005,1.398711e-005
1.080000e+000,-2.030976e-005,1.401080e-005
1.080794e+000,-1.913481e-005,1.404723e-005
1.081588e+000,-1.493858e-005,1.407521e-005
1.082382e+000,-1.527428e-005,1.409149e-005
1.083176e+000,-1.091020e-005,1.410440e-005
1.083971e+000,-9.735256e-006,1.409898e-005
1.084765e+000,-1.628138e-005,1.408880e-005
1.085559e+000,-1.795987e-005,1.409683e-005
1.086353e+000,-1.292439e-005,1.410332e-005
1.087147e+000,-9.903105e-006,1.408972e-005
1.087941e+000,-4.531929e-006,1.406831e-005
1.088735e+000,-4.867628e-006,1.403544e-005
1.089529e+000,-3.524834e-006,1.401662e-005
1.090324e+000,-2.517739e-006,1.399489e-005
1.091118e+000,-4.531929e-006,1.396726e-005
1.091912e+000,-1.091020e-005,1.393680e-005
1.092706e+000,-9.567407e-006,1.392490e-005
1.093500e+000,-7.553216e-006,1.390689e-005
1.094294e+000,-1.326009e-005,1.387506e-005
1.095088e+000,-9.903105e-006,1.385958e-005
1.095882e+000,-7.888914e-006,1.384224e-005
1.096676e+000,-7.553216e-006,1.383018e-005
1.097471e+000,-8.392462e-006,1.381945e-005
1.098265e+000,-1.225299e-005,1.381300e-005
1.099059e+000,-1.510643e-005,1.381572e-005
1.099853e+000,-1.493858e-005,1.381514e-005
1.100647e+000,-1.426719e-005,1.381455e-005
1.101441e+000,-1.628138e-005,1.381975e-005
1.102235e+000,-2.165255e-005,1.383299e-005
1.103029e+000,-2.500954e-005,1.386564e-005
1.103824e+000,-2.601663e-005,1.392645e-005
1.104618e+000,-2.433814e-005,1.399562e-005
1.105412e+000,-1.728847e-005,1.405098e-005
1.106206e+000,-1.560998e-005,1.406542e-005
1.107000e+000,-2.064546e-005,1.407868e-005
1.107794e+000,-1.728847e-005,1.411855e-005
1.108588e+000,-1.292439e-005,1.414331e-005
1.109382e+000,-1.628138e-005,1.415031e-005
1.110176e+000,-1.359579e-005,1.416134e-005
1.110971e+000,-1.158160e-005,1.416615e-005
1.111765e+000,-1.292439e-005,1.416615e-005
1.112559e+000,-1.326009e-005,1.415870e-005
1.113353e+000,-1.225299e-005,1.413359e-005
1.114147e+000,-1.258869e-005,1.410995e-005
1.114941e+000,-1.023880e-005,1.409791e-005
1.115735e+000,-6.210422e-006,1.408222e-005
1.116529e+000,-3.692683e-006,1.406133e-005
1.117324e+000,-6.881819e-006,1.404089e-005
1.118118e+000,-1.258869e-005,1.401978e-005
1.118912e+000,-1.963836e-005,1.400513e-005
1.119706e+000,-1.728847e-005,1.400208e-005
1.120500e+000,-1.493858e-005,1.400075e-005
1.121294e+000,-1.628138e-005,1.400510e-005
1.122088e+000,-2.165255e-005,1.401422e-005
1.122882e+000,-1.997406e-005,1.403978e-005
1.123676e+000,-1.560998e-005,1.404637e-005
1.124471e+000,-1.225299e-005,1.403742e-005
1.125265e+000,-1.158160e-005,1.402798e-005
1.126059e+000,-9.735256e-006,1.400794e-005
1.126853e+000,-9.567407e-006,1.398602e-005
1.127647e+000,-1.359579e-005,1.396625e-005
1.128441e+000,-1.292439e-005,1.395054e-005
1.129235e+000,-1.292439e-005,1.395841e-005
1.130029e+000,-1.225299e-005,1.397095e-005
1.130824e+000,-1.292439e-005,1.397450e-005
1.131618e+000,-1.695277e-005,1.397247e-005
1.132412e+000,-1.695277e-005,1.398810e-005
1.133206e+000,-1.242084e-005,1.400964e-005
1.134000e+000,-1.225299e-005,1.401677e-005
1.134794e+000,-1.393149e-005,1.401677e-005
1.135588e+000,-1.493858e-005,1.402841e-005
1.136382e+000,-9.063859e-006,1.402841e-005
1.137176e+000,-2.853437e-006,1.400763e-005
1.137971e+000,-4.531929e-006,1.399417e-005
1.138765e+000,-4.196231e-006,1.398716e-005
1.139559e+000,-2.853437e-006,1.397874e-005
1.140353e+000,-9.903105e-006,1.396850e-005
1.141147e+000,-1.628138e-005,1.396850e-005
1.141941e+000,-1.527428e-005,1.397967e-005
1.142735e+000,-1.762417e-005,1.398914e-005
1.143529e+000,-1.829557e-005,1.401405e-005
1.144324e+000,-1.997406e-005,1.404166e-005
1.145118e+000,-2.047761e-005,1.406793e-005
1.145912e+000,-2.064546e-005,1.409445e-005
1.146706e+000,-1.695277e-005,1.411447e-005
1.147500e+000,-1.628138e-005,1.411698e-005
1.148294e+000,-1.124590e-005,1.412499e-005
1.149088e+000,-6.881819e-006,1.411352e-005
1.149882e+000,-6.881819e-006,1.407823e-005
1.150676e+000,-1.091020e-005,1.405233e-005
1.151471e+000,-1.225299e-005,1.404880e-005
1.152265e+000,-5.706874e-006,1.405616e-005
1.153059e+000,-8.896010e-006,1.404797e-005
1.153853e+000,-1.292439e-005,1.404506e-005
1.154647e+000,-1.560998e-005,1.404406e-005
1.155441e+000,-1.493858e-005,1.404861e-005
1.156235e+000,-1.460288e-005,1.404569e-005
1.157029e+000,-1.762417e-005,1.404224e-005
1.157824e+000,-1.728847e-005,1.405851e-005
1.158618e+000,-1.628138e-005,1.407244e-005
1.159412e+000,-1.947051e-005,1.408353e-005
1.160206e+000,-1.695277e-005,1.411290e-005
1.161000e+000,-1.460288e-005,1.412791e-005
1.161794e+000,-1.493858e-005,1.411139e-005
1.162588e+000,-1.292439e-005,1.409597e-005
1.163382e+000,-1.292439e-005,1.408731e-005
1.164176e+000,-1.594568e-005,1.407107e-005
1.164971e+000,-1.695277e-005,1.406732e-005
1.165765e+000,-1.258869e-005,1.407893e-005
1.166559e+000,-1.040665e-005,1.407161e-005
1.167353e+000,-1.158160e-005,1.405386e-005
1.168147e+000,-1.544213e-005,1.404706e-005
1.168941e+000,-1.393149e-005,1.405660e-005
1.169735e+000,-1.158160e-005,1.406671e-005
1.170529e+000,-1.158160e-005,1.406097e-005
1.171324e+000,-1.292439e-005,1.405256e-005
1.172118e+000,-1.191730e-005,1.404732e-005
1.172912e+000,-1.158160e-005,1.403579e-005
1.173706e+000,-1.091020e-005,1.402093e-005
1.174500e+000,-1.124590e-005,1.399641e-005
1.175294e+000,-1.292439e-005,1.397809e-005
1.176088e+000,-1.560998e-005,1.397501e-005
1.176882e+000,-1.560998e-005,1.397735e-005
1.177676e+000,-1.997406e-005,1.398299e-005
1.178471e+000,-2.165255e-005,1.399946e-005
1.179265e+000,-1.795987e-005,1.402623e-005
1.180059e+000,-1.695277e-005,1.404133e-005
1.180853e+000,-1.628138e-005,1.405594e-005
1.181647e+000,-1.359579e-005,1.407248e-005
1.182441e+000,-1.628138e-005,1.408229e-005
1.183235e+000,-1.661708e-005,1.410191e-005
1.184029e+000,-2.098116e-005,1.412273e-005
1.184824e+000,-1.628138e-005,1.416696e-005
1.185618e+000,-1.292439e-005,1.419088e-005
1.186412e+000,-1.359579e-005,1.419543e-005
1.187206e+000,-1.158160e-005,1.419333e-005
1.188000e+000,-1.191730e-005,1.419333e-005
1.188794e+000,-1.493858e-005,1.419591e-005
1.189588e+000,-1.258869e-005,1.420410e-005
1.190382e+000,-9.567407e-006,1.419904e-005
1.191176e+000,-1.057450e-005,1.418754e-005
1.191971e+000,-8.896010e-006,1.417724e-005
1.192765e+000,-1.124590e-005,1.416926e-005
1.193559e+000,-1.359579e-005,1.416270e-005
1.194353e+000,-1.292439e-005,1.415368e-005
1.195147e+000,-1.292439e-005,1.414736e-005
1.195941e+000,-1.460288e-005,1.413873e-005
1.196735e+000,-1.628138e-005,1.413038e-005
1.197529e+000,-1.762417e-005,1.414142e-005
1.198324e+000,-1.426719e-005,1.415558e-005
1.199118e+000,-1.510643e-005,1.414353e-005
1.199912e+000,-1.359579e-005,1.413938e-005
1.200706e+000,-1.359579e-005,1.413034e-005
1.201500e+000,-1.393149e-005,1.411481e-005
1.202294e+000,-1.057450e-005,1.410922e-005
1.203088e+000,-1.124590e-005,1.409433e-005
1.203882e+000,-1.174945e-005,1.408283e-005
1.204676e+000,-1.292439e-005,1.408146e-005
1.205471e+000,-1.527428e-005,1.407841e-005
1.206265e+000,-1.225299e-005,1.408590e-005
1.207059e+000,-1.158160e-005,1.408857e-005
1.207853e+000,-1.107805e-005,1.408073e-005
1.208647e+000,-9.567407e-006,1.406704e-005
1.209441e+000,-1.225299e-005,1.405800e-005
1.210235e+000,-1.678492e-005,1.406389e-005
1.211029e+000,-1.359579e-005,1.408748e-005
1.211824e+000,-1.225299e-005,1.409908e-005
1.212618e+000,-9.567407e-006,1.410419e-005
1.213412e+000,-1.091020e-005,1.410269e-005
1.214206e+000,-1.091020e-005,1.409871e-005
1.215000e+000,-8.896010e-006,1.409701e-005
1.215794e+000,-1.057450e-005,1.409079e-005
1.216588e+000,-1.091020e-005,1.407988e-005
1.217382e+000,-1.158160e-005,1.406210e-005
1.218176e+000,-1.661708e-005,1.405314e-005
1.218971e+000,-1.292439e-005,1.407093e-005
1.219765e+000,-1.359579e-005,1.407142e-005
1.220559e+000,-1.493858e-005,1.407488e-005
1.221353e+000,-1.527428e-005,1.408219e-005
1.222147e+000,-1.359579e-005,1.408767e-005
1.222941e+000,-1.326009e-005,1.408968e-005
1.223735e+000,-1.460288e-005,1.408655e-005
1.224529e+000,-1.460288e-005,1.409368e-005
1.225324e+000,-1.644922e-005,1.410262e-005
1.226118e+000,-1.409934e-005,1.412282e-005
1.226912e+000,-1.225299e-005,1.413181e-005
1.227706e+000,-1.359579e-005,1.412990e-005
1.228500e+000,-1.426719e-005,1.411572e-005
1.229294e+000,-1.326009e-005,1.410022e-005
1.230088e+000,-1.023880e-005,1.409709e-005
1.230882e+000,-9.903105e-006,1.408700e-005
1.231676e+000,-1.091020e-005,1.408112e-005
1.232471e+000,-1.560998e-005,1.407852e-005
1.233265e+000,-2.081331e-005,1.408517e-005
1.234059e+000,-1.896696e-005,1.411111e-005
1.234853e+000,-1.829557e-005,1.413284e-005
1.235647e+000,-1.728847e-005,1.414707e-005
1.236441e+000,-1.359579e-005,1.415087e-005
1.237235e+000,-1.628138e-005,1.413118e-005
1.238029e+000,-1.829557e-005,1.412333e-005
1.238824e+000,-1.493858e-005,1.414504e-005
1.239618e+000,-1.493858e-005,1.415985e-005
1.240412e+000,-1.560998e-005,1.417155e-005
1.241206e+000,-1.158160e-005,1.417816e-005
1.242000e+000,-1.292439e-005,1.416816e-005
1.242794e+000,-1.091020e-005,1.417006e-005
1.243588e+000,-1.124590e-005,1.415112e-005
1.244382e+000,-1.107805e-005,1.412118e-005
1.245176e+000,-1.023880e-005,1.410754e-005
1.245971e+000,-1.091020e-005,1.410242e-005
1.246765e+000,-9.063859e-006,1.410072e-005
1.247559e+000,-8.224612e-006,1.408004e-005
1.248353e+000,-8.896010e-006,1.405645e-005
1.249147e+000,-1.292439e-005,1.403897e-005
1.249941e+000,-1.493858e-005,1.403145e-005
1.250735e+000,-1.326009e-005,1.403368e-005
1.251529e+000,-1.460288e-005,1.403928e-005
1.252324e+000,-1.359579e-005,1.404781e-005
1.253118e+000,-1.023880e-005,1.405355e-005
1.253912e+000,-1.091020e-005,1.405355e-005
1.254706e+000,-1.762417e-005,1.404175e-005
1.255500e+000,-2.232395e-005,1.405166e-005
1.256294e+000,-1.728847e-005,1.408050e-005
1.257088e+000,-1.560998e-005,1.409440e-005
1.257882e+000,-1.426719e-005,1.410848e-005
1.258676e+000,-1.393149e-005,1.411542e-005
1.259471e+000,-1.124590e-005,1.410983e-005
1.260265e+000,-1.695277e-005,1.409165e-005
1.261059e+000,-2.064546e-005,1.408903e-005
1.261853e+000,-2.165255e-005,1.410723e-005
1.262647e+000,-2.299535e-005,1.414222e-005
1.263441e+000,-1.963836e-005,1.418745e-005
1.264235e+000,-1.628138e-005,1.420679e-005
1.265029e+000,-1.527428e-005,1.421368e-005
1.265824e+000,-1.695277e-005,1.422648e-005
1.266618e+000,-1.493858e-005,1.424274e-005
1.267412e+000,-1.292439e-005,1.424493e-005
1.268206e+000,-9.231709e-006,1.424682e-005
1.269000e+000,-8.224612e-006,1.423863e-005
1.269794e+000,-8.560311e-006,1.422940e-005
1.270588e+000,-8.896010e-006,1.422587e-005
1.271382e+000,-1.057450e-005,1.422141e-005
1.272176e+000,-9.567407e-006,1.422331e-005
1.272971e+000,-1.091020e-005,1.422331e-005
1.273765e+000,-1.091020e-005,1.422907e-005
1.274559e+000,-1.107805e-005,1.423353e-005
1.275353e+000,-9.567407e-006,1.423553e-005
1.276147e+000,-1.023880e-005,1.423757e-005
1.276941e+000,-1.158160e-005,1.422204e-005
1.277735e+000,-1.292439e-005,1.420737e-005
1.278529e+000,-1.426719e-005,1.420108e-005
1.279324e+000,-1.359579e-005,1.419999e-005
1.280118e+000,-1.426719e-005,1.419999e-005
1.280912e+000,-1.628138e-005,1.419309e-005
1.281706e+000,-1.695277e-005,1.417881e-005
1.282500e+000,-1.896696e-005,1.417349e-005
1.283294e+000,-1.628138e-005,1.417630e-005
1.284088e+000,-1.493858e-005,1.416275e-005
1.284882e+000,-1.359579e-005,1.416275e-005
1.285676e+000,-1.460288e-005,1.417324e-005
1.286471e+000,-1.460288e-005,1.418033e-005
1.287265e+000,-1.225299e-005,1.418300e-005
1.288059e+000,-8.896010e-006,1.417700e-005
1.288853e+000,-1.023880e-005,1.416513e-005
1.289647e+000,-1.191730e-005,1.415909e-005
1.290441e+000,-1.426719e-005,1.415108e-005
1.291235e+000,-1.292439e-005,1.414164e-005
1.292029e+000,-1.091020e-005,1.412936e-005
1.292824e+000,-6.881819e-006,1.412585e-005
1.293618e+000,-5.203327e-006,1.411858e-005
1.294412e+000,-8.896010e-006,1.410078e-005
1.295206e+000,-1.091020e-005,1.409456e-005
1.296000e+000,-1.158160e-005,1.409617e-005
1.296794e+000,-1.292439e-005,1.409342e-005
1.297588e+000,-1.359579e-005,1.409713e-005
1.298382e+000,-1.829557e-005,1.409865e-005
1.299176e+000,-1.695277e-005,1.410652e-005
1.299971e+000,-1.728847e-005,1.410903e-005
1.300765e+000,-2.064546e-005,1.410359e-005
1.301559e+000,-2.030976e-005,1.411392e-005
1.302353e+000,-1.191730e-005,1.412929e-005
1.303147e+000,-1.158160e-005,1.410616e-005
1.303941e+000,-1.426719e-005,1.409137e-005
1.304735e+000,-1.326009e-005,1.410092e-005
1.305529e+000,-1.023880e-005,1.410191e-005
1.306324e+000,-8.224612e-006,1.409679e-005
1.307118e+000,-1.040665e-005,1.409099e-005
1.307912e+000,-1.359579e-005,1.408532e-005
1.308706e+000,-1.225299e-005,1.408320e-005
1.309500e+000,-1.426719e-005,1.407494e-005
1.310294e+000,-1.762417e-005,1.408004e-005
1.311088e+000,-1.628138e-005,1.410479e-005
1.311882e+000,-1.426719e-005,1.412437e-005
1.312676e+000,-1.359579e-005,1.413771e-005
1.313471e+000,-1.292439e-005,1.415090e-005
1.314265e+000,-1.695277e-005,1.416269e-005
1.315059e+000,-1.712062e-005,1.418242e-005
1.315853e+000,-1.359579e-005,1.419353e-005
1.316647e+000,-1.124590e-005,1.420091e-005
1.317441e+000,-1.460288e-005,1.420410e-005
1.318235e+000,-1.628138e-005,1.421296e-005
1.319029e+000,-1.326009e-005,1.422345e-005
1.319824e+000,-9.903105e-006,1.421815e-005
1.320618e+000,-7.217518e-006,1.418591e-005
1.321412e+000,-9.735256e-006,1.414692e-005
1.322206e+000,-1.527428e-005,1.410142e-005
1.323000e+000,-2.198825e-005,1.409134e-005
1.323794e+000,-2.030976e-005,1.412072e-005
1.324588e+000,-1.829557e-005,1.414149e-005
1.325382e+000,-1.695277e-005,1.414420e-005
1.326176e+000,-1.628138e-005,1.414420e-005
1.326971e+000,-1.628138e-005,1.413908e-005
1.327765e+000,-1.292439e-005,1.413656e-005
1.328559e+000,-1.628138e-005,1.412793e-005
1.329353e+000,-1.091020e-005,1.412541e-005
1.330147e+000,-6.546120e-006,1.409229e-005
1.330941e+000,-8.224612e-006,1.405572e-005
1.331735e+000,-8.224612e-006,1.403809e-005
1.332529e+000,-9.231709e-006,1.401928e-005
1.333324e+000,-1.242084e-005,1.401544e-005
1.334118e+000,-1.460288e-005,1.402220e-005
1.334912e+000,-1.359579e-005,1.401631e-005
1.335706e+000,-1.493858e-005,1.400066e-005
1.336500e+000,-1.326009e-005,1.400704e-005
1.337294e+000,-1.158160e-005,1.401588e-005
1.338088e+000,-1.023880e-005,1.402878e-005
1.338882e+000,-6.210422e-006,1.403799e-005
1.339676e+000,-8.224612e-006,1.404095e-005
1.340471e+000,-1.225299e-005,1.404790e-005
1.341265e+000,-1.359579e-005,1.406258e-005
1.342059e+000,-1.359579e-005,1.407003e-005
1.342853e+000,-1.225299e-005,1.408059e-005
1.343647e+000,-1.393149e-005,1.409111e-005
1.344441e+000,-1.493858e-005,1.409318e-005
1.345235e+000,-1.426719e-005,1.410730e-005
1.346029e+000,-1.359579e-005,1.412325e-005
1.346824e+000,-1.326009e-005,1.413765e-005
1.347618e+000,-1.426719e-005,1.414951e-005
1.348412e+000,-1.795987e-005,1.415552e-005
1.349206e+000,-1.728847e-005,1.416613e-005
1.350000e+000,-1.309224e-005,1.417464e-005
1.350794e+000,-1.292439e-005,1.417103e-005
1.351588e+000,-1.225299e-005,1.416001e-005
1.352382e+000,-6.881819e-006,1.412413e-005
1.353176e+000,-7.553216e-006,1.405880e-005
1.353971e+000,-8.224612e-006,1.398842e-005
1.354765e+000,-1.091020e-005,1.392856e-005
1.355559e+000,-1.359579e-005,1.390798e-005
1.356353e+000,-1.628138e-005,1.390125e-005
1.357147e+000,-2.064546e-005,1.388278e-005
1.357941e+000,-2.182040e-005,1.389737e-005
1.358735e+000,-2.500954e-005,1.393274e-005
1.359529e+000,-3.038071e-005,1.397387e-005
1.360324e+000,-3.575189e-005,1.405773e-005
1.361118e+000,-2.970932e-005,1.418673e-005
1.361912e+000,-2.232395e-005,1.426683e-005
1.362706e+000,-1.326009e-005,1.430278e-005
1.363500e+000,-9.903105e-006,1.430564e-005
1.364294e+000,-1.091020e-005,1.429892e-005
1.365088e+000,-1.158160e-005,1.430050e-005
1.365882e+000,-8.896010e-006,1.431114e-005
1.366676e+000,-7.217518e-006,1.431842e-005
1.367471e+000,-9.567407e-006,1.431895e-005
1.368265e+000,-1.158160e-005,1.431150e-005
1.369059e+000,-1.292439e-005,1.428349e-005
1.369853e+000,-1.292439e-005,1.426878e-005
1.370647e+000,-1.493858e-005,1.426252e-005
1.371441e+000,-1.225299e-005,1.425784e-005
1.372235e+000,-1.023880e-005,1.422220e-005
1.373029e+000,-1.124590e-005,1.418923e-005
1.373824e+000,-9.567407e-006,1.417607e-005
1.374618e+000,-1.158160e-005,1.416949e-005
1.375412e+000,-1.326009e-005,1.416949e-005
1.376206e+000,-1.393149e-005,1.417859e-005
1.377000e+000,-1.527428e-005,1.419010e-005
1.377794e+000,-1.426719e-005,1.419554e-005
1.378588e+000,-1.426719e-005,1.419964e-005
1.379382e+000,-1.560998e-005,1.420373e-005
1.380176e+000,-1.225299e-005,1.421421e-005
1.380971e+000,-1.124590e-005,1.421232e-005
1.381765e+000,-1.091020e-005,1.419428e-005
1.382559e+000,-1.258869e-005,1.417538e-005
1.383353e+000,-1.426719e-005,1.417585e-005
1.384147e+000,-8.224612e-006,1.418185e-005
1.384941e+000,-9.903105e-006,1.416764e-005
1.385735e+000,-1.795987e-005,1.415358e-005
1.386529e+000,-1.493858e-005,1.418060e-005
1.387324e+000,-1.091020e-005,1.420472e-005
1.388118e+000,-1.460288e-005,1.421576e-005
1.388912e+000,-1.560998e-005,1.423766e-005
1.389706e+000,-1.091020e-005,1.426397e-005
1.390500e+000,-1.393149e-005,1.426631e-005
1.391294e+000,-1.426719e-005,1.425839e-005
1.392088e+000,-1.292439e-005,1.425506e-005
1.392882e+000,-1.560998e-005,1.423902e-005
1.393676e+000,-1.628138e-005,1.422883e-005
1.394471e+000,-1.258869e-005,1.421384e-005
1.395265e+000,-1.091020e-005,1.418459e-005
1.396059e+000,-1.124590e-005,1.415006e-005
1.396853e+000,-1.292439e-005,1.413194e-005
1.397647e+000,-1.376364e-005,1.412089e-005
1.398441e+000,-1.225299e-005,1.412799e-005
1.399235e+000,-1.426719e-005,1.413956e-005
1.400029e+000,-1.493858e-005,1.415714e-005
1.400824e+000,-1.225299e-005,1.416885e-005
1.401618e+000,-8.224612e-006,1.416885e-005
1.402412e+000,-8.560311e-006,1.417279e-005
1.403206e+000,-1.023880e-005,1.417213e-005
1.404000e+000,-9.063859e-006,1.416514e-005
1.404794e+000,-8.560311e-006,1.414697e-005
1.405588e+000,-7.217518e-006,1.413009e-005
1.406382e+000,-6.546120e-006,1.411192e-005
1.407176e+000,-8.224612e-006,1.408167e-005
1.407971e+000,-9.231709e-006,1.405550e-005
1.408765e+000,-1.091020e-005,1.403511e-005
1.409559e+000,-1.493858e-005,1.400557e-005
1.410353e+000,-1.896696e-005,1.399827e-005
1.411147e+000,-1.795987e-005,1.401492e-005
1.411941e+000,-1.896696e-005,1.402621e-005
1.412735e+000,-2.030976e-005,1.404807e-005
1.413529e+000,-1.661708e-005,1.407587e-005
1.414324e+000,-1.829557e-005,1.407834e-005
1.415118e+000,-1.762417e-005,1.408369e-005
1.415912e+000,-1.527428e-005,1.410088e-005
1.416706e+000,-1.225299e-005,1.411499e-005
1.417500e+000,-1.292439e-005,1.411680e-005
1.418294e+000,-1.628138e-005,1.410874e-005
1.419088e+000,-1.980621e-005,1.411675e-005
1.419882e+000,-1.896696e-005,1.414584e-005
1.420676e+000,-1.728847e-005,1.417121e-005
1.421471e+000,-1.695277e-005,1.418602e-005
1.422265e+000,-1.628138e-005,1.420233e-005
1.423059e+000,-1.695277e-005,1.421700e-005
1.423853e+000,-1.258869e-005,1.423585e-005
1.424647e+000,-1.057450e-005,1.423943e-005
1.425441e+000,-1.091020e-005,1.423325e-005
1.426235e+000,-8.224612e-006,1.421930e-005
1.427029e+000,-7.553216e-006,1.419958e-005
1.427824e+000,-1.023880e-005,1.416118e-005
1.428618e+000,-2.853437e-006,1.412019e-005
1.429412e+000,5.203327e-006,1.408469e-005
1.430206e+000,-5.035477e-007,1.405523e-005
1.431000e+000,-1.158160e-005,1.402519e-005
1.431794e+000,-1.762417e-005,1.401943e-005
1.432588e+000,-2.769513e-005,1.402460e-005
1.433382e+000,-3.910887e-005,1.408023e-005
1.434176e+000,-3.910887e-005,1.420289e-005
1.434971e+000,-3.172351e-005,1.434395e-005
1.435765e+000,-2.702373e-005,1.443682e-005
1.436559e+000,-2.366674e-005,1.449686e-005
1.437353e+000,-1.896696e-005,1.454357e-005
1.438147e+000,-1.359579e-005,1.456739e-005
1.438941e+000,-9.567407e-006,1.456320e-005
1.439735e+000,-6.881819e-006,1.455588e-005
1.440529e+000,-6.210422e-006,1.455105e-005
1.441324e+000,-6.210422e-006,1.454303e-005
1.442118e+000,-1.091020e-005,1.453859e-005
1.442912e+000,-1.493858e-005,1.453777e-005
1.443706e+000,-1.292439e-005,1.454197e-005
1.444500e+000,-1.158160e-005,1.454197e-005
1.445294e+000,-2.853437e-006,1.453836e-005
1.446088e+000,-1.510643e-006,1.451588e-005
1.446882e+000,-2.853437e-006,1.448703e-005
1.447676e+000,-1.007095e-006,1.445374e-005
1.448471e+000,-2.182040e-006,1.443141e-005
1.449265e+000,-8.896010e-006,1.440673e-005
1.450059e+000,-1.493858e-005,1.439505e-005
1.450853e+000,-1.628138e-005,1.439928e-005
1.451647e+000,-1.896696e-005,1.440713e-005
1.452441e+000,-2.433814e-005,1.443451e-005
1.453235e+000,-2.769513e-005,1.448581e-005
1.454029e+000,-2.870222e-005,1.455479e-005
1.454824e+000,-2.635233e-005,1.462646e-005
1.455618e+000,-2.165255e-005,1.467658e-005
1.456412e+000,-1.527428e-005,1.471112e-005
1.457206e+000,-1.124590e-005,1.472185e-005
1.458000e+000,-4.867628e-006,1.472225e-005
1.458794e+000,-4.196231e-006,1.471491e-005
1.459588e+000,-3.021286e-006,1.470057e-005
1.460382e+000,-4.196231e-006,1.467101e-005
1.461176e+000,-7.217518e-006,1.465284e-005
1.461971e+000,-7.553216e-006,1.464219e-005
1.462765e+000,-9.567407e-006,1.463844e-005
1.463559e+000,-9.567407e-006,1.463544e-005
1.464353e+000,-8.224612e-006,1.463245e-005
1.465147e+000,-7.553216e-006,1.463120e-005
1.465941e+000,-8.896010e-006,1.462524e-005
1.466735e+000,-1.191730e-005,1.462089e-005
1.467529e+000,-1.594568e-005,1.462175e-005
1.468324e+000,-1.829557e-005,1.461937e-005
1.469118e+000,-1.762417e-005,1.463763e-005
1.469912e+000,-1.930266e-005,1.465130e-005
1.470706e+000,-2.030976e-005,1.466753e-005
1.471500e+000,-1.829557e-005,1.468697e-005
1.472294e+000,-1.695277e-005,1.470321e-005
1.473088e+000,-1.963836e-005,1.471529e-005
1.473882e+000,-2.165255e-005,1.473394e-005
1.474676e+000,-1.795987e-005,1.476153e-005
1.475471e+000,-1.628138e-005,1.476714e-005
1.476265e+000,-1.594568e-005,1.477429e-005
1.477059e+000,-1.695277e-005,1.478551e-005
1.477853e+000,-1.728847e-005,1.479655e-005
1.478647e+000,-1.527428e-005,1.480680e-005
1.479441e+000,-1.376364e-005,1.481298e-005
1.480235e+000,-1.158160e-005,1.482208e-005
1.481029e+000,-1.091020e-005,1.482595e-005
1.481824e+000,-6.210422e-006,1.482595e-005
1.482618e+000,-5.874723e-006,1.480390e-005
1.483412e+000,-8.896010e-006,1.476096e-005
1.484206e+000,-9.903105e-006,1.473066e-005
1.485000e+000,-9.567407e-006,1.470505e-005
1.485794e+000,-1.359579e-005,1.468258e-005
1.486588e+000,-1.124590e-005,1.468258e-005
1.487382e+000,-1.124590e-005,1.466754e-005
1.488176e+000,-1.040665e-005,1.464491e-005
1.488971e+000,-1.359579e-005,1.463242e-005
1.489765e+000,-1.309224e-005,1.462825e-005
1.490559e+000,-1.460288e-005,1.462038e-005
1.491353e+000,-1.393149e-005,1.462899e-005
1.492147e+000,-1.258869e-005,1.463194e-005
1.492941e+000,-9.567407e-006,1.463623e-005
1.493735e+000,-1.091020e-005,1.463243e-005
1.494529e+000,-1.158160e-005,1.463203e-005
1.495324e+000,-1.292439e-005,1.463521e-005
1.496118e+000,-1.326009e-005,1.464044e-005
1.496912e+000,-1.661708e-005,1.465062e-005
1.497706e+000,-2.165255e-005,1.467327e-005
1.498500e+000,-1.997406e-005,1.471549e-005
1.499294e+000,-1.762417e-005,1.474057e-005
1.500088e+000,-1.510643e-005,1.475001e-005
1.500882e+000,-1.409934e-005,1.475567e-005
1.501676e+000,-1.560998e-005,1.475411e-005
1.502471e+000,-1.393149e-005,1.476045e-005
1.503265e+000,-1.023880e-005,1.477008e-005
1.504059e+000,-1.124590e-005,1.476855e-005
1.504853e+000,-1.393149e-005,1.474868e-005
1.505647e+000,-1.493858e-005,1.471579e-005
1.506441e+000,-9.735256e-006,1.470760e-005
1.507235e+000,3.189136e-006,1.469147e-005
1.508029e+000,9.231709e-006,1.467049e-005
1.508824e+000,3.860533e-006,1.465867e-005
1.509618e+000,-5.539025e-006,1.464655e-005
1.510412e+000,-2.299535e-005,1.461861e-005
1.511206e+000,-3.306630e-005,1.462978e-005
1.512000e+000,-3.709468e-005,1.469760e-005
1.512794e+000,-3.843748e-005,1.478910e-005
1.513588e+000,-3.474479e-005,1.490619e-005
1.514382e+000,-3.273060e-005,1.500650e-005
1.515176e+000,-3.105211e-005,1.509515e-005
1.515971e+000,-2.601663e-005,1.516638e-005
1.516765e+000,-1.812772e-005,1.521394e-005
1.517559e+000,-1.292439e-005,1.523084e-005
1.518353e+000,-1.023880e-005,1.523940e-005
1.519147e+000,-9.903105e-006,1.524328e-005
1.519941e+000,-5.706874e-006,1.524587e-005
1.520735e+000,-7.217518e-006,1.524101e-005
1.521529e+000,-1.191730e-005,1.523477e-005
1.522324e+000,-8.560311e-006,1.524004e-005
1.523118e+000,-7.049668e-006,1.523526e-005
1.523912e+000,-8.392462e-006,1.522801e-005
1.524706e+000,-6.881819e-006,1.522254e-005
1.525500e+000,-5.706874e-006,1.521792e-005
1.526294e+000,-5.706874e-006,1.521036e-005
1.527088e+000,-8.224612e-006,1.519972e-005
1.527882e+000,-9.567407e-006,1.518931e-005
1.528676e+000,-1.040665e-005,1.517756e-005
1.529471e+000,-1.292439e-005,1.516952e-005
1.530265e+000,-1.359579e-005,1.516569e-005
1.531059e+000,-1.225299e-005,1.515726e-005
1.531853e+000,-1.443504e-005,1.514284e-005
1.532647e+000,-1.393149e-005,1.512691e-005
1.533441e+000,-1.292439e-005,1.511944e-005
1.534235e+000,-1.309224e-005,1.511352e-005
1.535029e+000,-1.091020e-005,1.511211e-005
1.535824e+000,-1.225299e-005,1.510218e-005
1.536618e+000,-1.359579e-005,1.509552e-005
1.537412e+000,-8.560311e-006,1.509918e-005
1.538206e+000,-3.524834e-006,1.509857e-005
1.539000e+000,-4.196231e-006,1.508882e-005
1.539794e+000,-5.203327e-006,1.507568e-005
1.540588e+000,-9.735256e-006,1.505703e-005
1.541382e+000,-1.057450e-005,1.504938e-005
1.542176e+000,-1.023880e-005,1.504862e-005
1.542971e+000,-1.124590e-005,1.505470e-005
1.543765e+000,-1.057450e-005,1.506521e-005
1.544559e+000,-1.158160e-005,1.506867e-005
1.545353e+000,-1.258869e-005,1.507026e-005
1.546147e+000,-1.426719e-005,1.507283e-005
1.546941e+000,-1.762417e-005,1.507669e-005
1.547735e+000,-1.846342e-005,1.508997e-005
1.548529e+000,-1.393149e-005,1.509062e-005
1.549324e+000,-8.224612e-006,1.508077e-005
1.550118e+000,-1.124590e-005,1.505633e-005
1.550912e+000,-1.661708e-005,1.502460e-005
1.551706e+000,-1.628138e-005,1.501014e-005
1.552500e+000,-1.695277e-005,1.502319e-005
1.553294e+000,-2.165255e-005,1.503942e-005
1.554088e+000,-2.366674e-005,1.506748e-005
1.554882e+000,-2.182040e-005,1.510804e-005
1.555676e+000,-2.500954e-005,1.514712e-005
1.556471e+000,-2.903792e-005,1.520565e-005
1.557265e+000,-2.601663e-005,1.528242e-005
1.558059e+000,-2.198825e-005,1.533360e-005
1.558853e+000,-1.829557e-005,1.536818e-005
1.559647e+000,-1.493858e-005,1.538176e-005
1.560441e+000,-1.225299e-005,1.537271e-005
1.561235e+000,-1.242084e-005,1.536080e-005
1.562029e+000,-9.735256e-006,1.535569e-005
1.562824e+000,-1.091020e-005,1.534634e-005
1.563618e+000,-1.057450e-005,1.534136e-005
1.564412e+000,-1.124590e-005,1.532313e-005
1.565206e+000,-1.023880e-005,1.530580e-005
1.566000e+000,-9.567407e-006,1.529748e-005
1.566794e+000,-9.567407e-006,1.529384e-005
1.567588e+000,-1.309224e-005,1.528116e-005
1.568382e+000,-1.107805e-005,1.527139e-005
1.569176e+000,-9.567407e-006,1.526586e-005
1.569971e+000,-9.567407e-006,1.526518e-005
1.570765e+000,-1.023880e-005,1.526929e-005
1.571559e+000,-1.258869e-005,1.527034e-005
1.572353e+000,-1.695277e-005,1.526253e-005
1.573147e+000,-1.493858e-005,1.524206e-005
1.573941e+000,-1.426719e-005,1.522227e-005
1.574735e+000,-1.695277e-005,1.520854e-005
1.575529e+000,-1.896696e-005,1.520854e-005
1.576324e+000,-1.628138e-005,1.521845e-005
1.577118e+000,-1.359579e-005,1.521845e-005
1.577912e+000,-1.628138e-005,1.522031e-005
1.578706e+000,-1.695277e-005,1.522031e-005
1.579500e+000,-1.309224e-005,1.523792e-005
1.580294e+000,-1.091020e-005,1.525134e-005
1.581088e+000,-1.359579e-005,1.525671e-005
1.581882e+000,-1.560998e-005,1.526894e-005
1.582676e+000,-1.393149e-005,1.528545e-005
1.583471e+000,-1.124590e-005,1.528960e-005
1.584265e+000,-8.224612e-006,1.528056e-005
1.585059e+000,-1.124590e-005,1.526834e-005
1.585853e+000,-1.460288e-005,1.525825e-005
1.586647e+000,-9.231709e-006,1.526216e-005
1.587441e+000,-8.392462e-006,1.525705e-005
1.588235e+000,-9.567407e-006,1.525346e-005
1.589029e+000,-1.023880e-005,1.525899e-005
1.589824e+000,-1.393149e-005,1.526287e-005
1.590618e+000,-1.644922e-005,1.526746e-005
1.591412e+000,-1.393149e-005,1.527640e-005
1.592206e+000,-9.735256e-006,1.527736e-005
1.593000e+000,-1.359579e-005,1.527159e-005
1.593794e+000,-1.762417e-005,1.527063e-005
1.594588e+000,-1.560998e-005,1.527974e-005
1.595382e+000,-1.628138e-005,1.528392e-005
1.596176e+000,-1.779202e-005,1.529228e-005
1.596971e+000,-1.762417e-005,1.530692e-005
1.597765e+000,-1.762417e-005,1.531806e-005
1.598559e+000,-1.527428e-005,1.531682e-005
1.599353e+000,-1.426719e-005,1.531000e-005
1.600147e+000,-1.326009e-005,1.531334e-005
1.600941e+000,-1.443504e-005,1.531425e-005
1.601735e+000,-1.258869e-005,1.532031e-005
1.602529e+000,-1.426719e-005,1.533185e-005
1.603324e+000,-1.779202e-005,1.534706e-005
1.604118e+000,-1.560998e-005,1.537286e-005
1.604912e+000,-1.594568e-005,1.538577e-005
1.605706e+000,-1.560998e-005,1.539295e-005
1.606500e+000,-1.695277e-005,1.539074e-005
1.607294e+000,-1.795987e-005,1.537636e-005
1.608088e+000,-1.527428e-005,1.536045e-005
1.608882e+000,-1.225299e-005,1.531974e-005
1.609676e+000,-8.392462e-006,1.523920e-005
1.610471e+000,-5.874723e-006,1.511247e-005
1.611265e+000,-3.524834e-006,1.502284e-005
1.612059e+000,-3.524834e-006,1.497125e-005
1.612853e+000,-3.189136e-006,1.495386e-005
1.613647e+000,-6.881819e-006,1.494449e-005
1.614441e+000,-1.057450e-005,1.493686e-005
1.615235e+000,-1.225299e-005,1.493448e-005
1.616029e+000,-1.460288e-005,1.494205e-005
1.616824e+000,-1.695277e-005,1.495921e-005
1.617618e+000,-1.863127e-005,1.498004e-005
1.618412e+000,-1.762417e-005,1.500267e-005
1.619206e+000,-1.309224e-005,1.501790e-005
1.620000e+000,-1.292439e-005,1.501836e-005
1.620794e+000,-1.628138e-005,1.501241e-005
1.621588e+000,-1.577783e-005,1.502460e-005
1.622382e+000,-1.426719e-005,1.503986e-005
1.623176e+000,-1.493858e-005,1.504802e-005
1.623971e+000,-1.426719e-005,1.506194e-005
1.624765e+000,-1.527428e-005,1.506928e-005
1.625559e+000,-1.762417e-005,1.507535e-005
1.626353e+000,-1.258869e-005,1.508766e-005
1.627147e+000,-8.896010e-006,1.507976e-005
1.627941e+000,-8.896010e-006,1.506661e-005
1.628735e+000,-1.057450e-005,1.505346e-005
1.629529e+000,-1.023880e-005,1.503950e-005
1.630324e+000,-1.091020e-005,1.503471e-005
1.631118e+000,-9.231709e-006,1.503392e-005
1.631912e+000,-1.225299e-005,1.503034e-005
1.632706e+000,-1.560998e-005,1.502945e-005
1.633500e+000,-1.527428e-005,1.503370e-005
1.634294e+000,-1.292439e-005,1.505124e-005
1.635088e+000,-1.158160e-005,1.505853e-005
1.635882e+000,-1.460288e-005,1.503860e-005
1.636676e+000,-1.829557e-005,1.503755e-005
1.637471e+000,-1.863127e-005,1.506037e-005
1.638265e+000,-2.131685e-005,1.507452e-005
1.639059e+000,-2.366674e-005,1.509676e-005
1.639853e+000,-1.728847e-005,1.514321e-005
1.640647e+000,-9.567407e-006,1.515423e-005
1.641441e+000,-6.210422e-006,1.514246e-005
1.642235e+000,-6.210422e-006,1.512894e-005
1.643029e+000,-5.035477e-006,1.510734e-005
1.643824e+000,-7.721065e-006,1.508205e-005
1.644618e+000,-1.225299e-005,1.507161e-005
1.645412e+000,-1.963836e-005,1.507489e-005
1.646206e+000,-1.829557e-005,1.510225e-005
1.647000e+000,-1.493858e-005,1.511992e-005
1.647794e+000,-1.174945e-005,1.512347e-005
1.648588e+000,-1.007095e-006,1.512219e-005
1.649382e+000,3.189136e-006,1.510085e-005
1.650176e+000,-1.678492e-007,1.507838e-005
1.650971e+000,-8.224612e-006,1.506251e-005
1.651765e+000,-1.963836e-005,1.506251e-005
1.652559e+000,-3.373770e-005,1.509550e-005
1.653353e+000,-3.843748e-005,1.520412e-005
1.654147e+000,-4.179446e-005,1.534956e-005
1.654941e+000,-4.313725e-005,1.552219e-005
1.655735e+000,-3.541619e-005,1.570665e-005
1.656529e+000,-3.054856e-005,1.582899e-005
1.657324e+000,-2.568093e-005,1.591582e-005
1.658118e+000,-1.795987e-005,1.597318e-005
1.658912e+000,-1.292439e-005,1.599346e-005
1.659706e+000,-1.258869e-005,1.598787e-005
1.660500e+000,-1.225299e-005,1.596781e-005
1.661294e+000,-6.881819e-006,1.595061e-005
1.662088e+000,-5.874723e-006,1.591939e-005
1.662882e+000,-7.553216e-006,1.588154e-005
1.663676e+000,-6.210422e-006,1.585956e-005
1.664471e+000,-6.210422e-006,1.582979e-005
1.665265e+000,-6.210422e-006,1.580240e-005
1.666059e+000,-6.210422e-006,1.578277e-005
1.666853e+000,-6.210422e-006,1.577151e-005
1.667647e+000,-2.182040e-006,1.575853e-005
1.668441e+000,5.035477e-007,1.573220e-005
1.669235e+000,-5.203327e-006,1.569247e-005
1.670029e+000,-8.896010e-006,1.565868e-005
1.670824e+000,-1.091020e-005,1.563632e-005
1.671618e+000,-1.359579e-005,1.561916e-005
1.672412e+000,-1.460288e-005,1.561098e-005
1.673206e+000,-1.292439e-005,1.560342e-005
1.674000e+000,-1.628138e-005,1.560429e-005
1.674794e+000,-1.712062e-005,1.561992e-005
1.675588e+000,-1.644922e-005,1.563766e-005
1.676382e+000,-1.359579e-005,1.565831e-005
1.677176e+000,-1.158160e-005,1.567130e-005
1.677971e+000,-9.735256e-006,1.567428e-005
1.678765e+000,-6.210422e-006,1.568308e-005
1.679559e+000,-1.023880e-005,1.568424e-005
1.680353e+000,-1.258869e-005,1.569486e-005
1.681147e+000,-1.493858e-005,1.569733e-005
1.681941e+000,-1.628138e-005,1.568845e-005
1.682735e+000,-1.896696e-005,1.563742e-005
1.683529e+000,-1.628138e-005,1.551785e-005
1.684324e+000,-1.527428e-005,1.538756e-005
1.685118e+000,-1.225299e-005,1.530735e-005
1.685912e+000,-1.191730e-005,1.524688e-005
1.686706e+000,-1.023880e-005,1.520315e-005
1.687500e+000,-8.896010e-006,1.517643e-005
1.688294e+000,-1.023880e-005,1.516533e-005
1.689088e+000,-1.158160e-005,1.516673e-005
1.689882e+000,-9.231709e-006,1.517583e-005
1.690676e+000,-9.567407e-006,1.518073e-005
1.691471e+000,-1.191730e-005,1.518628e-005
1.692265e+000,-1.158160e-005,1.518869e-005
1.693059e+000,-1.124590e-005,1.517936e-005
1.693853e+000,-1.560998e-005,1.517510e-005
1.694647e+000,-1.762417e-005,1.518659e-005
1.695441e+000,-1.628138e-005,1.521827e-005
1.696235e+000,-1.628138e-005,1.524575e-005
1.697029e+000,-1.762417e-005,1.527256e-005
1.697824e+000,-2.098116e-005,1.530480e-005
1.698618e+000,-2.131685e-005,1.535004e-005
1.699412e+000,-1.896696e-005,1.538892e-005
1.700206e+000,-1.628138e-005,1.540305e-005
1.701000e+000,-1.326009e-005,1.540305e-005
1.701794e+000,-8.560311e-006,1.538402e-005
1.702588e+000,-7.217518e-006,1.533020e-005
1.703382e+000,-3.524834e-006,1.525576e-005
1.704176e+000,1.124590e-005,1.517083e-005
1.704971e+000,1.712062e-005,1.511110e-005
1.705765e+000,2.131685e-005,1.509257e-005
1.706559e+000,2.165255e-005,1.511588e-005
1.707353e+000,9.231709e-006,1.515191e-005
1.708147e+000,-1.359579e-005,1.515837e-005
1.708941e+000,-3.239490e-005,1.517593e-005
1.709735e+000,-3.793393e-005,1.528470e-005
1.710529e+000,-4.313725e-005,1.543206e-005
1.711324e+000,-4.985122e-005,1.561758e-005
1.712118e+000,-4.716563e-005,1.586322e-005
1.712912e+000,-4.313725e-005,1.607591e-005
1.713706e+000,-4.515145e-005,1.625021e-005
1.714500e+000,-4.515145e-005,1.644222e-005
1.715294e+000,-2.970932e-005,1.663302e-005
1.716088e+000,-2.232395e-005,1.670977e-005
1.716882e+000,-2.098116e-005,1.674369e-005
1.717676e+000,-1.712062e-005,1.676137e-005
1.718471e+000,-1.628138e-005,1.675741e-005
1.719265e+000,-1.493858e-005,1.675309e-005
1.720059e+000,-8.560311e-006,1.673888e-005
1.720853e+000,-5.874723e-006,1.670658e-005
1.721647e+000,-6.881819e-006,1.667794e-005
1.722441e+000,-1.225299e-005,1.665500e-005
1.723235e+000,-1.023880e-005,1.663247e-005
1.724029e+000,-8.560311e-006,1.659758e-005
1.724824e+000,-8.896010e-006,1.657365e-005
1.725618e+000,-6.881819e-006,1.655578e-005
1.726412e+000,-5.035477e-006,1.653586e-005
1.727206e+000,-4.867628e-006,1.651061e-005
1.728000e+000,-6.881819e-006,1.648405e-005
1.728794e+000,-4.196231e-006,1.646608e-005
1.729588e+000,-4.364080e-006,1.644945e-005
1.730382e+000,-4.196231e-006,1.643831e-005
1.731176e+000,-2.182040e-006,1.642848e-005
1.731971e+000,-3.524834e-006,1.642520e-005
1.732765e+000,-3.860533e-006,1.642306e-005
1.733559e+000,-7.721065e-006,1.641683e-005
1.734353e+000,-9.231709e-006,1.641310e-005
1.735147e+000,-9.567407e-006,1.641249e-005
1.735941e+000,-9.063859e-006,1.640343e-005
1.736735e+000,-9.903105e-006,1.639913e-005
1.737529e+000,-1.091020e-005,1.639637e-005
1.738324e+000,-1.258869e-005,1.639741e-005
1.739118e+000,-1.091020e-005,1.639486e-005
1.739912e+000,-1.191730e-005,1.638977e-005
1.740706e+000,-1.091020e-005,1.638285e-005
1.741500e+000,-1.628138e-005,1.637555e-005
1.742294e+000,-1.795987e-005,1.638591e-005
1.743088e+000,-1.963836e-005,1.640835e-005
1.743882e+000,-1.896696e-005,1.643420e-005
1.744676e+000,-1.493858e-005,1.645605e-005
1.745471e+000,-1.426719e-005,1.646148e-005
1.746265e+000,-1.728847e-005,1.646416e-005
1.747059e+000,-1.762417e-005,1.646636e-005
1.747853e+000,-1.695277e-005,1.645105e-005
1.748647e+000,-1.644922e-005,1.644025e-005
1.749441e+000,-1.963836e-005,1.643637e-005
1.750235e+000,-1.896696e-005,1.645162e-005
1.751029e+000,-1.930266e-005,1.646719e-005
1.751824e+000,-1.896696e-005,1.647965e-005
1.752618e+000,-1.460288e-005,1.649565e-005
1.753412e+000,-8.896010e-006,1.650611e-005
1.754206e+000,-3.189136e-006,1.650155e-005
1.755000e+000,-7.217518e-006,1.648379e-005
1.755794e+000,-1.292439e-005,1.646726e-005
1.756588e+000,-1.795987e-005,1.647424e-005
1.757382e+000,-2.165255e-005,1.650441e-005
1.758176e+000,-2.299535e-005,1.654138e-005
1.758971e+000,-2.165255e-005,1.659077e-005
1.759765e+000,-1.896696e-005,1.663277e-005
1.760559e+000,-1.628138e-005,1.661658e-005
1.761353e+000,-1.225299e-005,1.653702e-005
1.762147e+000,-6.881819e-006,1.641855e-005
1.762941e+000,-6.546120e-006,1.627926e-005
1.763735e+000,-9.903105e-006,1.616497e-005
1.764529e+000,-1.091020e-005,1.606882e-005
1.765324e+000,-8.896010e-006,1.598484e-005
1.766118e+000,-1.091020e-005,1.592519e-005
1.766912e+000,-8.896010e-006,1.590422e-005
1.767706e+000,-6.881819e-006,1.589542e-005
1.768500e+000,-1.023880e-005,1.588966e-005
1.769294e+000,-1.292439e-005,1.589033e-005
1.770088e+000,-1.426719e-005,1.590380e-005
1.770882e+000,-1.628138e-005,1.591896e-005
1.771676e+000,-1.191730e-005,1.593127e-005
1.772471e+000,-1.191730e-005,1.593814e-005
1.773265e+000,-1.527428e-005,1.594736e-005
1.774059e+000,-1.426719e-005,1.596361e-005
1.774853e+000,-9.567407e-006,1.597918e-005
1.775647e+000,-7.888914e-006,1.598506e-005
1.776441e+000,-1.158160e-005,1.598801e-005
1.777235e+000,-1.158160e-005,1.599464e-005
1.778029e+000,-1.023880e-005,1.599888e-005
1.778824e+000,-1.258869e-005,1.599853e-005
1.779618e+000,-1.426719e-005,1.599768e-005
1.780412e+000,-1.695277e-005,1.599954e-005
1.781206e+000,-2.030976e-005,1.601319e-005
1.782000e+000,-1.963836e-005,1.603348e-005
1.782794e+000,-1.829557e-005,1.605250e-005
1.783588e+000,-1.695277e-005,1.606912e-005
1.784382e+000,2.517739e-006,1.608061e-005
1.785176e+000,1.779202e-005,1.606945e-005
1.785971e+000,1.124590e-005,1.608593e-005
1.786765e+000,-8.392462e-007,1.608015e-005
1.787559e+000,-1.560998e-005,1.607296e-005
1.788353e+000,-3.038071e-005,1.609586e-005
1.789147e+000,-3.743038e-005,1.618518e-005
1.789941e+000,-4.213016e-005,1.631979e-005
1.790735e+000,-4.682994e-005,1.648291e-005
1.791529e+000,-4.682994e-005,1.668276e-005
1.792324e+000,-4.682994e-005,1.688090e-005
1.793118e+000,-3.910887e-005,1.707473e-005
1.793912e+000,-2.299535e-005,1.720643e-005
1.794706e+000,-3.021286e-006,1.724292e-005
1.795500e+000,1.846342e-006,1.722912e-005
1.796294e+000,-2.349889e-006,1.721061e-005
1.797088e+000,-5.203327e-006,1.718236e-005
1.797882e+000,-1.460288e-005,1.715325e-005
1.798676e+000,-2.098116e-005,1.715503e-005
1.799471e+000,-1.980621e-005,1.718958e-005
1.800265e+000,-1.896696e-005,1.721418e-005
1.801059e+000,-1.762417e-005,1.722192e-005
1.801853e+000,-1.426719e-005,1.722612e-005
1.802647e+000,-9.567407e-006,1.721837e-005
1.803441e+000,-6.881819e-006,1.718345e-005
1.804235e+000,-2.517739e-006,1.713586e-005
1.805029e+000,-4.196231e-006,1.709215e-005
1.805824e+000,-8.896010e-006,1.703543e-005
1.806618e+000,-1.023880e-005,1.696386e-005
1.807412e+000,-1.057450e-005,1.691008e-005
1.808206e+000,-1.023880e-005,1.687504e-005
1.809000e+000,-1.107805e-005,1.685334e-005
1.809794e+000,-8.224612e-006,1.684384e-005
1.810588e+000,-5.539025e-006,1.683604e-005
1.811382e+000,-5.539025e-006,1.682435e-005
1.812176e+000,-5.874723e-006,1.681828e-005
1.812971e+000,-8.896010e-006,1.681028e-005
1.813765e+000,-1.359579e-005,1.680718e-005
1.814559e+000,-1.158160e-005,1.681271e-005
1.815353e+000,-6.881819e-006,1.681549e-005
1.816147e+000,-6.210422e-006,1.681130e-005
1.816941e+000,-6.210422e-006,1.680629e-005
1.817735e+000,-8.224612e-006,1.679369e-005
1.818529e+000,-5.874723e-006,1.678847e-005
1.819324e+000,-9.903105e-006,1.678306e-005
1.820118e+000,-1.191730e-005,1.678368e-005
1.820912e+000,-6.881819e-006,1.678721e-005
1.821706e+000,-4.867628e-006,1.677667e-005
1.822500e+000,-7.217518e-006,1.675162e-005
1.823294e+000,-1.393149e-005,1.673535e-005
1.824088e+000,-1.930266e-005,1.673445e-005
1.824882e+000,-1.762417e-005,1.674255e-005
1.825676e+000,-1.493858e-005,1.673788e-005
1.826471e+000,-1.393149e-005,1.673389e-005
1.827265e+000,-1.393149e-005,1.673477e-005
1.828059e+000,-1.695277e-005,1.672801e-005
1.828853e+000,-1.997406e-005,1.672801e-005
1.829647e+000,-2.098116e-005,1.674966e-005
1.830441e+000,-2.299535e-005,1.678017e-005
1.831235e+000,-2.165255e-005,1.681277e-005
1.832029e+000,-2.165255e-005,1.683408e-005
1.832824e+000,-1.963836e-005,1.686005e-005
1.833618e+000,-1.510643e-005,1.688452e-005
1.834412e+000,-1.779202e-005,1.689965e-005
1.835206e+000,-1.628138e-005,1.691755e-005
1.836000e+000,-1.628138e-005,1.692243e-005
1.836794e+000,-1.829557e-005,1.693935e-005
1.837588e+000,-1.527428e-005,1.696417e-005
1.838382e+000,-8.896010e-006,1.697748e-005
1.839176e+000,-1.057450e-005,1.697507e-005
1.839971e+000,-1.426719e-005,1.696735e-005
1.840765e+000,-1.426719e-005,1.696106e-005
1.841559e+000,-1.460288e-005,1.696194e-005
1.842353e+000,-1.812772e-005,1.697306e-005
1.843147e+000,-1.963836e-005,1.698654e-005
1.843941e+000,-2.098116e-005,1.699358e-005
1.844735e+000,-1.896696e-005,1.701199e-005
1.845529e+000,-1.762417e-005,1.702084e-005
1.846324e+000,-1.359579e-005,1.702029e-005
1.847118e+000,-1.292439e-005,1.700852e-005
1.847912e+000,-1.594568e-005,1.699507e-005
1.848706e+000,-1.829557e-005,1.699703e-005
1.849500e+000,-1.628138e-005,1.700932e-005
1.850294e+000,-1.309224e-005,1.701767e-005
1.851088e+000,-1.628138e-005,1.701421e-005
1.851882e+000,-1.728847e-005,1.702419e-005
1.852676e+000,-1.091020e-005,1.703310e-005
1.853471e+000,-1.057450e-005,1.701463e-005
1.854265e+000,-1.393149e-005,1.700228e-005
1.855059e+000,-1.023880e-005,1.699665e-005
1.855853e+000,-9.903105e-006,1.698363e-005
1.856647e+000,-1.023880e-005,1.696587e-005
1.857441e+000,-1.191730e-005,1.694543e-005
1.858235e+000,-1.158160e-005,1.693685e-005
1.859029e+000,-8.896010e-006,1.693534e-005
1.859824e+000,-8.896010e-006,1.693616e-005
1.860618e+000,-6.881819e-006,1.694036e-005
1.861412e+000,-6.210422e-006,1.694364e-005
1.862206e+000,-8.224612e-006,1.694610e-005
1.863000e+000,-1.158160e-005,1.695150e-005
1.863794e+000,-9.567407e-006,1.695965e-005
1.864588e+000,-9.903105e-006,1.695774e-005
1.865382e+000,-8.896010e-006,1.695285e-005
1.866176e+000,-1.242084e-005,1.694025e-005
1.866971e+000,-1.091020e-005,1.692773e-005
1.867765e+000,-1.326009e-005,1.690626e-005
1.868559e+000,-1.762417e-005,1.689356e-005
1.869353e+000,-1.493858e-005,1.690668e-005
1.870147e+000,-1.560998e-005,1.691196e-005
1.870941e+000,-1.628138e-005,1.690995e-005
1.871735e+000,-1.628138e-005,1.691147e-005
1.872529e+000,-1.527428e-005,1.691726e-005
1.873324e+000,-1.628138e-005,1.691822e-005
1.874118e+000,-9.567407e-006,1.692401e-005
1.874912e+000,-8.224612e-006,1.691066e-005
1.875706e+000,-1.426719e-005,1.688777e-005
1.876500e+000,-1.359579e-005,1.689202e-005
1.877294e+000,-1.225299e-005,1.690198e-005
1.878088e+000,-8.896010e-006,1.690867e-005
1.878882e+000,-1.158160e-005,1.690559e-005
1.879676e+000,-1.560998e-005,1.690835e-005
1.880471e+000,-1.527428e-005,1.692008e-005
1.881265e+000,-1.158160e-005,1.693401e-005
1.882059e+000,-1.426719e-005,1.693251e-005
1.882853e+000,-1.644922e-005,1.692873e-005
1.883647e+000,-1.493858e-005,1.693224e-005
1.884441e+000,-1.762417e-005,1.693752e-005
1.885235e+000,-1.292439e-005,1.695410e-005
1.886029e+000,3.356985e-007,1.694976e-005
1.886824e+000,2.517739e-006,1.691829e-005
1.887618e+000,-2.182040e-006,1.688619e-005
1.888412e+000,-8.224612e-006,1.684374e-005
1.889206e+000,-3.524834e-006,1.679711e-005
1.890000e+000,-3.524834e-006,1.676994e-005
1.890794e+000,-1.628138e-005,1.676242e-005
1.891588e+000,-2.937362e-005,1.678393e-005
1.892382e+000,-4.246586e-005,1.686194e-005
1.893176e+000,-4.917983e-005,1.702902e-005
1.893971e+000,-4.246586e-005,1.724820e-005
1.894765e+000,-3.004501e-005,1.740015e-005
1.895559e+000,-2.568093e-005,1.744741e-005
1.896353e+000,-1.930266e-005,1.747702e-005
1.897147e+000,-1.695277e-005,1.749063e-005
1.897941e+000,-1.292439e-005,1.750422e-005
1.898735e+000,-1.225299e-005,1.751932e-005
1.899529e+000,-1.091020e-005,1.753204e-005
1.900324e+000,-8.560311e-006,1.754284e-005
1.901118e+000,-1.527428e-005,1.754335e-005
1.901912e+000,-2.366674e-005,1.752952e-005
1.902706e+000,-2.064546e-005,1.747693e-005
1.903500e+000,-1.930266e-005,1.738088e-005
1.904294e+000,-1.091020e-005,1.725453e-005
1.905088e+000,-1.510643e-006,1.709303e-005
1.905882e+000,3.524834e-006,1.697599e-005
1.906676e+000,3.189136e-006,1.688940e-005
1.907471e+000,-1.510643e-006,1.682807e-005
1.908265e+000,-2.182040e-006,1.679774e-005
1.909059e+000,-1.124590e-005,1.678235e-005
1.909853e+000,-1.493858e-005,1.677931e-005
1.910647e+000,-1.493858e-005,1.678624e-005
1.911441e+000,-1.695277e-005,1.680291e-005
1.912235e+000,-1.896696e-005,1.682685e-005
1.913029e+000,-1.527428e-005,1.685547e-005
1.913824e+000,-9.903105e-006,1.687386e-005
1.914618e+000,-1.007095e-005,1.687947e-005
1.915412e+000,-1.628138e-005,1.688540e-005
1.916206e+000,-1.560998e-005,1.690675e-005
1.917000e+000,-1.493858e-005,1.692606e-005
1.917794e+000,-1.930266e-005,1.694659e-005
1.918588e+000,-1.493858e-005,1.698154e-005
1.919382e+000,-1.409934e-005,1.699992e-005
1.920176e+000,-1.376364e-005,1.701112e-005
1.920971e+000,-1.359579e-005,1.701771e-005
1.921765e+000,-1.560998e-005,1.701771e-005
1.922559e+000,-1.829557e-005,1.702056e-005
1.923353e+000,-1.359579e-005,1.703624e-005
1.924147e+000,-6.210422e-006,1.702874e-005
1.924941e+000,-5.706874e-006,1.700492e-005
1.925735e+000,-5.539025e-006,1.698262e-005
1.926529e+000,-4.196231e-006,1.696816e-005
1.927324e+000,-1.510643e-006,1.695722e-005
1.928118e+000,-1.846342e-006,1.694853e-005
1.928912e+000,-4.867628e-006,1.694523e-005
1.929706e+000,-6.210422e-006,1.693760e-005
1.930500e+000,-8.392462e-006,1.692632e-005
1.931294e+000,-1.292439e-005,1.691195e-005
1.932088e+000,-1.393149e-005,1.690271e-005
1.932882e+000,-1.426719e-005,1.688710e-005
1.933676e+000,-1.762417e-005,1.688130e-005
1.934471e+000,-1.695277e-005,1.688859e-005
1.935265e+000,-1.560998e-005,1.690152e-005
1.936059e+000,-1.661708e-005,1.691110e-005
1.936853e+000,-1.896696e-005,1.692722e-005
1.937647e+000,-1.896696e-005,1.695360e-005
1.938441e+000,-1.896696e-005,1.697752e-005
1.939235e+000,-1.594568e-005,1.699867e-005
1.940029e+000,-1.309224e-005,1.701450e-005
1.940824e+000,-1.426719e-005,1.702197e-005
1.941618e+000,-1.393149e-005,1.702773e-005
1.942412e+000,-1.225299e-005,1.703333e-005
1.943206e+000,-1.158160e-005,1.703554e-005
1.944000e+000,-1.158160e-005,1.702530e-005
1.944794e+000,-1.091020e-005,1.700879e-005
1.945588e+000,-1.091020e-005,1.699511e-005
1.946382e+000,-1.225299e-005,1.698142e-005
1.947176e+000,-1.225299e-005,1.696637e-005
1.947971e+000,-1.292439e-005,1.693912e-005
1.948765e+000,-1.225299e-005,1.691208e-005
1.949559e+000,-1.225299e-005,1.689234e-005
1.950353e+000,-7.217518e-006,1.688150e-005
1.951147e+000,-1.359579e-005,1.686982e-005
1.951941e+000,-2.635233e-005,1.688035e-005
1.952735e+000,-3.306630e-005,1.694084e-005
1.953529e+000,-2.735943e-005,1.704214e-005
1.954324e+000,-2.114900e-005,1.710016e-005
1.955118e+000,-1.426719e-005,1.711451e-005
1.955912e+000,-8.224612e-006,1.709116e-005
1.956706e+000,-3.021286e-006,1.705374e-005
1.957500e+000,-2.182040e-006,1.704663e-005
1.958294e+000,-8.392462e-007,1.702980e-005
1.959088e+000,-6.881819e-006,1.693146e-005
1.959882e+000,-1.023880e-005,1.680007e-005
1.960676e+000,-1.527428e-005,1.663280e-005
1.961471e+000,-1.728847e-005,1.641580e-005
1.962265e+000,-2.299535e-005,1.622793e-005
1.963059e+000,-2.702373e-005,1.609669e-005
1.963853e+000,-2.433814e-005,1.596674e-005
1.964647e+000,-1.174945e-005,1.582184e-005
1.965441e+000,-7.049668e-006,1.574672e-005
1.966235e+000,-1.258869e-005,1.570129e-005
1.967029e+000,-1.695277e-005,1.567269e-005
1.967824e+000,-1.695277e-005,1.567211e-005
1.968618e+000,-5.874723e-006,1.567438e-005
1.969412e+000,-1.846342e-006,1.565520e-005
1.970206e+000,-1.174945e-006,1.564809e-005
1.971000e+000,-1.040665e-005,1.564472e-005
1.971794e+000,-2.719158e-005,1.565092e-005
1.972588e+000,-3.306630e-005,1.571076e-005
1.973382e+000,-2.970932e-005,1.581063e-005
1.974176e+000,-2.836652e-005,1.589194e-005
1.974971e+000,-3.440909e-005,1.596447e-005
1.975765e+000,-3.239490e-005,1.607744e-005
1.976559e+000,-2.769513e-005,1.617855e-005
1.977353e+000,-2.836652e-005,1.625155e-005
1.978147e+000,-1.091020e-005,1.632558e-005
1.978941e+000,5.539025e-006,1.633547e-005
1.979735e+000,1.040665e-005,1.633661e-005
1.980529e+000,1.107805e-005,1.634544e-005
1.981324e+000,6.210422e-006,1.635693e-005
1.982118e+000,-4.531929e-006,1.635948e-005
1.982912e+000,-1.359579e-005,1.636003e-005
1.983706e+000,-9.567407e-006,1.637221e-005
1.984500e+000,5.035477e-007,1.637282e-005
1.985294e+000,-4.196231e-006,1.636394e-005
1.986088e+000,-5.539025e-006,1.635766e-005
1.986882e+000,-3.189136e-006,1.635110e-005
1.987676e+000,-1.393149e-005,1.634049e-005
1.988471e+000,-1.158160e-005,1.634396e-005
1.989265e+000,5.203327e-006,1.634544e-005
1.990059e+000,-1.678492e-007,1.633423e-005
1.990853e+000,-1.493858e-005,1.632263e-005
1.991647e+000,-3.373770e-005,1.631854e-005
1.992441e+000,-5.119402e-005,1.639794e-005
1.993235e+000,-4.934768e-005,1.661357e-005
1.994029e+000,-3.239490e-005,1.681132e-005
1.994824e+000,-6.210422e-006,1.688940e-005
1.995618e+000,1.594568e-005,1.687384e-005
1.996412e+000,1.426719e-005,1.686963e-005
1.997206e+000,-1.023880e-005,1.685952e-005
1.998000e+000,-2.903792e-005,1.684227e-005
1.998794e+000,-3.642328e-005,1.689632e-005
1.999588e+000,-1.963836e-005,1.698477e-005
2.000382e+000,-9.567407e-006,1.698720e-005
2.001176e+000,-2.383459e-005,1.696083e-005
2.001971e+000,-3.709468e-005,1.698038e-005
2.002765e+000,-3.709468e-005,1.708907e-005
2.003559e+000,-3.172351e-005,1.720949e-005
2.004353e+000,-3.239490e-005,1.730143e-005
2.005147e+000,-3.172351e-005,1.739297e-005
2.005941e+000,-2.635233e-005,1.746965e-005
2.006735e+000,-1.460288e-005,1.750351e-005
2.007529e+000,3.356985e-007,1.748025e-005
2.008324e+000,1.174945e-006,1.743202e-005
2.009118e+000,-8.560311e-006,1.738927e-005
2.009912e+000,-1.258869e-005,1.736302e-005
2.010706e+000,-4.196231e-006,1.735324e-005
2.011500e+000,-4.364080e-006,1.734107e-005
2.012294e+000,-1.292439e-005,1.733847e-005
2.013088e+000,-1.258869e-005,1.734987e-005
2.013882e+000,-1.661708e-005,1.735541e-005
2.014676e+000,-2.316319e-005,1.736982e-005
2.015471e+000,-1.158160e-005,1.741170e-005
2.016265e+000,1.174945e-005,1.741308e-005
2.017059e+000,3.138781e-005,1.741847e-005
2.017853e+000,8.241398e-005,1.750399e-005
2.018647e+000,1.132982e-004,1.810212e-005
2.019441e+000,8.946365e-005,1.918425e-005
2.020235e+000,5.690089e-005,1.982112e-005
2.021029e+000,1.393149e-005,2.005851e-005
2.021824e+000,-2.500954e-005,2.006264e-005
2.022618e+000,-5.119402e-005,2.010097e-005
2.023412e+000,-7.066453e-005,2.028923e-005
2.024206e+000,-1.015488e-004,2.066173e-005
2.025000e+000,-1.314260e-004,2.143495e-005
2.025794e+000,-1.354543e-004,2.267747e-005
2.026588e+000,-1.203479e-004,2.392223e-005
2.027382e+000,-1.015488e-004,2.485905e-005
2.028176e+000,-7.804990e-005,2.550450e-005
2.028971e+000,-5.387960e-005,2.587229e-005
2.029765e+000,-2.836652e-005,2.603791e-005
2.030559e+000,-1.393149e-005,2.606952e-005
2.031353e+000,-3.524834e-006,2.605618e-005
2.032147e+000,1.846342e-006,2.603336e-005
2.032941e+000,1.057450e-005,2.601308e-005
2.033735e+000,2.064546e-005,2.600233e-005
2.034529e+000,2.198825e-005,2.602804e-005
2.035324e+000,2.534523e-005,2.603825e-005
2.036118e+000,3.071641e-005,2.606978e-005
2.036912e+000,2.870222e-005,2.612730e-005
2.037706e+000,3.189136e-005,2.616263e-005
2.038500e+000,5.354391e-005,2.616836e-005
2.039294e+000,6.294347e-005,2.625741e-005
2.040088e+000,5.287251e-005,2.638970e-005
2.040882e+000,3.608759e-005,2.642603e-005
2.041676e+000,2.131685e-005,2.637230e-005
2.042471e+000,1.594568e-005,2.626711e-005
2.043265e+000,2.232395e-005,2.618969e-005
2.044059e+000,1.678492e-007,2.618784e-005
2.044853e+000,-2.383459e-005,2.618729e-005
2.045647e+000,-4.179446e-005,2.622160e-005
2.046441e+000,-5.471885e-005,2.632713e-005
2.047235e+000,-6.529335e-005,2.650598e-005
2.048029e+000,-6.327916e-005,2.674818e-005
2.048824e+000,-6.210422e-005,2.695952e-005
2.049618e+000,-7.284657e-005,2.716338e-005
2.050412e+000,-7.301442e-005,2.745185e-005
2.051206e+000,-5.572595e-005,2.774153e-005
2.052000e+000,-3.910887e-005,2.790760e-005
2.052794e+000,-1.695277e-005,2.798953e-005
2.053588e+000,-4.364080e-006,2.800318e-005
2.054382e+000,-7.217518e-006,2.800390e-005
2.055176e+000,-1.359579e-005,2.800586e-005
2.055971e+000,-1.594568e-005,2.801187e-005
2.056765e+000,-2.517739e-006,2.802037e-005
2.057559e+000,3.978027e-005,2.801437e-005
2.058353e+000,7.570001e-005,2.809824e-005
2.059147e+000,8.140688e-005,2.841426e-005
2.059941e+000,6.495765e-005,2.877951e-005
2.060735e+000,2.098116e-005,2.901035e-005
2.061529e+000,-3.205920e-005,2.903282e-005
2.062324e+000,-5.287251e-005,2.908724e-005
2.063118e+000,-4.330510e-005,2.923557e-005
2.063912e+000,-4.246586e-005,2.932750e-005
2.064706e+000,-7.469291e-005,2.941799e-005
2.065500e+000,-1.082628e-004,2.971591e-005
2.066294e+000,-1.310903e-004,3.033545e-005
2.067088e+000,-1.408255e-004,3.122251e-005
2.067882e+000,-1.223621e-004,3.221472e-005
2.068676e+000,-9.080644e-005,3.294482e-005
2.069471e+000,-7.704280e-005,3.333631e-005
2.070265e+000,-6.361486e-005,3.361191e-005
2.071059e+000,-4.112306e-005,3.380085e-005
2.071853e+000,-1.326009e-005,3.387931e-005
2.072647e+000,9.231709e-006,3.388513e-005
2.073441e+000,1.812772e-005,3.388002e-005
2.074235e+000,2.265965e-005,3.387795e-005
2.075029e+000,3.541619e-005,3.388748e-005
2.075824e+000,4.548714e-005,3.393590e-005
2.076618e+000,4.682994e-005,3.402376e-005
2.077412e+000,5.152972e-005,3.411719e-005
2.078206e+000,5.354391e-005,3.422753e-005
2.079000e+000,6.663615e-005,3.434215e-005
2.079794e+000,8.442817e-005,3.452713e-005
2.080588e+000,1.015488e-004,3.483015e-005
2.081382e+000,1.032273e-004,3.527730e-005
2.082176e+000,8.577096e-005,3.573416e-005
2.082971e+000,5.757229e-005,3.604346e-005
2.083765e+000,3.608759e-005,3.617956e-005
2.084559e+000,1.661708e-005,3.622292e-005
2.085353e+000,1.678492e-007,3.622340e-005
2.086147e+000,-1.023880e-005,3.621175e-005
2.086941e+000,-2.836652e-005,3.620164e-005
2.087735e+000,-8.476387e-005,3.622676e-005
2.088529e+000,-1.391470e-004,3.653776e-005
2.089324e+000,-1.626459e-004,3.736728e-005
2.090118e+000,-1.524071e-004,3.846964e-005
2.090912e+000,-1.270619e-004,3.941116e-005
2.091706e+000,-1.193408e-004,4.004968e-005
2.092500e+000,-9.617762e-005,4.059911e-005
2.093294e+000,-5.824369e-005,4.094531e-005
2.094088e+000,-3.440909e-005,4.105995e-005
2.094882e+000,-1.493858e-005,4.109191e-005
2.095676e+000,-3.524834e-006,4.108852e-005
2.096471e+000,3.021286e-006,4.108184e-005
2.097265e+000,4.364080e-006,4.107572e-005
2.098059e+000,1.174945e-006,4.106660e-005
2.098853e+000,6.546120e-006,4.105367e-005
2.099647e+000,4.364080e-006,4.104505e-005
2.100441e+000,1.393149e-005,4.103914e-005
2.101235e+000,4.061952e-005,4.103638e-005
2.102029e+000,5.354391e-005,4.108877e-005
2.102824e+000,7.972839e-005,4.119513e-005
2.103618e+000,1.062486e-004,4.143581e-005
2.104412e+000,8.375677e-005,4.186001e-005
2.105206e+000,4.380865e-005,4.212206e-005
2.106000e+000,1.594568e-005,4.219084e-005
2.106794e+000,-8.224612e-006,4.219648e-005
2.107588e+000,-2.232395e-005,4.219368e-005
2.108382e+000,-2.702373e-005,4.220742e-005
2.109176e+000,-2.702373e-005,4.223198e-005
2.109971e+000,-2.131685e-005,4.225652e-005
2.110765e+000,-8.896010e-006,4.227186e-005
2.111559e+000,-2.182040e-006,4.227339e-005
2.112353e+000,-8.224612e-006,4.227102e-005
2.113147e+000,-3.843748e-005,4.226852e-005
2.113941e+000,-7.133593e-005,4.232069e-005
2.114735e+000,-8.677805e-005,4.250806e-005
2.115529e+000,-9.114214e-005,4.278628e-005
2.116324e+000,-9.483482e-005,4.308862e-005
2.117118e+000,-8.274968e-005,4.341535e-005
2.117912e+000,-7.016098e-005,4.365936e-005
2.118706e+000,-5.622950e-005,4.382725e-005
2.119500e+000,-4.330510e-005,4.393388e-005
2.120294e+000,6.881819e-006,4.399298e-005
2.121088e+000,7.502861e-005,4.398510e-005
2.121882e+000,8.509956e-005,4.417887e-005
2.122676e+000,5.690089e-005,4.443077e-005
2.123471e+000,2.735943e-005,4.453717e-005
2.124265e+000,-1.678492e-007,4.456066e-005
2.125059e+000,-1.493858e-005,4.455824e-005
2.125853e+000,-2.098116e-005,4.455894e-005
2.126647e+000,-1.393149e-005,4.456806e-005
2.127441e+000,-3.373770e-005,4.456964e-005
2.128235e+000,-5.555810e-005,4.460746e-005
2.129029e+000,-5.522240e-005,4.471273e-005
2.129824e+000,-6.630045e-005,4.481254e-005
2.130618e+000,-7.200732e-005,4.496021e-005
2.131412e+000,-6.797894e-005,4.513874e-005
2.132206e+000,-5.723659e-005,4.529431e-005
2.133000e+000,-4.078737e-005,4.539985e-005
2.133794e+000,-3.407340e-005,4.545034e-005
2.134588e+000,-3.524834e-005,4.548013e-005
2.135382e+000,-2.970932e-005,4.551777e-005
2.136176e+000,-1.980621e-005,4.554863e-005
2.136971e+000,-2.182040e-006,4.556212e-005
2.137765e+000,1.057450e-005,4.556212e-005
2.138559e+000,3.306630e-005,4.556367e-005
2.139353e+000,5.421531e-005,4.560142e-005
2.140147e+000,5.253681e-005,4.570351e-005
2.140941e+000,5.455100e-005,4.579036e-005
2.141735e+000,7.804990e-005,4.586378e-005
2.142529e+000,7.972839e-005,4.601243e-005
2.143324e+000,4.649424e-005,4.614851e-005
2.144118e+000,5.874723e-006,4.616088e-005
2.144912e+000,-1.023880e-005,4.613091e-005
2.145706e+000,-1.930266e-005,4.611176e-005
2.146500e+000,-3.508049e-005,4.611176e-005
2.147294e+000,-3.659113e-005,4.614433e-005
2.148088e+000,-5.589380e-005,4.618475e-005
2.148882e+000,-8.140688e-005,4.628717e-005
2.149676e+000,-9.147784e-005,4.651052e-005
2.150471e+000,-8.711375e-005,4.679365e-005
2.151265e+000,-7.032883e-005,4.704329e-005
2.152059e+000,-5.387960e-005,4.719151e-005
2.152853e+000,-3.642328e-005,4.727501e-005
2.153647e+000,-2.064546e-005,4.730714e-005
2.154441e+000,-1.460288e-005,4.731748e-005
2.155235e+000,-1.091020e-005,4.732457e-005
2.156029e+000,-1.678492e-007,4.732816e-005
2.156824e+000,7.553216e-006,4.732782e-005
2.157618e+000,2.584878e-005,4.732966e-005
2.158412e+000,5.488670e-005,4.735198e-005
2.159206e+000,1.218585e-004,4.744893e-005
2.160000e+000,1.911803e-004,4.793727e-005
2.160794e+000,1.952087e-004,4.912914e-005
2.161588e+000,1.552606e-004,5.033999e-005
2.162382e+000,9.382772e-005,5.108561e-005
2.163176e+000,1.997406e-005,5.135205e-005
2.163971e+000,-5.152972e-005,5.136138e-005
2.164765e+000,-1.344472e-004,5.144050e-005
2.165559e+000,-2.166934e-004,5.198892e-005
2.166353e+000,-2.566415e-004,5.340050e-005
2.167147e+000,-2.623484e-004,5.532326e-005
