X [s],L DELTOID POSTERIOR: EMG 5 [V],L DELTOID POSTERIOR: EMG 5->filter (FilterSlidingRMS45) [V]
0.000000e+000,0.000000e+000,0.000000e+000
7.941176e-004,0.000000e+000,0.000000e+000
1.588235e-003,0.000000e+000,0.000000e+000
2.382353e-003,0.000000e+000,0.000000e+000
3.176471e-003,0.000000e+000,0.000000e+000
3.970588e-003,0.000000e+000,0.000000e+000
4.764706e-003,0.000000e+000,0.000000e+000
5.558824e-003,0.000000e+000,0.000000e+000
6.352941e-003,0.000000e+000,0.000000e+000
7.147059e-003,0.000000e+000,0.000000e+000
7.941176e-003,0.000000e+000,0.000000e+000
8.735294e-003,0.000000e+000,0.000000e+000
9.529412e-003,0.000000e+000,0.000000e+000
1.032353e-002,0.000000e+000,0.000000e+000
1.111765e-002,0.000000e+000,0.000000e+000
1.191176e-002,0.000000e+000,0.000000e+000
1.270588e-002,0.000000e+000,0.000000e+000
1.350000e-002,0.000000e+000,0.000000e+000
1.429412e-002,0.000000e+000,0.000000e+000
1.508824e-002,0.000000e+000,0.000000e+000
1.588235e-002,0.000000e+000,0.000000e+000
1.667647e-002,0.000000e+000,0.000000e+000
1.747059e-002,0.000000e+000,0.000000e+000
1.826471e-002,0.000000e+000,0.000000e+000
1.905882e-002,0.000000e+000,0.000000e+000
1.985294e-002,0.000000e+000,0.000000e+000
2.064706e-002,0.000000e+000,0.000000e+000
2.144118e-002,0.000000e+000,0.000000e+000
2.223529e-002,0.000000e+000,0.000000e+000
2.302941e-002,0.000000e+000,0.000000e+000
2.382353e-002,0.000000e+000,0.000000e+000
2.461765e-002,0.000000e+000,0.000000e+000
2.541176e-002,0.000000e+000,0.000000e+000
2.620588e-002,0.000000e+000,0.000000e+000
2.700000e-002,0.000000e+000,0.000000e+000
2.779412e-002,0.000000e+000,0.000000e+000
2.858824e-002,0.000000e+000,0.000000e+000
2.938235e-002,0.000000e+000,0.000000e+000
3.017647e-002,0.000000e+000,0.000000e+000
3.097059e-002,0.000000e+000,0.000000e+000
3.176471e-002,0.000000e+000,0.000000e+000
3.255882e-002,0.000000e+000,0.000000e+000
3.335294e-002,0.000000e+000,0.000000e+000
3.414706e-002,0.000000e+000,0.000000e+000
3.494118e-002,0.000000e+000,0.000000e+000
3.573529e-002,0.000000e+000,0.000000e+000
3.652941e-002,0.000000e+000,0.000000e+000
3.732353e-002,0.000000e+000,0.000000e+000
3.811765e-002,0.000000e+000,0.000000e+000
3.891176e-002,0.000000e+000,0.000000e+000
3.970588e-002,0.000000e+000,0.000000e+000
4.050000e-002,0.000000e+000,0.000000e+000
4.129412e-002,0.000000e+000,0.000000e+000
4.208824e-002,0.000000e+000,0.000000e+000
4.288235e-002,0.000000e+000,0.000000e+000
4.367647e-002,0.000000e+000,0.000000e+000
4.447059e-002,0.000000e+000,0.000000e+000
4.526471e-002,0.000000e+000,0.000000e+000
4.605882e-002,0.000000e+000,0.000000e+000
4.685294e-002,0.000000e+000,0.000000e+000
4.764706e-002,0.000000e+000,0.000000e+000
4.844118e-002,0.000000e+000,0.000000e+000
4.923529e-002,0.000000e+000,0.000000e+000
5.002941e-002,0.000000e+000,0.000000e+000
5.082353e-002,0.000000e+000,0.000000e+000
5.161765e-002,0.000000e+000,0.000000e+000
5.241176e-002,0.000000e+000,0.000000e+000
5.320588e-002,0.000000e+000,0.000000e+000
5.400000e-002,0.000000e+000,0.000000e+000
5.479412e-002,0.000000e+000,0.000000e+000
5.558824e-002,0.000000e+000,0.000000e+000
5.638235e-002,0.000000e+000,0.000000e+000
5.717647e-002,0.000000e+000,0.000000e+000
5.797059e-002,0.000000e+000,0.000000e+000
5.876471e-002,0.000000e+000,0.000000e+000
5.955882e-002,0.000000e+000,0.000000e+000
6.035294e-002,0.000000e+000,0.000000e+000
6.114706e-002,0.000000e+000,0.000000e+000
6.194118e-002,0.000000e+000,0.000000e+000
6.273529e-002,0.000000e+000,0.000000e+000
6.352941e-002,0.000000e+000,0.000000e+000
6.432353e-002,0.000000e+000,0.000000e+000
6.511765e-002,0.000000e+000,0.000000e+000
6.591176e-002,0.000000e+000,0.000000e+000
6.670588e-002,0.000000e+000,0.000000e+000
6.750000e-002,0.000000e+000,0.000000e+000
6.829412e-002,0.000000e+000,0.000000e+000
6.908824e-002,0.000000e+000,0.000000e+000
6.988235e-002,0.000000e+000,0.000000e+000
7.067647e-002,0.000000e+000,0.000000e+000
7.147059e-002,0.000000e+000,0.000000e+000
7.226471e-002,0.000000e+000,0.000000e+000
7.305882e-002,0.000000e+000,0.000000e+000
7.385294e-002,0.000000e+000,0.000000e+000
7.464706e-002,0.000000e+000,0.000000e+000
7.544118e-002,0.000000e+000,0.000000e+000
7.623529e-002,0.000000e+000,0.000000e+000
7.702941e-002,0.000000e+000,0.000000e+000
7.782353e-002,0.000000e+000,0.000000e+000
7.861765e-002,0.000000e+000,0.000000e+000
7.941176e-002,0.000000e+000,0.000000e+000
8.020588e-002,0.000000e+000,0.000000e+000
8.100000e-002,0.000000e+000,0.000000e+000
8.179412e-002,0.000000e+000,0.000000e+000
8.258824e-002,0.000000e+000,0.000000e+000
8.338235e-002,0.000000e+000,0.000000e+000
8.417647e-002,0.000000e+000,0.000000e+000
8.497059e-002,0.000000e+000,0.000000e+000
8.576471e-002,0.000000e+000,0.000000e+000
8.655882e-002,0.000000e+000,0.000000e+000
8.735294e-002,0.000000e+000,0.000000e+000
8.814706e-002,0.000000e+000,0.000000e+000
8.894118e-002,0.000000e+000,0.000000e+000
8.973529e-002,0.000000e+000,0.000000e+000
9.052941e-002,0.000000e+000,0.000000e+000
9.132353e-002,0.000000e+000,0.000000e+000
9.211765e-002,0.000000e+000,0.000000e+000
9.291176e-002,0.000000e+000,0.000000e+000
9.370588e-002,0.000000e+000,0.000000e+000
9.450000e-002,-1.762417e-005,0.000000e+000
9.529412e-002,-1.023880e-005,0.000000e+000
9.608824e-002,-7.553216e-006,0.000000e+000
9.688235e-002,-1.174945e-005,0.000000e+000
9.767647e-002,-1.258869e-005,0.000000e+000
9.847059e-002,-1.174945e-005,0.000000e+000
9.926471e-002,-1.057450e-005,0.000000e+000
1.000588e-001,-8.560311e-006,0.000000e+000
1.008529e-001,-8.896010e-006,0.000000e+000
1.016471e-001,-1.527428e-005,0.000000e+000
1.024412e-001,-1.460288e-005,0.000000e+000
1.032353e-001,-1.493858e-005,0.000000e+000
1.040294e-001,-1.527428e-005,0.000000e+000
1.048235e-001,-1.728847e-005,0.000000e+000
1.056176e-001,-1.527428e-005,0.000000e+000
1.064118e-001,-1.527428e-005,0.000000e+000
1.072059e-001,-1.963836e-005,0.000000e+000
1.080000e-001,-1.762417e-005,0.000000e+000
1.087941e-001,-1.426719e-005,0.000000e+000
1.095882e-001,-1.292439e-005,0.000000e+000
1.103824e-001,-1.359579e-005,0.000000e+000
1.111765e-001,-1.795987e-005,0.000000e+000
1.119706e-001,-1.829557e-005,0.000000e+000
1.127647e-001,-1.292439e-005,0.000000e+000
1.135588e-001,-9.735256e-006,0.000000e+000
1.143529e-001,-9.903105e-006,0.000000e+000
1.151471e-001,-8.896010e-006,0.000000e+000
1.159412e-001,-6.881819e-006,0.000000e+000
1.167353e-001,-7.553216e-006,0.000000e+000
1.175294e-001,-9.903105e-006,0.000000e+000
1.183235e-001,-1.225299e-005,0.000000e+000
1.191176e-001,-1.158160e-005,0.000000e+000
1.199118e-001,-1.158160e-005,0.000000e+000
1.207059e-001,-1.258869e-005,0.000000e+000
1.215000e-001,-1.359579e-005,0.000000e+000
1.222941e-001,-1.628138e-005,0.000000e+000
1.230882e-001,-1.359579e-005,0.000000e+000
1.238824e-001,-1.628138e-005,0.000000e+000
1.246765e-001,-1.560998e-005,0.000000e+000
1.254706e-001,-1.023880e-005,0.000000e+000
1.262647e-001,-1.040665e-005,0.000000e+000
1.270588e-001,-9.903105e-006,0.000000e+000
1.278529e-001,-1.124590e-005,0.000000e+000
1.286471e-001,-1.258869e-005,0.000000e+000
1.294412e-001,-1.124590e-005,0.000000e+000
1.302353e-001,-6.881819e-006,0.000000e+000
1.310294e-001,-5.539025e-006,0.000000e+000
1.318235e-001,-1.158160e-005,0.000000e+000
1.326176e-001,-1.577783e-005,0.000000e+000
1.334118e-001,-1.795987e-005,0.000000e+000
1.342059e-001,-1.829557e-005,0.000000e+000
1.350000e-001,-1.628138e-005,0.000000e+000
1.357941e-001,-1.594568e-005,0.000000e+000
1.365882e-001,-1.963836e-005,0.000000e+000
1.373824e-001,-2.299535e-005,0.000000e+000
1.381765e-001,-2.299535e-005,0.000000e+000
1.389706e-001,-1.560998e-005,0.000000e+000
1.397647e-001,-1.493858e-005,0.000000e+000
1.405588e-001,-1.762417e-005,0.000000e+000
1.413529e-001,-1.628138e-005,0.000000e+000
1.421471e-001,-1.292439e-005,0.000000e+000
1.429412e-001,-7.888914e-006,0.000000e+000
1.437353e-001,-1.326009e-005,0.000000e+000
1.445294e-001,-1.628138e-005,0.000000e+000
1.453235e-001,-1.359579e-005,0.000000e+000
1.461176e-001,-1.225299e-005,0.000000e+000
1.469118e-001,-1.174945e-005,0.000000e+000
1.477059e-001,-1.493858e-005,0.000000e+000
1.485000e-001,-1.124590e-005,0.000000e+000
1.492941e-001,-1.124590e-005,0.000000e+000
1.500882e-001,-1.460288e-005,0.000000e+000
1.508824e-001,-1.158160e-005,0.000000e+000
1.516765e-001,-1.091020e-005,0.000000e+000
1.524706e-001,-1.493858e-005,0.000000e+000
1.532647e-001,-1.661708e-005,0.000000e+000
1.540588e-001,-1.225299e-005,0.000000e+000
1.548529e-001,-1.057450e-005,0.000000e+000
1.556471e-001,-1.091020e-005,0.000000e+000
1.564412e-001,-1.359579e-005,0.000000e+000
1.572353e-001,-2.030976e-005,0.000000e+000
1.580294e-001,-2.098116e-005,0.000000e+000
1.588235e-001,-2.232395e-005,0.000000e+000
1.596176e-001,-2.030976e-005,0.000000e+000
1.604118e-001,-1.695277e-005,0.000000e+000
1.612059e-001,-1.963836e-005,0.000000e+000
1.620000e-001,-1.963836e-005,0.000000e+000
1.627941e-001,-2.098116e-005,0.000000e+000
1.635882e-001,-2.098116e-005,0.000000e+000
1.643824e-001,-2.198825e-005,0.000000e+000
1.651765e-001,-2.098116e-005,0.000000e+000
1.659706e-001,-2.366674e-005,0.000000e+000
1.667647e-001,-2.198825e-005,0.000000e+000
1.675588e-001,-1.560998e-005,0.000000e+000
1.683529e-001,-1.527428e-005,0.000000e+000
1.691471e-001,-1.426719e-005,0.000000e+000
1.699412e-001,-1.359579e-005,0.000000e+000
1.707353e-001,-1.158160e-005,0.000000e+000
1.715294e-001,-9.903105e-006,0.000000e+000
1.723235e-001,-8.224612e-006,0.000000e+000
1.731176e-001,-8.896010e-006,0.000000e+000
1.739118e-001,-1.091020e-005,0.000000e+000
1.747059e-001,-1.023880e-005,0.000000e+000
1.755000e-001,-1.091020e-005,0.000000e+000
1.762941e-001,-1.225299e-005,0.000000e+000
1.770882e-001,-1.007095e-005,0.000000e+000
1.778824e-001,-1.091020e-005,0.000000e+000
1.786765e-001,-1.493858e-005,0.000000e+000
1.794706e-001,-1.426719e-005,0.000000e+000
1.802647e-001,-1.359579e-005,0.000000e+000
1.810588e-001,-1.023880e-005,0.000000e+000
1.818529e-001,-9.567407e-006,0.000000e+000
1.826471e-001,-1.258869e-005,0.000000e+000
1.834412e-001,-1.158160e-005,0.000000e+000
1.842353e-001,-1.426719e-005,0.000000e+000
1.850294e-001,-1.762417e-005,0.000000e+000
1.858235e-001,-1.258869e-005,0.000000e+000
1.866176e-001,-1.091020e-005,0.000000e+000
1.874118e-001,-9.567407e-006,0.000000e+000
1.882059e-001,-1.040665e-005,0.000000e+000
1.890000e-001,-9.567407e-006,0.000000e+000
1.897941e-001,-1.124590e-005,0.000000e+000
1.905882e-001,-1.493858e-005,0.000000e+000
1.913824e-001,-1.326009e-005,0.000000e+000
1.921765e-001,-1.023880e-005,0.000000e+000
1.929706e-001,-9.903105e-006,0.000000e+000
1.937647e-001,-8.896010e-006,0.000000e+000
1.945588e-001,-1.158160e-005,0.000000e+000
1.953529e-001,-1.426719e-005,0.000000e+000
1.961471e-001,-1.426719e-005,0.000000e+000
1.969412e-001,-1.712062e-005,0.000000e+000
1.977353e-001,-2.165255e-005,0.000000e+000
1.985294e-001,-2.182040e-005,0.000000e+000
1.993235e-001,-1.963836e-005,0.000000e+000
2.001176e-001,-1.225299e-005,0.000000e+000
2.009118e-001,-9.567407e-006,0.000000e+000
2.017059e-001,-1.359579e-005,0.000000e+000
2.025000e-001,-1.493858e-005,0.000000e+000
2.032941e-001,-1.493858e-005,0.000000e+000
2.040882e-001,-1.443504e-005,0.000000e+000
2.048824e-001,-1.292439e-005,0.000000e+000
2.056765e-001,-1.527428e-005,0.000000e+000
2.064706e-001,-1.762417e-005,0.000000e+000
2.072647e-001,-1.510643e-005,0.000000e+000
2.080588e-001,-1.292439e-005,0.000000e+000
2.088529e-001,-1.510643e-005,0.000000e+000
2.096471e-001,-1.728847e-005,0.000000e+000
2.104412e-001,-1.493858e-005,0.000000e+000
2.112353e-001,-1.762417e-005,0.000000e+000
2.120294e-001,-1.829557e-005,0.000000e+000
2.128235e-001,-1.628138e-005,0.000000e+000
2.136176e-001,-1.023880e-005,0.000000e+000
2.144118e-001,-1.023880e-005,0.000000e+000
2.152059e-001,-1.158160e-005,0.000000e+000
2.160000e-001,-1.426719e-005,0.000000e+000
2.167941e-001,-1.527428e-005,0.000000e+000
2.175882e-001,-1.527428e-005,0.000000e+000
2.183824e-001,-1.460288e-005,0.000000e+000
2.191765e-001,-1.091020e-005,0.000000e+000
2.199706e-001,-3.021286e-006,0.000000e+000
2.207647e-001,-2.853437e-006,0.000000e+000
2.215588e-001,-1.023880e-005,0.000000e+000
2.223529e-001,-1.040665e-005,0.000000e+000
2.231471e-001,-1.426719e-005,0.000000e+000
2.239412e-001,-1.930266e-005,0.000000e+000
2.247353e-001,-1.896696e-005,0.000000e+000
2.255294e-001,-1.560998e-005,0.000000e+000
2.263235e-001,-1.510643e-005,0.000000e+000
2.271176e-001,-1.628138e-005,0.000000e+000
2.279118e-001,-1.493858e-005,0.000000e+000
2.287059e-001,-1.326009e-005,0.000000e+000
2.295000e-001,-1.359579e-005,0.000000e+000
2.302941e-001,-1.174945e-005,0.000000e+000
2.310882e-001,-1.225299e-005,0.000000e+000
2.318824e-001,-1.527428e-005,0.000000e+000
2.326765e-001,-1.493858e-005,0.000000e+000
2.334706e-001,-1.057450e-005,0.000000e+000
2.342647e-001,-8.224612e-006,0.000000e+000
2.350588e-001,-8.224612e-006,0.000000e+000
2.358529e-001,-9.567407e-006,0.000000e+000
2.366471e-001,-6.546120e-006,0.000000e+000
2.374412e-001,-5.539025e-006,0.000000e+000
2.382353e-001,-5.539025e-006,0.000000e+000
2.390294e-001,-1.124590e-005,0.000000e+000
2.398235e-001,-1.628138e-005,0.000000e+000
2.406176e-001,-1.510643e-005,0.000000e+000
2.414118e-001,-1.628138e-005,0.000000e+000
2.422059e-001,-1.560998e-005,0.000000e+000
2.430000e-001,-1.225299e-005,0.000000e+000
2.437941e-001,-1.292439e-005,0.000000e+000
2.445882e-001,-1.712062e-005,0.000000e+000
2.453824e-001,-2.098116e-005,0.000000e+000
2.461765e-001,-1.695277e-005,0.000000e+000
2.469706e-001,-1.896696e-005,0.000000e+000
2.477647e-001,-2.030976e-005,0.000000e+000
2.485588e-001,-2.198825e-005,0.000000e+000
2.493529e-001,-2.333104e-005,1.135454e-005
2.501471e-001,-2.719158e-005,1.143063e-005
2.509412e-001,-2.920577e-005,1.153317e-005
2.517353e-001,-2.702373e-005,1.165034e-005
2.525294e-001,-2.568093e-005,1.174973e-005
2.533235e-001,-2.232395e-005,1.183877e-005
2.541176e-001,-2.165255e-005,1.190561e-005
2.549118e-001,-2.131685e-005,1.196816e-005
2.557059e-001,-2.030976e-005,1.202846e-005
2.565000e-001,-1.896696e-005,1.208294e-005
2.572941e-001,-1.426719e-005,1.213026e-005
2.580882e-001,-1.023880e-005,1.215695e-005
2.588824e-001,-1.292439e-005,1.217068e-005
2.596765e-001,-1.426719e-005,1.219251e-005
2.604706e-001,-1.124590e-005,1.221907e-005
2.612647e-001,-8.560311e-006,1.223554e-005
2.620588e-001,-9.567407e-006,1.224507e-005
2.628529e-001,-6.546120e-006,1.225697e-005
2.636471e-001,-4.196231e-006,1.226253e-005
2.644412e-001,-3.189136e-006,1.226482e-005
2.652353e-001,-5.203327e-006,1.226614e-005
2.660294e-001,-9.903105e-006,1.226965e-005
2.668235e-001,-1.292439e-005,1.228238e-005
2.676176e-001,-6.210422e-006,1.230401e-005
2.684118e-001,-5.706874e-006,1.230900e-005
2.692059e-001,-6.881819e-006,1.231322e-005
2.700000e-001,-1.091020e-005,1.231934e-005
2.707941e-001,-1.426719e-005,1.233471e-005
2.715882e-001,-1.426719e-005,1.236096e-005
2.723824e-001,-9.567407e-006,1.238716e-005
2.731765e-001,-1.023880e-005,1.239892e-005
2.739706e-001,-8.896010e-006,1.241238e-005
2.747647e-001,-1.225299e-005,1.242252e-005
2.755588e-001,-1.560998e-005,1.244175e-005
2.763529e-001,-1.225299e-005,1.247290e-005
2.771471e-001,-1.091020e-005,1.249205e-005
2.779412e-001,-5.874723e-006,1.250722e-005
2.787353e-001,-3.189136e-006,1.251161e-005
2.795294e-001,-4.196231e-006,1.251291e-005
2.803235e-001,-6.210422e-006,1.251515e-005
2.811176e-001,-4.867628e-006,1.252005e-005
2.819118e-001,-3.692683e-006,1.252307e-005
2.827059e-001,-1.091020e-005,1.252480e-005
2.835000e-001,-1.628138e-005,1.253992e-005
2.842941e-001,-1.795987e-005,1.257354e-005
2.850882e-001,-2.030976e-005,1.261432e-005
2.858824e-001,-2.030976e-005,1.266629e-005
2.866765e-001,-1.930266e-005,1.271804e-005
2.874706e-001,-2.098116e-005,1.276460e-005
2.882647e-001,-2.366674e-005,1.281940e-005
2.890588e-001,-2.467384e-005,1.288879e-005
2.898529e-001,-2.182040e-005,1.296378e-005
2.906471e-001,-1.829557e-005,1.302213e-005
2.914412e-001,-1.628138e-005,1.306300e-005
2.922353e-001,-1.158160e-005,1.309527e-005
2.930294e-001,-6.881819e-006,1.311157e-005
2.938235e-001,-5.539025e-006,1.311732e-005
2.946176e-001,-5.539025e-006,1.312105e-005
2.954118e-001,-6.210422e-006,1.312477e-005
2.962059e-001,-9.903105e-006,1.312945e-005
2.970000e-001,-8.224612e-006,1.314134e-005
2.977941e-001,-7.888914e-006,1.314953e-005
2.985882e-001,-8.224612e-006,1.315707e-005
2.993824e-001,-7.553216e-006,1.316525e-005
3.001765e-001,-8.224612e-006,1.317215e-005
3.009706e-001,-1.292439e-005,1.318032e-005
3.017647e-001,-1.326009e-005,1.320049e-005
3.025588e-001,-1.460288e-005,1.322168e-005
3.033529e-001,-1.426719e-005,1.324734e-005
3.041471e-001,-1.292439e-005,1.327179e-005
3.049412e-001,-1.258869e-005,1.329181e-005
3.057353e-001,-1.661708e-005,1.331078e-005
3.065294e-001,-1.980621e-005,1.334378e-005
3.073235e-001,-1.628138e-005,1.339051e-005
3.081176e-001,-1.359579e-005,1.342199e-005
3.089118e-001,-1.594568e-005,1.344390e-005
3.097059e-001,-2.030976e-005,1.347399e-005
3.105000e-001,-1.896696e-005,1.352265e-005
3.112941e-001,-1.896696e-005,1.356494e-005
3.120882e-001,-1.628138e-005,1.360710e-005
3.128824e-001,-1.560998e-005,1.363809e-005
3.136765e-001,-1.997406e-005,1.366651e-005
3.144706e-001,-2.165255e-005,1.371292e-005
3.152647e-001,-2.165255e-005,1.376725e-005
3.160588e-001,-2.299535e-005,1.382137e-005
3.168529e-001,-2.131685e-005,1.388216e-005
3.176471e-001,-1.829557e-005,1.393418e-005
3.184412e-001,-1.644922e-005,1.397238e-005
3.192353e-001,-1.560998e-005,1.400319e-005
3.200294e-001,-1.158160e-005,1.403087e-005
3.208235e-001,-9.903105e-006,1.404608e-005
3.216176e-001,-8.224612e-006,1.405720e-005
3.224118e-001,-1.091020e-005,1.406486e-005
3.232059e-001,-1.326009e-005,1.407833e-005
3.240000e-001,-1.460288e-005,1.409820e-005
3.247941e-001,-1.124590e-005,1.412226e-005
3.255882e-001,-1.292439e-005,1.413652e-005
3.263824e-001,-6.881819e-006,1.415532e-005
3.271765e-001,-4.196231e-006,1.416065e-005
3.279706e-001,-6.881819e-006,1.416263e-005
3.287647e-001,-1.040665e-005,1.416795e-005
3.295588e-001,-1.174945e-005,1.418012e-005
3.303529e-001,-1.359579e-005,1.419561e-005
3.311471e-001,-1.493858e-005,1.421633e-005
3.319412e-001,-1.292439e-005,1.424130e-005
3.327353e-001,-1.158160e-005,1.425997e-005
3.335294e-001,-1.124590e-005,1.427494e-005
3.343235e-001,-1.091020e-005,1.428904e-005
3.351176e-001,-8.560311e-006,1.430230e-005
3.359118e-001,-8.896010e-006,1.431046e-005
3.367059e-001,-7.721065e-006,1.431926e-005
3.375000e-001,-9.567407e-006,1.432589e-005
3.382941e-001,-1.191730e-005,1.433606e-005
3.390882e-001,-1.292439e-005,1.435182e-005
3.398824e-001,-1.493858e-005,1.437034e-005
3.406765e-001,-1.560998e-005,1.439505e-005
3.414706e-001,-1.896696e-005,1.442198e-005
3.422647e-001,-2.232395e-005,1.446165e-005
3.430588e-001,-2.030976e-005,1.451642e-005
3.438529e-001,-1.829557e-005,1.456159e-005
3.446471e-001,-1.963836e-005,1.456423e-005
3.454412e-001,-2.064546e-005,1.459490e-005
3.462353e-001,-1.712062e-005,1.463513e-005
3.470294e-001,-1.930266e-005,1.465199e-005
3.478235e-001,-2.030976e-005,1.467524e-005
3.486176e-001,-1.493858e-005,1.470499e-005
3.494118e-001,-1.091020e-005,1.471704e-005
3.502059e-001,-6.881819e-006,1.472199e-005
3.510000e-001,-8.224612e-006,1.471855e-005
3.517941e-001,-1.023880e-005,1.470062e-005
3.525882e-001,-9.567407e-006,1.468887e-005
3.533824e-001,-1.359579e-005,1.467460e-005
3.541765e-001,-1.292439e-005,1.466934e-005
3.549706e-001,-1.292439e-005,1.465502e-005
3.557647e-001,-1.023880e-005,1.464782e-005
3.565588e-001,-9.567407e-006,1.463384e-005
3.573529e-001,-6.881819e-006,1.460180e-005
3.581471e-001,-7.888914e-006,1.457306e-005
3.589412e-001,-1.124590e-005,1.455762e-005
3.597353e-001,-9.567407e-006,1.455318e-005
3.605294e-001,-1.493858e-005,1.454296e-005
3.613235e-001,-1.762417e-005,1.453208e-005
3.621176e-001,-1.997406e-005,1.452943e-005
3.629118e-001,-2.232395e-005,1.455483e-005
3.637059e-001,-1.896696e-005,1.459892e-005
3.645000e-001,-1.661708e-005,1.462743e-005
3.652941e-001,-1.493858e-005,1.464886e-005
3.660882e-001,-1.493858e-005,1.466796e-005
3.668824e-001,-1.728847e-005,1.468598e-005
3.676765e-001,-1.896696e-005,1.470774e-005
3.684706e-001,-1.795987e-005,1.473041e-005
3.692647e-001,-1.628138e-005,1.475077e-005
3.700588e-001,-1.393149e-005,1.476490e-005
3.708529e-001,-1.930266e-005,1.476874e-005
3.716471e-001,-2.131685e-005,1.478897e-005
3.724412e-001,-1.225299e-005,1.480934e-005
3.732353e-001,-9.567407e-006,1.480560e-005
3.740294e-001,-8.896010e-006,1.478693e-005
3.748235e-001,-1.124590e-005,1.476920e-005
3.756176e-001,-1.728847e-005,1.477153e-005
3.764118e-001,-1.594568e-005,1.479206e-005
3.772059e-001,-1.359579e-005,1.480887e-005
3.780000e-001,-1.560998e-005,1.481514e-005
3.787941e-001,-1.292439e-005,1.482430e-005
3.795882e-001,-8.560311e-006,1.482865e-005
3.803824e-001,-8.224612e-006,1.483144e-005
3.811765e-001,-6.881819e-006,1.483540e-005
3.819706e-001,-8.896010e-006,1.482609e-005
3.827647e-001,-9.903105e-006,1.480784e-005
3.835588e-001,-1.091020e-005,1.478368e-005
3.843529e-001,-9.567407e-006,1.476043e-005
3.851471e-001,-7.553216e-006,1.474169e-005
3.859412e-001,-7.721065e-006,1.472038e-005
3.867353e-001,-1.225299e-005,1.468507e-005
3.875294e-001,-1.460288e-005,1.464395e-005
3.883235e-001,-1.292439e-005,1.460960e-005
3.891176e-001,-9.567407e-006,1.460124e-005
3.899118e-001,-1.158160e-005,1.458688e-005
3.907059e-001,-1.695277e-005,1.456760e-005
3.915000e-001,-1.896696e-005,1.457004e-005
3.922941e-001,-1.728847e-005,1.459109e-005
3.930882e-001,-1.695277e-005,1.461689e-005
3.938824e-001,-1.695277e-005,1.462904e-005
3.946765e-001,-1.628138e-005,1.463147e-005
3.954706e-001,-1.560998e-005,1.464020e-005
3.962647e-001,-1.409934e-005,1.465037e-005
3.970588e-001,-1.124590e-005,1.465697e-005
3.978529e-001,-1.091020e-005,1.464646e-005
3.986471e-001,-1.426719e-005,1.464565e-005
3.994412e-001,-1.258869e-005,1.465403e-005
4.002353e-001,-1.292439e-005,1.464808e-005
4.010294e-001,-1.628138e-005,1.465165e-005
4.018235e-001,-1.628138e-005,1.466752e-005
4.026176e-001,-1.829557e-005,1.467207e-005
4.034118e-001,-1.628138e-005,1.467843e-005
4.042059e-001,-1.225299e-005,1.469089e-005
4.050000e-001,-8.896010e-006,1.469504e-005
4.057941e-001,-8.560311e-006,1.469072e-005
4.065882e-001,-1.091020e-005,1.467862e-005
4.073824e-001,-1.124590e-005,1.464675e-005
4.081765e-001,-1.560998e-005,1.461260e-005
4.089706e-001,-1.628138e-005,1.458482e-005
4.097647e-001,-1.628138e-005,1.456872e-005
4.105588e-001,-1.493858e-005,1.456628e-005
4.113529e-001,-1.527428e-005,1.454851e-005
4.121471e-001,-1.359579e-005,1.453182e-005
4.129412e-001,-1.560998e-005,1.450381e-005
4.137353e-001,-1.896696e-005,1.448222e-005
4.145294e-001,-1.896696e-005,1.446861e-005
4.153235e-001,-1.695277e-005,1.445975e-005
4.161176e-001,-1.560998e-005,1.442969e-005
4.169118e-001,-1.091020e-005,1.440320e-005
4.177059e-001,-1.107805e-005,1.438941e-005
4.185000e-001,-1.225299e-005,1.437717e-005
4.192941e-001,-1.158160e-005,1.437125e-005
4.200882e-001,-1.493858e-005,1.436563e-005
4.208824e-001,-1.359579e-005,1.437550e-005
4.216765e-001,-1.191730e-005,1.438510e-005
4.224706e-001,-1.762417e-005,1.439333e-005
4.232647e-001,-1.829557e-005,1.441892e-005
4.240588e-001,-1.963836e-005,1.444272e-005
4.248529e-001,-2.232395e-005,1.447365e-005
4.256471e-001,-2.098116e-005,1.451532e-005
4.264412e-001,-1.980621e-005,1.454711e-005
4.272353e-001,-2.165255e-005,1.457891e-005
4.280294e-001,-2.030976e-005,1.461707e-005
4.288235e-001,-2.165255e-005,1.463768e-005
4.296176e-001,-2.467384e-005,1.466651e-005
4.304118e-001,-2.299535e-005,1.471247e-005
4.312059e-001,-2.232395e-005,1.475828e-005
4.320000e-001,-2.030976e-005,1.480211e-005
4.327941e-001,-1.980621e-005,1.482941e-005
4.335882e-001,-1.913481e-005,1.485710e-005
4.343824e-001,-1.628138e-005,1.487452e-005
4.351765e-001,-1.628138e-005,1.486965e-005
4.359706e-001,-1.560998e-005,1.488106e-005
4.367647e-001,-1.426719e-005,1.489439e-005
4.375588e-001,-1.359579e-005,1.490636e-005
4.383529e-001,-1.258869e-005,1.491453e-005
4.391471e-001,-1.326009e-005,1.492168e-005
4.399412e-001,-9.903105e-006,1.492695e-005
4.407353e-001,-3.860533e-006,1.491360e-005
4.415294e-001,-6.210422e-006,1.489640e-005
4.423235e-001,-7.553216e-006,1.488932e-005
4.431176e-001,-2.853437e-006,1.488493e-005
4.439118e-001,-4.867628e-006,1.487733e-005
4.447059e-001,-1.174945e-005,1.486551e-005
4.455000e-001,-9.567407e-006,1.485849e-005
4.462941e-001,-6.210422e-006,1.484648e-005
4.470882e-001,-7.217518e-006,1.481915e-005
4.478824e-001,-1.023880e-005,1.477431e-005
4.486765e-001,-7.553216e-006,1.473423e-005
4.494706e-001,-7.553216e-006,1.469868e-005
4.502647e-001,-9.903105e-006,1.468859e-005
4.510588e-001,-6.881819e-006,1.468930e-005
4.518529e-001,-5.706874e-006,1.467439e-005
4.526471e-001,-6.881819e-006,1.465369e-005
4.534412e-001,-6.546120e-006,1.463457e-005
4.542353e-001,-1.023880e-005,1.461655e-005
4.550294e-001,-8.224612e-006,1.460977e-005
4.558235e-001,-1.091020e-005,1.459171e-005
4.566176e-001,-1.292439e-005,1.457079e-005
4.574118e-001,-1.359579e-005,1.456410e-005
4.582059e-001,-1.393149e-005,1.456605e-005
4.590000e-001,-1.023880e-005,1.456232e-005
4.597941e-001,-7.049668e-006,1.454108e-005
4.605882e-001,-1.091020e-005,1.452207e-005
4.613824e-001,-1.443504e-005,1.450105e-005
4.621765e-001,-1.560998e-005,1.448717e-005
4.629706e-001,-1.393149e-005,1.448482e-005
4.637647e-001,-1.695277e-005,1.449463e-005
4.645588e-001,-1.728847e-005,1.451467e-005
4.653529e-001,-1.863127e-005,1.453273e-005
4.661471e-001,-1.795987e-005,1.454846e-005
4.669412e-001,-1.795987e-005,1.455822e-005
4.677353e-001,-1.829557e-005,1.456798e-005
4.685294e-001,-1.829557e-005,1.458125e-005
4.693235e-001,-1.963836e-005,1.460479e-005
4.701176e-001,-2.030976e-005,1.464578e-005
4.709118e-001,-1.963836e-005,1.468968e-005
4.717059e-001,-1.846342e-005,1.472009e-005
4.725000e-001,-1.661708e-005,1.474523e-005
4.732941e-001,-1.863127e-005,1.475307e-005
4.740882e-001,-1.963836e-005,1.475032e-005
4.748824e-001,-1.527428e-005,1.475312e-005
4.756765e-001,-1.544213e-005,1.475200e-005
4.764706e-001,-1.493858e-005,1.475311e-005
4.772647e-001,-1.493858e-005,1.474858e-005
4.780588e-001,-1.644922e-005,1.474858e-005
4.788529e-001,-1.359579e-005,1.475881e-005
4.796471e-001,-1.359579e-005,1.475881e-005
4.804412e-001,-1.091020e-005,1.476386e-005
4.812353e-001,-4.867628e-006,1.476050e-005
4.820294e-001,-7.553216e-006,1.473787e-005
4.828235e-001,-1.091020e-005,1.471991e-005
4.836176e-001,-1.191730e-005,1.472069e-005
4.844118e-001,-1.896696e-005,1.472874e-005
4.852059e-001,-1.896696e-005,1.476028e-005
4.860000e-001,-1.527428e-005,1.478919e-005
4.867941e-001,-1.359579e-005,1.480968e-005
4.875882e-001,-1.057450e-005,1.482625e-005
4.883824e-001,-1.174945e-005,1.483496e-005
4.891765e-001,-1.091020e-005,1.483620e-005
4.899706e-001,-1.292439e-005,1.482052e-005
4.907647e-001,-1.393149e-005,1.481395e-005
4.915588e-001,-1.359579e-005,1.480631e-005
4.923529e-001,-1.158160e-005,1.479998e-005
4.931471e-001,-1.124590e-005,1.479826e-005
4.939412e-001,-1.124590e-005,1.479390e-005
4.947353e-001,-1.292439e-005,1.477595e-005
4.955294e-001,-1.040665e-005,1.474648e-005
4.963235e-001,-1.292439e-005,1.472713e-005
4.971176e-001,-1.359579e-005,1.470628e-005
4.979118e-001,-1.158160e-005,1.468161e-005
4.987059e-001,-1.124590e-005,1.464367e-005
4.995000e-001,-1.393149e-005,1.459816e-005
5.002941e-001,-1.493858e-005,1.453856e-005
5.010882e-001,-1.493858e-005,1.446941e-005
5.018824e-001,-1.393149e-005,1.441349e-005
5.026765e-001,-1.560998e-005,1.436198e-005
5.034706e-001,-1.560998e-005,1.433372e-005
5.042647e-001,-1.460288e-005,1.430868e-005
5.050588e-001,-1.225299e-005,1.428182e-005
5.058529e-001,-1.359579e-005,1.425254e-005
5.066471e-001,-1.527428e-005,1.423298e-005
5.074412e-001,-1.292439e-005,1.423631e-005
5.082353e-001,-1.225299e-005,1.424327e-005
5.090294e-001,-1.493858e-005,1.424138e-005
5.098235e-001,-1.493858e-005,1.424357e-005
5.106176e-001,-8.224612e-006,1.425437e-005
5.114118e-001,-6.881819e-006,1.425374e-005
5.122059e-001,-6.881819e-006,1.424881e-005
5.130000e-001,-4.867628e-006,1.424931e-005
5.137941e-001,-6.210422e-006,1.424999e-005
5.145882e-001,-7.217518e-006,1.425317e-005
5.153824e-001,-7.553216e-006,1.425596e-005
5.161765e-001,-1.292439e-005,1.425138e-005
5.169706e-001,-1.644922e-005,1.425138e-005
5.177647e-001,-1.963836e-005,1.427728e-005
5.185588e-001,-2.232395e-005,1.431660e-005
5.193529e-001,-2.249180e-005,1.436668e-005
5.201471e-001,-2.098116e-005,1.440949e-005
5.209412e-001,-1.896696e-005,1.443562e-005
5.217353e-001,-1.728847e-005,1.445284e-005
5.225294e-001,-1.493858e-005,1.447567e-005
5.233235e-001,-1.695277e-005,1.448868e-005
5.241176e-001,-1.359579e-005,1.451155e-005
5.249118e-001,-1.829557e-005,1.451536e-005
5.257059e-001,-2.165255e-005,1.452534e-005
5.265000e-001,-2.064546e-005,1.456024e-005
5.272941e-001,-1.661708e-005,1.459380e-005
5.280882e-001,-2.064546e-005,1.462013e-005
5.288824e-001,-2.165255e-005,1.466538e-005
5.296765e-001,-2.030976e-005,1.471429e-005
5.304706e-001,-1.930266e-005,1.475470e-005
5.312647e-001,-1.661708e-005,1.479231e-005
5.320588e-001,-1.426719e-005,1.482054e-005
5.328529e-001,-1.560998e-005,1.482961e-005
5.336471e-001,-1.493858e-005,1.482732e-005
5.344412e-001,-1.091020e-005,1.481664e-005
5.352353e-001,-7.553216e-006,1.478507e-005
5.360294e-001,-9.567407e-006,1.474674e-005
5.368235e-001,-1.124590e-005,1.471636e-005
5.376176e-001,-8.224612e-006,1.468237e-005
5.384118e-001,-9.567407e-006,1.462886e-005
5.392059e-001,-1.493858e-005,1.457245e-005
5.400000e-001,-1.493858e-005,1.454478e-005
5.407941e-001,-1.158160e-005,1.453256e-005
5.415882e-001,-1.292439e-005,1.451820e-005
5.423824e-001,-1.560998e-005,1.452181e-005
5.431765e-001,-1.795987e-005,1.454332e-005
5.439706e-001,-2.030976e-005,1.457525e-005
5.447647e-001,-2.047761e-005,1.461690e-005
5.455588e-001,-2.030976e-005,1.465832e-005
5.463529e-001,-1.863127e-005,1.469244e-005
5.471471e-001,-1.762417e-005,1.472269e-005
5.479412e-001,-1.762417e-005,1.474953e-005
5.487353e-001,-1.493858e-005,1.477574e-005
5.495294e-001,-1.426719e-005,1.479363e-005
5.503235e-001,-1.376364e-005,1.480825e-005
5.511176e-001,-1.628138e-005,1.481066e-005
5.519118e-001,-1.896696e-005,1.482025e-005
5.527059e-001,-1.426719e-005,1.483599e-005
5.535000e-001,-1.040665e-005,1.483599e-005
5.542941e-001,-8.224612e-006,1.482968e-005
5.550882e-001,-6.210422e-006,1.481992e-005
5.558824e-001,-6.210422e-006,1.479438e-005
5.566765e-001,-7.721065e-006,1.475626e-005
5.574706e-001,-8.896010e-006,1.473407e-005
5.582647e-001,-7.553216e-006,1.472264e-005
5.590588e-001,-1.057450e-005,1.470129e-005
5.598529e-001,-7.217518e-006,1.466869e-005
5.606471e-001,-5.874723e-006,1.463526e-005
5.614412e-001,-1.023880e-005,1.459983e-005
5.622353e-001,-1.124590e-005,1.458234e-005
5.630294e-001,-1.158160e-005,1.456954e-005
5.638235e-001,-1.393149e-005,1.454056e-005
5.646176e-001,-1.258869e-005,1.451044e-005
5.654118e-001,-1.393149e-005,1.447635e-005
5.662059e-001,-1.493858e-005,1.443948e-005
5.670000e-001,-1.158160e-005,1.441396e-005
5.677941e-001,-9.903105e-006,1.439178e-005
5.685882e-001,-1.091020e-005,1.437268e-005
5.693824e-001,-1.023880e-005,1.435887e-005
5.701765e-001,-1.023880e-005,1.435562e-005
5.709706e-001,-1.023880e-005,1.435637e-005
5.717647e-001,-1.292439e-005,1.436049e-005
5.725588e-001,-1.326009e-005,1.436581e-005
5.733529e-001,-1.560998e-005,1.436581e-005
5.741471e-001,-1.795987e-005,1.436919e-005
5.749412e-001,-1.359579e-005,1.439090e-005
5.757353e-001,-1.091020e-005,1.439287e-005
5.765294e-001,-1.158160e-005,1.440080e-005
5.773235e-001,-1.326009e-005,1.441368e-005
5.781176e-001,-1.359579e-005,1.442786e-005
5.789118e-001,-1.225299e-005,1.443631e-005
5.797059e-001,-1.393149e-005,1.443764e-005
5.805000e-001,-1.762417e-005,1.443866e-005
5.812941e-001,-1.628138e-005,1.444830e-005
5.820882e-001,-1.359579e-005,1.445910e-005
5.828824e-001,-1.359579e-005,1.446469e-005
5.836765e-001,-1.376364e-005,1.447111e-005
5.844706e-001,-1.393149e-005,1.447886e-005
5.852647e-001,-8.560311e-006,1.449214e-005
5.860588e-001,-7.553216e-006,1.449149e-005
5.868529e-001,-1.107805e-005,1.449121e-005
5.876471e-001,-1.091020e-005,1.449464e-005
5.884412e-001,-1.158160e-005,1.449211e-005
5.892353e-001,-1.393149e-005,1.448850e-005
5.900294e-001,-1.661708e-005,1.448530e-005
5.908235e-001,-1.661708e-005,1.448887e-005
5.916176e-001,-2.131685e-005,1.447967e-005
5.924118e-001,-2.030976e-005,1.447484e-005
5.932059e-001,-1.527428e-005,1.447484e-005
5.940000e-001,-1.426719e-005,1.446368e-005
5.947941e-001,-1.762417e-005,1.444362e-005
5.955882e-001,-1.628138e-005,1.443086e-005
5.963824e-001,-1.661708e-005,1.442777e-005
5.971765e-001,-1.493858e-005,1.441712e-005
5.979706e-001,-1.359579e-005,1.439619e-005
5.987647e-001,-1.091020e-005,1.439195e-005
5.995588e-001,-1.225299e-005,1.439196e-005
6.003529e-001,-1.493858e-005,1.440332e-005
6.011471e-001,-1.359579e-005,1.442050e-005
6.019412e-001,-1.091020e-005,1.442934e-005
6.027353e-001,-1.158160e-005,1.443237e-005
6.035294e-001,-1.527428e-005,1.442678e-005
6.043235e-001,-1.493858e-005,1.443409e-005
6.051176e-001,-1.426719e-005,1.444028e-005
6.059118e-001,-1.628138e-005,1.445116e-005
6.067059e-001,-1.560998e-005,1.447027e-005
6.075000e-001,-1.359579e-005,1.449186e-005
6.082941e-001,-1.393149e-005,1.450532e-005
6.090882e-001,-1.359579e-005,1.451274e-005
6.098824e-001,-1.258869e-005,1.452298e-005
6.106765e-001,-1.493858e-005,1.451588e-005
6.114706e-001,-1.023880e-005,1.450629e-005
6.122647e-001,-6.378271e-006,1.447396e-005
6.130588e-001,-8.560311e-006,1.442352e-005
6.138529e-001,-1.242084e-005,1.439186e-005
6.146471e-001,-1.124590e-005,1.437838e-005
6.154412e-001,-1.124590e-005,1.436766e-005
6.162353e-001,-1.426719e-005,1.435694e-005
6.170294e-001,-1.762417e-005,1.434636e-005
6.178235e-001,-2.198825e-005,1.434091e-005
6.186176e-001,-1.829557e-005,1.435877e-005
6.194118e-001,-1.829557e-005,1.436649e-005
6.202059e-001,-2.400244e-005,1.438207e-005
6.210000e-001,-2.299535e-005,1.440459e-005
6.217941e-001,-2.030976e-005,1.441281e-005
6.225882e-001,-1.695277e-005,1.444176e-005
6.233824e-001,-1.762417e-005,1.446334e-005
6.241765e-001,-1.863127e-005,1.448880e-005
6.249706e-001,-1.510643e-005,1.451303e-005
6.257647e-001,-1.493858e-005,1.450528e-005
6.265588e-001,-1.829557e-005,1.450186e-005
6.273529e-001,-1.527428e-005,1.451831e-005
6.281471e-001,-1.141375e-005,1.451717e-005
6.289412e-001,-8.560311e-006,1.451314e-005
6.297353e-001,-8.896010e-006,1.451314e-005
6.305294e-001,-7.553216e-006,1.451440e-005
6.313235e-001,-6.881819e-006,1.451546e-005
6.321176e-001,-6.881819e-006,1.451198e-005
6.329118e-001,-7.553216e-006,1.450641e-005
6.337059e-001,-6.881819e-006,1.449961e-005
6.345000e-001,-6.881819e-006,1.449475e-005
6.352941e-001,-7.217518e-006,1.449369e-005
6.360882e-001,-8.896010e-006,1.449286e-005
6.368824e-001,-1.023880e-005,1.448506e-005
6.376765e-001,-1.292439e-005,1.447314e-005
6.384706e-001,-1.258869e-005,1.447314e-005
6.392647e-001,-1.393149e-005,1.448050e-005
6.400588e-001,-1.527428e-005,1.448709e-005
6.408529e-001,-1.091020e-005,1.448115e-005
6.416471e-001,-9.567407e-006,1.445465e-005
6.424412e-001,-1.258869e-005,1.443179e-005
6.432353e-001,-1.863127e-005,1.441756e-005
6.440294e-001,-1.963836e-005,1.442415e-005
6.448235e-001,-1.795987e-005,1.443746e-005
6.456176e-001,-1.795987e-005,1.444616e-005
6.464118e-001,-1.795987e-005,1.445979e-005
6.472059e-001,-1.829557e-005,1.448137e-005
6.480000e-001,-1.527428e-005,1.450507e-005
6.487941e-001,-1.359579e-005,1.450833e-005
6.495882e-001,-1.023880e-005,1.451123e-005
6.503824e-001,-8.224612e-006,1.450440e-005
6.511765e-001,-1.225299e-005,1.448271e-005
6.519706e-001,-1.762417e-005,1.447006e-005
6.527647e-001,-1.963836e-005,1.446741e-005
6.535588e-001,-1.560998e-005,1.448068e-005
6.543529e-001,-1.225299e-005,1.449096e-005
6.551471e-001,-1.225299e-005,1.449876e-005
6.559412e-001,-1.225299e-005,1.450720e-005
6.567353e-001,-1.493858e-005,1.451061e-005
6.575294e-001,-1.426719e-005,1.452122e-005
6.583235e-001,-1.023880e-005,1.451682e-005
6.591176e-001,-7.553216e-006,1.449923e-005
6.599118e-001,-5.539025e-006,1.447636e-005
6.607059e-001,-8.392462e-006,1.445518e-005
6.615000e-001,-1.359579e-005,1.443722e-005
6.622941e-001,-1.695277e-005,1.443722e-005
6.630882e-001,-2.165255e-005,1.444204e-005
6.638824e-001,-1.795987e-005,1.445407e-005
6.646765e-001,-1.393149e-005,1.444997e-005
6.654706e-001,-1.560998e-005,1.443968e-005
6.662647e-001,-1.359579e-005,1.443968e-005
6.670588e-001,-1.191730e-005,1.444694e-005
6.678529e-001,-1.359579e-005,1.444907e-005
6.686471e-001,-1.225299e-005,1.445289e-005
6.694412e-001,-1.326009e-005,1.445465e-005
6.702353e-001,-1.695277e-005,1.444944e-005
6.710294e-001,-1.795987e-005,1.446074e-005
6.718235e-001,-2.030976e-005,1.448060e-005
6.726176e-001,-1.913481e-005,1.449180e-005
6.734118e-001,-1.460288e-005,1.449525e-005
6.742059e-001,-1.443504e-005,1.447630e-005
6.750000e-001,-1.292439e-005,1.444437e-005
6.757941e-001,-1.107805e-005,1.441422e-005
6.765882e-001,-1.292439e-005,1.438441e-005
6.773824e-001,-9.903105e-006,1.435096e-005
6.781765e-001,-1.091020e-005,1.431603e-005
6.789706e-001,-8.560311e-006,1.427707e-005
6.797647e-001,-1.091020e-005,1.421722e-005
6.805588e-001,-1.091020e-005,1.417125e-005
6.813529e-001,-7.553216e-006,1.412856e-005
6.821471e-001,-7.888914e-006,1.408845e-005
6.829412e-001,-9.903105e-006,1.405109e-005
6.837353e-001,-1.628138e-005,1.402068e-005
6.845294e-001,-1.661708e-005,1.402068e-005
6.853235e-001,-1.762417e-005,1.402194e-005
6.861176e-001,-1.762417e-005,1.402954e-005
6.869118e-001,-1.863127e-005,1.404168e-005
6.877059e-001,-2.366674e-005,1.406007e-005
6.885000e-001,-2.165255e-005,1.410549e-005
6.892941e-001,-2.030976e-005,1.413852e-005
6.900882e-001,-1.980621e-005,1.417389e-005
6.908824e-001,-1.846342e-005,1.421622e-005
6.916765e-001,-2.165255e-005,1.425005e-005
6.924706e-001,-1.896696e-005,1.429599e-005
6.932647e-001,-1.426719e-005,1.433510e-005
6.940588e-001,-1.292439e-005,1.435506e-005
6.948529e-001,-4.867628e-006,1.435828e-005
6.956471e-001,-1.510643e-006,1.435075e-005
6.964412e-001,1.846342e-006,1.434673e-005
6.972353e-001,-8.392462e-007,1.434132e-005
6.980294e-001,-7.721065e-006,1.432975e-005
6.988235e-001,-9.567407e-006,1.433004e-005
6.996176e-001,-6.881819e-006,1.433387e-005
7.004118e-001,-5.539025e-006,1.432824e-005
7.012059e-001,-8.392462e-006,1.432638e-005
7.020000e-001,-1.091020e-005,1.433059e-005
7.027941e-001,-1.258869e-005,1.433855e-005
7.035882e-001,-1.091020e-005,1.435139e-005
7.043824e-001,-8.560311e-006,1.435296e-005
7.051765e-001,-5.539025e-006,1.435359e-005
7.059706e-001,-1.426719e-005,1.434378e-005
7.067647e-001,-1.829557e-005,1.434784e-005
7.075588e-001,-1.980621e-005,1.436446e-005
7.083529e-001,-2.366674e-005,1.438642e-005
7.091471e-001,-2.333104e-005,1.443672e-005
7.099412e-001,-2.030976e-005,1.449118e-005
7.107353e-001,-2.165255e-005,1.452339e-005
7.115294e-001,-1.896696e-005,1.455192e-005
7.123235e-001,-1.896696e-005,1.456461e-005
7.131176e-001,-2.165255e-005,1.458271e-005
7.139118e-001,-2.232395e-005,1.460251e-005
7.147059e-001,-2.232395e-005,1.462424e-005
7.155000e-001,-2.165255e-005,1.464070e-005
7.162941e-001,-1.628138e-005,1.465660e-005
7.170882e-001,-1.560998e-005,1.465036e-005
7.178824e-001,-1.762417e-005,1.464046e-005
7.186765e-001,-1.225299e-005,1.463783e-005
7.194706e-001,-8.896010e-006,1.461219e-005
7.202647e-001,-9.567407e-006,1.457582e-005
7.210588e-001,-1.023880e-005,1.454365e-005
7.218529e-001,-1.292439e-005,1.451778e-005
7.226471e-001,-1.493858e-005,1.450581e-005
7.234412e-001,-1.258869e-005,1.449220e-005
7.242353e-001,-1.158160e-005,1.446721e-005
7.250294e-001,-1.359579e-005,1.445629e-005
7.258235e-001,-1.091020e-005,1.445039e-005
7.266176e-001,-7.721065e-006,1.443891e-005
7.274118e-001,-1.124590e-005,1.442086e-005
7.282059e-001,-1.393149e-005,1.440494e-005
7.290000e-001,-1.057450e-005,1.440596e-005
7.297941e-001,-1.057450e-005,1.439789e-005
7.305882e-001,-9.567407e-006,1.439709e-005
7.313824e-001,-1.091020e-005,1.440459e-005
7.321765e-001,-1.628138e-005,1.441144e-005
7.329706e-001,-1.393149e-005,1.442757e-005
7.337647e-001,-8.896010e-006,1.443332e-005
7.345588e-001,-1.057450e-005,1.440232e-005
7.353529e-001,-1.091020e-005,1.437489e-005
7.361471e-001,-1.023880e-005,1.436222e-005
7.369412e-001,-1.225299e-005,1.435335e-005
7.377353e-001,-1.493858e-005,1.435760e-005
7.385294e-001,-1.795987e-005,1.436703e-005
7.393235e-001,-1.963836e-005,1.438957e-005
7.401176e-001,-1.896696e-005,1.441375e-005
7.409118e-001,-1.913481e-005,1.443204e-005
7.417059e-001,-1.628138e-005,1.445203e-005
7.425000e-001,-1.695277e-005,1.446645e-005
7.432941e-001,-1.510643e-005,1.448415e-005
7.440882e-001,-1.493858e-005,1.449533e-005
7.448824e-001,-1.560998e-005,1.450149e-005
7.456765e-001,-1.359579e-005,1.451635e-005
7.464706e-001,-1.242084e-005,1.451830e-005
7.472647e-001,-8.224612e-006,1.451495e-005
7.480588e-001,-4.531929e-006,1.450766e-005
7.488529e-001,-4.196231e-006,1.449602e-005
7.496471e-001,-6.881819e-006,1.447662e-005
7.504412e-001,-6.881819e-006,1.445727e-005
7.512353e-001,-7.888914e-006,1.443790e-005
7.520294e-001,-1.091020e-005,1.442335e-005
7.528235e-001,-9.567407e-006,1.440958e-005
7.536176e-001,-6.210422e-006,1.439276e-005
7.544118e-001,-8.560311e-006,1.437342e-005
7.552059e-001,-1.057450e-005,1.436491e-005
7.560000e-001,-1.158160e-005,1.435681e-005
7.567941e-001,-1.158160e-005,1.434580e-005
7.575882e-001,-7.553216e-006,1.434215e-005
7.583824e-001,-8.560311e-006,1.433181e-005
7.591765e-001,-1.292439e-005,1.431515e-005
7.599706e-001,-1.091020e-005,1.430891e-005
7.607647e-001,-1.560998e-005,1.431462e-005
7.615588e-001,-1.896696e-005,1.433645e-005
7.623529e-001,-1.594568e-005,1.437110e-005
7.631471e-001,-1.493858e-005,1.439662e-005
7.639412e-001,-1.510643e-005,1.441703e-005
7.647353e-001,-1.695277e-005,1.443647e-005
7.655294e-001,-1.795987e-005,1.446185e-005
7.663235e-001,-2.265965e-005,1.447896e-005
7.671176e-001,-2.098116e-005,1.450565e-005
7.679118e-001,-2.165255e-005,1.451164e-005
7.687059e-001,-2.769513e-005,1.450840e-005
7.695000e-001,-3.172351e-005,1.453703e-005
7.702941e-001,-2.383459e-005,1.459892e-005
7.710882e-001,-1.930266e-005,1.462162e-005
7.718824e-001,-2.198825e-005,1.462965e-005
7.726765e-001,-1.628138e-005,1.465796e-005
7.734706e-001,-1.359579e-005,1.465553e-005
7.742647e-001,-1.359579e-005,1.465553e-005
7.750588e-001,-8.224612e-006,1.463924e-005
7.758529e-001,-9.063859e-006,1.459553e-005
7.766471e-001,-9.567407e-006,1.455795e-005
7.774412e-001,-1.023880e-005,1.453774e-005
7.782353e-001,-1.091020e-005,1.450250e-005
7.790294e-001,-8.560311e-006,1.446404e-005
7.798235e-001,-1.023880e-005,1.442665e-005
7.806176e-001,-7.553216e-006,1.439706e-005
7.814118e-001,-8.896010e-006,1.437281e-005
7.822059e-001,-1.158160e-005,1.435902e-005
7.830000e-001,-1.393149e-005,1.434687e-005
7.837941e-001,-1.712062e-005,1.434364e-005
7.845882e-001,-1.628138e-005,1.436295e-005
7.853824e-001,-1.510643e-005,1.438600e-005
7.861765e-001,-1.762417e-005,1.440112e-005
7.869706e-001,-1.846342e-005,1.442146e-005
7.877647e-001,-1.779202e-005,1.445160e-005
7.885588e-001,-1.762417e-005,1.447638e-005
7.893529e-001,-1.728847e-005,1.448599e-005
7.901471e-001,-1.762417e-005,1.449431e-005
7.909412e-001,-1.779202e-005,1.451369e-005
7.917353e-001,-1.762417e-005,1.453008e-005
7.925294e-001,-1.779202e-005,1.453742e-005
7.933235e-001,-1.493858e-005,1.453676e-005
7.941176e-001,-1.728847e-005,1.451601e-005
7.949118e-001,-2.165255e-005,1.450279e-005
7.957059e-001,-2.450599e-005,1.450897e-005
7.965000e-001,-2.769513e-005,1.453676e-005
7.972941e-001,-2.568093e-005,1.458667e-005
7.980882e-001,-1.728847e-005,1.462470e-005
7.988824e-001,-1.292439e-005,1.463295e-005
7.996765e-001,-9.567407e-006,1.462897e-005
8.004706e-001,-8.560311e-006,1.461831e-005
8.012647e-001,-7.553216e-006,1.459740e-005
8.020588e-001,-7.553216e-006,1.456435e-005
8.028529e-001,-6.881819e-006,1.454832e-005
8.036471e-001,-7.553216e-006,1.454165e-005
8.044412e-001,-1.091020e-005,1.454049e-005
8.052353e-001,-1.191730e-005,1.454930e-005
8.060294e-001,-1.057450e-005,1.456062e-005
8.068235e-001,-9.567407e-006,1.456633e-005
8.076176e-001,-1.023880e-005,1.456768e-005
8.084118e-001,-1.460288e-005,1.457290e-005
8.092059e-001,-1.762417e-005,1.458398e-005
8.100000e-001,-1.628138e-005,1.461218e-005
8.107941e-001,-1.158160e-005,1.463729e-005
8.115882e-001,-9.567407e-006,1.464047e-005
8.123824e-001,-6.042573e-006,1.463667e-005
8.131765e-001,-6.881819e-006,1.462605e-005
8.139706e-001,-9.903105e-006,1.461007e-005
8.147647e-001,-1.326009e-005,1.460348e-005
8.155588e-001,-1.695277e-005,1.460149e-005
8.163529e-001,-1.426719e-005,1.460849e-005
8.171471e-001,-1.661708e-005,1.461606e-005
8.179412e-001,-1.695277e-005,1.463544e-005
8.187353e-001,-1.812772e-005,1.465375e-005
8.195294e-001,-1.695277e-005,1.467805e-005
8.203235e-001,-1.242084e-005,1.469784e-005
8.211176e-001,-1.225299e-005,1.470320e-005
8.219118e-001,-1.359579e-005,1.470137e-005
8.227059e-001,-1.695277e-005,1.470234e-005
8.235000e-001,-1.695277e-005,1.470708e-005
8.242941e-001,-1.426719e-005,1.470327e-005
8.250882e-001,-1.628138e-005,1.470530e-005
8.258824e-001,-1.493858e-005,1.472110e-005
8.266765e-001,-9.903105e-006,1.473073e-005
8.274706e-001,-8.896010e-006,1.472232e-005
8.282647e-001,-8.392462e-006,1.471088e-005
8.290588e-001,-1.091020e-005,1.470225e-005
8.298529e-001,-1.091020e-005,1.469412e-005
8.306471e-001,-1.292439e-005,1.467335e-005
8.314412e-001,-1.628138e-005,1.466270e-005
8.322353e-001,-1.560998e-005,1.467142e-005
8.330294e-001,-1.359579e-005,1.467780e-005
8.338235e-001,-1.426719e-005,1.467730e-005
8.346176e-001,-1.258869e-005,1.467833e-005
8.354118e-001,-1.258869e-005,1.468757e-005
8.362059e-001,-1.258869e-005,1.469856e-005
8.370000e-001,-1.225299e-005,1.470243e-005
8.377941e-001,-9.231709e-006,1.470580e-005
8.385882e-001,-5.874723e-006,1.470050e-005
8.393824e-001,-8.560311e-006,1.468321e-005
8.401765e-001,-1.158160e-005,1.466119e-005
8.409706e-001,-1.023880e-005,1.464576e-005
8.417647e-001,-1.057450e-005,1.460771e-005
8.425588e-001,-1.326009e-005,1.457489e-005
8.433529e-001,-8.896010e-006,1.456861e-005
8.441471e-001,-6.210422e-006,1.455501e-005
8.449412e-001,-8.224612e-006,1.452522e-005
8.457353e-001,-9.903105e-006,1.450355e-005
8.465294e-001,-7.553216e-006,1.448399e-005
8.473235e-001,-1.057450e-005,1.446572e-005
8.481176e-001,-1.158160e-005,1.445768e-005
8.489118e-001,-1.225299e-005,1.445934e-005
8.497059e-001,-9.903105e-006,1.445934e-005
8.505000e-001,-8.224612e-006,1.444556e-005
8.512941e-001,-1.225299e-005,1.443263e-005
8.520882e-001,-1.359579e-005,1.443606e-005
8.528824e-001,-1.510643e-005,1.444166e-005
8.536765e-001,-1.258869e-005,1.444109e-005
8.544706e-001,-1.091020e-005,1.443396e-005
8.552647e-001,-1.326009e-005,1.442463e-005
8.560588e-001,-1.426719e-005,1.441478e-005
8.568529e-001,-1.728847e-005,1.441034e-005
8.576471e-001,-2.064546e-005,1.442294e-005
8.584412e-001,-2.064546e-005,1.444855e-005
8.592353e-001,-1.829557e-005,1.447513e-005
8.600294e-001,-1.829557e-005,1.449450e-005
8.608235e-001,-1.493858e-005,1.450676e-005
8.616176e-001,-1.510643e-005,1.451974e-005
8.624118e-001,-1.493858e-005,1.454029e-005
8.632059e-001,-1.292439e-005,1.455669e-005
8.640000e-001,-1.258869e-005,1.455809e-005
8.647941e-001,-1.443504e-005,1.456159e-005
8.655882e-001,-1.426719e-005,1.457054e-005
8.663824e-001,-1.225299e-005,1.457054e-005
8.671765e-001,-1.040665e-005,1.455299e-005
8.679706e-001,-8.896010e-006,1.451188e-005
8.687647e-001,-1.023880e-005,1.448381e-005
8.695588e-001,-6.881819e-006,1.445851e-005
8.703529e-001,-5.539025e-006,1.440016e-005
8.711471e-001,-7.721065e-006,1.434498e-005
8.719412e-001,-9.903105e-006,1.430575e-005
8.727353e-001,-1.292439e-005,1.428466e-005
8.735294e-001,-1.527428e-005,1.426865e-005
8.743235e-001,-1.443504e-005,1.425594e-005
8.751176e-001,-1.728847e-005,1.425373e-005
8.759118e-001,-1.661708e-005,1.426218e-005
8.767059e-001,-1.695277e-005,1.425564e-005
8.775000e-001,-1.930266e-005,1.426168e-005
8.782941e-001,-2.114900e-005,1.428871e-005
8.790882e-001,-1.963836e-005,1.433033e-005
8.798824e-001,-2.064546e-005,1.436435e-005
8.806765e-001,-2.232395e-005,1.440522e-005
8.814706e-001,-2.349889e-005,1.445499e-005
8.822647e-001,-1.963836e-005,1.451049e-005
8.830588e-001,-1.644922e-005,1.454651e-005
8.838529e-001,-1.527428e-005,1.457092e-005
8.846471e-001,-2.030976e-005,1.459123e-005
8.854412e-001,-2.030976e-005,1.463051e-005
8.862353e-001,-1.829557e-005,1.466674e-005
8.870294e-001,-2.030976e-005,1.469168e-005
8.878235e-001,-2.299535e-005,1.471826e-005
8.886176e-001,-1.493858e-005,1.475827e-005
8.894118e-001,-1.091020e-005,1.476141e-005
8.902059e-001,-1.091020e-005,1.474907e-005
8.910000e-001,-1.158160e-005,1.474908e-005
8.917941e-001,-1.376364e-005,1.475367e-005
8.925882e-001,-1.426719e-005,1.475701e-005
8.933824e-001,-9.231709e-006,1.474151e-005
8.941765e-001,-9.567407e-006,1.470903e-005
8.949706e-001,-1.225299e-005,1.468399e-005
8.957647e-001,-1.174945e-005,1.466529e-005
8.965588e-001,-1.091020e-005,1.464524e-005
8.973529e-001,-1.376364e-005,1.462177e-005
8.981471e-001,-1.393149e-005,1.461699e-005
8.989412e-001,-1.174945e-005,1.461800e-005
8.997353e-001,-1.225299e-005,1.462161e-005
9.005294e-001,-1.493858e-005,1.463060e-005
9.013235e-001,-1.560998e-005,1.463854e-005
9.021176e-001,-1.594568e-005,1.463126e-005
9.029118e-001,-1.762417e-005,1.461695e-005
9.037059e-001,-1.644922e-005,1.462424e-005
9.045000e-001,-2.114900e-005,1.463735e-005
9.052941e-001,-1.963836e-005,1.466964e-005
9.060882e-001,-1.795987e-005,1.469518e-005
9.068824e-001,-1.225299e-005,1.470595e-005
9.076765e-001,-1.225299e-005,1.470016e-005
9.084706e-001,-1.225299e-005,1.470507e-005
9.092647e-001,-1.393149e-005,1.471515e-005
9.100588e-001,-1.292439e-005,1.473282e-005
9.108529e-001,-9.063859e-006,1.474326e-005
9.116471e-001,-6.210422e-006,1.473216e-005
9.124412e-001,-2.853437e-006,1.470524e-005
9.132353e-001,3.189136e-006,1.465527e-005
9.140294e-001,5.203327e-006,1.462129e-005
9.148235e-001,-1.510643e-006,1.460309e-005
9.156176e-001,-7.049668e-006,1.457674e-005
9.164118e-001,-8.896010e-006,1.456197e-005
9.172059e-001,-1.309224e-005,1.455510e-005
9.180000e-001,-1.493858e-005,1.455363e-005
9.187941e-001,-1.107805e-005,1.456161e-005
9.195882e-001,-1.091020e-005,1.455580e-005
9.203824e-001,-9.567407e-006,1.453737e-005
9.211765e-001,-1.628138e-005,1.451205e-005
9.219706e-001,-2.182040e-005,1.449586e-005
9.227647e-001,-2.098116e-005,1.450794e-005
9.235588e-001,-1.896696e-005,1.453283e-005
9.243529e-001,-2.030976e-005,1.454941e-005
9.251471e-001,-1.913481e-005,1.457625e-005
9.259412e-001,-1.560998e-005,1.460281e-005
9.267353e-001,-1.795987e-005,1.461117e-005
9.275294e-001,-1.560998e-005,1.463561e-005
9.283235e-001,-1.493858e-005,1.464917e-005
9.291176e-001,-1.728847e-005,1.466545e-005
9.299118e-001,-1.577783e-005,1.468497e-005
9.307059e-001,-1.762417e-005,1.469905e-005
9.315000e-001,-1.393149e-005,1.472649e-005
9.322941e-001,-1.309224e-005,1.474074e-005
9.330882e-001,-1.292439e-005,1.474866e-005
9.338824e-001,-1.225299e-005,1.473807e-005
9.346765e-001,-1.359579e-005,1.472445e-005
9.354706e-001,-1.258869e-005,1.471084e-005
9.362647e-001,-1.426719e-005,1.469437e-005
9.370588e-001,-1.426719e-005,1.467880e-005
9.378529e-001,-1.426719e-005,1.464007e-005
9.386471e-001,-1.493858e-005,1.461119e-005
9.394412e-001,-1.376364e-005,1.459054e-005
9.402353e-001,-1.577783e-005,1.456838e-005
9.410294e-001,-1.728847e-005,1.455833e-005
9.418235e-001,-1.762417e-005,1.453973e-005
9.426176e-001,-1.762417e-005,1.453435e-005
9.434118e-001,-1.896696e-005,1.454607e-005
9.442059e-001,-1.577783e-005,1.456715e-005
9.450000e-001,-1.258869e-005,1.459175e-005
9.457941e-001,-1.292439e-005,1.460879e-005
9.465882e-001,-1.443504e-005,1.462661e-005
9.473824e-001,-1.292439e-005,1.464920e-005
9.481765e-001,-1.393149e-005,1.466088e-005
9.489706e-001,-1.292439e-005,1.467201e-005
9.497647e-001,-1.493858e-005,1.468499e-005
9.505588e-001,-1.728847e-005,1.470585e-005
9.513529e-001,-1.661708e-005,1.473057e-005
9.521471e-001,-1.359579e-005,1.474754e-005
9.529412e-001,-1.560998e-005,1.475039e-005
9.537353e-001,-1.661708e-005,1.476383e-005
9.545294e-001,-1.493858e-005,1.478570e-005
9.553235e-001,-1.242084e-005,1.480641e-005
9.561176e-001,-1.258869e-005,1.480111e-005
9.569118e-001,-1.460288e-005,1.478214e-005
9.577059e-001,-1.326009e-005,1.476284e-005
9.585000e-001,-1.493858e-005,1.472133e-005
9.592941e-001,-1.695277e-005,1.468654e-005
9.600882e-001,-1.393149e-005,1.467298e-005
9.608824e-001,-1.158160e-005,1.464313e-005
9.616765e-001,-1.124590e-005,1.461857e-005
9.624706e-001,-4.531929e-006,1.459314e-005
9.632647e-001,-3.860533e-006,1.454414e-005
9.640588e-001,-9.231709e-006,1.449111e-005
9.648529e-001,-1.292439e-005,1.444565e-005
9.656471e-001,-1.577783e-005,1.441234e-005
9.664412e-001,-2.064546e-005,1.441056e-005
9.672353e-001,-1.829557e-005,1.443072e-005
9.680294e-001,-1.527428e-005,1.443338e-005
9.688235e-001,-1.560998e-005,1.444255e-005
9.696176e-001,-2.047761e-005,1.446068e-005
9.704118e-001,-2.098116e-005,1.449673e-005
9.712059e-001,-1.829557e-005,1.453352e-005
9.720000e-001,-1.829557e-005,1.455188e-005
9.727941e-001,-1.762417e-005,1.456409e-005
9.735882e-001,-1.779202e-005,1.458071e-005
9.743824e-001,-1.930266e-005,1.460062e-005
9.751765e-001,-2.131685e-005,1.462108e-005
9.759706e-001,-2.165255e-005,1.465756e-005
9.767647e-001,-2.198825e-005,1.470195e-005
9.775588e-001,-1.963836e-005,1.474057e-005
9.783529e-001,-1.628138e-005,1.476125e-005
9.791471e-001,-1.493858e-005,1.477777e-005
9.799412e-001,-1.225299e-005,1.478976e-005
9.807353e-001,-7.553216e-006,1.479607e-005
9.815294e-001,-4.531929e-006,1.478940e-005
9.823235e-001,-4.196231e-006,1.476305e-005
9.831176e-001,-2.853437e-006,1.474400e-005
9.839118e-001,-8.392462e-007,1.473633e-005
9.847059e-001,-8.392462e-007,1.472432e-005
9.855000e-001,-8.392462e-006,1.471152e-005
9.862941e-001,-1.695277e-005,1.470779e-005
9.870882e-001,-2.030976e-005,1.472265e-005
9.878824e-001,-2.299535e-005,1.474311e-005
9.886765e-001,-2.232395e-005,1.476537e-005
9.894706e-001,-1.628138e-005,1.477751e-005
9.902647e-001,-1.158160e-005,1.476731e-005
9.910588e-001,-1.023880e-005,1.474227e-005
9.918529e-001,-1.057450e-005,1.472495e-005
9.926471e-001,-9.903105e-006,1.470595e-005
9.934412e-001,-7.553216e-006,1.469185e-005
9.942353e-001,-1.158160e-005,1.467384e-005
9.950294e-001,-1.460288e-005,1.466195e-005
9.958235e-001,-1.057450e-005,1.466503e-005
9.966176e-001,-9.567407e-006,1.466042e-005
9.974118e-001,-1.460288e-005,1.466302e-005
9.982059e-001,-1.560998e-005,1.468393e-005
9.990000e-001,-1.158160e-005,1.470842e-005
9.997941e-001,-1.091020e-005,1.471782e-005
1.000588e+000,-1.393149e-005,1.472557e-005
1.001382e+000,-1.393149e-005,1.473982e-005
1.002176e+000,-1.158160e-005,1.474792e-005
1.002971e+000,-1.258869e-005,1.475252e-005
1.003765e+000,-9.567407e-006,1.476546e-005
1.004559e+000,-1.023880e-005,1.476743e-005
1.005353e+000,-1.023880e-005,1.476667e-005
1.006147e+000,-1.091020e-005,1.476351e-005
1.006941e+000,-1.292439e-005,1.476188e-005
1.007735e+000,-1.359579e-005,1.477374e-005
1.008529e+000,-1.762417e-005,1.478577e-005
1.009324e+000,-2.030976e-005,1.480122e-005
1.010118e+000,-1.527428e-005,1.483276e-005
1.010912e+000,-1.359579e-005,1.483164e-005
1.011706e+000,-1.493858e-005,1.481285e-005
1.012500e+000,-1.426719e-005,1.480951e-005
1.013294e+000,-1.628138e-005,1.480740e-005
1.014088e+000,-1.628138e-005,1.481137e-005
1.014882e+000,-1.628138e-005,1.480897e-005
1.015676e+000,-1.661708e-005,1.480279e-005
1.016471e+000,-1.560998e-005,1.477723e-005
1.017265e+000,-1.443504e-005,1.475604e-005
1.018059e+000,-1.158160e-005,1.472791e-005
1.018853e+000,-1.292439e-005,1.465932e-005
1.019647e+000,-1.225299e-005,1.456786e-005
1.020441e+000,-1.023880e-005,1.452211e-005
1.021235e+000,-9.735256e-006,1.449272e-005
1.022029e+000,-8.224612e-006,1.444994e-005
1.022824e+000,-6.210422e-006,1.442817e-005
1.023618e+000,-5.539025e-006,1.441202e-005
1.024412e+000,-6.881819e-006,1.439497e-005
1.025206e+000,-9.567407e-006,1.439273e-005
1.026000e+000,-1.493858e-005,1.439377e-005
1.026794e+000,-1.644922e-005,1.440832e-005
1.027588e+000,-1.493858e-005,1.442663e-005
1.028382e+000,-1.695277e-005,1.443811e-005
1.029176e+000,-1.560998e-005,1.446171e-005
1.029971e+000,-1.560998e-005,1.447699e-005
1.030765e+000,-1.560998e-005,1.449750e-005
1.031559e+000,-1.292439e-005,1.451556e-005
1.032353e+000,-1.493858e-005,1.451917e-005
1.033147e+000,-1.762417e-005,1.452236e-005
1.033941e+000,-2.098116e-005,1.452428e-005
1.034735e+000,-1.795987e-005,1.454347e-005
1.035529e+000,-1.158160e-005,1.455379e-005
1.036324e+000,-1.057450e-005,1.453447e-005
1.037118e+000,-1.023880e-005,1.450935e-005
1.037912e+000,-1.225299e-005,1.448610e-005
1.038706e+000,-1.158160e-005,1.446845e-005
1.039500e+000,-1.426719e-005,1.445030e-005
1.040294e+000,-1.628138e-005,1.443850e-005
1.041088e+000,-1.527428e-005,1.443282e-005
1.041882e+000,-1.560998e-005,1.442429e-005
1.042676e+000,-1.661708e-005,1.441624e-005
1.043471e+000,-1.292439e-005,1.442209e-005
1.044265e+000,-1.023880e-005,1.440753e-005
1.045059e+000,-9.567407e-006,1.436724e-005
1.045853e+000,-1.376364e-005,1.431071e-005
1.046647e+000,-1.426719e-005,1.424630e-005
1.047441e+000,-1.762417e-005,1.419525e-005
1.048235e+000,-1.443504e-005,1.419656e-005
1.049029e+000,-1.091020e-005,1.420119e-005
1.049824e+000,-1.091020e-005,1.420428e-005
1.050618e+000,-1.057450e-005,1.420941e-005
1.051412e+000,-1.124590e-005,1.421554e-005
1.052206e+000,-1.258869e-005,1.422332e-005
1.053000e+000,-1.292439e-005,1.423575e-005
1.053794e+000,-1.225299e-005,1.424805e-005
1.054588e+000,-1.359579e-005,1.425152e-005
1.055382e+000,-1.527428e-005,1.425631e-005
1.056176e+000,-1.393149e-005,1.426987e-005
1.056971e+000,-1.426719e-005,1.428131e-005
1.057765e+000,-1.292439e-005,1.429231e-005
1.058559e+000,-1.443504e-005,1.428716e-005
1.059353e+000,-1.158160e-005,1.427576e-005
1.060147e+000,-1.493858e-005,1.426115e-005
1.060941e+000,-1.896696e-005,1.427109e-005
1.061735e+000,-1.930266e-005,1.430098e-005
1.062529e+000,-2.299535e-005,1.433836e-005
1.063324e+000,-2.030976e-005,1.439172e-005
1.064118e+000,-1.628138e-005,1.442647e-005
1.064912e+000,-1.527428e-005,1.443632e-005
1.065706e+000,-1.762417e-005,1.443035e-005
1.066500e+000,-1.628138e-005,1.444216e-005
1.067294e+000,-1.510643e-005,1.444094e-005
1.068088e+000,-1.628138e-005,1.443441e-005
1.068882e+000,-1.292439e-005,1.442740e-005
1.069676e+000,-5.874723e-006,1.441411e-005
1.070471e+000,-8.896010e-006,1.440087e-005
1.071265e+000,-8.224612e-006,1.439302e-005
1.072059e+000,-3.860533e-006,1.438005e-005
1.072853e+000,-4.867628e-006,1.434984e-005
1.073647e+000,-5.874723e-006,1.432055e-005
1.074441e+000,-5.539025e-006,1.430174e-005
1.075235e+000,-3.860533e-006,1.427562e-005
1.076029e+000,-5.874723e-006,1.425237e-005
1.076824e+000,-8.224612e-006,1.424527e-005
1.077618e+000,-4.867628e-006,1.424398e-005
1.078412e+000,-1.023880e-005,1.423876e-005
1.079206e+000,-1.426719e-005,1.423717e-005
1.080000e+000,-1.460288e-005,1.424662e-005
1.080794e+000,-1.376364e-005,1.425178e-005
1.081588e+000,-1.896696e-005,1.424333e-005
1.082382e+000,-2.366674e-005,1.425630e-005
1.083176e+000,-1.930266e-005,1.429815e-005
1.083971e+000,-1.896696e-005,1.431697e-005
1.084765e+000,-1.997406e-005,1.433933e-005
1.085559e+000,-1.829557e-005,1.436601e-005
1.086353e+000,-1.930266e-005,1.438554e-005
1.087147e+000,-2.467384e-005,1.441014e-005
1.087941e+000,-2.467384e-005,1.446788e-005
1.088735e+000,-2.433814e-005,1.453095e-005
1.089529e+000,-1.896696e-005,1.458772e-005
1.090324e+000,-1.695277e-005,1.461233e-005
1.091118e+000,-1.712062e-005,1.463221e-005
1.091912e+000,-1.728847e-005,1.465193e-005
1.092706e+000,-1.963836e-005,1.466529e-005
1.093500e+000,-1.527428e-005,1.469854e-005
1.094294e+000,-1.258869e-005,1.471962e-005
1.095088e+000,-1.124590e-005,1.472944e-005
1.095882e+000,-1.158160e-005,1.473251e-005
1.096676e+000,-1.695277e-005,1.474084e-005
1.097471e+000,-1.443504e-005,1.475979e-005
1.098265e+000,-1.527428e-005,1.476780e-005
1.099059e+000,-1.493858e-005,1.477677e-005
1.099853e+000,-1.107805e-005,1.479024e-005
1.100647e+000,-8.560311e-006,1.479617e-005
1.101441e+000,-1.426719e-005,1.478790e-005
1.102235e+000,-1.107805e-005,1.478991e-005
1.103029e+000,-6.881819e-006,1.477855e-005
1.103824e+000,-4.531929e-006,1.476657e-005
1.104618e+000,-5.539025e-006,1.475595e-005
1.105412e+000,-6.210422e-006,1.474027e-005
1.106206e+000,-1.023880e-005,1.472244e-005
1.107000e+000,-1.695277e-005,1.470144e-005
1.107794e+000,-1.594568e-005,1.468639e-005
1.108588e+000,-1.560998e-005,1.466773e-005
1.109382e+000,-1.460288e-005,1.465784e-005
1.110176e+000,-1.896696e-005,1.464464e-005
1.110971e+000,-1.930266e-005,1.465949e-005
1.111765e+000,-1.930266e-005,1.467516e-005
1.112559e+000,-1.963836e-005,1.469137e-005
1.113353e+000,-1.863127e-005,1.471504e-005
1.114147e+000,-1.359579e-005,1.473544e-005
1.114941e+000,-1.023880e-005,1.473290e-005
1.115735e+000,-1.023880e-005,1.472223e-005
1.116529e+000,-1.359579e-005,1.471733e-005
1.117324e+000,-1.493858e-005,1.472561e-005
1.118118e+000,-1.762417e-005,1.474117e-005
1.118912e+000,-2.333104e-005,1.476338e-005
1.119706e+000,-2.366674e-005,1.481689e-005
1.120500e+000,-2.433814e-005,1.487368e-005
1.121294e+000,-2.232395e-005,1.493061e-005
1.122088e+000,-2.182040e-005,1.497324e-005
1.122882e+000,-1.896696e-005,1.500607e-005
1.123676e+000,-2.098116e-005,1.501948e-005
1.124471e+000,-2.366674e-005,1.504404e-005
1.125265e+000,-2.249180e-005,1.507167e-005
1.126059e+000,-1.896696e-005,1.509592e-005
1.126853e+000,-1.896696e-005,1.510355e-005
1.127647e+000,-1.963836e-005,1.510220e-005
1.128441e+000,-1.963836e-005,1.509570e-005
1.129235e+000,-1.762417e-005,1.509570e-005
1.130029e+000,-1.359579e-005,1.508350e-005
1.130824e+000,-9.567407e-006,1.505036e-005
1.131618e+000,-1.510643e-006,1.500154e-005
1.132412e+000,-8.392462e-007,1.496079e-005
1.133206e+000,-8.392462e-007,1.493204e-005
1.134000e+000,-3.021286e-006,1.490722e-005
1.134794e+000,-8.392462e-007,1.486407e-005
1.135588e+000,1.174945e-006,1.481989e-005
1.136382e+000,-2.182040e-006,1.478403e-005
1.137176e+000,-2.182040e-006,1.474005e-005
1.137971e+000,-2.182040e-006,1.468333e-005
1.138765e+000,-4.196231e-006,1.465963e-005
1.139559e+000,-5.539025e-006,1.464861e-005
1.140353e+000,-4.196231e-006,1.463900e-005
1.141147e+000,-1.510643e-006,1.462632e-005
1.141941e+000,-1.007095e-006,1.460593e-005
1.142735e+000,-3.189136e-006,1.458383e-005
1.143529e+000,-9.231709e-006,1.457563e-005
1.144324e+000,-1.124590e-005,1.457494e-005
1.145118e+000,-8.560311e-006,1.457236e-005
1.145912e+000,-6.881819e-006,1.456528e-005
1.146706e+000,-9.231709e-006,1.455744e-005
1.147500e+000,-1.225299e-005,1.454604e-005
1.148294e+000,-1.023880e-005,1.454122e-005
1.149088e+000,-1.292439e-005,1.453759e-005
1.149882e+000,-1.527428e-005,1.453944e-005
1.150676e+000,-1.292439e-005,1.454055e-005
1.151471e+000,-1.527428e-005,1.453215e-005
1.152265e+000,-1.359579e-005,1.452986e-005
1.153059e+000,-1.023880e-005,1.451607e-005
1.153853e+000,-8.728161e-006,1.449787e-005
1.154647e+000,-6.881819e-006,1.445706e-005
1.155441e+000,-8.560311e-006,1.441975e-005
1.156235e+000,-9.735256e-006,1.439219e-005
1.157029e+000,-1.258869e-005,1.438607e-005
1.157824e+000,-1.728847e-005,1.438699e-005
1.158618e+000,-1.963836e-005,1.440345e-005
1.159412e+000,-2.366674e-005,1.442461e-005
1.160206e+000,-2.383459e-005,1.446794e-005
1.161000e+000,-2.232395e-005,1.452132e-005
1.161794e+000,-1.980621e-005,1.457165e-005
1.162588e+000,-1.930266e-005,1.461357e-005
1.163382e+000,-1.930266e-005,1.465301e-005
1.164176e+000,-1.712062e-005,1.469051e-005
1.164971e+000,-2.030976e-005,1.472200e-005
1.165765e+000,-1.930266e-005,1.476119e-005
1.166559e+000,-1.695277e-005,1.479281e-005
1.167353e+000,-1.661708e-005,1.480529e-005
1.168147e+000,-2.232395e-005,1.481098e-005
1.168941e+000,-2.098116e-005,1.485131e-005
1.169735e+000,-1.980621e-005,1.488571e-005
1.170529e+000,-2.198825e-005,1.491785e-005
1.171324e+000,-1.997406e-005,1.494114e-005
1.172118e+000,-1.560998e-005,1.493292e-005
1.172912e+000,-1.594568e-005,1.491194e-005
1.173706e+000,-1.359579e-005,1.490068e-005
1.174500e+000,-6.881819e-006,1.487633e-005
1.175294e+000,-6.210422e-006,1.484217e-005
1.176088e+000,-7.553216e-006,1.482015e-005
1.176882e+000,-9.231709e-006,1.479159e-005
1.177676e+000,-9.567407e-006,1.477452e-005
1.178471e+000,-9.903105e-006,1.476033e-005
1.179265e+000,-1.510643e-005,1.473865e-005
1.180059e+000,-1.560998e-005,1.473641e-005
1.180853e+000,-1.393149e-005,1.472917e-005
1.181647e+000,-1.560998e-005,1.472917e-005
1.182441e+000,-1.762417e-005,1.473698e-005
1.183235e+000,-1.762417e-005,1.475249e-005
1.184029e+000,-2.030976e-005,1.476980e-005
1.184824e+000,-1.695277e-005,1.479432e-005
1.185618e+000,-1.225299e-005,1.480819e-005
1.186412e+000,-8.560311e-006,1.480245e-005
1.187206e+000,-1.091020e-005,1.478843e-005
1.188000e+000,-1.393149e-005,1.477932e-005
1.188794e+000,-1.493858e-005,1.477619e-005
1.189588e+000,-1.225299e-005,1.477982e-005
1.190382e+000,-1.393149e-005,1.476918e-005
1.191176e+000,-1.292439e-005,1.475787e-005
1.191971e+000,-1.762417e-005,1.474237e-005
1.192765e+000,-1.829557e-005,1.474237e-005
1.193559e+000,-1.527428e-005,1.473967e-005
1.194353e+000,-1.292439e-005,1.473798e-005
1.195147e+000,-1.258869e-005,1.473891e-005
1.195941e+000,-1.091020e-005,1.473798e-005
1.196735e+000,-6.210422e-006,1.472833e-005
1.197529e+000,-4.867628e-006,1.471443e-005
1.198324e+000,-8.560311e-006,1.469598e-005
1.199118e+000,-1.292439e-005,1.468581e-005
1.199912e+000,-1.762417e-005,1.467973e-005
1.200706e+000,-1.762417e-005,1.468100e-005
1.201500e+000,-1.762417e-005,1.468474e-005
1.202294e+000,-2.030976e-005,1.469837e-005
1.203088e+000,-2.568093e-005,1.471665e-005
1.203882e+000,-2.265965e-005,1.475807e-005
1.204676e+000,-1.762417e-005,1.478936e-005
1.205471e+000,-1.762417e-005,1.480618e-005
1.206265e+000,-1.527428e-005,1.482254e-005
1.207059e+000,-1.258869e-005,1.482469e-005
1.207853e+000,-8.896010e-006,1.482283e-005
1.208647e+000,-9.567407e-006,1.480735e-005
1.209441e+000,-1.158160e-005,1.478627e-005
1.210235e+000,-1.158160e-005,1.477981e-005
1.211029e+000,-1.560998e-005,1.477981e-005
1.211824e+000,-1.560998e-005,1.479243e-005
1.212618e+000,-1.628138e-005,1.481643e-005
1.213412e+000,-1.762417e-005,1.484330e-005
1.214206e+000,-1.426719e-005,1.486746e-005
1.215000e+000,-1.762417e-005,1.487137e-005
1.215794e+000,-2.098116e-005,1.487797e-005
1.216588e+000,-2.098116e-005,1.487946e-005
1.217382e+000,-1.695277e-005,1.489075e-005
1.218176e+000,-1.426719e-005,1.489653e-005
1.218971e+000,-1.191730e-005,1.489224e-005
1.219765e+000,-1.560998e-005,1.486256e-005
1.220559e+000,-1.628138e-005,1.484149e-005
1.221353e+000,-1.712062e-005,1.483402e-005
1.222147e+000,-2.165255e-005,1.482955e-005
1.222941e+000,-1.829557e-005,1.484653e-005
1.223735e+000,-1.762417e-005,1.484848e-005
1.224529e+000,-1.628138e-005,1.484183e-005
1.225324e+000,-1.426719e-005,1.482150e-005
1.226118e+000,-1.292439e-005,1.479297e-005
1.226912e+000,-1.493858e-005,1.475887e-005
1.227706e+000,-1.493858e-005,1.474133e-005
1.228500e+000,-1.158160e-005,1.473680e-005
1.229294e+000,-3.524834e-006,1.472718e-005
1.230088e+000,-3.860533e-006,1.471228e-005
1.230882e+000,-8.392462e-006,1.470772e-005
1.231676e+000,-1.225299e-005,1.471312e-005
1.232471e+000,-1.023880e-005,1.472745e-005
1.233265e+000,-9.903105e-006,1.473791e-005
1.234059e+000,-1.292439e-005,1.474842e-005
1.234853e+000,-1.426719e-005,1.476637e-005
1.235647e+000,-1.359579e-005,1.478072e-005
1.236441e+000,-9.735256e-006,1.476966e-005
1.237235e+000,-7.888914e-006,1.473537e-005
1.238029e+000,-1.326009e-005,1.468487e-005
1.238824e+000,-1.124590e-005,1.464985e-005
1.239618e+000,-5.539025e-006,1.463478e-005
1.240412e+000,-3.189136e-006,1.462352e-005
1.241206e+000,-4.867628e-006,1.461321e-005
1.242000e+000,-4.867628e-006,1.460360e-005
1.242794e+000,-9.567407e-006,1.459549e-005
1.243588e+000,-1.359579e-005,1.459925e-005
1.244382e+000,-1.292439e-005,1.460478e-005
1.245176e+000,-1.158160e-005,1.459974e-005
1.245971e+000,-1.023880e-005,1.460217e-005
1.246765e+000,-1.292439e-005,1.460362e-005
1.247559e+000,-1.460288e-005,1.459859e-005
1.248353e+000,-1.594568e-005,1.459527e-005
1.249147e+000,-1.644922e-005,1.460837e-005
1.249941e+000,-1.896696e-005,1.462488e-005
1.250735e+000,-1.863127e-005,1.464290e-005
1.251529e+000,-1.728847e-005,1.465953e-005
1.252324e+000,-1.963836e-005,1.467742e-005
1.253118e+000,-1.762417e-005,1.470205e-005
1.253912e+000,-1.997406e-005,1.472576e-005
1.254706e+000,-1.896696e-005,1.475753e-005
1.255500e+000,-1.426719e-005,1.478501e-005
1.256294e+000,-1.795987e-005,1.479411e-005
1.257088e+000,-1.628138e-005,1.481084e-005
1.257882e+000,-1.225299e-005,1.481946e-005
1.258676e+000,-1.107805e-005,1.480221e-005
1.259471e+000,-8.560311e-006,1.477100e-005
1.260265e+000,-9.063859e-006,1.475374e-005
1.261059e+000,-7.888914e-006,1.474265e-005
1.261853e+000,-8.224612e-006,1.472526e-005
1.262647e+000,-7.553216e-006,1.471056e-005
1.263441e+000,-7.553216e-006,1.468802e-005
1.264235e+000,-8.560311e-006,1.466545e-005
1.265029e+000,-1.107805e-005,1.464461e-005
1.265824e+000,-9.567407e-006,1.462792e-005
1.266618e+000,-1.191730e-005,1.461135e-005
1.267412e+000,-1.225299e-005,1.460412e-005
1.268206e+000,-1.426719e-005,1.460586e-005
1.269000e+000,-1.628138e-005,1.460984e-005
1.269794e+000,-1.829557e-005,1.462237e-005
1.270588e+000,-2.182040e-005,1.464738e-005
1.271382e+000,-1.829557e-005,1.468878e-005
1.272176e+000,-1.661708e-005,1.471770e-005
1.272971e+000,-1.846342e-005,1.474338e-005
1.273765e+000,-1.762417e-005,1.477685e-005
1.274559e+000,-1.560998e-005,1.480519e-005
1.275353e+000,-1.393149e-005,1.482154e-005
1.276147e+000,-1.493858e-005,1.481842e-005
1.276941e+000,-1.594568e-005,1.481332e-005
1.277735e+000,-1.762417e-005,1.481667e-005
1.278529e+000,-1.628138e-005,1.481916e-005
1.279324e+000,-1.326009e-005,1.482146e-005
1.280118e+000,-1.661708e-005,1.481417e-005
1.280912e+000,-1.493858e-005,1.481766e-005
1.281706e+000,-1.091020e-005,1.482369e-005
1.282500e+000,-1.493858e-005,1.481251e-005
1.283294e+000,-1.628138e-005,1.480310e-005
1.284088e+000,-1.560998e-005,1.478425e-005
1.284882e+000,-1.661708e-005,1.477575e-005
1.285676e+000,-1.426719e-005,1.479105e-005
1.286471e+000,-1.191730e-005,1.480092e-005
1.287265e+000,-8.224612e-006,1.480492e-005
1.288059e+000,-7.049668e-006,1.479604e-005
1.288853e+000,-8.392462e-006,1.478695e-005
1.289647e+000,-8.896010e-006,1.477261e-005
1.290441e+000,-7.553216e-006,1.475256e-005
1.291235e+000,-9.735256e-006,1.473352e-005
1.292029e+000,-1.393149e-005,1.471742e-005
1.292824e+000,-1.292439e-005,1.470854e-005
1.293618e+000,-9.903105e-006,1.470854e-005
1.294412e+000,-1.023880e-005,1.470781e-005
1.295206e+000,-1.091020e-005,1.470925e-005
1.296000e+000,-1.225299e-005,1.470162e-005
1.296794e+000,-1.359579e-005,1.469584e-005
1.297588e+000,-1.762417e-005,1.468220e-005
1.298382e+000,-1.896696e-005,1.469329e-005
1.299176e+000,-1.829557e-005,1.471935e-005
1.299971e+000,-1.896696e-005,1.474267e-005
1.300765e+000,-1.829557e-005,1.476942e-005
1.301559e+000,-1.426719e-005,1.479186e-005
1.302353e+000,-1.628138e-005,1.479671e-005
1.303147e+000,-1.695277e-005,1.480725e-005
1.303941e+000,-1.779202e-005,1.482201e-005
1.304735e+000,-1.661708e-005,1.483615e-005
1.305529e+000,-1.124590e-005,1.484075e-005
1.306324e+000,-1.040665e-005,1.483349e-005
1.307118e+000,-9.903105e-006,1.482326e-005
1.307912e+000,-9.567407e-006,1.481585e-005
1.308706e+000,-8.896010e-006,1.480329e-005
1.309500e+000,-1.359579e-005,1.479737e-005
1.310294e+000,-2.182040e-005,1.479325e-005
1.311088e+000,-2.433814e-005,1.480577e-005
1.311882e+000,-2.702373e-005,1.482939e-005
1.312676e+000,-2.534523e-005,1.485101e-005
1.313471e+000,-1.695277e-005,1.487564e-005
1.314265e+000,-1.493858e-005,1.487803e-005
1.315059e+000,-1.594568e-005,1.487694e-005
1.315853e+000,-1.258869e-005,1.487091e-005
1.316647e+000,-1.057450e-005,1.485949e-005
1.317441e+000,-1.040665e-005,1.484701e-005
1.318235e+000,-1.158160e-005,1.483019e-005
1.319029e+000,-1.577783e-005,1.482665e-005
1.319824e+000,-1.560998e-005,1.484966e-005
1.320618e+000,-1.628138e-005,1.486730e-005
1.321412e+000,-1.963836e-005,1.488843e-005
1.322206e+000,-1.762417e-005,1.492803e-005
1.323000e+000,-1.426719e-005,1.495860e-005
1.323794e+000,-1.258869e-005,1.497659e-005
1.324588e+000,-1.225299e-005,1.499017e-005
1.325382e+000,-6.210422e-006,1.500453e-005
1.326176e+000,-3.189136e-006,1.500496e-005
1.326971e+000,-1.510643e-006,1.499886e-005
1.327765e+000,-3.524834e-006,1.499658e-005
1.328559e+000,-5.203327e-006,1.498677e-005
1.329353e+000,-8.896010e-006,1.496800e-005
1.330147e+000,-1.091020e-005,1.495373e-005
1.330941e+000,-1.393149e-005,1.494623e-005
1.331735e+000,-1.091020e-005,1.492857e-005
1.332529e+000,-1.225299e-005,1.488145e-005
1.333324e+000,-2.030976e-005,1.485763e-005
1.334118e+000,-2.232395e-005,1.486328e-005
1.334912e+000,-1.913481e-005,1.487392e-005
1.335706e+000,-2.030976e-005,1.487729e-005
1.336500e+000,-2.030976e-005,1.488156e-005
1.337294e+000,-1.628138e-005,1.486054e-005
1.338088e+000,-1.242084e-005,1.482366e-005
1.338882e+000,-1.762417e-005,1.477653e-005
1.339676e+000,-1.913481e-005,1.477123e-005
1.340471e+000,-2.047761e-005,1.477972e-005
1.341265e+000,-2.030976e-005,1.479331e-005
1.342059e+000,-2.299535e-005,1.480553e-005
1.342853e+000,-2.182040e-005,1.482092e-005
1.343647e+000,-2.098116e-005,1.484698e-005
1.344441e+000,-1.829557e-005,1.487717e-005
1.345235e+000,-1.393149e-005,1.489944e-005
1.346029e+000,-1.258869e-005,1.490585e-005
1.346824e+000,-1.158160e-005,1.489207e-005
1.347618e+000,-1.057450e-005,1.488413e-005
1.348412e+000,-1.124590e-005,1.487113e-005
1.349206e+000,-1.225299e-005,1.486077e-005
1.350000e+000,-1.393149e-005,1.486371e-005
1.350794e+000,-1.258869e-005,1.487664e-005
1.351588e+000,-1.359579e-005,1.487182e-005
1.352382e+000,-1.225299e-005,1.487847e-005
1.353176e+000,-8.392462e-006,1.488946e-005
1.353971e+000,-7.217518e-006,1.489480e-005
1.354765e+000,-7.553216e-006,1.489709e-005
1.355559e+000,-1.158160e-005,1.489906e-005
1.356353e+000,-1.023880e-005,1.490219e-005
1.357147e+000,-8.224612e-006,1.488267e-005
1.357941e+000,-7.888914e-006,1.486269e-005
1.358735e+000,-9.903105e-006,1.484324e-005
1.359529e+000,-1.493858e-005,1.483088e-005
1.360324e+000,-1.695277e-005,1.481621e-005
1.361118e+000,-1.628138e-005,1.480705e-005
1.361912e+000,-1.695277e-005,1.479548e-005
1.362706e+000,-1.628138e-005,1.478490e-005
1.363500e+000,-1.695277e-005,1.477606e-005
1.364294e+000,-1.896696e-005,1.478711e-005
1.365088e+000,-1.829557e-005,1.481454e-005
1.365882e+000,-1.393149e-005,1.483923e-005
1.366676e+000,-1.225299e-005,1.484022e-005
1.367471e+000,-1.359579e-005,1.483238e-005
1.368265e+000,-1.560998e-005,1.481887e-005
1.369059e+000,-1.225299e-005,1.478653e-005
1.369853e+000,-1.107805e-005,1.474231e-005
1.370647e+000,-9.903105e-006,1.469150e-005
1.371441e+000,-8.224612e-006,1.464805e-005
1.372235e+000,-6.881819e-006,1.460358e-005
1.373029e+000,-6.210422e-006,1.456948e-005
1.373824e+000,-4.867628e-006,1.452551e-005
1.374618e+000,-4.867628e-006,1.446659e-005
1.375412e+000,-4.867628e-006,1.441342e-005
1.376206e+000,-6.881819e-006,1.437624e-005
1.377000e+000,-9.903105e-006,1.434160e-005
1.377794e+000,-1.174945e-005,1.430963e-005
1.378588e+000,-1.225299e-005,1.428205e-005
1.379382e+000,-1.359579e-005,1.426415e-005
1.380176e+000,-1.493858e-005,1.426415e-005
1.380971e+000,-9.567407e-006,1.427884e-005
1.381765e+000,-5.874723e-006,1.428879e-005
1.382559e+000,-1.023880e-005,1.429255e-005
1.383353e+000,-1.863127e-005,1.430415e-005
1.384147e+000,-1.896696e-005,1.434173e-005
1.384941e+000,-2.299535e-005,1.438154e-005
1.385735e+000,-2.232395e-005,1.443981e-005
1.386529e+000,-1.829557e-005,1.449414e-005
1.387324e+000,-1.762417e-005,1.453035e-005
1.388118e+000,-1.560998e-005,1.456383e-005
1.388912e+000,-1.829557e-005,1.458852e-005
1.389706e+000,-2.131685e-005,1.462167e-005
1.390500e+000,-2.433814e-005,1.466917e-005
1.391294e+000,-2.030976e-005,1.473308e-005
1.392088e+000,-1.560998e-005,1.477748e-005
1.392882e+000,-1.527428e-005,1.480262e-005
1.393676e+000,-1.242084e-005,1.481854e-005
1.394471e+000,-9.903105e-006,1.482153e-005
1.395265e+000,-9.567407e-006,1.482420e-005
1.396059e+000,-9.903105e-006,1.482894e-005
1.396853e+000,-9.735256e-006,1.483032e-005
1.397647e+000,-1.023880e-005,1.482437e-005
1.398441e+000,-1.023880e-005,1.482437e-005
1.399235e+000,-6.546120e-006,1.481769e-005
1.400029e+000,-6.210422e-006,1.479721e-005
1.400824e+000,-8.896010e-006,1.478338e-005
1.401618e+000,-1.309224e-005,1.476676e-005
1.402412e+000,-1.527428e-005,1.476531e-005
1.403206e+000,-1.829557e-005,1.477916e-005
1.404000e+000,-1.560998e-005,1.480699e-005
1.404794e+000,-1.426719e-005,1.482809e-005
1.405588e+000,-1.443504e-005,1.484207e-005
1.406382e+000,-1.628138e-005,1.485425e-005
1.407176e+000,-1.527428e-005,1.486568e-005
1.407971e+000,-1.292439e-005,1.485865e-005
1.408765e+000,-1.191730e-005,1.483520e-005
1.409559e+000,-1.326009e-005,1.479026e-005
1.410353e+000,-1.628138e-005,1.474797e-005
1.411147e+000,-1.527428e-005,1.472276e-005
1.411941e+000,-1.359579e-005,1.470555e-005
1.412735e+000,-1.359579e-005,1.468521e-005
1.413529e+000,-1.107805e-005,1.466484e-005
1.414324e+000,-1.292439e-005,1.464632e-005
1.415118e+000,-1.426719e-005,1.461961e-005
1.415912e+000,-1.661708e-005,1.460119e-005
1.416706e+000,-2.030976e-005,1.459996e-005
1.417500e+000,-2.131685e-005,1.461483e-005
1.418294e+000,-2.165255e-005,1.461004e-005
1.419088e+000,-1.560998e-005,1.461316e-005
1.419882e+000,-1.426719e-005,1.459695e-005
1.420676e+000,-1.124590e-005,1.456638e-005
1.421471e+000,-8.224612e-006,1.453656e-005
1.422265e+000,-1.040665e-005,1.451727e-005
1.423059e+000,-1.191730e-005,1.450125e-005
1.423853e+000,-1.728847e-005,1.449655e-005
1.424647e+000,-1.560998e-005,1.452415e-005
1.425441e+000,-1.359579e-005,1.454662e-005
1.426235e+000,-1.225299e-005,1.456060e-005
1.427029e+000,-1.158160e-005,1.456770e-005
1.427824e+000,-1.258869e-005,1.457235e-005
1.428618e+000,-1.292439e-005,1.457895e-005
1.429412e+000,-1.493858e-005,1.457227e-005
1.430206e+000,-1.292439e-005,1.457003e-005
1.431000e+000,-1.376364e-005,1.456707e-005
1.431794e+000,-1.393149e-005,1.456114e-005
1.432588e+000,-1.493858e-005,1.454839e-005
1.433382e+000,-1.309224e-005,1.453882e-005
1.434176e+000,-1.359579e-005,1.451239e-005
1.434971e+000,-1.661708e-005,1.450113e-005
1.435765e+000,-2.098116e-005,1.451496e-005
1.436559e+000,-2.131685e-005,1.455516e-005
1.437353e+000,-1.829557e-005,1.459181e-005
1.438147e+000,-1.896696e-005,1.460715e-005
1.438941e+000,-1.913481e-005,1.462203e-005
1.439735e+000,-2.030976e-005,1.464553e-005
1.440529e+000,-2.131685e-005,1.466926e-005
1.441324e+000,-2.114900e-005,1.470042e-005
1.442118e+000,-1.712062e-005,1.471522e-005
1.442912e+000,-1.091020e-005,1.471071e-005
1.443706e+000,-9.567407e-006,1.469834e-005
1.444500e+000,-9.567407e-006,1.469015e-005
1.445294e+000,-7.553216e-006,1.468290e-005
1.446088e+000,-6.881819e-006,1.467617e-005
1.446882e+000,-4.867628e-006,1.467713e-005
1.447676e+000,-7.553216e-006,1.467713e-005
1.448471e+000,-1.225299e-005,1.467537e-005
1.449265e+000,-1.158160e-005,1.467353e-005
1.450059e+000,-1.359579e-005,1.465437e-005
1.450853e+000,-9.567407e-006,1.464070e-005
1.451647e+000,-7.553216e-006,1.461685e-005
1.452441e+000,-1.158160e-005,1.457808e-005
1.453235e+000,-1.359579e-005,1.452058e-005
1.454029e+000,-1.644922e-005,1.448450e-005
1.454824e+000,-1.493858e-005,1.448009e-005
1.455618e+000,-1.493858e-005,1.447047e-005
1.456412e+000,-1.191730e-005,1.446936e-005
1.457206e+000,-1.158160e-005,1.446755e-005
1.458000e+000,-1.527428e-005,1.447360e-005
1.458794e+000,-1.023880e-005,1.448919e-005
1.459588e+000,-8.224612e-006,1.448597e-005
1.460382e+000,-1.074235e-005,1.447866e-005
1.461176e+000,-9.567407e-006,1.446454e-005
1.461971e+000,-1.258869e-005,1.444778e-005
1.462765e+000,-1.560998e-005,1.443603e-005
1.463559e+000,-1.191730e-005,1.442864e-005
1.464353e+000,-1.359579e-005,1.442185e-005
1.465147e+000,-1.728847e-005,1.440796e-005
1.465941e+000,-1.292439e-005,1.439233e-005
1.466735e+000,-1.258869e-005,1.436208e-005
1.467529e+000,-1.359579e-005,1.434777e-005
1.468324e+000,-1.628138e-005,1.434570e-005
1.469118e+000,-1.896696e-005,1.435935e-005
1.469912e+000,-1.527428e-005,1.437222e-005
1.470706e+000,-1.527428e-005,1.436870e-005
1.471500e+000,-1.863127e-005,1.436207e-005
1.472294e+000,-1.829557e-005,1.434856e-005
1.473088e+000,-1.527428e-005,1.434856e-005
1.473882e+000,-1.863127e-005,1.433998e-005
1.474676e+000,-2.030976e-005,1.434909e-005
1.475471e+000,-1.560998e-005,1.437226e-005
1.476265e+000,-1.560998e-005,1.438075e-005
1.477059e+000,-1.728847e-005,1.438302e-005
1.477853e+000,-1.947051e-005,1.439140e-005
1.478647e+000,-1.527428e-005,1.441848e-005
1.479441e+000,-1.091020e-005,1.444285e-005
1.480235e+000,-9.567407e-006,1.445433e-005
1.481029e+000,-9.903105e-006,1.445665e-005
1.481824e+000,-8.896010e-006,1.445091e-005
1.482618e+000,-4.531929e-006,1.444808e-005
1.483412e+000,-6.881819e-006,1.443954e-005
1.484206e+000,-8.560311e-006,1.442633e-005
1.485000e+000,-4.867628e-006,1.441195e-005
1.485794e+000,-4.531929e-006,1.439413e-005
1.486588e+000,-4.867628e-006,1.438591e-005
1.487382e+000,-8.392462e-006,1.438165e-005
1.488176e+000,-1.225299e-005,1.436997e-005
1.488971e+000,-1.292439e-005,1.437260e-005
1.489765e+000,-1.661708e-005,1.438770e-005
1.490559e+000,-1.594568e-005,1.441710e-005
1.491353e+000,-1.057450e-005,1.444254e-005
1.492147e+000,-8.896010e-006,1.445226e-005
1.492941e+000,-7.553216e-006,1.445089e-005
1.493735e+000,-9.231709e-006,1.443680e-005
1.494529e+000,-9.567407e-006,1.442778e-005
1.495324e+000,-1.023880e-005,1.442307e-005
1.496118e+000,-9.567407e-006,1.442307e-005
1.496912e+000,-1.258869e-005,1.441474e-005
1.497706e+000,-1.426719e-005,1.440868e-005
1.498500e+000,-1.560998e-005,1.440308e-005
1.499294e+000,-1.628138e-005,1.440010e-005
1.500088e+000,-1.661708e-005,1.438963e-005
1.500882e+000,-1.829557e-005,1.438177e-005
1.501676e+000,-1.963836e-005,1.438574e-005
1.502471e+000,-2.030976e-005,1.438574e-005
1.503265e+000,-2.165255e-005,1.439701e-005
1.504059e+000,-2.030976e-005,1.440474e-005
1.504853e+000,-1.779202e-005,1.441057e-005
1.505647e+000,-1.712062e-005,1.442305e-005
1.506441e+000,-1.695277e-005,1.441980e-005
1.507235e+000,-1.762417e-005,1.442226e-005
1.508029e+000,-1.896696e-005,1.443997e-005
1.508824e+000,-2.433814e-005,1.446608e-005
1.509618e+000,-2.601663e-005,1.452311e-005
1.510412e+000,-2.433814e-005,1.458817e-005
1.511206e+000,-2.030976e-005,1.464592e-005
1.512000e+000,-1.913481e-005,1.468336e-005
1.512794e+000,-1.963836e-005,1.471684e-005
1.513588e+000,-1.493858e-005,1.475236e-005
1.514382e+000,-1.225299e-005,1.476853e-005
1.515176e+000,-1.292439e-005,1.477148e-005
1.515971e+000,-9.063859e-006,1.477962e-005
1.516765e+000,-5.539025e-006,1.477317e-005
1.517559e+000,-7.049668e-006,1.476028e-005
1.518353e+000,-4.531929e-006,1.474368e-005
1.519147e+000,3.189136e-006,1.471724e-005
1.519941e+000,6.713969e-007,1.468208e-005
1.520735e+000,-5.874723e-006,1.463040e-005
1.521529e+000,-1.292439e-005,1.459769e-005
1.522324e+000,-1.762417e-005,1.458579e-005
1.523118e+000,-1.779202e-005,1.458248e-005
1.523912e+000,-1.896696e-005,1.458313e-005
1.524706e+000,-1.829557e-005,1.459580e-005
1.525500e+000,-1.628138e-005,1.461113e-005
1.526294e+000,-2.165255e-005,1.461570e-005
1.527088e+000,-2.366674e-005,1.463906e-005
1.527882e+000,-2.265965e-005,1.466617e-005
1.528676e+000,-2.265965e-005,1.469312e-005
1.529471e+000,-2.098116e-005,1.472966e-005
1.530265e+000,-1.829557e-005,1.474739e-005
1.531059e+000,-1.560998e-005,1.475943e-005
1.531853e+000,-1.393149e-005,1.477287e-005
1.532647e+000,-1.393149e-005,1.476974e-005
1.533441e+000,-1.695277e-005,1.476208e-005
1.534235e+000,-1.628138e-005,1.476680e-005
1.535029e+000,-1.779202e-005,1.476560e-005
1.535824e+000,-1.695277e-005,1.477779e-005
1.536618e+000,-1.493858e-005,1.479344e-005
1.537412e+000,-1.493858e-005,1.481017e-005
1.538206e+000,-1.628138e-005,1.482881e-005
1.539000e+000,-1.661708e-005,1.484970e-005
1.539794e+000,-1.493858e-005,1.487081e-005
1.540588e+000,-8.224612e-006,1.488858e-005
1.541382e+000,-6.881819e-006,1.488568e-005
1.542176e+000,-6.881819e-006,1.486998e-005
1.542971e+000,-1.359579e-005,1.485716e-005
1.543765e+000,-1.359579e-005,1.486645e-005
1.544559e+000,-1.258869e-005,1.487502e-005
1.545353e+000,-1.158160e-005,1.487924e-005
1.546147e+000,-8.896010e-006,1.487753e-005
1.546941e+000,-4.531929e-006,1.486621e-005
1.547735e+000,-5.203327e-006,1.483511e-005
1.548529e+000,-9.903105e-006,1.479936e-005
1.549324e+000,-1.258869e-005,1.477387e-005
1.550118e+000,-1.426719e-005,1.475217e-005
1.550912e+000,-1.292439e-005,1.473800e-005
1.551706e+000,-1.393149e-005,1.473405e-005
1.552500e+000,-1.493858e-005,1.472638e-005
1.553294e+000,-1.829557e-005,1.471943e-005
1.554088e+000,-1.963836e-005,1.472140e-005
1.554882e+000,-1.762417e-005,1.473324e-005
1.555676e+000,-2.165255e-005,1.475313e-005
1.556471e+000,-2.064546e-005,1.479199e-005
1.557265e+000,-1.829557e-005,1.482728e-005
1.558059e+000,-1.628138e-005,1.485337e-005
1.558853e+000,-1.527428e-005,1.487329e-005
1.559647e+000,-1.191730e-005,1.487848e-005
1.560441e+000,-1.191730e-005,1.484268e-005
1.561235e+000,-9.903105e-006,1.479429e-005
1.562029e+000,-1.091020e-005,1.472608e-005
1.562824e+000,-1.258869e-005,1.466938e-005
1.563618e+000,-1.493858e-005,1.465538e-005
1.564412e+000,-2.232395e-005,1.465538e-005
1.565206e+000,-2.165255e-005,1.468188e-005
1.566000e+000,-1.644922e-005,1.471550e-005
1.566794e+000,-1.577783e-005,1.473267e-005
1.567588e+000,-1.527428e-005,1.474786e-005
1.568382e+000,-1.225299e-005,1.475857e-005
1.569176e+000,-5.539025e-006,1.474790e-005
1.569971e+000,-4.531929e-006,1.472489e-005
1.570765e+000,-4.196231e-006,1.469842e-005
1.571559e+000,-3.524834e-006,1.465849e-005
1.572353e+000,-3.524834e-006,1.462606e-005
1.573147e+000,-5.539025e-006,1.460524e-005
1.573941e+000,-7.553216e-006,1.459130e-005
1.574735e+000,-1.040665e-005,1.458114e-005
1.575529e+000,-1.225299e-005,1.458875e-005
1.576324e+000,-1.393149e-005,1.460402e-005
1.577118e+000,-1.091020e-005,1.462492e-005
1.577912e+000,-3.189136e-006,1.463652e-005
1.578706e+000,-6.881819e-006,1.463468e-005
1.579500e+000,-8.896010e-006,1.463122e-005
1.580294e+000,-7.721065e-006,1.462688e-005
1.581088e+000,-1.091020e-005,1.461224e-005
1.581882e+000,-1.628138e-005,1.461224e-005
1.582676e+000,-2.064546e-005,1.462476e-005
1.583471e+000,-1.863127e-005,1.462625e-005
1.584265e+000,-1.896696e-005,1.460978e-005
1.585059e+000,-2.030976e-005,1.460908e-005
1.585853e+000,-1.628138e-005,1.460908e-005
1.586647e+000,-1.359579e-005,1.459301e-005
1.587441e+000,-1.107805e-005,1.458425e-005
1.588235e+000,-1.091020e-005,1.458080e-005
1.589029e+000,-1.292439e-005,1.455987e-005
1.589824e+000,-1.493858e-005,1.453808e-005
1.590618e+000,-1.695277e-005,1.451657e-005
1.591412e+000,-2.064546e-005,1.450285e-005
1.592206e+000,-2.232395e-005,1.449158e-005
1.593000e+000,-2.064546e-005,1.449402e-005
1.593794e+000,-1.594568e-005,1.449249e-005
1.594588e+000,-1.661708e-005,1.448364e-005
1.595382e+000,-2.064546e-005,1.449266e-005
1.596176e+000,-2.232395e-005,1.452205e-005
1.596971e+000,-1.896696e-005,1.456193e-005
1.597765e+000,-1.695277e-005,1.458902e-005
1.598559e+000,-1.225299e-005,1.460657e-005
1.599353e+000,-8.224612e-006,1.460657e-005
1.600147e+000,-1.091020e-005,1.459278e-005
1.600941e+000,-1.057450e-005,1.458848e-005
1.601735e+000,-1.493858e-005,1.458050e-005
1.602529e+000,-2.030976e-005,1.458848e-005
1.603324e+000,-2.030976e-005,1.462577e-005
1.604118e+000,-1.896696e-005,1.466495e-005
1.604912e+000,-1.762417e-005,1.469778e-005
1.605706e+000,-1.493858e-005,1.471689e-005
1.606500e+000,-1.644922e-005,1.472969e-005
1.607294e+000,-1.728847e-005,1.475161e-005
1.608088e+000,-1.225299e-005,1.477713e-005
1.608882e+000,-1.258869e-005,1.478274e-005
1.609676e+000,-1.493858e-005,1.477577e-005
1.610471e+000,-1.930266e-005,1.476885e-005
1.611265e+000,-2.098116e-005,1.478043e-005
1.612059e+000,-2.098116e-005,1.479689e-005
1.612853e+000,-2.114900e-005,1.481572e-005
1.613647e+000,-1.896696e-005,1.483289e-005
1.614441e+000,-1.225299e-005,1.483289e-005
1.615235e+000,-9.567407e-006,1.481306e-005
1.616029e+000,-9.567407e-006,1.480204e-005
1.616824e+000,-8.560311e-006,1.479573e-005
1.617618e+000,-6.881819e-006,1.478372e-005
1.618412e+000,-4.196231e-006,1.476256e-005
1.619206e+000,-8.392462e-007,1.474826e-005
1.620000e+000,-3.189136e-006,1.473508e-005
1.620794e+000,-5.539025e-006,1.472558e-005
1.621588e+000,-6.881819e-006,1.472158e-005
1.622382e+000,-9.567407e-006,1.472158e-005
1.623176e+000,-1.359579e-005,1.472731e-005
1.623971e+000,-1.628138e-005,1.474472e-005
1.624765e+000,-1.393149e-005,1.477077e-005
1.625559e+000,-1.594568e-005,1.478912e-005
1.626353e+000,-1.661708e-005,1.481138e-005
1.627147e+000,-1.795987e-005,1.483052e-005
1.627941e+000,-1.695277e-005,1.485031e-005
1.628735e+000,-1.527428e-005,1.486502e-005
1.629529e+000,-2.232395e-005,1.487021e-005
1.630324e+000,-1.913481e-005,1.489965e-005
1.631118e+000,-1.712062e-005,1.492897e-005
1.631912e+000,-1.628138e-005,1.495653e-005
1.632706e+000,-1.527428e-005,1.497358e-005
1.633500e+000,-1.527428e-005,1.496147e-005
1.634294e+000,-1.292439e-005,1.494801e-005
1.635088e+000,-1.158160e-005,1.490942e-005
1.635882e+000,-1.124590e-005,1.487047e-005
1.636676e+000,-8.896010e-006,1.484816e-005
1.637471e+000,-7.217518e-006,1.482331e-005
1.638265e+000,-1.007095e-005,1.480272e-005
1.639059e+000,-1.560998e-005,1.477760e-005
1.639853e+000,-1.493858e-005,1.475487e-005
1.640647e+000,-1.091020e-005,1.471498e-005
1.641441e+000,-8.224612e-006,1.468319e-005
1.642235e+000,-1.124590e-005,1.466408e-005
1.643029e+000,-1.158160e-005,1.465248e-005
1.643824e+000,-1.225299e-005,1.465029e-005
1.644618e+000,-1.560998e-005,1.465595e-005
1.645412e+000,-1.695277e-005,1.467247e-005
1.646206e+000,-1.896696e-005,1.469300e-005
1.647000e+000,-1.460288e-005,1.472169e-005
1.647794e+000,-1.493858e-005,1.473341e-005
1.648588e+000,-1.443504e-005,1.474619e-005
1.649382e+000,-1.091020e-005,1.476405e-005
1.650176e+000,-4.867628e-006,1.477273e-005
1.650971e+000,-2.853437e-006,1.476675e-005
1.651765e+000,-5.539025e-006,1.474914e-005
1.652559e+000,-9.567407e-006,1.472724e-005
1.653353e+000,-1.174945e-005,1.470093e-005
1.654147e+000,-1.191730e-005,1.468948e-005
1.654941e+000,-9.567407e-006,1.468281e-005
1.655735e+000,-1.426719e-005,1.467013e-005
1.656529e+000,-1.628138e-005,1.466345e-005
1.657324e+000,-1.493858e-005,1.466690e-005
1.658118e+000,-1.527428e-005,1.467300e-005
1.658912e+000,-1.829557e-005,1.468290e-005
1.659706e+000,-2.030976e-005,1.470012e-005
1.660500e+000,-1.963836e-005,1.471608e-005
1.661294e+000,-2.299535e-005,1.473256e-005
1.662088e+000,-2.467384e-005,1.476968e-005
1.662882e+000,-2.786297e-005,1.481532e-005
1.663676e+000,-2.803082e-005,1.488541e-005
1.664471e+000,-2.182040e-005,1.495144e-005
1.665265e+000,-1.628138e-005,1.498045e-005
1.666059e+000,-1.460288e-005,1.497927e-005
1.666853e+000,-1.359579e-005,1.495808e-005
1.667647e+000,-1.258869e-005,1.492935e-005
1.668441e+000,-9.567407e-006,1.489621e-005
1.669235e+000,-8.560311e-006,1.487994e-005
1.670029e+000,-6.546120e-006,1.486599e-005
1.670824e+000,-4.531929e-006,1.485703e-005
1.671618e+000,-6.881819e-006,1.485198e-005
1.672412e+000,-1.023880e-005,1.484545e-005
1.673206e+000,-1.359579e-005,1.484146e-005
1.674000e+000,-1.023880e-005,1.482922e-005
1.674794e+000,-1.393149e-005,1.481430e-005
1.675588e+000,-1.728847e-005,1.481530e-005
1.676382e+000,-2.232395e-005,1.483128e-005
1.677176e+000,-1.829557e-005,1.487033e-005
1.677971e+000,-1.292439e-005,1.488919e-005
1.678765e+000,-8.224612e-006,1.488919e-005
1.679559e+000,-6.881819e-006,1.487255e-005
1.680353e+000,-5.203327e-006,1.485973e-005
1.681147e+000,-6.210422e-006,1.484232e-005
1.681941e+000,-7.721065e-006,1.482563e-005
1.682735e+000,-8.896010e-006,1.480805e-005
1.683529e+000,-1.124590e-005,1.479813e-005
1.684324e+000,-1.258869e-005,1.479184e-005
1.685118e+000,-1.829557e-005,1.477917e-005
1.685912e+000,-1.779202e-005,1.476780e-005
1.686706e+000,-1.846342e-005,1.475293e-005
1.687500e+000,-2.165255e-005,1.475360e-005
1.688294e+000,-1.963836e-005,1.476536e-005
1.689088e+000,-1.695277e-005,1.476747e-005
1.689882e+000,-1.896696e-005,1.475398e-005
1.690676e+000,-2.047761e-005,1.474376e-005
1.691471e+000,-1.594568e-005,1.474074e-005
1.692265e+000,-1.292439e-005,1.473654e-005
1.693059e+000,-1.292439e-005,1.474173e-005
1.693853e+000,-1.359579e-005,1.474988e-005
1.694647e+000,-1.359579e-005,1.475995e-005
1.695441e+000,-1.493858e-005,1.477373e-005
1.696235e+000,-1.393149e-005,1.479267e-005
1.697029e+000,-1.242084e-005,1.481100e-005
1.697824e+000,-1.225299e-005,1.482145e-005
1.698618e+000,-9.903105e-006,1.482144e-005
1.699412e+000,-1.309224e-005,1.481757e-005
1.700206e+000,-1.225299e-005,1.481613e-005
1.701000e+000,-1.158160e-005,1.482242e-005
1.701794e+000,-1.258869e-005,1.483070e-005
1.702588e+000,-1.292439e-005,1.483331e-005
1.703382e+000,-1.393149e-005,1.483140e-005
1.704176e+000,-1.359579e-005,1.482319e-005
1.704971e+000,-1.258869e-005,1.481907e-005
1.705765e+000,-1.191730e-005,1.481212e-005
1.706559e+000,-1.091020e-005,1.481212e-005
1.707353e+000,-1.292439e-005,1.481050e-005
1.708147e+000,-1.023880e-005,1.480337e-005
1.708941e+000,-7.385367e-006,1.480337e-005
1.709735e+000,-7.217518e-006,1.480196e-005
1.710529e+000,-9.903105e-006,1.479515e-005
1.711324e+000,-9.567407e-006,1.479585e-005
1.712118e+000,-8.224612e-006,1.478865e-005
1.712912e+000,-1.225299e-005,1.476968e-005
1.713706e+000,-1.695277e-005,1.477056e-005
1.714500e+000,-1.695277e-005,1.478161e-005
1.715294e+000,-1.695277e-005,1.478037e-005
1.716088e+000,-1.779202e-005,1.479333e-005
1.716882e+000,-1.896696e-005,1.481034e-005
1.717676e+000,-1.930266e-005,1.482913e-005
1.718471e+000,-1.560998e-005,1.484067e-005
1.719265e+000,-1.628138e-005,1.482821e-005
1.720059e+000,-1.560998e-005,1.483162e-005
1.720853e+000,-1.963836e-005,1.483274e-005
1.721647e+000,-2.232395e-005,1.483687e-005
1.722441e+000,-2.182040e-005,1.485442e-005
1.723235e+000,-1.779202e-005,1.488043e-005
1.724029e+000,-1.309224e-005,1.487716e-005
1.724824e+000,-1.225299e-005,1.485133e-005
1.725618e+000,-9.735256e-006,1.484130e-005
1.726412e+000,-2.853437e-006,1.482532e-005
1.727206e+000,3.356985e-007,1.479406e-005
1.728000e+000,4.531929e-006,1.475321e-005
1.728794e+000,5.874723e-006,1.473022e-005
1.729588e+000,6.546120e-006,1.472108e-005
1.730382e+000,5.203327e-006,1.471582e-005
1.731176e+000,2.517739e-006,1.470813e-005
1.731971e+000,-1.846342e-006,1.470025e-005
1.732765e+000,-3.860533e-006,1.469839e-005
1.733559e+000,-4.531929e-006,1.469488e-005
1.734353e+000,-5.539025e-006,1.468916e-005
1.735147e+000,-9.567407e-006,1.468992e-005
1.735941e+000,-1.292439e-005,1.469761e-005
1.736735e+000,-1.326009e-005,1.471313e-005
1.737529e+000,-1.493858e-005,1.472454e-005
1.738324e+000,-1.829557e-005,1.473243e-005
1.739118e+000,-2.198825e-005,1.475054e-005
1.739912e+000,-2.299535e-005,1.477291e-005
1.740706e+000,-2.450599e-005,1.480247e-005
1.741500e+000,-2.265965e-005,1.485495e-005
1.742294e+000,-1.829557e-005,1.490144e-005
1.743088e+000,-1.829557e-005,1.493108e-005
1.743882e+000,-1.846342e-005,1.495767e-005
1.744676e+000,-1.728847e-005,1.498419e-005
1.745471e+000,-1.560998e-005,1.500480e-005
1.746265e+000,-1.174945e-005,1.502093e-005
1.747059e+000,-1.426719e-005,1.501877e-005
1.747853e+000,-1.493858e-005,1.501877e-005
1.748647e+000,-1.560998e-005,1.501659e-005
1.749441e+000,-1.762417e-005,1.501432e-005
1.750235e+000,-1.963836e-005,1.501798e-005
1.751029e+000,-2.198825e-005,1.502338e-005
1.751824e+000,-2.182040e-005,1.503374e-005
1.752618e+000,-2.232395e-005,1.504048e-005
1.753412e+000,-2.030976e-005,1.504361e-005
1.754206e+000,-1.863127e-005,1.504361e-005
1.755000e+000,-1.225299e-005,1.504684e-005
1.755794e+000,-9.231709e-006,1.503170e-005
1.756588e+000,-1.091020e-005,1.501027e-005
1.757382e+000,-1.124590e-005,1.498993e-005
1.758176e+000,-1.493858e-005,1.496513e-005
1.758971e+000,-1.661708e-005,1.492580e-005
1.759765e+000,-1.695277e-005,1.488298e-005
1.760559e+000,-2.064546e-005,1.485032e-005
1.761353e+000,-2.299535e-005,1.485180e-005
1.762147e+000,-1.930266e-005,1.486922e-005
1.762941e+000,-1.493858e-005,1.486782e-005
1.763735e+000,-1.225299e-005,1.486782e-005
1.764529e+000,-1.158160e-005,1.486782e-005
1.765324e+000,-1.560998e-005,1.486430e-005
1.766118e+000,-1.695277e-005,1.488159e-005
1.766912e+000,-1.527428e-005,1.490904e-005
1.767706e+000,-1.393149e-005,1.492863e-005
1.768500e+000,-1.829557e-005,1.494714e-005
1.769294e+000,-1.762417e-005,1.498167e-005
1.770088e+000,-1.963836e-005,1.501460e-005
1.770882e+000,-1.896696e-005,1.505180e-005
1.771676e+000,-1.695277e-005,1.507217e-005
1.772471e+000,-1.695277e-005,1.506972e-005
1.773265e+000,-2.030976e-005,1.506664e-005
1.774059e+000,-1.762417e-005,1.507221e-005
1.774853e+000,-1.963836e-005,1.506966e-005
1.775647e+000,-1.963836e-005,1.508240e-005
1.776441e+000,-1.930266e-005,1.507362e-005
1.777235e+000,-1.594568e-005,1.505379e-005
1.778029e+000,-1.158160e-005,1.502635e-005
1.778824e+000,-6.881819e-006,1.498610e-005
1.779618e+000,-1.040665e-005,1.494430e-005
1.780412e+000,-1.174945e-005,1.492015e-005
1.781206e+000,-1.493858e-005,1.490888e-005
1.782000e+000,-1.493858e-005,1.491198e-005
1.782794e+000,-1.292439e-005,1.491509e-005
1.783588e+000,-1.359579e-005,1.490223e-005
1.784382e+000,-1.661708e-005,1.489365e-005
1.785176e+000,-1.560998e-005,1.488933e-005
1.785971e+000,-1.225299e-005,1.488465e-005
1.786765e+000,-1.661708e-005,1.487684e-005
1.787559e+000,-1.863127e-005,1.488251e-005
1.788353e+000,-1.896696e-005,1.489128e-005
1.789147e+000,-1.628138e-005,1.490022e-005
1.789941e+000,-1.258869e-005,1.490470e-005
1.790735e+000,-1.158160e-005,1.491440e-005
1.791529e+000,-1.242084e-005,1.492366e-005
1.792324e+000,-1.057450e-005,1.493507e-005
1.793118e+000,-1.023880e-005,1.492728e-005
1.793912e+000,-8.560311e-006,1.491874e-005
1.794706e+000,-1.292439e-005,1.490964e-005
1.795500e+000,-1.460288e-005,1.491316e-005
1.796294e+000,-9.567407e-006,1.492747e-005
1.797088e+000,-1.091020e-005,1.493504e-005
1.797882e+000,-1.292439e-005,1.494484e-005
1.798676e+000,-1.762417e-005,1.495219e-005
1.799471e+000,-1.560998e-005,1.496838e-005
1.800265e+000,-1.393149e-005,1.497265e-005
1.801059e+000,-1.560998e-005,1.497553e-005
1.801853e+000,-9.903105e-006,1.498080e-005
1.802647e+000,-7.553216e-006,1.496750e-005
1.803441e+000,-9.735256e-006,1.493793e-005
1.804235e+000,-1.258869e-005,1.490688e-005
1.805029e+000,-1.628138e-005,1.489062e-005
1.805824e+000,-2.467384e-005,1.486882e-005
1.806618e+000,-2.450599e-005,1.488836e-005
1.807412e+000,-2.433814e-005,1.491676e-005
1.808206e+000,-2.635233e-005,1.495166e-005
1.809000e+000,-2.920577e-005,1.500069e-005
1.809794e+000,-2.366674e-005,1.507597e-005
1.810588e+000,-1.158160e-005,1.512006e-005
1.811382e+000,-8.392462e-007,1.512386e-005
1.812176e+000,1.695277e-005,1.511140e-005
1.812971e+000,3.591974e-005,1.512498e-005
1.813765e+000,5.287251e-005,1.523690e-005
1.814559e+000,6.361486e-005,1.547511e-005
1.815353e+000,7.234302e-005,1.583900e-005
1.816147e+000,7.687495e-005,1.633032e-005
1.816941e+000,7.838559e-005,1.687328e-005
1.817735e+000,7.570001e-005,1.742218e-005
1.818529e+000,7.368582e-005,1.792496e-005
1.819324e+000,6.865034e-005,1.839832e-005
1.820118e+000,5.891508e-005,1.880005e-005
1.820912e+000,4.716563e-005,1.909031e-005
1.821706e+000,3.675899e-005,1.927395e-005
1.822500e+000,2.131685e-005,1.938424e-005
1.823294e+000,1.191730e-005,1.941902e-005
1.824088e+000,3.860533e-006,1.942598e-005
1.824882e+000,-7.553216e-006,1.941832e-005
1.825676e+000,-1.829557e-005,1.941069e-005
1.826471e+000,-2.500954e-005,1.942222e-005
1.827265e+000,-3.172351e-005,1.946370e-005
1.828059e+000,-3.642328e-005,1.954503e-005
1.828853e+000,-4.078737e-005,1.964898e-005
1.829647e+000,-4.615854e-005,1.977697e-005
1.830441e+000,-4.750134e-005,1.994302e-005
1.831235e+000,-4.850843e-005,2.011296e-005
1.832029e+000,-5.119402e-005,2.027759e-005
1.832824e+000,-5.522240e-005,2.044920e-005
1.833618e+000,-5.790799e-005,2.065856e-005
1.834412e+000,-5.857939e-005,2.088803e-005
1.835206e+000,-6.193637e-005,2.111693e-005
1.836000e+000,-6.697185e-005,2.138451e-005
1.836794e+000,-7.167162e-005,2.170237e-005
1.837588e+000,-7.469291e-005,2.206720e-005
1.838382e+000,-7.737850e-005,2.245773e-005
1.839176e+000,-7.217517e-005,2.286670e-005
1.839971e+000,-6.462196e-005,2.321132e-005
1.840765e+000,-5.958648e-005,2.347657e-005
1.841559e+000,-5.757229e-005,2.368754e-005
1.842353e+000,-5.287251e-005,2.387610e-005
1.843147e+000,-4.750134e-005,2.403360e-005
1.843941e+000,-4.380865e-005,2.416588e-005
1.844735e+000,-4.448005e-005,2.427391e-005
1.845529e+000,-4.850843e-005,2.437552e-005
1.846324e+000,-4.716563e-005,2.449638e-005
1.847118e+000,-4.615854e-005,2.461731e-005
1.847912e+000,-4.246586e-005,2.473625e-005
1.848706e+000,-3.910887e-005,2.484244e-005
1.849500e+000,-4.078737e-005,2.493597e-005
1.850294e+000,-3.675899e-005,2.503441e-005
1.851088e+000,-3.440909e-005,2.511312e-005
1.851882e+000,-3.071641e-005,2.517397e-005
1.852676e+000,-2.987716e-005,2.520754e-005
1.853471e+000,-3.004501e-005,2.523785e-005
1.854265e+000,-2.786297e-005,2.527208e-005
1.855059e+000,-2.098116e-005,2.530141e-005
1.855853e+000,-1.762417e-005,2.531507e-005
1.856647e+000,-1.628138e-005,2.531758e-005
1.857441e+000,-1.443504e-005,2.531546e-005
1.858235e+000,-1.628138e-005,2.531912e-005
1.859029e+000,-1.896696e-005,2.532582e-005
1.859824e+000,-1.846342e-005,2.533441e-005
1.860618e+000,-1.695277e-005,2.533242e-005
1.861412e+000,-1.628138e-005,2.532281e-005
1.862206e+000,-1.628138e-005,2.531180e-005
1.863000e+000,-1.644922e-005,2.530033e-005
1.863794e+000,-1.728847e-005,2.529472e-005
1.864588e+000,-1.644922e-005,2.530408e-005
1.865382e+000,-1.661708e-005,2.531535e-005
1.866176e+000,-1.594568e-005,2.532696e-005
1.866971e+000,-1.779202e-005,2.533833e-005
1.867765e+000,-2.030976e-005,2.535524e-005
1.868559e+000,-1.628138e-005,2.538003e-005
1.869353e+000,-1.594568e-005,2.539661e-005
1.870147e+000,-1.628138e-005,2.541191e-005
1.870941e+000,-1.560998e-005,2.542660e-005
1.871735e+000,-9.567407e-006,2.543889e-005
1.872529e+000,-5.539025e-006,2.543889e-005
1.873324e+000,-3.189136e-006,2.542924e-005
1.874118e+000,-1.510643e-006,2.541327e-005
1.874912e+000,-4.867628e-006,2.540125e-005
1.875706e+000,-8.224612e-006,2.538679e-005
1.876500e+000,-1.225299e-005,2.537371e-005
1.877294e+000,-1.359579e-005,2.536289e-005
1.878088e+000,-9.567407e-006,2.535645e-005
1.878882e+000,-5.874723e-006,2.534754e-005
1.879676e+000,-7.217518e-006,2.531839e-005
1.880471e+000,-8.224612e-006,2.529863e-005
1.881265e+000,-7.553216e-006,2.528443e-005
1.882059e+000,-7.553216e-006,2.527133e-005
1.882853e+000,-8.896010e-006,2.526022e-005
1.883647e+000,-6.546120e-006,2.525050e-005
1.884441e+000,-1.023880e-005,2.524267e-005
1.885235e+000,-1.963836e-005,2.524082e-005
1.886029e+000,-2.030976e-005,2.525716e-005
1.886824e+000,-2.030976e-005,2.527817e-005
1.887618e+000,-1.762417e-005,2.530086e-005
1.888412e+000,-1.023880e-005,2.531403e-005
1.889206e+000,-8.896010e-006,2.530529e-005
1.890000e+000,-1.258869e-005,2.529623e-005
1.890794e+000,-1.158160e-005,2.529871e-005
1.891588e+000,-1.023880e-005,2.530289e-005
1.892382e+000,-9.567407e-006,2.530153e-005
1.893176e+000,-9.567407e-006,2.529885e-005
1.893971e+000,-6.881819e-006,2.529516e-005
1.894765e+000,-2.517739e-006,2.528280e-005
1.895559e+000,-5.035477e-007,2.526509e-005
1.896353e+000,-2.182040e-006,2.524243e-005
1.897147e+000,-3.189136e-006,2.522927e-005
1.897941e+000,-5.035477e-006,2.521582e-005
1.898735e+000,-8.896010e-006,2.520426e-005
1.899529e+000,-1.225299e-005,2.520174e-005
1.900324e+000,-1.326009e-005,2.520973e-005
1.901118e+000,-1.628138e-005,2.522032e-005
1.901912e+000,-1.225299e-005,2.523512e-005
1.902706e+000,-1.258869e-005,2.523881e-005
1.903500e+000,-1.225299e-005,2.524010e-005
1.904294e+000,-1.158160e-005,2.524062e-005
1.905088e+000,-1.242084e-005,2.524330e-005
1.905882e+000,-1.007095e-005,2.524019e-005
1.906676e+000,-9.231709e-006,2.522987e-005
1.907471e+000,-1.158160e-005,2.522116e-005
1.908265e+000,-1.292439e-005,2.521490e-005
1.909059e+000,-1.091020e-005,2.520431e-005
1.909853e+000,-6.881819e-006,2.518576e-005
1.910647e+000,-2.853437e-006,2.516436e-005
1.911441e+000,5.035477e-007,2.513140e-005
1.912235e+000,1.846342e-006,2.509281e-005
1.913029e+000,3.860533e-006,2.504371e-005
1.913824e+000,3.524834e-006,2.499465e-005
1.914618e+000,-5.539025e-006,2.496509e-005
1.915412e+000,-1.560998e-005,2.495014e-005
1.916206e+000,-1.695277e-005,2.495208e-005
1.917000e+000,-1.376364e-005,2.495862e-005
1.917794e+000,-9.231709e-006,2.496060e-005
1.918588e+000,-5.539025e-006,2.496019e-005
1.919382e+000,-5.203327e-006,2.495748e-005
1.920176e+000,-4.196231e-006,2.495647e-005
1.920971e+000,-6.881819e-006,2.495628e-005
1.921765e+000,-1.426719e-005,2.495628e-005
1.922559e+000,-1.695277e-005,2.496258e-005
1.923353e+000,-1.560998e-005,2.496912e-005
1.924147e+000,-1.863127e-005,2.497797e-005
1.924941e+000,-1.896696e-005,2.498773e-005
1.925735e+000,-1.560998e-005,2.499160e-005
1.926529e+000,-1.359579e-005,2.497537e-005
1.927324e+000,-1.493858e-005,2.496582e-005
1.928118e+000,-1.460288e-005,2.496939e-005
1.928912e+000,-1.527428e-005,2.497868e-005
1.929706e+000,-1.292439e-005,2.499053e-005
1.930500e+000,-1.023880e-005,2.499944e-005
1.931294e+000,-1.258869e-005,2.500366e-005
1.932088e+000,-1.829557e-005,2.500996e-005
1.932882e+000,-2.098116e-005,2.502623e-005
1.933676e+000,-1.896696e-005,2.504618e-005
1.934471e+000,-1.594568e-005,2.505897e-005
1.935265e+000,-1.359579e-005,2.505386e-005
1.936059e+000,-1.225299e-005,2.504549e-005
1.936853e+000,-1.091020e-005,2.503336e-005
1.937647e+000,-1.124590e-005,2.501110e-005
1.938441e+000,-9.903105e-006,2.499459e-005
1.939235e+000,-5.874723e-006,2.498253e-005
1.940029e+000,-5.874723e-006,2.496179e-005
1.940824e+000,-5.035477e-006,2.493723e-005
1.941618e+000,-9.903105e-006,2.492261e-005
1.942412e+000,-1.258869e-005,2.491820e-005
1.943206e+000,-7.553216e-006,2.491765e-005
1.944000e+000,-5.874723e-006,2.490948e-005
1.944794e+000,-2.182040e-006,2.489987e-005
1.945588e+000,-2.182040e-006,2.488590e-005
1.946382e+000,-2.349889e-006,2.487378e-005
1.947176e+000,-3.692683e-006,2.486426e-005
1.947971e+000,-4.531929e-006,2.485551e-005
1.948765e+000,-6.546120e-006,2.485055e-005
1.949559e+000,-1.091020e-005,2.484231e-005
1.950353e+000,-1.762417e-005,2.484031e-005
1.951147e+000,-2.635233e-005,2.485162e-005
1.951941e+000,-2.970932e-005,2.488594e-005
1.952735e+000,-3.038071e-005,2.493169e-005
1.953529e+000,-2.568093e-005,2.497820e-005
1.954324e+000,-1.695277e-005,2.500844e-005
1.955118e+000,-5.539025e-006,2.501665e-005
1.955912e+000,3.860533e-006,2.500956e-005
1.956706e+000,6.378271e-006,2.500293e-005
1.957500e+000,1.174945e-006,2.499488e-005
1.958294e+000,-5.203327e-006,2.498829e-005
1.959088e+000,-6.881819e-006,2.498654e-005
1.959882e+000,-8.224612e-006,2.498624e-005
1.960676e+000,-1.292439e-005,2.498430e-005
1.961471e+000,-1.661708e-005,2.498911e-005
1.962265e+000,-1.493858e-005,2.500239e-005
1.963059e+000,-1.359579e-005,2.500704e-005
1.963853e+000,-1.594568e-005,2.500051e-005
1.964647e+000,-1.762417e-005,2.499840e-005
1.965441e+000,-1.896696e-005,2.499988e-005
1.966235e+000,-1.896696e-005,2.500263e-005
1.967029e+000,-1.644922e-005,2.500263e-005
1.967824e+000,-1.376364e-005,2.499613e-005
1.968618e+000,-1.762417e-005,2.499268e-005
1.969412e+000,-2.030976e-005,2.499558e-005
1.970206e+000,-1.695277e-005,2.500633e-005
1.971000e+000,-2.098116e-005,2.500007e-005
1.971794e+000,-2.131685e-005,2.499637e-005
1.972588e+000,-1.947051e-005,2.499499e-005
1.973382e+000,-1.963836e-005,2.499897e-005
1.974176e+000,-1.527428e-005,2.501261e-005
1.974971e+000,-1.493858e-005,2.501791e-005
1.975765e+000,-1.376364e-005,2.502608e-005
1.976559e+000,-1.258869e-005,2.503761e-005
1.977353e+000,-1.292439e-005,2.504768e-005
1.978147e+000,-1.359579e-005,2.505699e-005
1.978941e+000,-1.258869e-005,2.506654e-005
1.979735e+000,-1.258869e-005,2.507389e-005
1.980529e+000,-1.091020e-005,2.508223e-005
1.981324e+000,-1.091020e-005,2.508938e-005
1.982118e+000,-1.359579e-005,2.509672e-005
1.982912e+000,-1.258869e-005,2.510750e-005
1.983706e+000,-1.359579e-005,2.511625e-005
1.984500e+000,-1.091020e-005,2.512602e-005
1.985294e+000,-5.203327e-006,2.512776e-005
1.986088e+000,-6.881819e-006,2.511889e-005
1.986882e+000,-1.158160e-005,2.511074e-005
1.987676e+000,-1.091020e-005,2.510510e-005
1.988471e+000,-1.242084e-005,2.509141e-005
1.989265e+000,-1.359579e-005,2.507051e-005
1.990059e+000,-1.023880e-005,2.504866e-005
1.990853e+000,-8.392462e-006,2.501713e-005
1.991647e+000,-9.567407e-006,2.498891e-005
1.992441e+000,-1.661708e-005,2.497341e-005
1.993235e+000,-2.803082e-005,2.496967e-005
1.994029e+000,-3.508049e-005,2.499802e-005
1.994824e+000,-3.440909e-005,2.505730e-005
1.995618e+000,-3.172351e-005,2.511699e-005
1.996412e+000,-2.937362e-005,2.517198e-005
1.997206e+000,-1.913481e-005,2.521365e-005
1.998000e+000,-4.867628e-006,2.522268e-005
1.998794e+000,3.860533e-006,2.520879e-005
1.999588e+000,8.896010e-006,2.519010e-005
2.000382e+000,1.863127e-005,2.517072e-005
2.001176e+000,2.064546e-005,2.516209e-005
2.001971e+000,1.460288e-005,2.515893e-005
2.002765e+000,2.517739e-006,2.514088e-005
2.003559e+000,-7.553216e-006,2.511514e-005
2.004353e+000,-8.560311e-006,2.509674e-005
2.005147e+000,-1.275654e-005,2.509187e-005
2.005941e+000,-1.728847e-005,2.509678e-005
2.006735e+000,-2.433814e-005,2.510819e-005
2.007529e+000,-3.205920e-005,2.513772e-005
2.008324e+000,-3.575189e-005,2.518864e-005
2.009118e+000,-3.273060e-005,2.525191e-005
2.009912e+000,-2.786297e-005,2.530129e-005
2.010706e+000,-2.232395e-005,2.532332e-005
2.011500e+000,-2.299535e-005,2.532140e-005
2.012294e+000,-1.896696e-005,2.533122e-005
2.013088e+000,-1.695277e-005,2.533981e-005
2.013882e+000,-1.359579e-005,2.534843e-005
2.014676e+000,-9.903105e-006,2.535162e-005
2.015471e+000,-6.881819e-006,2.534247e-005
2.016265e+000,-1.510643e-006,2.532738e-005
2.017059e+000,-7.217518e-006,2.531285e-005
2.017853e+000,-1.728847e-005,2.530392e-005
2.018647e+000,-1.963836e-005,2.530167e-005
2.019441e+000,-2.433814e-005,2.530639e-005
2.020235e+000,-2.635233e-005,2.531939e-005
2.021029e+000,-3.138781e-005,2.534043e-005
2.021824e+000,-4.129091e-005,2.538424e-005
2.022618e+000,-3.978027e-005,2.547301e-005
2.023412e+000,-3.306630e-005,2.554604e-005
2.024206e+000,-2.500954e-005,2.559479e-005
2.025000e+000,-1.829557e-005,2.560970e-005
2.025794e+000,-1.393149e-005,2.560653e-005
2.026588e+000,-4.531929e-006,2.559543e-005
2.027382e+000,3.860533e-006,2.558089e-005
2.028176e+000,4.364080e-006,2.557346e-005
2.028971e+000,1.174945e-006,2.557170e-005
2.029765e+000,-2.853437e-006,2.556504e-005
2.030559e+000,-8.224612e-006,2.555695e-005
2.031353e+000,-1.225299e-005,2.554726e-005
2.032147e+000,-1.359579e-005,2.554271e-005
2.032941e+000,-1.577783e-005,2.554382e-005
2.033735e+000,-1.896696e-005,2.554781e-005
2.034529e+000,-2.635233e-005,2.555302e-005
2.035324e+000,-2.836652e-005,2.558110e-005
2.036118e+000,-1.829557e-005,2.562181e-005
2.036912e+000,-1.527428e-005,2.562545e-005
2.037706e+000,-1.426719e-005,2.561837e-005
2.038500e+000,-1.258869e-005,2.560866e-005
2.039294e+000,-1.326009e-005,2.560203e-005
2.040088e+000,-8.224612e-006,2.560311e-005
2.040882e+000,2.182040e-006,2.559898e-005
2.041676e+000,6.210422e-006,2.558968e-005
2.042471e+000,3.860533e-006,2.558512e-005
2.043265e+000,1.846342e-006,2.557952e-005
2.044059e+000,-2.853437e-006,2.557517e-005
2.044853e+000,-4.867628e-006,2.556527e-005
2.045647e+000,-8.560311e-006,2.555347e-005
2.046441e+000,-1.460288e-005,2.555233e-005
2.047235e+000,-1.644922e-005,2.555820e-005
2.048029e+000,-1.896696e-005,2.556465e-005
2.048824e+000,-1.896696e-005,2.556771e-005
2.049618e+000,-1.846342e-005,2.557494e-005
2.050412e+000,-1.426719e-005,2.558408e-005
2.051206e+000,-1.091020e-005,2.558158e-005
2.052000e+000,-9.063859e-006,2.558289e-005
2.052794e+000,-6.881819e-006,2.558445e-005
2.053588e+000,-5.539025e-006,2.558150e-005
2.054382e+000,-5.203327e-006,2.557354e-005
2.055176e+000,-8.560311e-006,2.555871e-005
2.055971e+000,-1.174945e-005,2.552533e-005
2.056765e+000,-9.903105e-006,2.549646e-005
2.057559e+000,-1.107805e-005,2.546557e-005
2.058353e+000,-1.091020e-005,2.542980e-005
2.059147e+000,-5.203327e-006,2.538380e-005
2.059941e+000,-3.524834e-006,2.535034e-005
2.060735e+000,-8.392462e-006,2.534269e-005
2.061529e+000,-1.091020e-005,2.534707e-005
2.062324e+000,-1.107805e-005,2.533649e-005
2.063118e+000,-1.091020e-005,2.526301e-005
2.063912e+000,-1.174945e-005,2.509374e-005
2.064706e+000,-1.594568e-005,2.484447e-005
2.065500e+000,-1.661708e-005,2.452326e-005
2.066294e+000,-1.225299e-005,2.415468e-005
2.067088e+000,-8.224612e-006,2.375624e-005
2.067882e+000,-7.553216e-006,2.337358e-005
2.068676e+000,-9.567407e-006,2.300466e-005
2.069471e+000,-1.040665e-005,2.268252e-005
2.070265e+000,-9.903105e-006,2.244521e-005
2.071059e+000,-1.158160e-005,2.229384e-005
2.071853e+000,-1.695277e-005,2.220673e-005
2.072647e+000,-2.030976e-005,2.219476e-005
2.073441e+000,-2.064546e-005,2.221415e-005
2.074235e+000,-2.232395e-005,2.224362e-005
2.075029e+000,-2.450599e-005,2.227519e-005
2.075824e+000,-2.702373e-005,2.229418e-005
2.076618e+000,-2.903792e-005,2.230167e-005
2.077412e+000,-2.568093e-005,2.229001e-005
2.078206e+000,-2.467384e-005,2.224230e-005
2.079000e+000,-2.249180e-005,2.216666e-005
2.079794e+000,-2.030976e-005,2.204963e-005
2.080588e+000,-1.963836e-005,2.191607e-005
2.081382e+000,-1.795987e-005,2.177265e-005
2.082176e+000,-1.376364e-005,2.160392e-005
2.082971e+000,-1.510643e-005,2.139207e-005
2.083765e+000,-1.863127e-005,2.115816e-005
2.084559e+000,-1.628138e-005,2.092474e-005
2.085353e+000,-1.560998e-005,2.065120e-005
2.086147e+000,-1.577783e-005,2.032152e-005
2.086941e+000,-1.896696e-005,1.993483e-005
2.087735e+000,-1.829557e-005,1.951347e-005
2.088529e+000,-1.896696e-005,1.904661e-005
2.089324e+000,-2.265965e-005,1.863677e-005
2.090118e+000,-2.064546e-005,1.832116e-005
2.090912e+000,-1.493858e-005,1.804757e-005
2.091706e+000,-1.527428e-005,1.777272e-005
2.092500e+000,-1.913481e-005,1.754166e-005
2.093294e+000,-2.165255e-005,1.736923e-005
2.094088e+000,-1.628138e-005,1.723575e-005
2.094882e+000,-6.881819e-006,1.707672e-005
2.095676e+000,4.867628e-006,1.686035e-005
2.096471e+000,1.594568e-005,1.665119e-005
2.097265e+000,1.258869e-005,1.647078e-005
2.098059e+000,3.524834e-006,1.631098e-005
2.098853e+000,-4.867628e-006,1.616220e-005
2.099647e+000,-6.210422e-006,1.599981e-005
2.100441e+000,-4.867628e-006,1.586863e-005
2.101235e+000,-4.867628e-006,1.575177e-005
2.102029e+000,-5.203327e-006,1.565851e-005
2.102824e+000,-7.217518e-006,1.557024e-005
2.103618e+000,-6.210422e-006,1.548301e-005
2.104412e+000,-7.553216e-006,1.540694e-005
2.105206e+000,-8.224612e-006,1.536729e-005
2.106000e+000,-1.661708e-005,1.534209e-005
2.106794e+000,-2.970932e-005,1.534324e-005
2.107588e+000,-3.172351e-005,1.541306e-005
2.108382e+000,-3.390555e-005,1.548945e-005
2.109176e+000,-2.970932e-005,1.557044e-005
2.109971e+000,-2.635233e-005,1.562574e-005
2.110765e+000,-2.433814e-005,1.566717e-005
2.111559e+000,-1.896696e-005,1.570040e-005
2.112353e+000,-1.695277e-005,1.570999e-005
2.113147e+000,-1.426719e-005,1.571170e-005
2.113941e+000,-1.023880e-005,1.570203e-005
2.114735e+000,-1.057450e-005,1.568522e-005
2.115529e+000,-1.577783e-005,1.566853e-005
2.116324e+000,-1.661708e-005,1.566799e-005
2.117118e+000,-1.359579e-005,1.566388e-005
2.117912e+000,-1.359579e-005,1.564072e-005
2.118706e+000,-1.795987e-005,1.563255e-005
2.119500e+000,-1.762417e-005,1.563950e-005
2.120294e+000,-1.695277e-005,1.564414e-005
2.121088e+000,-1.326009e-005,1.564859e-005
2.121882e+000,-1.057450e-005,1.565716e-005
2.122676e+000,-1.057450e-005,1.566541e-005
2.123471e+000,-1.426719e-005,1.567574e-005
2.124265e+000,-1.292439e-005,1.569617e-005
2.125059e+000,-1.359579e-005,1.571071e-005
2.125853e+000,-1.091020e-005,1.572258e-005
2.126647e+000,-1.158160e-005,1.571943e-005
2.127441e+000,-1.158160e-005,1.571429e-005
2.128235e+000,-1.225299e-005,1.571861e-005
2.129029e+000,-1.695277e-005,1.573032e-005
2.129824e+000,-1.829557e-005,1.575412e-005
2.130618e+000,-1.779202e-005,1.578109e-005
2.131412e+000,-1.258869e-005,1.580726e-005
2.132206e+000,-1.158160e-005,1.581747e-005
2.133000e+000,-1.493858e-005,1.582301e-005
2.133794e+000,-1.628138e-005,1.584114e-005
2.134588e+000,-1.560998e-005,1.585724e-005
2.135382e+000,-1.493858e-005,1.584298e-005
2.136176e+000,-1.695277e-005,1.582394e-005
2.136971e+000,-2.064546e-005,1.581134e-005
2.137765e+000,-2.500954e-005,1.582298e-005
2.138559e+000,-2.836652e-005,1.587529e-005
2.139353e+000,-2.903792e-005,1.594790e-005
2.140147e+000,-2.702373e-005,1.601612e-005
2.140941e+000,-1.762417e-005,1.607528e-005
2.141735e+000,-7.553216e-006,1.609565e-005
2.142529e+000,-3.524834e-006,1.609224e-005
2.143324e+000,-1.678492e-007,1.608441e-005
2.144118e+000,3.860533e-006,1.607972e-005
2.144912e+000,1.174945e-006,1.608057e-005
2.145706e+000,1.678492e-007,1.608068e-005
2.146500e+000,4.867628e-006,1.608022e-005
2.147294e+000,-5.035477e-007,1.608156e-005
2.148088e+000,-2.182040e-006,1.607907e-005
2.148882e+000,-5.874723e-006,1.607170e-005
2.149676e+000,-5.539025e-006,1.606024e-005
2.150471e+000,-7.049668e-006,1.604584e-005
2.151265e+000,-1.426719e-005,1.602445e-005
2.152059e+000,-1.963836e-005,1.602976e-005
2.152853e+000,-1.460288e-005,1.605231e-005
2.153647e+000,-1.309224e-005,1.605857e-005
2.154441e+000,-1.560998e-005,1.606227e-005
2.155235e+000,-1.628138e-005,1.607113e-005
2.156029e+000,-1.695277e-005,1.608734e-005
2.156824e+000,-1.762417e-005,1.610734e-005
2.157618e+000,-1.661708e-005,1.612477e-005
2.158412e+000,-1.560998e-005,1.613554e-005
2.159206e+000,-1.661708e-005,1.614784e-005
2.160000e+000,-1.628138e-005,1.617038e-005
2.160794e+000,-1.762417e-005,1.619566e-005
2.161588e+000,-1.527428e-005,1.622615e-005
2.162382e+000,-6.881819e-006,1.624869e-005
2.163176e+000,-1.091020e-005,1.625187e-005
2.163971e+000,-1.174945e-005,1.626232e-005
2.164765e+000,-7.553216e-006,1.627283e-005
2.165559e+000,-6.881819e-006,1.625455e-005
2.166353e+000,-4.196231e-006,1.623102e-005
