X [s].2,L DELTOID ANTERIOR: EMG 3 [V],X [s].3,L BICEPS BRACHII: EMG 4 [V],X [s].4,L DELTOID POSTERIOR: EMG 5 [V],X [s].7,L DELTOID MEDIUS: EMG 8 [V]
0.0,-1.67849e-07,0.0,-7.77142e-05,0.0,-1.59457e-05,0.0,-1.09102e-05
0.000794117179931,3.35697479997621e-07,0.000794117179931,-0.000109605967066,0.000794117179931,-1.762419826664841e-05,0.000794117179931,-1.0238800693340636e-05
0.0015882343598621,3.1891197338365484e-06,0.0015882343598621,-0.0001512317043572,0.0015882343598621,-1.8295595231477585e-05,0.0015882343598621,-9.903102384261208e-06
0.0023823515397932,-3.357054855449648e-07,0.0023823515397932,-0.0001619748613536,0.0023823515397932,-1.6952797396320048e-05,0.0023823515397932,-1.1245901952759964e-05
0.0031764687197242,-4.1962237760724124e-06,0.0031764687197242,-9.047081527882308e-05,0.0031764687197242,-1.5610002164854472e-05,0.0031764687197242,-1.2252998376359145e-05
0.0039705858996553,-4.19623e-06,0.0039705858996553,2.735879159822217e-05,0.0039705858996553,-1.3260112133430572e-05,0.0039705858996553,-1.510638526680676e-05
0.0047647030795864,-1.678841056043961e-07,0.0047647030795864,0.000173051730343,0.0047647030795864,-1.2588705850961665e-05,0.0047647030795864,-1.4938601462304686e-05
0.0055588202595174,-2.1820397805872597e-06,0.0055588202595174,0.0002589909863966,0.0055588202595174,-1.4267198902936296e-05,0.0055588202595174,-1.225300043882548e-05
0.0063529374394485,-1.510642164854472e-06,0.0063529374394485,0.0002173651342183,0.0063529374394485,-1.091021082427236e-05,0.0063529374394485,-1.3595795670291057e-05
0.0071470546193796,-4.364060666300591e-06,0.0071470546193796,0.000106584750605,0.0071470546193796,-8.392477059138567e-06,0.0071470546193796,-1.4602893176317472e-05
0.0079411717993107,-4.36408e-06,0.0079411717993107,2.3667556267332912e-05,0.0079411717993107,-9.567397866569428e-06,0.0079411717993107,-1.3931506933388898e-05
0.0087352889792417,-4.699779568487318e-06,0.0087352889792417,1.8463680481443284e-06,0.0087352889792417,-1.1581597410936763e-05,0.0087352889792417,-1.6952796116385868e-05
0.0095294061591728,-4.867629188179573e-06,0.0095294061591728,2.6520080662832503e-05,0.0095294061591728,-1.3595790258154874e-05,0.0095294061591728,-1.561000649456342e-05
0.0103235233391039,-1.02389035961132e-05,0.0103235233391039,4.817214748249783e-05,0.0103235233391039,-1.0910140801675202e-05,0.0103235233391039,-1.3595721068508394e-05
0.0111176405190349,-1.3763625693006824e-05,0.0111176405190349,2.937201576338306e-05,0.0111176405190349,-8.896147015254563e-06,0.0111176405190349,-1.0910062984745436e-05
0.011911757698966,-1.426717317703262e-05,0.011911757698966,-1.6768360897594605e-06,0.011911757698966,-1.1581456958909918e-05,0.011911757698966,-8.224753041090081e-06
0.0127058748788971,-1.762409380236452e-05,0.0127058748788971,-2.500876193086228e-05,0.0127058748788971,-1.0574531859290644e-05,0.0127058748788971,-7.553241239210749e-06
0.0134999920588282,-2.1652559715128475e-05,0.0134999920588282,-3.474470264489381e-05,0.0134999920588282,-1.2252983214636864e-05,0.0134999920588282,-9.231693214736866e-06
0.0142941092387592,-2.568090390561829e-05,0.0142941092387592,-1.2252820342256556e-05,0.0142941092387592,-1.1581627339328056e-05,0.0142941092387592,-1.158162343370976e-05
0.0150882264186903,-2.6016566499291056e-05,0.0150882264186903,3.1888831622293712e-06,0.0150882264186903,-1.393156141630317e-05,0.0150882264186903,-1.3595844667611924e-05
0.0158823435986214,-2.5009571520811356e-05,0.0158823435986214,-4.531381675910128e-06,0.0158823435986214,-1.577766888206335e-05,0.0158823435986214,-1.4938504638918196e-05
0.0166764607785524,-1.7624564767858388e-05,0.0166764607785524,-2.5679855429773467e-05,0.0166764607785524,-1.56100082878213e-05,0.0166764607785524,-1.6617017097091477e-05
0.0174705779584835,-2.165248818531061e-05,0.0174705779584835,-5.58929613926052e-05,0.0174705779584835,-1.695276272843687e-05,0.0174705779584835,-1.762417204632765e-05
0.0182646951384146,-2.5680875338213878e-05,0.0182646951384146,-9.349176981883996e-05,0.0182646951384146,-1.6281404110399724e-05,0.0182646951384146,-1.3595824662398335e-05
0.0190588123183456,-2.09810750202146e-05,0.0190588123183456,-0.0001230330833322,0.0190588123183456,-1.6281410414982116e-05,0.0190588123183456,-1.040674947038944e-05
0.0198529294982767,-1.2924113223042324e-05,0.0198529294982767,-0.0001284043391672,0.0198529294982767,-1.6952775062776356e-05,0.0198529294982767,-1.35958e-05
0.0206470466782078,-5.203848384902841e-06,0.0206470466782078,-0.000110614194537,0.0206470466782078,-1.6281445077123217e-05,0.0206470466782078,-1.35958e-05
0.0214411638581389,-6.88174360691043e-06,0.0214411638581389,-9.701751879909033e-05,0.0214411638581389,-1.695276944258212e-05,0.0214411638581389,-1.158169167225364e-05
0.0222352810380699,-5.035524087860317e-06,0.0222352810380699,-8.879249639124752e-05,0.0222352810380699,-2.0645411823801795e-05,0.0222352810380699,-1.4434931865040767e-05
0.023029398218001,-6.881815856723406e-06,0.023029398218001,-7.821772372991576e-05,0.023029398218001,-1.930270301330839e-05,0.023029398218001,-1.4435e-05
0.0238235153979321,-4.532001602614242e-06,0.0238235153979321,-5.253627274346941e-05,0.0238235153979321,-1.930269349063618e-05,0.0238235153979321,-1.6281478112365873e-05
0.0246176325778631,-8.224506723005208e-06,0.0246176325778631,-2.534482820544401e-05,0.0246176325778631,-1.8967e-05,0.0246176325778631,-2.03098e-05
0.0254117497577942,-5.707029275763131e-06,0.0254117497577942,-1.628197338869854e-05,0.0254117497577942,-1.8967e-05,0.0254117497577942,-2.03098e-05
0.0262058669377253,-8.394486630420425e-07,0.0262058669377253,-1.2588853745197936e-05,0.0262058669377253,-1.7120676874680714e-05,0.0262058669377253,-1.795999783785323e-05
0.0269999841176564,-3.357080711778808e-07,0.0269999841176564,7.552817152884771e-06,0.0269999841176564,-1.661711007021786e-05,0.0269999841176564,-1.6281433570726273e-05
0.0277941012975874,4.364084388348995e-06,0.0277941012975874,2.8702203291274003e-05,0.0277941012975874,-1.527429451454333e-05,0.0277941012975874,-1.69528e-05
0.0285882184775185,7.049611423334768e-06,0.0285882184775185,3.07158845258578e-05,0.0285882184775185,-1.191726094873474e-05,0.0285882184775185,-1.6952796093710196e-05
0.0293823356574496,4.532133976092691e-06,0.0293823356574496,8.562104987833335e-06,0.0293823356574496,-1.0238935984601896e-05,0.0293823356574496,-1.6784913602510966e-05
0.0301764528373806,3.692729844135829e-06,0.0301764528373806,-2.852762122722291e-06,0.0301764528373806,-1.2924240498765348e-05,0.0301764528373806,-1.6281429903511934e-05
0.0309705700173117,5.203272962664648e-06,0.0309705700173117,6.545765102534748e-06,0.0309705700173117,-9.567536749256547e-06,0.0309705700173117,-1.62814e-05
0.0317646871972428,2.517783298018686e-06,0.0317646871972428,2.870184279195043e-05,0.0317646871972428,-1.2252956701981314e-05,0.0317646871972428,-1.561001082454498e-05
0.0325588043771738,5.035405983593476e-07,0.0325588043771738,4.4144416653214666e-05,0.0325588043771738,-1.3595792598326274e-05,0.0325588043771738,-1.3595792598326274e-05
0.0333529215571049,-8.391958843181423e-07,0.0333529215571049,4.7165025949114846e-05,0.0333529215571049,-1.2252981776076209e-05,0.0333529215571049,-1.2252890656728676e-05
0.034147038737036,1.006957576645094e-06,0.034147038737036,2.6018231390613085e-05,0.034147038737036,-1.1581651790423076e-05,0.034147038737036,-8.224920741767073e-06
0.0349411559169671,-4.531622510714429e-06,0.0349411559169671,-9.2297532534831e-06,0.0349411559169671,-1.15816e-05,0.0349411559169671,-6.210531814134263e-06
0.0357352730968981,-2.8534968651144416e-06,0.0357352730968981,-2.769447448374114e-05,0.0357352730968981,-1.15816e-05,0.0357352730968981,-4.364142551659764e-06
0.0365293902768292,-1.678818830875855e-07,0.0365293902768292,-3.373762601280499e-05,0.0365293902768292,-1.4267167116802216e-05,0.0365293902768292,-7.888866841047794e-06
0.0373235074567603,2.8533611930018544e-06,0.0373235074567603,-3.77663017456974e-05,0.0373235074567603,-1.4267225218329552e-05,0.0373235074567603,-1.0238812609164776e-05
0.0381176246366913,-5.538946690944314e-06,0.0381176246366913,-5.9250987446073256e-05,0.0381176246366913,-1.6952789586329265e-05,0.0381176246366913,-1.158166248202442e-05
0.0389117418166224,-2.8536367472889764e-06,0.0389117418166224,-6.529295731695144e-05,0.0389117418166224,-1.6617124593502697e-05,0.0389117418166224,-1.3595652438983817e-05
0.0397058589965535,-4.531843330972336e-06,0.0397058589965535,-6.361498666954402e-05,0.0397058589965535,-1.561005200172641e-05,0.0397058589965535,-1.5274213330455985e-05
0.0404999761764846,-4.196240071217883e-06,0.0404999761764846,-5.941872589172357e-05,0.0404999761764846,-1.6281379857564232e-05,0.0404999761764846,-1.661705971512847e-05
0.0412940933564156,-1.0574446638238742e-05,0.0412940933564156,-4.8172794085234856e-05,0.0412940933564156,-1.695279438294608e-05,0.0412940933564156,-1.82955859573652e-05
0.0420882105363467,-1.2252937649821607e-05,0.0420882105363467,-2.7694765981623083e-05,0.0420882105363467,-1.5609991092793754e-05,0.0420882105363467,-1.695278663919063e-05
0.0428823277162778,-7.553647748164022e-06,0.0428823277162778,-2.520031505031073e-06,0.0428823277162778,-1.4938661107140616e-05,0.0428823277162778,-1.594579166071092e-05
0.0436764448962088,-3.361988346866829e-07,0.0436764448962088,3.809898134914046e-05,0.0436764448962088,-1.49386e-05,0.0436764448962088,-1.896679034745736e-05
0.0444705620761399,1.6782495208921517e-07,0.0444705620761399,7.704094029337109e-05,0.0444705620761399,-1.594565190389189e-05,0.0444705620761399,-1.661721222425226e-05
0.045264679256071,-2.349824230198968e-06,0.045264679256071,9.080604045946244e-05,0.045264679256071,-1.695277369196465e-05,0.045264679256071,-1.527433507738047e-05
0.046058796436002,2.5177181536039423e-06,0.046058796436002,6.630050998530739e-05,0.046058796436002,-1.4267212053233557e-05,0.046058796436002,-1.4267204519962585e-05
0.0468529136159331,4.531843670697721e-06,0.0468529136159331,5.87407540814605e-06,0.0468529136159331,-1.2588728776559818e-05,0.0468529136159331,-1.4938640287183743e-05
0.0476470307958642,-5.031092239950388e-07,0.0476470307958642,-3.1720223807200584e-05,0.0476470307958642,-1.4267053740692676e-05,0.0476470307958642,-1.7288295236969744e-05
0.0484411479757953,8.391580289763026e-07,0.0484411479757953,-6.529120072113189e-05,0.0484411479757953,-1.2588809964270972e-05,0.0484411479757953,-1.7624178007145807e-05
0.0492352651557263,-3.356464446918129e-07,0.0492352651557263,-9.886172699244834e-05,0.0492352651557263,-1.3931441079346905e-05,0.0492352651557263,-1.89669410793469e-05
0.0500293823356574,-3.5247590594130327e-06,0.0500293823356574,-0.0001344462084568,0.0500293823356574,-1.4938577597582935e-05,0.0500293823356574,-1.829561493494471e-05
0.0508234995155885,-8.392476382416934e-07,0.0508234995155885,-0.0001670099801361,0.0508234995155885,-1.2588701433470022e-05,0.0508234995155885,-1.7624200409562863e-05
0.0516176166955195,-3.021385269360493e-06,0.0516176166955195,-0.0001670086944616,0.0516176166955195,-1.3595828228083238e-05,0.0516176166955195,-1.695274707129284e-05
0.0524117338754506,-7.552842674604754e-06,0.0524117338754506,-0.0001049111707366,0.0524117338754506,-1.49384881993895e-05,0.0524117338754506,-1.443520963030765e-05
0.0532058510553817,-8.224568618653496e-06,0.0532058510553817,1.9966402973399107e-05,0.0532058510553817,-1.225316552785143e-05,0.0532058510553817,-1.1581775870260378e-05
0.0539999682353128,-7.721090142035754e-06,0.0539999682353128,0.0002012437487671,0.0539999682353128,-1.3260059715128474e-05,0.0539999682353128,-1.1749393287854788e-05
0.0547940854152438,-9.231682254985527e-06,0.0547940854152438,0.0003508022532318,0.0547940854152438,-1.3595793834400412e-05,0.0547940854152438,-1.1581603081881471e-05
0.0555882025951749,-8.896023163405677e-06,0.0555882025951749,0.0003744716818835,0.0555882025951749,-1.2924398903046805e-05,0.0555882025951749,-1.2253001096953196e-05
0.056382319775106,-1.2923993078367312e-05,0.056382319775106,0.0002771288339638,0.056382319775106,-1.2588733910220235e-05,0.056382319775106,-1.2588666089779764e-05
0.057176436955037,-1.52741134374029e-05,0.057176436955037,0.0001448645007455,0.057176436955037,-1.1917353303599172e-05,0.057176436955037,-1.2924373348200414e-05
0.0579705541349681,-1.2588855112869304e-05,0.0579705541349681,4.347885548771335e-05,0.0579705541349681,-1.1581619389108662e-05,0.0579705541349681,-1.2253038778217326e-05
0.0587646713148992,-9.903197011341968e-06,0.0587646713148992,-1.896474449352381e-05,0.0587646713148992,-1.2924351494329016e-05,0.0587646713148992,-1.4267127241493525e-05
0.0595587884948302,-9.9031e-06,0.0595587884948302,-8.946257862316246e-05,0.0595587884948302,-1.29244e-05,0.0595587884948302,-1.42672e-05
0.0603529056747613,-9.90310719598611e-06,0.0603529056747613,-0.0001696963070244,0.0603529056747613,-1.292441918929629e-05,0.0603529056747613,-1.5945683209365744e-05
0.0611470228546924,-1.0910102174465815e-05,0.0611470228546924,-0.0002126608261688,0.0611470228546924,-1.560973913190884e-05,0.0611470228546924,-1.3596028259579764e-05
0.0619411400346235,-1.0238850699853644e-05,0.0619411400346235,-0.0002270989099606,0.0619411400346235,-1.2924602799414583e-05,0.0619411400346235,-9.064202223256976e-06
0.0627352572145545,-1.02388e-05,0.0627352572145545,-0.000222400253232,0.0627352572145545,-1.0574626610651302e-05,0.0627352572145545,-6.88193756649456e-06
0.0635293743944856,-1.158155670182009e-05,0.0635293743944856,-0.0001747325370724,0.0635293743944856,-1.0238810824544976e-05,0.0635293743944856,-1.023869175519512e-05
0.0643234915744167,-1.124590356185406e-05,0.0643234915744167,-9.047159402112504e-05,0.0643234915744167,-1.0910192876291878e-05,0.0643234915744167,-1.1581585752583758e-05
0.0651176087543477,-1.4267211101112638e-05,0.0651176087543477,-5.202708340668403e-06,0.0651176087543477,-1.174942035259098e-05,0.0651176087543477,-1.2924425902596157e-05
0.0659117259342788,-1.527420607959233e-05,0.0659117259342788,5.118874048235006e-05,0.0659117259342788,-1.359562780792302e-05,0.0659117259342788,-1.5274080852382098e-05
0.0667058431142099,-1.6617003807783784e-05,0.0667058431142099,6.22713064142162e-05,0.0667058431142099,-1.493850380778378e-05,0.0667058431142099,-1.7624031663621618e-05
0.067499960294141,-1.4267317497541962e-05,0.067499960294141,5.891526785363138e-05,0.067499960294141,-1.6784807683002796e-05,0.067499960294141,-1.8295566429273728e-05
0.068294077474072,-1.527427143198336e-05,0.068294077474072,4.145929517611849e-05,0.068294077474072,-1.930262857854006e-05,0.068294077474072,-1.9302671431983355e-05
0.0690881946540031,-1.963837062024313e-05,0.0690881946540031,9.903312437568749e-06,0.0690881946540031,-1.6617118079850382e-05,0.0690881946540031,-1.6952815819869084e-05
0.0698823118339342,-1.6281772668701623e-05,0.0698823118339342,-1.846025096612316e-05,0.0698823118339342,-1.66171e-05,0.0698823118339342,-1.69528e-05
0.0706764290138652,-7.889660220911447e-06,0.0706764290138652,-3.944272444995618e-05,0.0706764290138652,-1.812756496454463e-05,0.0706764290138652,-1.4938780053233289e-05
0.0714705461937963,-5.874856476410176e-06,0.0714705461937963,-4.716507684460604e-05,0.0714705461937963,-1.628152510060923e-05,0.0714705461937963,-1.4267245492362582e-05
0.0722646633737274,-2.8535793504909123e-06,0.0722646633737274,-6.0592980660385015e-05,0.0722646633737274,-1.49386619339615e-05,0.0722646633737274,-1.42672e-05
0.0730587805536585,1.1748413508964197e-06,0.0730587805536585,-8.006362319608098e-05,0.0730587805536585,-1.2253065766395569e-05,0.0730587805536585,-1.1917357545596122e-05
0.0738528977335895,8.392469580914046e-07,0.0738528977335895,-9.550615592729308e-05,0.0738528977335895,-1.0910203832434117e-05,0.0738528977335895,-9.903105748651174e-06
0.0746470149135206,-1.174724210531956e-06,0.0746470149135206,-0.0001109463456454,0.0746470149135206,-1.1917192104516034e-05,0.0746470149135206,-7.553471753986556e-06
0.0754411320934517,-1.5106112930005482e-06,0.0754411320934517,-0.0001331021053551,0.0754411320934517,-1.1245957413998904e-05,0.0754411320934517,-8.89589517285733e-06
0.0762352492733827,1.8461255581922985e-06,0.0762352492733827,-0.0001472030993007,0.0762352492733827,-1.0910221444308529e-05,0.0762352492733827,-1.0238714223404678e-05
0.0770293664533138,3.692602001525616e-06,0.0770293664533138,-0.0001418332268974,0.0770293664533138,-1.4938429820588726e-05,0.0770293664533138,-1.2252914910294364e-05
0.0778234836332449,7.21744735147587e-06,0.0778234836332449,-0.0001122916088737,0.0778234836332449,-1.6281372324293245e-05,0.0778234836332449,-1.4602851567513175e-05
0.078617600813176,7.721061578869356e-06,0.078617600813176,-2.702356285595313e-05,0.078617600813176,-1.5106400515632628e-05,0.078617600813176,-1.5610000171809284e-05
0.079411717993107,-5.026987487184283e-07,0.079411717993107,0.0001069061693444,0.079411717993107,-1.5609947999658418e-05,0.079411717993107,-1.5777782673436622e-05
0.0802058351730381,-5.20294632969588e-06,0.0802058351730381,0.0002455516817724,0.0802058351730381,-1.6281345189746635e-05,0.0802058351730381,-1.4267323318988286e-05
0.0809999523529692,-4.531970284871533e-06,0.0809999523529692,0.000312530981593,0.0809999523529692,-1.5777830216653713e-05,0.0809999523529692,-1.3931520142435766e-05
0.0817940695329002,-9.231529684339616e-06,0.0817940695329002,0.0002633568868807,0.0817940695329002,-1.7791922721530974e-05,0.0817940695329002,-1.4938561360765487e-05
0.0825881867128313,-1.0910171914897722e-05,0.0825881867128313,0.0001341141625406,0.0825881867128313,-1.812769438294608e-05,0.0825881867128313,-1.1078164595283466e-05
0.0833823038927624,-5.036190907971272e-06,0.0833823038927624,1.696697759641105e-05,0.0833823038927624,-1.46033265409104e-05,0.0833823038927624,-1.158153907077043e-05
0.0841764210726934,-4.531980048917265e-06,0.0841764210726934,-5.5215226351676354e-05,0.0841764210726934,-1.3931566731889686e-05,0.0841764210726934,-1.15816e-05
0.0849705382526245,-1.2252399627492696e-05,0.0849705382526245,-0.000105573084543,0.0849705382526245,-1.3595826103253912e-05,0.0849705382526245,-1.292429558698434e-05
0.0857646554325556,-7.5534837667595e-06,0.0857646554325556,-0.000142501927538,0.0857646554325556,-1.091035072450398e-05,0.0857646554325556,-1.426712463774801e-05
0.0865587726124866,-1.510848401007673e-06,0.0865587726124866,-0.0001520706700461,0.0865587726124866,-1.1581576844255838e-05,0.0865587726124866,-1.359582315574416e-05
0.0873528897924177,3.860460957487108e-06,0.0873528897924177,-0.0001391471661286,0.0873528897924177,-1.4938556848188425e-05,0.0873528897924177,-1.2420815103776765e-05
0.0881470069723488,3.86053e-06,0.0881470069723488,-7.839271721269648e-05,0.0881470069723488,-1.4267278643622504e-05,0.0881470069723488,-1.4266983724181424e-05
0.0889411241522799,8.395345751204467e-07,0.0889411241522799,1.2580010674673403e-05,0.0889411241522799,-1.1581856512576595e-05,0.0889411241522799,-1.42672e-05
0.0897352413322109,-4.1958579810557465e-06,0.0897352413322109,9.21433221022175e-05,0.0897352413322109,-1.3931326390331896e-05,0.0897352413322109,-1.42672e-05
0.090529358512142,-1.090984922776266e-05,0.090529358512142,0.0001513969044342,0.090529358512142,-1.6281277229168355e-05,0.090529358512142,-1.5274247383929297e-05
0.0913234756920731,-1.2252958896002752e-05,0.0913234756920731,0.0001770802138875,0.0913234756920731,-1.795984862000344e-05,0.0913234756920731,-1.5777784587531566e-05
0.0921175928720041,-1.1581606026616778e-05,0.0921175928720041,0.0001465322742137,0.0921175928720041,-1.695280903992517e-05,0.0921175928720041,-1.7791981920149665e-05
0.0929117100519352,-1.2252923959795176e-05,0.0929117100519352,9.45049930479201e-05,0.0929117100519352,-1.7959785939692764e-05,0.0929117100519352,-1.8966866923978748e-05
0.0937058272318663,-1.6616700091408946e-05,0.0937058272318663,4.549159126277233e-05,0.0937058272318663,-2.0309584664604814e-05,0.0937058272318663,-1.6281646097594495e-05
0.0944999444117974,-1.896683550344128e-05,0.0944999444117974,1.712258569795864e-05,0.0944999444117974,-1.762438799606711e-05,0.0944999444117974,-1.62814e-05
0.0952940615917284,-1.0910589683619324e-05,0.0952940615917284,-3.188157677863324e-06,0.0952940615917284,-1.426736236817472e-05,0.0952940615917284,-1.4938664947269887e-05
0.0960881787716595,-6.546236663110485e-06,0.0960881787716595,-4.347192310855668e-05,0.0960881787716595,-1.2588744870632746e-05,0.0960881787716595,-1.3092249359032649e-05
0.0968822959515906,-6.210463980170023e-06,0.0968822959515906,-9.365332499733428e-05,0.0968822959515906,-1.2924356019829976e-05,0.0968822959515906,-1.0910485864554627e-05
0.0976764131315216,-9.567042770919265e-06,0.0976764131315216,-0.0001330996851165,0.0976764131315216,-1.19174101690524e-05,0.0976764131315216,-1.1245863276982534e-05
0.0984705303114527,-1.1917093778591735e-05,0.0984705303114527,-0.0001519023501515,0.0984705303114527,-8.224934062714461e-06,0.0984705303114527,-1.3595593777714156e-05
0.0992646474913838,-1.292433340709312e-05,0.0992646474913838,-0.000157274644851,0.0992646474913838,-8.560287802364375e-06,0.0992646474913838,-1.4267155604728747e-05
0.1000587646713148,-1.2253198916881758e-05,0.1000587646713148,-0.0001727124249709,0.1000587646713148,-9.734911895456922e-06,0.1000587646713148,-1.2253596750645278e-05
0.1008528818512459,-1.4266900283097771e-05,0.1008528818512459,-0.0001505642968561,0.1008528818512459,-1.0238725072262462e-05,0.1008528818512459,-1.3595600188731848e-05
0.101646999031177,-1.6449197337567116e-05,0.101646999031177,-0.0001062490540686,0.101646999031177,-1.3595795903855543e-05,0.101646999031177,-1.560999754231333e-05
0.1024411162111081,-1.5273956064882974e-05,0.1024411162111081,-7.938906412911331e-05,0.1024411162111081,-1.5442124574112153e-05,0.1024411162111081,-1.6281522826652288e-05
0.1032352333910391,-1.29245973535815e-05,0.1032352333910391,-5.453866545994487e-05,0.1032352333910391,-1.561029603037225e-05,0.1032352333910391,-1.7121241413837045e-05
0.1040293505709702,-1.35958e-05,0.1040293505709702,-1.2573452588127736e-05,0.1040293505709702,-1.6618136234871697e-05,0.1040293505709702,-1.9302107865787604e-05
0.1048234677509013,-1.35958e-05,0.1048234677509013,2.1965150846433733e-05,0.1048234677509013,-1.8965426752003776e-05,0.1048234677509013,-1.7960798998854984e-05
0.1056175849308323,-6.8853297809697926e-06,0.1056175849308323,5.084320800142421e-05,0.1056175849308323,-1.779261423963722e-05,0.1056175849308323,-1.494017940614122e-05
0.1064117021107634,-8.415130248811185e-07,0.1064117021107634,8.038871675707645e-05,0.1064117021107634,-1.7792e-05,0.1064117021107634,-1.225400757094919e-05
0.1072058192906945,-1.6800180564932067e-07,0.1072058192906945,8.644102474301109e-05,0.1072058192906945,-2.030922696487494e-05,0.1072058192906945,-1.2420761809796654e-05
0.1079999364706256,-4.195907681958722e-06,0.1079999364706256,7.737922521901338e-05,0.1079999364706256,-1.762441487970767e-05,0.1079999364706256,-1.4267052266200388e-05
0.1087940536505566,-1.6776960873060237e-07,0.1087940536505566,7.100065366478268e-05,0.1087940536505566,-1.3092256711476332e-05,0.1087940536505566,-1.6281445366478267e-05
0.1095881708304877,1.0071361110693484e-06,0.1095881708304877,7.771174430098112e-05,0.1095881708304877,-1.3931788905766928e-05,0.1095881708304877,-1.695236664134961e-05
0.1103822880104188,1.1750617696443296e-06,0.1103822880104188,6.628627479380446e-05,0.1103822880104188,-1.5275395926798967e-05,0.1103822880104188,-1.4938417327396827e-05
0.1111764051903498,1.5114954867953203e-06,0.1111764051903498,2.734040829507857e-05,0.1111764051903498,-1.8294573415845617e-05,0.1111764051903498,-1.4434743379445072e-05
0.1119705223702809,3.1881315704610925e-06,0.1119705223702809,-9.880712984394682e-06,0.1119705223702809,-1.6282610115446687e-05,0.1119705223702809,-1.3931802498822068e-05
0.112764639550212,9.2289668727011e-06,0.112764639550212,-4.178002235721883e-05,0.112764639550212,-1.2925923967176616e-05,0.112764639550212,-1.0911571570458954e-05
0.1135587567301431,7.21813711802653e-06,0.1135587567301431,-6.075558882235668e-05,0.1135587567301431,-1.4266788585939743e-05,0.1135587567301431,-1.09102e-05
0.1143528739100741,1.175899582448418e-06,0.1143528739100741,-7.133422073309732e-05,0.1143528739100741,-1.2421093214658763e-05,0.1143528739100741,-1.09102e-05
0.1151469910900052,-1.5106098633453983e-06,0.1151469910900052,-8.812071164450604e-05,0.1151469910900052,-9.567442019760676e-06,0.1151469910900052,-1.158159246578024e-05
0.1159411082699363,-8.225021983470867e-06,0.1159411082699363,-0.000121186015889,0.1159411082699363,-9.567821983470867e-06,0.1159411082699363,-1.2253e-05
0.1167352254498673,-1.1246757873657798e-05,0.1167352254498673,-0.0001139638994799,0.1167352254498673,-1.258879531929531e-05,0.1167352254498673,-1.2253428922631804e-05
0.1175293426297984,-1.426691063943814e-05,0.1175293426297984,-9.248157239663668e-05,0.1175293426297984,-1.29244e-05,0.1175293426297984,-1.376381704197044e-05
0.1183234598097295,-1.359625620597183e-05,0.1183234598097295,-8.476914630072758e-05,0.1183234598097295,-1.29244e-05,0.1183234598097295,-1.4266857811546896e-05
0.1191175769896605,-1.2924757694133349e-05,0.1191175769896605,-8.20797307765334e-05,0.1191175769896605,-1.42664846117333e-05,0.1191175769896605,-1.42672e-05
0.1199116941695916,-1.2420993975054965e-05,0.1199116941695916,-7.033332563524288e-05,0.1199116941695916,-1.4938341392271837e-05,0.1199116941695916,-1.5609482784543672e-05
0.1207058113495227,-9.90369819308138e-06,0.1207058113495227,-4.01231784120146e-05,0.1207058113495227,-1.6281080957354063e-05,0.1207058113495227,-1.4267519042645938e-05
0.1214999285294538,-1.1245779130164431e-05,0.1214999285294538,1.1712232669583672e-06,0.1214999285294538,-1.2924702174588922e-05,0.1214999285294538,-1.5274209347623323e-05
0.1222940457093848,-1.124562944073949e-05,0.1222940457093848,3.575338807650849e-05,0.1222940457093848,-1.4938677302974822e-05,0.1222940457093848,-1.5106390340006571e-05
0.1230881628893159,-6.5443982845485645e-06,0.1230881628893159,6.160617505045814e-05,0.1230881628893159,-1.62814688689463e-05,0.1230881628893159,-1.4938324524214808e-05
0.123882280069247,1.84634e-06,0.123882280069247,8.828970648562896e-05,0.123882280069247,-1.661686317570222e-05,0.123882280069247,-1.359532635140444e-05
0.124676397249178,1.840301242852851e-06,0.124676397249178,9.113270638110231e-05,0.124676397249178,-1.5944525791391734e-05,0.124676397249178,-1.225434195269516e-05
0.1254705144291091,-1.023141862616864e-05,0.1254705144291091,7.235448213299913e-05,0.1254705144291091,-1.3597235274259653e-05,0.1254705144291091,-1.4936959686560396e-05
0.1262646316090402,-9.567721503786497e-06,0.1262646316090402,5.002945758557519e-05,0.1262646316090402,-1.35958e-05,0.1262646316090402,-1.2925334525278535e-05
0.1270587487889713,-6.882669684920112e-06,0.1270587487889713,3.4078445007179294e-05,0.1270587487889713,-1.1246643477073482e-05,0.1270587487889713,-1.2253212422020994e-05
0.1278528659689023,-5.203613337351478e-06,0.1278528659689023,2.9374393349310677e-05,0.1278528659689023,-1.426668998972885e-05,0.1278528659689023,-1.2253e-05
0.1286469831488334,-3.189182747419648e-06,0.1286469831488334,8.39290528549753e-06,0.1286469831488334,-1.3931507124605314e-05,0.1286469831488334,-1.2924385750789373e-05
0.1294411003287645,-1.8457885607623927e-06,0.1294411003287645,-2.753202965464412e-05,0.1294411003287645,-1.493868483719458e-05,0.1294411003287645,-1.6281060651221674e-05
0.1302352175086955,2.517004308614281e-06,0.1302352175086955,-6.496487296560278e-05,0.1302352175086955,-1.5608896458401405e-05,0.1302352175086955,-1.3595064305600935e-05
0.1310293346886266,-1.687676217680204e-07,0.1310293346886266,-9.114796521821078e-05,0.1310293346886266,-1.158167064245478e-05,0.1310293346886266,-1.0910482654017524e-05
0.1318234518685577,-2.348385540527714e-06,0.1318234518685577,-0.0001050643943239,0.1318234518685577,-1.1749284306344631e-05,0.1318234518685577,-1.158113708748383e-05
0.1326175690484888,-5.04550120749548e-07,0.1326175690484888,-0.0001267142481585,0.1326175690484888,-1.5943422415835566e-05,0.1326175690484888,-1.4936777954378857e-05
0.1334116862284198,-5.033689078759818e-06,0.1334116862284198,-0.0001237061938336,0.1334116862284198,-1.3764462318595734e-05,0.1334116862284198,-1.510633368907916e-05
0.1342058034083509,-4.86767155907846e-06,0.1342058034083509,-7.235571705324883e-05,0.1342058034083509,-1.3931458428541714e-05,0.1342058034083509,-1.644886752737233e-05
0.134999920588282,-4.531963574954326e-06,0.134999920588282,4.077608529039948e-05,0.134999920588282,-1.493849927513702e-05,0.134999920588282,-1.8631081757796142e-05
0.135794037768213,-5.035384190986004e-06,0.135794037768213,0.0001911847824832,0.135794037768213,-1.5609984031751722e-05,0.135794037768213,-1.7624088222262055e-05
0.1365881549481441,-3.0211262213728253e-06,0.1365881549481441,0.0002917198053566,0.1365881549481441,-1.527390693129478e-05,0.1365881549481441,-1.527423448854913e-05
0.1373822721280752,-2.1842260281338627e-06,0.1373822721280752,0.0002804456258456,0.1373822721280752,-1.3260215054653464e-05,0.1373822721280752,-1.4938887619497126e-05
0.1381763893080062,-8.559816832452779e-06,0.1381763893080062,0.0001918016964596,0.1381763893080062,-1.3597279517332532e-05,0.1381763893080062,-1.5778704173965774e-05
0.1389705064879373,-7.5538451711486594e-06,0.1389705064879373,8.919166802827161e-05,0.1389705064879373,-1.6615224467930926e-05,0.1389705064879373,-1.7623053810474848e-05
0.1397646236678684,-4.533362000637012e-06,0.1397646236678684,4.236485058449344e-06,0.1397646236678684,-1.6281559111708522e-05,0.1397646236678684,-1.6282036446834094e-05
0.1405587408477994,-8.55899518445659e-06,0.1405587408477994,-6.057245336648008e-05,0.1405587408477994,-1.4267857411035587e-05,0.1405587408477994,-1.62814e-05
0.1413528580277305,-1.5776509466706594e-05,0.1413528580277305,-0.0001156381559217,0.1413528580277305,-1.3595920050606676e-05,0.1413528580277305,-1.561012005060668e-05
0.1421469752076616,-1.02389729531009e-05,0.1421469752076616,-0.0001581126740158,0.1421469752076616,-1.1581662892604411e-05,0.1421469752076616,-1.359586289260441e-05
0.1429410923875927,-3.524634695654345e-06,0.1429410923875927,-0.0001757353828945,0.1429410923875927,-1.191737812220369e-05,0.1429410923875927,-1.2253e-05
0.1437352095675237,-1.847314644709551e-06,0.1437352095675237,-0.0001532332411913,0.1437352095675237,-1.2589143021522244e-05,0.1437352095675237,-1.2253e-05
0.1445293267474548,-5.537512293007517e-06,0.1445293267474548,-0.0001048810267947,0.1445293267474548,-1.4266924052526817e-05,0.1445293267474548,-1.225244810505363e-05
0.1453234439273859,-1.8489228978381617e-06,0.1453234439273859,-4.4186900455029605e-05,0.1453234439273859,-1.3596269619060508e-05,0.1453234439273859,-1.0911139238121012e-05
0.146117561107317,-1.5108255620575364e-06,0.146117561107317,4.78868330367419e-07,0.146117561107317,-1.627991550353971e-05,0.146117561107317,-1.1581228875884926e-05
0.146911678287248,-1.683930717731589e-07,0.146911678287248,2.19795948127322e-05,0.146911678287248,-1.8294783886870336e-05,0.146911678287248,-1.5272803792595612e-05
0.1477057954671791,5.033750494680899e-07,0.1477057954671791,1.35979618913088e-05,0.1477057954671791,-1.863121352434765e-05,0.1477057954671791,-1.7287981146085888e-05
0.1484999126471102,-1.6777513543055237e-07,0.1484999126471102,-1.1578830077270512e-05,0.1484999126471102,-1.5610332392047735e-05,0.1484999126471102,-1.7624163067550253e-05
0.1492940298270412,-1.5105138932229885e-06,0.1492940298270412,-3.138861969517754e-05,0.1492940298270412,-1.4938700886022658e-05,0.1492940298270412,-1.6952825221505665e-05
0.1500881470069723,1.846215692089128e-06,0.1500881470069723,-5.321279937418755e-05,0.1500881470069723,-1.76242e-05,0.1500881470069723,-1.762370276835651e-05
0.1508822641869034,1.171365707579549e-06,0.1508822641869034,-7.805459124736428e-05,0.1508822641869034,-1.7623976605683943e-05,0.1508822641869034,-1.4937706422735773e-05
0.1516763813668344,-9.56757103274549e-06,0.1516763813668344,-9.215467527644691e-05,0.1516763813668344,-1.695135066211699e-05,0.1516763813668344,-1.2252677924914888e-05
0.1524704985467655,-9.902888260583312e-06,0.1524704985467655,-0.0001035558006453,0.1524704985467655,-1.3933405711518492e-05,0.1524704985467655,-1.1582023491448551e-05
0.1532646157266966,-5.541142085132454e-06,0.1532646157266966,-0.0001028923247448,0.1532646157266966,-1.2924887407611904e-05,0.1532646157266966,-9.736153575782116e-06
0.1540587329066277,-3.5255075560081902e-06,0.1540587329066277,-9.28239879145968e-05,0.1540587329066277,-1.5609096591989082e-05,0.1540587329066277,-1.0238630614361847e-05
0.1548528500865587,-7.552459408302945e-06,0.1548528500865587,-5.153749604648605e-05,0.1548528500865587,-1.561e-05,0.1548528500865587,-1.057443661720124e-05
0.1556469672664898,-6.210475358384723e-06,0.1556469672664898,-1.426873618693084e-05,0.1556469672664898,-1.561e-05,0.1556469672664898,-1.3595675443634373e-05
0.1564410844464209,-4.196729848362811e-06,0.1564410844464209,3.191924866411211e-06,0.1564410844464209,-1.5609892889180733e-05,0.1564410844464209,-1.1581689253698271e-05
0.157235201626352,-8.896691971932747e-06,0.157235201626352,2.9381101693799603e-05,0.157235201626352,-1.4602985246809015e-05,0.157235201626352,-1.2421439363764489e-05
0.158029318806283,-1.158294620464423e-05,0.158029318806283,5.892398491055051e-05,0.158029318806283,-1.4937859567394965e-05,0.158029318806283,-1.4939138481857692e-05
0.1588234359862141,-1.4936218371975891e-05,0.1588234359862141,8.105548132598603e-05,0.1588234359862141,-1.3093509930885825e-05,0.1588234359862141,-1.6280447348790356e-05
0.1596175531661451,-1.2254511356423854e-05,0.1596175531661451,9.029770474043117e-05,0.1596175531661451,-1.3931027672979394e-05,0.1596175531661451,-1.292628919552982e-05
0.1604116703460762,-1.393080311824811e-05,0.1604116703460762,8.610844218362066e-05,0.1604116703460762,-1.2924818129051134e-05,0.1604116703460762,-1.3259960623649624e-05
0.1612057875260073,-1.1246618665182193e-05,0.1612057875260073,6.529896962840205e-05,0.1612057875260073,-1.2588789833147774e-05,0.1612057875260073,-1.2924489833147771e-05
0.1619999047059384,-7.721493042024179e-06,0.1619999047059384,2.769961246185992e-05,0.1619999047059384,-1.0910401449725968e-05,0.1619999047059384,-1.3092179861028289e-05
0.1627940218858694,-1.0910033442193536e-05,0.1627940218858694,-2.854133990446796e-06,0.1627940218858694,-1.1246020292346332e-05,0.1627940218858694,-1.6281362986970358e-05
0.1635881390658005,-4.868100369928561e-06,0.1635881390658005,-2.803638564618564e-05,0.1635881390658005,-1.5610235185840012e-05,0.1635881390658005,-1.4938835185840009e-05
0.1643822562457316,-7.554411729833987e-06,0.1643822562457316,-5.993108382005999e-05,0.1643822562457316,-1.6951716603374057e-05,0.1643822562457316,-1.628118332067481e-05
0.1651763734256627,-1.12459e-05,0.1651763734256627,-8.745478239957249e-05,0.1651763734256627,-1.35961153685408e-05,0.1651763734256627,-1.5609053894377604e-05
0.1659704906055937,-1.12459e-05,0.1659704906055937,-9.868819421565604e-05,0.1659704906055937,-1.4266769802007084e-05,0.1659704906055937,-1.3597090593978746e-05
0.1667646077855248,-8.22610243535479e-06,0.1667646077855248,-0.0001122842841421,0.1667646077855248,-1.5609336693202438e-05,0.1667646077855248,-9.737167002103268e-06
0.1675587249654559,-1.090926973548952e-05,0.1675587249654559,-0.0001218556857298,0.1675587249654559,-1.1247411685458384e-05,0.1675587249654559,-6.547224689755677e-06
0.1683528421453869,-1.1581466519411584e-05,0.1683528421453869,-0.0001203483004009,0.1683528421453869,-1.1581533259705792e-05,0.1683528421453869,-4.8679636994829404e-06
0.169146959325318,-8.896147576220545e-06,0.169146959325318,-9.55074725847786e-05,0.169146959325318,-8.896147576220545e-06,0.169146959325318,-3.860581591274809e-06
0.1699410765052491,-7.21752e-06,0.1699410765052491,-4.313218933373452e-05,0.1699410765052491,-9.903197038332968e-06,0.1699410765052491,-3.8608211140353625e-06
0.1707351936851801,-7.217601889313581e-06,0.1707351936851801,9.916611687953755e-06,0.1707351936851801,-1.0910363778627165e-05,0.1707351936851801,-6.882720777570677e-06
0.1715293108651112,-7.55276056482707e-06,0.1715293108651112,6.531164586600723e-05,0.1715293108651112,-1.1581665614044869e-05,0.1715293108651112,-1.057600955315979e-05
0.1723234280450423,-6.37911530626107e-06,0.1723234280450423,0.0001119214297692,0.1723234280450423,-1.1749279277934714e-05,0.1723234280450423,-1.4432222601114208e-05
0.1731175452249733,-4.532987518038577e-06,0.1731175452249733,0.0001481902338496,0.1731175452249733,-1.4265757893498744e-05,0.1731175452249733,-1.6280342447595552e-05
0.1739116624049044,-2.350817765745949e-06,0.1739116624049044,0.0001609615763689,0.1739116624049044,-1.628054359692513e-05,0.1739116624049044,-1.7288071798462562e-05
0.1747057795848355,-1.510872976608049e-06,0.1747057795848355,0.000123715343967,0.1747057795848355,-1.561018638128644e-05,0.1747057795848355,-1.7959713618713562e-05
0.1754998967647666,-1.680235885922903e-07,0.1754998967647666,4.683989523789717e-05,0.1754998967647666,-1.4267374589762462e-05,0.1754998967647666,-2.030949446791569e-05
0.1762940139446976,2.0141988436429643e-06,0.1762940139446976,-2.568173129892616e-05,0.1762940139446976,-1.7288517687285927e-05,0.1762940139446976,-2.3666670522946378e-05
0.1770881311246287,2.5172964901000395e-06,0.1770881311246287,-7.301767088239511e-05,0.1770881311246287,-1.82956e-05,0.1770881311246287,-2.198802280517716e-05
0.1778822483045598,-1.661692918926772e-07,0.1778822483045598,-9.281724060192346e-05,0.1778822483045598,-1.829622989300297e-05,0.1778822483045598,-2.030959003566568e-05
0.1786763654844909,5.202095356611447e-06,0.1786763654844909,-8.206240395315517e-05,0.1786763654844909,-2.030918267600708e-05,0.1786763654844909,-1.963716535201416e-05
0.1794704826644219,2.5194876116415557e-06,0.1794704826644219,-4.75238005185937e-05,0.1794704826644219,-1.896787380907446e-05,0.1794704826644219,-1.695454761814892e-05
0.180264599844353,-5.534969594443438e-06,0.180264599844353,-1.8693489295423156e-06,0.180264599844353,-1.695381510516895e-05,0.180264599844353,-1.7288330815805174e-05
0.181058717024284,-6.881341439594996e-06,0.181058717024284,2.231528590558207e-05,0.181058717024284,-1.963744287206214e-05,0.181058717024284,-1.7624080359007767e-05
0.1818528342042151,-7.049634951105186e-06,0.1818528342042151,2.802960833757631e-05,0.1818528342042151,-1.695336078231703e-05,0.1818528342042151,-1.8295459804420745e-05
0.1826469513841462,-6.546150831880554e-06,0.1826469513841462,3.54157477990852e-05,0.1826469513841462,-1.493872332752222e-05,0.1826469513841462,-1.6617202772935182e-05
0.1834410685640773,-9.735390447906472e-06,0.1834410685640773,5.16985276270625e-05,0.1834410685640773,-1.560994202276889e-05,0.1834410685640773,-1.762415651275903e-05
0.1842351857440083,-1.1246488976939382e-05,0.1842351857440083,6.24362090279405e-05,0.1842351857440083,-1.493820734090926e-05,0.1842351857440083,-1.7120403682151358e-05
0.1850293029239394,-1.376430354561235e-05,0.1850293029239394,4.664988427778624e-05,0.1850293029239394,-1.326086748352058e-05,0.1850293029239394,-1.6281144172159805e-05
0.1858234201038705,-1.5608653182121428e-05,0.1858234201038705,1.4626284913200156e-05,0.1858234201038705,-1.527283078391951e-05,0.1858234201038705,-1.56104897386935e-05
0.1866175372838016,-1.82940349236493e-05,0.1866175372838016,-2.330889341309953e-05,0.1866175372838016,-1.5609804365456165e-05,0.1866175372838016,-1.4603486903631514e-05
0.1874116544637326,-2.1651139086587543e-05,0.1874116544637326,-5.336302484671773e-05,0.1874116544637326,-1.6616661725976265e-05,0.1874116544637326,-1.3260684365364985e-05
0.1882057716436637,-2.0813541384726754e-05,0.1882057716436637,-7.737159685122665e-05,0.1882057716436637,-1.4267875836970571e-05,0.1882057716436637,-1.32601e-05
0.1889998888235948,-1.3596810599124033e-05,0.1889998888235948,-9.751757971783908e-05,0.1889998888235948,-1.2253282029616296e-05,0.1889998888235948,-1.1581835024680249e-05
0.1897940060035258,-1.762418984693383e-05,0.1897940060035258,-0.0001119549670032,0.1897940060035258,-1.242078603991207e-05,0.1897940060035258,-1.0910192385200372e-05
0.1905881231834569,-1.6280566696493842e-05,0.1905881231834569,-0.0001075846461538,0.1905881231834569,-1.0574760407345674e-05,0.1905881231834569,-9.902839594205757e-06
0.191382240363388,-1.0910301624671736e-05,0.191382240363388,-6.662197260650152e-05,0.191382240363388,-1.2253101624671736e-05,0.191382240363388,-8.225219745003186e-06
0.192176357543319,-1.1245824533623976e-05,0.192176357543319,-1.962632181789524e-05,0.192176357543319,-1.258885097772605e-05,0.192176357543319,-1.0239177466802124e-05
0.1929704747232501,-1.107821086973412e-05,0.1929704747232501,7.199775609595297e-06,0.1929704747232501,-1.2924178194459216e-05,0.1929704747232501,-1.1077545453111766e-05
0.1937645919031812,-1.644643938435345e-05,0.1937645919031812,2.097412580097892e-05,0.1937645919031812,-1.29244e-05,0.1937645919031812,-1.2587923588092629e-05
0.1945587090831123,-1.2254537462776126e-05,0.1945587090831123,2.2658985044201076e-05,0.1945587090831123,-1.4266708006049332e-05,0.1945587090831123,-1.5944470015123334e-05
0.1953528262630433,-3.526739830847255e-06,0.1953528262630433,3.1934003758999056e-06,0.1953528262630433,-1.5274079634144812e-05,0.1953528262630433,-1.4267567276425311e-05
0.1961469434429744,-3.52483e-06,0.1961469434429744,-2.450402726103155e-05,0.1961469434429744,-1.3595919560412351e-05,0.1961469434429744,-1.493855217583506e-05
0.1969410606229055,-1.51064e-06,0.1969410606229055,-4.179516640148804e-05,0.1969410606229055,-1.158188194232134e-05,0.1969410606229055,-1.628131028726201e-05
0.1977351778028366,-1.5108655229681772e-06,0.1977351778028366,-5.0522750348645456e-05,0.1977351778028366,-1.52743e-05,0.1977351778028366,-1.5106663121326192e-05
0.1985292949827676,-2.5153733588210246e-06,0.1985292949827676,-5.1194560541468e-05,0.1985292949827676,-1.527367719676042e-05,0.1985292949827676,-1.6281088579827835e-05
0.1993234121626987,3.855813792423099e-06,0.1993234121626987,-5.270358296124397e-05,0.1993234121626987,-1.359704111309459e-05,0.1993234121626987,-1.5442720593518194e-05
0.2001175293426297,6.544528069613502e-06,0.2001175293426297,-4.381397325940232e-05,0.2001175293426297,-9.905288912431989e-06,0.2001175293426297,-1.2254890394734704e-05
0.2009116465225608,5.203927790894861e-06,0.2009116465225608,-2.099136247637563e-05,0.2009116465225608,-1.023865055116332e-05,0.2009116465225608,-1.158189889767336e-05
0.2017057637024919,9.230511138343172e-06,0.2017057637024919,1.5934710410012094e-05,0.2017057637024919,-1.2923600754927395e-05,0.2017057637024919,-1.3259600471829624e-05
0.202499880882423,9.063885181215749e-06,0.202499880882423,7.871188227031708e-05,0.202499880882423,-1.158180144972598e-05,0.202499880882423,-1.393139927513701e-05
0.203293998062354,4.531941059541223e-06,0.203293998062354,0.0001159839090655,0.203293998062354,-1.2252998361542218e-05,0.203293998062354,-1.4938597542313329e-05
0.2040881152422851,2.853391276026287e-06,0.2040881152422851,6.611942023042433e-05,0.2040881152422851,-1.5610097447947428e-05,0.2040881152422851,-1.561e-05
0.2048822324222162,2.5181330657779405e-06,0.2048822324222162,-2.469355161461797e-05,0.2048822324222162,-1.62814e-05,0.2048822324222162,-1.5609705198471123e-05
0.2056763496021472,3.859644257674159e-06,0.2056763496021472,-9.216957226258737e-05,0.2056763496021472,-1.6282580995631136e-05,0.2056763496021472,-1.4602457126638324e-05
0.2064704667820783,1.8476909461705055e-06,0.2064704667820783,-0.0001384449279496,0.2064704667820783,-1.8965198729496467e-05,0.2064704667820783,-1.3596475476438824e-05
0.2072645839620094,8.397736944132132e-07,0.2072645839620094,-0.0001928305045415,0.2072645839620094,-1.7624903596742768e-05,0.2072645839620094,-1.091160719348554e-05
0.2080587011419405,-1.6746993393271253e-07,0.2080587011419405,-0.0002418525521017,0.2080587011419405,-1.6281905423932354e-05,0.2080587011419405,-9.903479067949266e-06
0.2088528183218715,5.705525783434336e-06,0.2088528183218715,-0.0001854859046386,0.2088528183218715,-1.62814e-05,0.2088528183218715,-1.493744780829238e-05
0.2096469355018026,2.3501626941544018e-06,0.2096469355018026,-7.067382612253443e-05,0.2096469355018026,-1.8295436382532577e-05,0.2096469355018026,-1.7120422751805224e-05
0.2104410526817337,-1.5105954531486993e-06,0.2104410526817337,5.153580293999284e-05,0.2104410526817337,-1.9638143849998462e-05,0.2104410526817337,-1.35958445472494e-05
0.2112351698616647,-8.388151020313608e-07,0.2112351698616647,0.0001435264764514,0.2112351698616647,-1.5777907735937498e-05,0.2112351698616647,-1.426748726730912e-05
0.2120292870415958,1.1746369844490728e-06,0.2120292870415958,0.0002158693327149,0.2120292870415958,-1.6279945511490897e-05,0.2120292870415958,-1.5609757585248484e-05
0.2128234042215269,3.363269337324624e-07,0.2128234042215269,0.0002582881756872,0.2128234042215269,-1.2256018910693043e-05,0.2128234042215269,-1.4939103151782174e-05
0.2136175214014579,1.6795017416458373e-07,0.2136175214014579,0.0002514421482558,0.2136175214014579,-1.158200469906941e-05,0.2136175214014579,-1.628059060186118e-05
0.214411638581389,-8.220789860360139e-06,0.214411638581389,0.0002224132177249,0.214411638581389,-1.0239411225328403e-05,0.214411638581389,-1.3597022450656813e-05
0.2152057557613201,-1.0909373898039886e-05,0.2152057557613201,0.000190854706488,0.2152057557613201,-1.0909993473740957e-05,0.2152057557613201,-9.90423589442473e-06
0.2159998729412512,-9.735448018143974e-06,0.2159998729412512,0.0001710411695877,0.2159998729412512,-1.2924077680438496e-05,0.2159998729412512,-9.9031e-06
0.2167939901211822,-8.560324618535097e-06,0.2167939901211822,0.0001233695930898,0.2167939901211822,-1.4602879116378435e-05,0.2167939901211822,-9.567414176599894e-06
0.2175881073011133,-1.023882268999613e-05,0.2175881073011133,3.8760769639010754e-05,0.2175881073011133,-1.3595663900565195e-05,0.2175881073011133,-1.023861853543833e-05
0.2183822244810444,-1.0407221989108706e-05,0.2183822244810444,-5.322651748359162e-05,0.2183822244810444,-1.2589364367766098e-05,0.2183822244810444,-8.89601e-06
0.2191763416609755,-1.2253721355908616e-05,0.2191763416609755,-0.0001180168996537,0.2191763416609755,-1.4937878644091384e-05,0.2191763416609755,-8.896154271181724e-06
0.2199704588409065,-1.3930357439574387e-05,0.2199704588409065,-0.0001619450647126,0.2199704588409065,-1.3261242560425612e-05,0.2199704588409065,-9.23148148791488e-06
0.2207645760208376,-1.62801452032322e-05,0.2207645760208376,-0.0001809308725581,0.2207645760208376,-9.904892566811143e-06,0.2207645760208376,-1.0238262235296445e-05
0.2215586932007686,-2.433498691515489e-05,0.2215586932007686,-0.0001660087719986,0.2215586932007686,-9.735324852875296e-06,0.2215586932007686,-1.02388e-05
0.2223528103806997,-1.7793563308439872e-05,0.2223528103806997,-0.0001581158840134,0.2223528103806997,-1.0909919406422396e-05,0.2223528103806997,-1.225251897834442e-05
0.2231469275606308,-8.896821611969446e-06,0.2231469275606308,-0.0001549252909435,0.2231469275606308,-8.224855015674368e-06,0.2231469275606308,-1.3260008118779986e-05
0.2239410447405619,-6.88197132847055e-06,0.2239410447405619,-0.0001374679785177,0.2239410447405619,-8.896236992987568e-06,0.2239410447405619,-1.2924381083870743e-05
0.2247351619204929,-9.568299969274857e-06,0.2247351619204929,-0.0001193393569352,0.2247351619204929,-1.2924605377995571e-05,0.2247351619204929,-1.2589179215323008e-05
0.225529279100424,-1.3930792875378465e-05,0.225529279100424,-0.0001112770466429,0.225529279100424,-1.3932148180016256e-05,0.225529279100424,-1.4939071416414358e-05
0.2263233962803551,-1.1918829574979535e-05,0.2263233962803551,-9.149284074469252e-05,0.2263233962803551,-1.577639792757188e-05,0.2263233962803551,-1.6280380283346974e-05
0.2271175134602862,-5.8784227142868845e-06,0.2271175134602862,-6.396746785391635e-05,0.2271175134602862,-1.6952079994756034e-05,0.2271175134602862,-1.7958871464849363e-05
0.2279116306402172,-9.56569220254887e-06,0.2279116306402172,-4.9857758880756975e-05,0.2279116306402172,-2.0643782197896984e-05,0.2279116306402172,-1.7624356163827546e-05
0.2287057478201483,-1.258774041755158e-05,0.2287057478201483,-4.75020463443746e-05,0.2287057478201483,-2.2658960308011027e-05,0.2287057478201483,-1.628182648249977e-05
0.2294998650000794,-1.1078356839899324e-05,0.2294998650000794,-4.515179954195646e-05,0.2294998650000794,-2.1652771215264544e-05,0.2294998650000794,-1.8295257535465898e-05
0.2302939821800104,-1.0910203768232043e-05,0.2302939821800104,-4.414442260041495e-05,0.2302939821800104,-1.8631367807977826e-05,0.2302939821800104,-1.7624215068439518e-05
0.2310880993599415,-6.210714061628532e-06,0.2310880993599415,-3.910688356882344e-05,0.2310880993599415,-1.7288542008982842e-05,0.2310880993599415,-1.8631342008982843e-05
0.2318822165398726,-8.56195793661067e-06,0.2318822165398726,-2.29873350089566e-05,0.2318822165398726,-1.7624749313112625e-05,0.2318822165398726,-1.8966542239072814e-05
0.2326763337198036,-1.460219541045223e-05,0.2326763337198036,6.224511740582599e-06,0.2326763337198036,-1.9636990820904466e-05,0.2326763337198036,-1.7288077246271338e-05
0.2334704508997347,-1.2925559326786458e-05,0.2334704508997347,3.975711354715392e-05,0.2334704508997347,-1.6283718653572916e-05,0.2334704508997347,-1.6282095596071875e-05
0.2342645680796658,-1.3595434771646905e-05,0.2342645680796658,6.897011267543636e-05,0.2342645680796658,-1.3932778299235837e-05,0.2342645680796658,-1.4939330456706192e-05
0.2350586852595969,-1.0911264567791648e-05,0.2350586852595969,7.838187401272924e-05,0.2350586852595969,-1.225366535486978e-05,0.2350586852595969,-1.49386e-05
0.2358528024395279,-8.393086455797063e-06,0.2358528024395279,7.905683294445727e-05,0.2358528024395279,-1.057491763885682e-05,0.2358528024395279,-1.3931750583314092e-05
0.236646919619459,-8.224626992284385e-06,0.236646919619459,8.711298437034949e-05,0.236646919619459,-1.0406716987222638e-05,0.236646919619459,-1.4938498046293683e-05
0.2374410367993901,-1.174667725298547e-06,0.2374410367993901,9.617630863802758e-05,0.2374410367993901,-1.0238924469070565e-05,0.2374410367993901,-1.49386e-05
0.2382351539793211,4.699356840002528e-06,0.2382351539793211,6.830548580107918e-05,0.2382351539793211,-1.2924627846731052e-05,0.2382351539793211,-1.4938990611018546e-05
0.2390292711592522,2.517281996674318e-06,0.2390292711592522,2.130115618684184e-05,0.2390292711592522,-1.4099815270795431e-05,0.2390292711592522,-1.695268549916858e-05
0.2398233883391833,1.1759731297417009e-06,0.2398233883391833,-2.4806186280536744e-05,0.2398233883391833,-1.5608837690571356e-05,0.2398233883391833,-1.6617358282435424e-05
0.2406175055191144,2.5169037418977557e-06,0.2406175055191144,-7.482964951024577e-05,0.2406175055191144,-1.8461622982671325e-05,0.2406175055191144,-1.4939645322627806e-05
0.2414116226990454,-2.850887668336298e-06,0.2414116226990454,-0.0001404588136526,0.2414116226990454,-1.6282436864839793e-05,0.2414116226990454,-1.5945221436031093e-05
0.2422057398789765,-2.85344e-06,0.2422057398789765,-0.0001982110838943,0.2422057398789765,-1.6952580043759246e-05,0.2422057398789765,-1.6281290021879622e-05
0.2429998570589076,-1.5108817396711389e-06,0.2429998570589076,-0.000239177627012,0.2429998570589076,-1.8295358260328864e-05,0.2429998570589076,-1.5610120869835572e-05
0.2437939742388386,-1.51064e-06,0.2437939742388386,-0.0002230725227828,0.2437939742388386,-1.561008713372154e-05,0.2437939742388386,-1.644917277233426e-05
0.2445880914187697,3.189178650336041e-06,0.2445880914187697,-0.0001230157035917,0.2445880914187697,-1.7624122697025177e-05,0.2445880914187697,-1.292426471403721e-05
0.2453822085987008,3.52438902917717e-06,0.2453822085987008,2.724015105862351e-05,0.2453822085987008,-1.695200624778997e-05,0.2453822085987008,-1.1749532305170944e-05
0.2461763257786318,1.8482658967277e-06,0.2461763257786318,0.0002120541842215,0.2461763257786318,-1.3929711663811842e-05,0.2461763257786318,-1.2252724870725227e-05
0.2469704429585629,6.5428269532013365e-06,0.2469704429585629,0.0003587590923751,0.2469704429585629,-9.570467835176023e-06,0.2469704429585629,-1.1582070437258895e-05
0.247764560138494,2.5199716489842896e-06,0.247764560138494,0.0003717788403399,0.247764560138494,-1.0909456118851842e-05,0.247764560138494,-1.2252628056656011e-05
0.2485586773184251,-4.529065014334814e-06,0.2485586773184251,0.0002597085667836,0.2485586773184251,-1.5272526429897933e-05,0.2485586773184251,-1.191743642846939e-05
0.2493527944983561,-5.874372461520991e-06,0.2493527944983561,0.0001203840572563,0.2493527944983561,-1.6281139344199606e-05,0.2493527944983561,-1.493781803259882e-05
0.2501469116782872,-4.36424803817656e-06,0.2501469116782872,3.072637029777194e-05,0.2501469116782872,-1.443520538691495e-05,0.2501469116782872,-1.49386e-05
0.2509410288582183,-3.52485440227675e-06,0.2509410288582183,-3.844001340906348e-05,0.2509410288582183,-1.2924253586702954e-05,0.2509410288582183,-1.2252804782512908e-05
0.2517351460381494,-4.196600464206743e-06,0.2517351460381494,-0.0001076015583374,0.2517351460381494,-8.895886511317995e-06,0.2517351460381494,-6.881449535793257e-06
0.2525292632180804,-6.21042e-06,0.2525292632180804,-0.0001650063366899,0.2525292632180804,-8.224276560633165e-06,0.2525292632180804,-4.867407704881498e-06
0.2533233803980115,-6.21042e-06,0.2533233803980115,-0.0001961916679571,0.2533233803980115,-7.218304899329047e-06,0.2533233803980115,-4.196753271415189e-06
0.2541174975779426,-1.2920151572235569e-05,0.2541174975779426,-0.0001673642681672,0.2541174975779426,-9.733666841170271e-06,0.2541174975779426,-6.880120630159773e-06
0.2549116147578736,-1.7621919696542196e-05,0.2549116147578736,-9.83931715729246e-05,0.2549116147578736,-1.0909629928987463e-05,0.2549116147578736,-8.223958489578258e-06
0.2557057319378047,-1.695302667123162e-05,0.2557057319378047,-3.426284703509787e-05,0.2557057319378047,-1.2252546657536756e-05,0.2557057319378047,-8.22461e-06
0.2564998491177358,-1.19182568861981e-05,0.2564998491177358,2.510754770659751e-06,0.2564998491177358,-1.2588636207586791e-05,0.2564998491177358,-1.22522344929418e-05
0.2572939662976669,-1.3931414504736242e-05,0.2572939662976669,2.9372460069092373e-05,0.2572939662976669,-1.527418600631499e-05,0.2572939662976669,-1.6281229009472483e-05
0.2580880834775979,-1.2588241179155649e-05,0.2580880834775979,3.977977059012034e-05,0.2580880834775979,-1.4602970587983957e-05,0.2580880834775979,-1.6952870587983956e-05
0.258882200657529,-8.22367679591395e-06,0.258882200657529,3.47408126771264e-05,0.258882200657529,-1.527480902316749e-05,0.258882200657529,-1.7625048371945814e-05
0.2596763178374601,-4.532064211365216e-06,0.2596763178374601,1.8959081551041225e-05,0.2596763178374601,-1.7288365788634782e-05,0.2596763178374601,-2.0980663154539134e-05
0.2604704350173911,-4.86739142809837e-06,0.2604704350173911,-8.251702961800267e-07,0.2604704350173911,-1.6953038571901632e-05,0.2604704350173911,-1.963935428760652e-05
0.2612645521973222,-1.2248834775235833e-05,0.2612645521973222,-1.39241161884131e-05,0.2612645521973222,-1.4436419996954956e-05,0.2612645521973222,-1.96384e-05
0.2620586693772533,-1.6615282782457446e-05,0.2620586693772533,-1.4267060214035188e-05,0.2620586693772533,-1.5609510728303086e-05,0.2620586693772533,-1.8967279571929626e-05
0.2628527865571843,-1.2254173155909007e-05,0.2628527865571843,-1.6616468300664382e-05,0.2628527865571843,-1.6952439028951075e-05,0.2628527865571843,-1.6282121942097852e-05
0.2636469037371154,-7.553789791410356e-06,0.2636469037371154,-9.064775738879767e-06,0.2636469037371154,-1.4938844197357905e-05,0.2636469037371154,-1.544220175496102e-05
0.2644410209170465,-7.217387345882232e-06,0.2644410209170465,6.546438370620271e-06,0.2644410209170465,-1.4267217687285951e-05,0.2644410209170465,-1.4938564625428094e-05
0.2652351380969776,-2.1822151605366703e-06,0.2652351380969776,1.862788437823121e-05,0.2652351380969776,-1.4938833547382229e-05,0.2652351380969776,-1.3596383868455569e-05
0.2660292552769086,-3.190325730735713e-06,0.2660292552769086,-1.0161007748049224e-06,0.2660292552769086,-1.62814e-05,0.2660292552769086,-1.695247661713879e-05
0.2668233724568397,-6.878905137009981e-06,0.2668233724568397,-2.9015773538595105e-05,0.2668233724568397,-1.62814e-05,0.2668233724568397,-1.5946494966939254e-05
0.2676174896367708,-5.707625228307541e-06,0.2676174896367708,-4.447007420652123e-05,0.2676174896367708,-1.62814e-05,0.2676174896367708,-1.661666844096712e-05
0.2684116068167018,-3.0226198806068307e-06,0.2684116068167018,-6.528309334854213e-05,0.2684116068167018,-1.5442515615544244e-05,0.2684116068167018,-1.6281566236313838e-05
0.2692057239966329,-2.8534983465556164e-06,0.2692057239966329,-7.368288270698031e-05,0.2692057239966329,-1.6281108249841354e-05,0.2692057239966329,-1.2925566931112323e-05
0.269999841176564,-4.195961402365687e-06,0.269999841176564,-6.227438307689122e-05,0.269999841176564,-1.3931970049360568e-05,0.269999841176564,-1.1581868599634607e-05
0.270793958356495,-1.5107808531239094e-06,0.270793958356495,-5.119458102129959e-05,0.270793958356495,-1.577770316573912e-05,0.270793958356495,-1.2252964786587905e-05
0.2715880755364261,-5.707205332262493e-06,0.2715880755364261,-4.91793688620532e-05,0.2715880755364261,-1.7623944508027556e-05,0.2715880755364261,-1.3595927745986222e-05
0.2723821927163572,-9.231465560902592e-06,0.2723821927163572,-4.464777779258709e-05,0.2723821927163572,-1.493900739849568e-05,0.2723821927163572,-1.4938762959398272e-05
0.2731763098962882,-8.222123707926088e-06,0.2731763098962882,-4.414256798669718e-05,0.2731763098962882,-1.66171e-05,0.2731763098962882,-1.5609738283813884e-05
0.2739704270762193,-1.8509365566826336e-06,0.2739704270762193,-3.9447986952433344e-05,0.2739704270762193,-1.66171e-05,0.2739704270762193,-1.493908385034762e-05
0.2747645442561504,6.205795543051282e-06,0.2747645442561504,-3.3740975673268244e-05,0.2747645442561504,-1.3765237865333356e-05,0.2747645442561504,-1.5106303685367817e-05
0.2755586614360815,7.888194286962744e-06,0.2755586614360815,-2.635544915612566e-05,0.2755586614360815,-1.326031469387024e-05,0.2755586614360815,-1.7287569546188178e-05
0.2763527786160125,5.204078796484993e-06,0.2763527786160125,-1.0914505583971023e-05,0.2763527786160125,-1.2253280800773033e-05,0.2763527786160125,-1.896653199871161e-05
0.2771468957959436,5.20333e-06,0.2771468957959436,9.900368475710864e-06,0.2771468957959436,-1.4434713635704146e-05,0.2771468957959436,-1.7624376228220198e-05
0.2779410129758747,2.517674166556478e-06,0.2779410129758747,2.937384139049136e-05,0.2779410129758747,-1.5945721944590122e-05,0.2779410129758747,-1.8631327430737653e-05
0.2787351301558057,-1.511190291861871e-06,0.2787351301558057,4.414484021840847e-05,0.2787351301558057,-1.728855502935011e-05,0.2787351301558057,-2.030952485324944e-05
0.2795292473357368,-4.869301046905184e-06,0.2795292473357368,4.682551350848506e-05,0.2795292473357368,-1.7624408882029827e-05,0.2795292473357368,-1.863098667695526e-05
0.2803233645156679,-1.023450654794962e-05,0.2803233645156679,3.274187029464603e-05,0.2803233645156679,-1.8295063315496136e-05,0.2803233645156679,-1.7625005026755797e-05
0.2811174816955989,-1.1916204314940687e-05,0.2811174816955989,1.2937329018422257e-05,0.2811174816955989,-1.913425219010916e-05,0.2811174816955989,-1.795968086298814e-05
0.2819115988755301,-1.4937073655716672e-05,0.2819115988755301,-1.307905655556164e-05,0.2819115988755301,-1.9302615177835643e-05,0.2819115988755301,-1.7792084822164356e-05
0.2827057160554611,-1.0911640607280138e-05,0.2827057160554611,-5.05092144109973e-05,0.2827057160554611,-1.6618060404853427e-05,0.2827057160554611,-1.4939620412276126e-05
0.2834998332353922,-7.88954456453636e-06,0.2834998332353922,-8.57635967435753e-05,0.2834998332353922,-1.426769355182852e-05,0.2834998332353922,-1.3931711522212223e-05
0.2842939504153233,-6.21052482038286e-06,0.2842939504153233,-0.0001028909308069,0.2842939504153233,-1.42672e-05,0.2842939504153233,-1.0574709642014704e-05
0.2850880675952543,-3.860444263847996e-06,0.2850880675952543,-9.953288526844664e-05,0.2850880675952543,-1.5945442788990007e-05,0.2850880675952543,-9.90312857900111e-06
0.2858821847751854,-2.852971268174143e-06,0.2858821847751854,-7.937973176073024e-05,0.2858821847751854,-1.2923462535882857e-05,0.2858821847751854,-1.0238331269105e-05
0.2866763019551165,-8.387359829953022e-07,0.2866763019551165,-2.3638967834390237e-05,0.2866763019551165,-8.895754990358198e-06,0.2866763019551165,-8.22461e-06
0.2874704191350475,5.025668906001086e-07,0.2874704191350475,4.92943521937338e-05,0.2874704191350475,-8.22510055689189e-06,0.2874704191350475,-8.22461e-06
0.2882645363149786,6.878095177344229e-06,0.2882645363149786,9.86665816255296e-05,0.2882645363149786,-9.23112186752515e-06,0.2882645363149786,-7.553612082476705e-06
0.2890586534949096,9.230684497674124e-06,0.2890586534949096,0.0001099360923707,0.2890586534949096,-1.1580574497674125e-05,0.2890586534949096,-6.8821130019114055e-06
0.2898527706748408,4.197684360520033e-06,0.2898527706748408,9.349675084325508e-05,0.2898527706748408,-1.3595218253481403e-05,0.2898527706748408,-9.734435861986886e-06
0.2906468878547718,-2.852444298676829e-06,0.2906468878547718,5.858433108500332e-05,0.2906468878547718,-1.493841034179802e-05,0.2906468878547718,-1.2420420692070487e-05
0.2914410050347029,-1.5106655437616146e-06,0.2914410050347029,-5.707260605628558e-06,0.2914410050347029,-1.527428084213123e-05,0.2914410050347029,-1.1413679778185648e-05
0.292235122214634,-5.540166776185482e-06,0.292235122214634,-6.731116868629066e-05,0.292235122214634,-1.2252379939282956e-05,0.292235122214634,-8.223834926797342e-06
0.293029239394565,-1.2923591298057956e-05,0.293029239394565,-9.115074286649924e-05,0.293029239394565,-8.224003476554718e-06,0.293029239394565,-3.1884323876074616e-06
0.2938233565744961,-1.0240973564192715e-05,0.2938233565744961,-0.0001198207703968,0.2938233565744961,-6.212050165051137e-06,0.2938233565744961,-8.411478638125875e-07
0.2946174737544272,-1.1916187527463578e-05,0.2946174737544272,-0.0001567465256041,0.2946174737544272,-9.06196880331586e-06,0.2946174737544272,2.0122988059669707e-06
0.2954115909343582,-1.1581772951304704e-05,0.2954115909343582,-0.0001800899799616,0.2954115909343582,-8.896096475652351e-06,0.2954115909343582,1.1753723782617605e-06
0.2962057081142893,-1.7957555246059652e-05,0.2962057081142893,-0.0001854710255438,0.2962057081142893,-6.211407261140848e-06,0.2962057081142893,-3.6908905935476345e-06
0.2969998252942204,-1.8295526135100504e-05,0.2969998252942204,-0.0001438561590715,0.2969998252942204,-9.231045218104858e-06,0.2969998252942204,-1.157986418146281e-05
0.2977939424741515,-1.7959924321696916e-05,0.2977939424741515,-4.1801893774127234e-05,0.2977939424741515,-1.1245754070543012e-05,0.2977939424741515,-1.6281059496243177e-05
0.2985880596540825,-1.8967151329033987e-05,0.2985880596540825,0.0001005539927245,0.2985880596540825,-1.4938801772045316e-05,0.2985880596540825,-1.762437655053965e-05
0.2993821768340136,-2.098172333068676e-05,0.2993821768340136,0.0002601886162685,0.2993821768340136,-1.7624872882374626e-05,0.2993821768340136,-1.997522144835309e-05
0.3001762940139447,-2.3329882673044403e-05,0.3001762940139447,0.0003617144411885,0.3001762940139447,-2.064500339380512e-05,0.3001762940139447,-2.500937584845128e-05
0.3009704111938757,-2.0312037611399463e-05,0.3009704111938757,0.0003602051191019,0.3009704111938757,-1.93036945268725e-05,0.3009704111938757,-2.4674048631718127e-05
0.3017645283738068,-2.03098e-05,0.3017645283738068,0.000257038315563,0.3017645283738068,-1.9805900927218788e-05,0.3017645283738068,-2.3667298204961188e-05
0.3025586455537379,-2.2994101177031587e-05,0.3025586455537379,8.752517807141224e-05,0.3025586455537379,-2.3329426508583483e-05,0.3025586455537379,-2.5008900566195494e-05
0.3033527627336689,-1.930380343785132e-05,0.3033527627336689,-6.860365361861456e-05,0.3033527627336689,-2.232420094574557e-05,0.3033527627336689,-2.7023098108508875e-05
0.3041468799136,-1.2254066212964753e-05,0.3041468799136,-0.0001525623070338,0.3041468799136,-1.896750770533517e-05,0.3041468799136,-2.5848977694598675e-05
0.3049409970935311,-2.8534744074670064e-06,0.3049409970935311,-0.0001911798586848,0.3049409970935311,-2.030979508462665e-05,0.3049409970935311,-2.1149017203806715e-05
0.3057351142734621,-5.202991800924342e-06,0.3057351142734621,-0.000205781236533,0.3057351142734621,-1.82951651707666e-05,0.3057351142734621,-1.7623716856407328e-05
0.3065292314533932,-2.8526581268556284e-06,0.3065292314533932,-0.0001935099156681,0.3065292314533932,-1.52735181242354e-05,0.3065292314533932,-1.42664181242354e-05
0.3073233486333243,-1.7004938299601574e-07,0.3073233486333243,-0.0001246005222408,0.3073233486333243,-1.259090039036998e-05,0.3073233486333243,-1.1583800390369976e-05
0.3081174658132554,1.844984895384192e-06,0.3081174658132554,-3.2456896004720806e-05,0.3081174658132554,-1.4937019035980889e-05,0.3081174658132554,-1.124612585200273e-05
0.3089115829931864,5.042532309990186e-07,0.3089115829931864,3.8568010872587485e-05,0.3089115829931864,-1.3596505235200598e-05,0.3089115829931864,-1.091037630880015e-05
0.3097057001731175,2.349192792234553e-06,0.3097057001731175,9.045111480958674e-05,0.3097057001731175,-1.2924653531195044e-05,0.3097057001731175,-1.1581346468804957e-05
0.3104998173530486,1.1752102783822965e-06,0.3104998173530486,0.0001245361619844,0.3104998173530486,-1.3595645555210116e-05,0.3104998173530486,-1.3595336665630349e-05
0.3112939345329796,5.202997850516184e-06,0.3112939345329796,0.0001324323495348,0.3112939345329796,-1.2924455358384722e-05,0.3112939345329796,-1.5274161604038192e-05
0.3120880517129107,9.734942973153736e-06,0.3120880517129107,0.00011463789533,0.3120880517129107,-1.1581709320051327e-05,0.3120880517129107,-1.3931390679948673e-05
0.3128821688928418,4.865559199335912e-06,0.3128821688928418,6.696133177504102e-05,0.3128821688928418,-1.32602071001837e-05,0.3128821688928418,-1.2253499850489924e-05
0.3136762860727728,-4.868475584337377e-06,0.3136762860727728,1.7272554699464784e-05,0.3136762860727728,-1.376317722402411e-05,0.3136762860727728,-1.460302079827654e-05
0.314470403252704,-7.215756112574276e-06,0.314470403252704,-2.6990438131407803e-05,0.314470403252704,-1.2589581909934714e-05,0.314470403252704,-1.4938348015009715e-05
0.315264520432635,-5.875531036596604e-06,0.315264520432635,-6.057332414548383e-05,0.315264520432635,-1.19177055182983e-05,0.315264520432635,-1.49386e-05
0.3160586376125661,-8.223537492938245e-06,0.3160586376125661,-9.414807849662675e-05,0.3160586376125661,-1.174947663079364e-05,0.3160586376125661,-1.2254225727572376e-05
0.3168527547924971,-9.231398981768102e-06,0.3168527547924971,-0.0001304078033436,0.3168527547924971,-1.225284447544277e-05,0.3168527547924971,-1.1917403672743969e-05
0.3176468719724282,-1.1245575224364262e-05,0.3176468719724282,-0.0001498858605833,0.3176468719724282,-1.2253e-05,0.3176468719724282,-1.1581654129541362e-05
0.3184409891523593,-8.22465127691221e-06,0.3184409891523593,-0.000151903972471,0.3184409891523593,-1.2924390827322484e-05,0.3184409891523593,-1.1917295413661242e-05
0.3192351063322903,-8.390212167522499e-07,0.3192351063322903,-0.0001330966721249,0.3192351063322903,-1.2924130258817067e-05,0.3192351063322903,-8.560467349023377e-06
0.3200292235122214,8.383965731503071e-07,0.3200292235122214,-7.837026312554403e-05,0.3200292235122214,-1.0910766287190504e-05,0.3200292235122214,-9.735967856176655e-06
0.3208233406921525,-2.1795343929946004e-06,0.3208233406921525,-2.387984012879004e-05,0.3208233406921525,-1.2922729587589432e-05,0.3208233406921525,-1.225091199277997e-05
0.3216174578720835,-3.188452371505473e-06,0.3216174578720835,1.658948035788696e-05,0.3216174578720835,-1.5104910172400896e-05,0.3216174578720835,-1.4265824743010946e-05
0.3224115750520147,-5.2022520075787e-06,0.3224115750520147,4.278758608246714e-05,0.3224115750520147,-1.4938689806387824e-05,0.3224115750520147,-1.8964484671862326e-05
0.3232056922319457,-5.538899876907032e-06,0.3232056922319457,3.374121332351013e-05,0.3232056922319457,-1.7119754219276568e-05,0.3232056922319457,-2.24904337269047e-05
0.3239998094118768,-2.1828457965035198e-06,0.3239998094118768,5.04236954942352e-06,0.3239998094118768,-1.8630937378491485e-05,0.3239998094118768,-2.098156259750497e-05
0.3247939265918079,-8.559720305705724e-06,0.3247939265918079,-1.8293442956670803e-05,0.3247939265918079,-1.7959962073375568e-05,0.3247939265918079,-1.997419311006335e-05
0.3255880437717389,-7.21753850651482e-06,0.3255880437717389,-3.709526444594562e-05,0.3255880437717389,-1.6281251947881437e-05,0.3255880437717389,-1.5609740908792515e-05
0.32638216095167,-7.55322e-06,0.32638216095167,-4.733458879547841e-05,0.32638216095167,-1.3595663900565195e-05,0.32638216095167,-1.0910234034994196e-05
0.3271762781316011,-7.552985109991236e-06,0.3271762781316011,-5.270493489000876e-05,0.3271762781316011,-1.2925104670026292e-05,0.3271762781316011,-1.1079039525049947e-05
0.3279703953115321,-6.882330676524927e-06,0.3279703953115321,-5.337558932347507e-05,0.3279703953115321,-1.493706797042522e-05,0.3279703953115321,-1.3761557369961734e-05
0.3287645124914632,-7.552807766710853e-06,0.3287645124914632,-3.844667215998397e-05,0.3287645124914632,-1.628057553342171e-05,0.3287645124914632,-1.4937878561044464e-05
0.3295586296713942,-2.184545165743703e-06,0.3295586296713942,-1.3607386388066562e-05,0.3295586296713942,-1.62814e-05,0.3295586296713942,-1.4099691456925424e-05
0.3303527468513254,-2.3498364848803054e-06,0.3303527468513254,3.183788507160193e-06,0.3303527468513254,-1.393224921167572e-05,0.3303527468513254,-1.2253588650375285e-05
0.3311468640312564,-1.6822266419804605e-07,0.3311468640312564,1.0573235292040031e-05,0.3311468640312564,-1.4938427538889576e-05,0.3311468640312564,-1.1246072461110424e-05
0.3319409812111875,3.021214533835357e-06,0.3319409812111875,-1.5103540233884558e-06,0.3319409812111875,-1.6281368224663182e-05,0.3319409812111875,-1.2252976168497386e-05
0.3327350983911186,3.524372409549889e-06,0.3327350983911186,-2.4675671971577984e-05,0.3327350983911186,-1.6952508804421206e-05,0.3327350983911186,-1.3596007996841995e-05
0.3335292155710496,-1.6866824889570294e-07,0.3335292155710496,-3.977948074866387e-05,0.3335292155710496,-1.4603082055852472e-05,0.3335292155710496,-1.527348074866387e-05
0.3343233327509807,-3.186604209488283e-06,0.3343233327509807,-3.676153579806548e-05,0.3343233327509807,-1.527373648931878e-05,0.3343233327509807,-1.2255535798065478e-05
0.3351174499309118,-5.201934604966237e-06,0.3351174499309118,-1.4282781919292816e-05,0.3351174499309118,-1.4938832566993597e-05,0.3351174499309118,-1.2253e-05
0.3359115671108428,-3.525745118954969e-06,0.3359115671108428,1.8613363723002657e-05,0.3359115671108428,-1.49386e-05,0.3359115671108428,-1.3595067904836023e-05
0.3367056842907739,-5.5382291164695205e-06,0.3367056842907739,5.755681633126778e-05,0.3367056842907739,-1.6616432597057932e-05,0.3367056842907739,-1.35958e-05
0.337499801470705,-5.20341393738581e-06,0.337499801470705,6.864753009127198e-05,0.337499801470705,-1.695271606261419e-05,0.337499801470705,-1.5945112438299333e-05
0.338293918650636,-9.56696287766743e-06,0.338293918650636,4.179725151416542e-05,0.338293918650636,-1.4938806365099232e-05,0.338293918650636,-1.6281365605816796e-05
0.3390880358305671,-8.224428212670034e-06,0.3390880358305671,-7.555098468474622e-06,0.3390880358305671,-1.2924346976175854e-05,0.3390880358305671,-1.560996970196125e-05
0.3398821530104982,-4.196618151404789e-06,0.3398821530104982,-4.918510474293141e-05,0.3398821530104982,-1.1749497047968387e-05,0.3398821530104982,-1.49386e-05
0.3406762701904293,-6.210933412795011e-06,0.3406762701904293,-7.671639859512808e-05,0.3406762701904293,-1.2253114091732224e-05,0.3406762701904293,-1.4939969100786696e-05
0.3414703873703603,-7.7199058880941e-06,0.3414703873703603,-0.0001040459163702,0.3414703873703603,-1.2588441308465356e-05,0.3414703873703603,-1.8963895701584267e-05
0.3422645045502914,-7.888805269169923e-06,0.3422645045502914,-0.0001136280302678,0.3422645045502914,-1.4937133681020034e-05,0.3422645045502914,-1.7960528422419985e-05
0.3430586217302225,-7.553379926173311e-06,0.3430586217302225,-9.786361675405848e-05,0.3430586217302225,-1.6280760276250342e-05,0.3430586217302225,-1.4604499309374143e-05
0.3438527389101535,-1.1244685741493396e-05,0.3438527389101535,-7.57072855576162e-05,0.3438527389101535,-1.52746311632045e-05,0.3438527389101535,-1.1582593489613506e-05
0.3446468560900846,-1.1749308742263992e-05,0.3446468560900846,-5.254099825459922e-05,0.3446468560900846,-1.5106430431328452e-05,0.3446468560900846,-1.023904337812892e-05
0.3454409732700157,-6.210606469582287e-06,0.3454409732700157,-3.6943243357176887e-06,0.3454409732700157,-1.4938605648981564e-05,0.3454409732700157,-1.0910177397340746e-05
0.3462350904499467,-4.196880108422715e-06,0.3462350904499467,9.434539204474596e-05,0.3462350904499467,-1.2924170548762276e-05,0.3462350904499467,-1.1581752967491815e-05
0.3470292076298778,-9.903450698616318e-06,0.3470292076298778,0.000218055025426,0.3470292076298778,-1.0910550698616315e-05,0.3470292076298778,-1.29244e-05
0.3478233248098089,-1.1244759565548936e-05,0.3478233248098089,0.0002908211313461,0.3478233248098089,-1.2251859565548937e-05,0.3478233248098089,-1.29244e-05
0.34861744198974,-1.057497184897804e-05,0.34861744198974,0.0002670647508495,0.34861744198974,-1.292392815102196e-05,0.34861744198974,-1.359532815102196e-05
0.349411559169671,-8.225914663453056e-06,0.349411559169671,0.0001784732042154,0.349411559169671,-1.3092106837116876e-05,0.349411559169671,-1.2253745525145756e-05
0.3502056763496021,-8.560173161916165e-06,0.3502056763496021,8.04397566389559e-05,0.3502056763496021,-1.30922e-05,0.3502056763496021,-1.091074735233534e-05
0.3509997935295332,-8.224697294881232e-06,0.3509997935295332,-4.342038138703248e-06,0.3509997935295332,-1.1581992813963622e-05,0.3509997935295332,-1.2252650820475071e-05
0.3517939107094642,-6.881971005590038e-06,0.3517939107094642,-7.367800431546924e-05,0.3517939107094642,-1.2588586744964047e-05,0.3517939107094642,-1.3259986744964047e-05
0.3525880278893953,-6.881755146969511e-06,0.3525880278893953,-0.0001373024326508,0.3525880278893953,-1.2924358727909906e-05,0.3525880278893953,-1.3092264855138e-05
0.3533821450693264,-5.035081326104451e-06,0.3533821450693264,-0.0001780883067649,0.3533821450693264,-1.1749124002865842e-05,0.3533821450693264,-1.4938845338906229e-05
0.3541762622492574,-2.8521111450769384e-06,0.3541762622492574,-0.0001797598018351,0.3541762622492574,-1.0239464430760264e-05,0.3541762622492574,-1.6281178523079914e-05
0.3549703794291886,1.1717954779305063e-06,0.3549703794291886,-0.0001579630333027,0.3549703794291886,-1.2251427731159331e-05,0.3549703794291886,-1.5610524089613556e-05
0.3557644966091196,-4.863799049581878e-06,0.3557644966091196,-0.000129430090372,0.3557644966091196,-1.3930435841822795e-05,0.3557644966091196,-1.6951948673458238e-05
0.3565586137890507,-6.209766851132678e-06,0.3565586137890507,-9.015410479528582e-05,0.3565586137890507,-1.493811013470142e-05,0.3565586137890507,-1.493957973059716e-05
0.3573527309689818,-1.5122324264466585e-06,0.3573527309689818,-2.301804894439754e-05,0.3573527309689818,-1.7623290038158137e-05,0.3573527309689818,-1.6616531273848836e-05
0.3581468481489128,-4.86698798163596e-06,0.3581468481489128,4.446709546894116e-05,0.3581468481489128,-1.8966743191889392e-05,0.3581468481489128,-1.6281464202027652e-05
0.3589409653288439,-8.394219052021996e-07,0.3589409653288439,7.133472729836089e-05,0.3589409653288439,-1.846342199042093e-05,0.3589409653288439,-1.376370994337136e-05
0.3597350825087749,2.181516736415678e-06,0.3597350825087749,7.200520694774102e-05,0.3597350825087749,-1.829573953751004e-05,0.3597350825087749,-1.661713488437751e-05
0.360529199688706,-2.854451851559448e-06,0.360529199688706,5.18585699931824e-05,0.360529199688706,-1.9637894071708472e-05,0.360529199688706,-1.6952968642763845e-05
0.3613233168686371,-6.878358474566612e-06,0.3613233168686371,2.469716532675033e-05,0.3613233168686371,-1.7625930771309542e-05,0.3613233168686371,-1.762362307623015e-05
0.3621174340485681,-1.224917150250426e-05,0.3621174340485681,-1.4910364868390138e-05,0.3621174340485681,-1.309543034242954e-05,0.3621174340485681,-1.7959660718015536e-05
0.3629115512284993,-1.5943612873399525e-05,0.3629115512284993,-5.3186569891908494e-05,0.3629115512284993,-1.527306666965773e-05,0.3629115512284993,-1.6282348693909305e-05
0.3637056684084303,-1.225454215137183e-05,0.3637056684084303,-6.210048483803076e-05,0.3637056684084303,-1.6280979413262226e-05,0.3637056684084303,-1.493916078231703e-05
0.3644997855883614,-1.695153086672652e-05,0.3644997855883614,-6.999096968265008e-05,0.3644997855883614,-1.3596525219013416e-05,0.3644997855883614,-1.2924943914260062e-05
0.3652939027682925,-2.1652024471562972e-05,0.3652939027682925,-9.013253346180142e-05,0.3652939027682925,-1.35958e-05,0.3652939027682925,-1.0239128873392584e-05
0.3660880199482235,-1.762416626388597e-05,0.3660880199482235,-0.0001143055482244,0.3660880199482235,-1.5274308434028507e-05,0.3660880199482235,-8.89599734895724e-06
0.3668821371281546,-1.628151595446222e-05,0.3668821371281546,-0.0001361290147469,0.3668821371281546,-1.5610057977231114e-05,0.3668821371281546,-8.393010781968503e-06
0.3676762543080857,-1.6951081836993817e-05,0.3676762543080857,-0.0001535756643698,0.3676762543080857,-1.594537784443634e-05,0.3676762543080857,-1.1582029540751544e-05
0.3684703714880167,-1.1585846369263342e-05,0.3684703714880167,-0.0001337916582494,0.3684703714880167,-1.4939396194236876e-05,0.3684703714880167,-1.2923338407684163e-05
0.3692644886679478,-8.897739506607137e-06,0.3692644886679478,-5.6614923371304775e-05,0.3692644886679478,-1.3596664756523545e-05,0.3692644886679478,-1.0911497134785314e-05
0.3700586058478789,-1.3593466961968184e-05,0.3700586058478789,8.301607559168259e-05,0.3700586058478789,-1.35958e-05,0.3700586058478789,-1.1078016652215197e-05
0.3708527230278099,-1.0911136821805426e-05,0.3708527230278099,0.0002153048615958,0.3708527230278099,-1.4266965794548645e-05,0.3708527230278099,-1.22525901579017e-05
0.371646840207741,-1.09102e-05,0.371646840207741,0.0002462287846043,0.371646840207741,-1.1917772916661684e-05,0.371646840207741,-9.567950474172283e-06
0.3724409573876721,-4.867954292159276e-06,0.3724409573876721,0.0001643283959929,0.3724409573876721,-9.06401313818772e-06,0.3724409573876721,-1.141360091345723e-05
0.3732350745676032,-5.53890389247156e-06,0.3732350745676032,7.435139908186591e-05,0.3732350745676032,-8.224799160353522e-06,0.3732350745676032,-1.561012610752844e-05
0.3740291917475342,-4.1947725812604165e-06,0.3740291917475342,1.2578174193972029e-05,0.3740291917475342,-1.0239204840548704e-05,0.3740291917475342,-1.6953042904329224e-05
0.3748233089274653,1.8410873532503296e-06,0.3748233089274653,-3.101416420343115e-05,0.3748233089274653,-1.191584092421448e-05,0.3748233089274653,-1.7959024554528687e-05
0.3756174261073964,1.6906219089435653e-07,0.3756174261073964,-4.782486809828431e-05,0.3756174261073964,-1.24204360769195e-05,0.3756174261073964,-1.8295357360520116e-05
0.3764115432873274,5.871437379966725e-06,0.3764115432873274,-4.448193096277307e-05,0.3764115432873274,-1.560816555660534e-05,0.3764115432873274,-1.6953572385109228e-05
0.3772056604672585,8.055826909290661e-06,0.3772056604672585,-3.005117273944992e-05,0.3772056604672585,-1.5274443553074705e-05,0.3772056604672585,-1.5610574212298815e-05
0.3779997776471896,6.5465430416240326e-06,0.3779997776471896,-3.709272579268592e-05,0.3779997776471896,-1.5609905990127903e-05,0.3779997776471896,-1.3596364059232593e-05
0.3787938948271206,5.203507865353479e-06,0.3787938948271206,-6.025483181304917e-05,0.3787938948271206,-1.4938688933339035e-05,0.3787938948271206,-1.2253177866678074e-05
0.3795880120070517,1.158164061226468e-05,0.3795880120070517,-6.19359938788654e-05,0.3795880120070517,-1.56100126905766e-05,0.3795880120070517,-1.242080761555574e-05
0.3803821291869828,1.4266571881174774e-05,0.3803821291869828,-3.507334484553848e-05,0.3803821291869828,-1.64489542193246e-05,0.3803821291869828,-1.2924236140792931e-05
0.3811762463669139,1.0407584255788723e-05,0.3811762463669139,8.903396231926604e-06,0.3811762463669139,-1.4938183872337176e-05,0.3811762463669139,-1.1917924191494234e-05
0.3819703635468449,1.3257815653543812e-05,0.3819703635468449,3.271151874213178e-05,0.3819703635468449,-1.3596875005404558e-05,0.3819703635468449,-1.3929887491893162e-05
0.382764480726776,1.2924619546626307e-05,0.382764480726776,4.214891378216641e-06,0.382764480726776,-1.3931280453373692e-05,0.382764480726776,-1.560890226686846e-05
0.3835585979067071,4.536180070400164e-06,0.3835585979067071,-5.250806955812597e-05,0.3835585979067071,-1.158279002396593e-05,0.3835585979067071,-1.3596820020542224e-05
0.3843527150866381,-2.51521034612139e-06,0.3843527150866381,-9.582636070324164e-05,0.3843527150866381,-1.0910440920442246e-05,0.3843527150866381,-1.3931379539778875e-05
0.3851468322665692,-6.880898082984264e-06,0.3851468322665692,-0.0001176573904782,0.3851468322665692,-1.124582908298148e-05,0.3851468322665692,-1.359587091701852e-05
0.3859409494465003,-8.22452450537303e-06,0.3859409494465003,-0.0001307541663766,0.3859409494465003,-9.567516868442886e-06,0.3859409494465003,-1.2588764121447749e-05
0.3867350666264313,-7.889304370574179e-06,0.3867350666264313,-0.0001243723943604,0.3867350666264313,-1.1581825355093316e-05,0.3867350666264313,-1.225294366122667e-05
0.3875291838063624,-1.2589631378050724e-05,0.3875291838063624,-8.139440405739338e-05,0.3875291838063624,-1.426735522967512e-05,0.3875291838063624,-1.158191045935024e-05
0.3883233009862935,-1.661355797884886e-05,0.3883233009862935,-2.7406921941258635e-05,0.3883233009862935,-1.4938009663141476e-05,0.3883233009862935,-1.2923219326282952e-05
0.3891174181662246,-1.1752966992781731e-05,0.3891174181662246,4.878825897971472e-05,0.3891174181662246,-1.5609508006049335e-05,0.3891174181662246,-1.4937124018148005e-05
0.3899115353461556,-1.6949754937262386e-05,0.3899115353461556,0.0001172869233718,0.3899115353461556,-1.6952014184909086e-05,0.3899115353461556,-1.6280614184909084e-05
0.3907056525260867,-2.701929272665871e-05,0.3907056525260867,0.0001166552940837,0.3907056525260867,-1.69528e-05,0.3907056525260867,-1.6616953089429876e-05
0.3914997697060178,-3.00441236936921e-05,0.3914997697060178,7.638308396808822e-05,0.3914997697060178,-1.6281594734735088e-05,0.3914997697060178,-1.896631842842719e-05
0.3922938868859488,-2.987722390495942e-05,0.3922938868859488,3.3072469288785144e-05,0.3922938868859488,-1.62814e-05,0.3922938868859488,-1.9973956527505176e-05
0.3930880040658799,-2.7695062181683483e-05,0.3930880040658799,5.203316247749902e-06,0.3930880040658799,-1.51063853884359e-05,0.3930880040658799,-1.7120588826511227e-05
0.393882121245811,-2.0309697475519517e-05,0.393882121245811,2.520687565070782e-06,0.393882121245811,-1.2252897475519512e-05,0.393882121245811,-1.4938625623484994e-05
0.394676238425742,-1.963739321356475e-05,0.394676238425742,2.182306796905808e-05,0.394676238425742,-1.158180135728705e-05,0.394676238425742,-1.51059972854259e-05
0.3954703556056732,-1.6284121046232972e-05,0.3954703556056732,3.070918926801057e-05,0.3954703556056732,-1.2252455790753404e-05,0.3954703556056732,-1.3764688418493188e-05
0.3962644727856042,-1.359758323297384e-05,0.3962644727856042,2.9039014520608648e-05,0.3962644727856042,-1.359490838351308e-05,0.3962644727856042,-1.0073451878939234e-05
0.3970585899655353,-1.5105619901684636e-05,0.3970585899655353,2.1991940527660524e-05,0.3970585899655353,-1.3763513345361237e-05,0.3970585899655353,-1.0909766623522937e-05
0.3978527071454664,-1.2254052432148916e-05,0.3978527071454664,5.209520874762258e-06,0.3978527071454664,-1.5273742801833823e-05,0.3978527071454664,-1.426596182283454e-05
0.3986468243253974,-1.2924251450972117e-05,0.3986468243253974,-1.9968529426942044e-05,0.3986468243253974,-1.896618298034664e-05,0.3986468243253974,-1.3595948549027884e-05
0.3994409415053285,-1.1246023656556808e-05,0.3994409415053285,-3.3736686023601265e-05,0.3994409415053285,-1.9974025806065915e-05,0.3994409415053285,-1.2924449462622725e-05
0.4002350586852595,-1.8462159412091035e-06,0.4002350586852595,-4.0788318032584015e-05,0.4002350586852595,-2.0309700752435125e-05,0.4002350586852595,-1.426731164981494e-05
0.4010291758651906,-1.6922283254474608e-07,0.4010291758651906,-5.321042784696209e-05,0.4010291758651906,-1.896670295373839e-05,0.4010291758651906,-1.5777614357147198e-05
0.4018232930451217,-6.372747374311604e-06,0.4018232930451217,-6.327024434895673e-05,0.4018232930451217,-1.762539408680577e-05,0.4018232930451217,-1.4939346259791034e-05
0.4026174102250527,-1.6819809477347765e-06,0.4026174102250527,-7.367807008568555e-05,0.4026174102250527,-1.712097406884561e-05,0.4026174102250527,-1.2925896126824527e-05
0.4034115274049838,1.8442419935885723e-06,0.4034115274049838,-8.257650503115439e-05,0.4034115274049838,-1.5443099056340754e-05,0.4034115274049838,-1.1246899056340755e-05
0.4042056445849149,5.041490686812736e-07,0.4042056445849149,-6.932763556620873e-05,0.4042056445849149,-1.3932176183913765e-05,0.4042056445849149,-1.2252549195803288e-05
0.404999761764846,2.349336015653909e-06,0.404999761764846,-3.156703147207532e-05,0.404999761764846,-1.359590072486299e-05,0.404999761764846,-1.2253e-05
0.4057938789447771,1.1751191358112696e-06,0.4057938789447771,8.554193812931402e-06,0.4057938789447771,-1.4267097636679272e-05,0.4057938789447771,-1.1581702363320724e-05
0.4065879961247081,1.17494e-06,0.4065879961247081,4.817250666300664e-05,0.4065879961247081,-1.4938596723084434e-05,0.4065879961247081,-1.426718689233774e-05
0.4073821133046392,-3.860482095255202e-06,0.4073821133046392,5.605367180726082e-05,0.4073821133046392,-1.39315479047448e-05,0.4073821133046392,-1.762467904744798e-05
0.4081762304845703,-3.5246840148420907e-06,0.4081762304845703,4.868567863615887e-07,0.4081762304845703,-1.4267540624303983e-05,0.4081762304845703,-2.0981686597865183e-05
0.4089703476645013,-3.021703178637704e-06,0.4089703476645013,-5.702145921873499e-05,0.4089703476645013,-1.5441135938393297e-05,0.4089703476645013,-2.2658222792577507e-05
0.4097644648444324,-1.69772217679998e-07,0.4097644648444324,-8.944176585504247e-05,0.4097644648444324,-1.5274413097108617e-05,0.4097644648444324,-2.1820965620342964e-05
0.4105585820243635,2.1808029768885923e-06,0.4105585820243635,-9.281883281585427e-05,0.4105585820243635,-1.8294009534268856e-05,0.4105585820243635,-1.9304025361788404e-05
0.4113526992042945,8.397546985749496e-07,0.4113526992042945,-8.745153476550827e-05,0.4113526992042945,-1.7624454350423983e-05,0.4113526992042945,-1.695369022648394e-05
0.4121468163842256,-1.8457189471624584e-06,0.4121468163842256,-7.335336054439427e-05,0.4121468163842256,-1.49392210560751e-05,0.4121468163842256,-1.5274688160046938e-05
0.4129409335641567,-5.538721023962105e-06,0.4129409335641567,-4.683211900736866e-05,0.4129409335641567,-1.3931584266420351e-05,0.4129409335641567,-1.4938628088806784e-05
0.4137350507440878,-9.231817271339891e-06,0.4137350507440878,-1.862870402449952e-05,0.4137350507440878,-1.2252957091208406e-05,0.4137350507440878,-1.091008200146221e-05
0.4145291679240188,-1.091009364812139e-05,0.4145291679240188,2.200007071331121e-05,0.4145291679240188,-1.15816e-05,0.4145291679240188,-9.06439181008709e-06
0.4153232851039499,-1.040715276749842e-05,0.4153232851039499,7.766408902415062e-05,0.4153232851039499,-1.15816e-05,0.4153232851039499,-1.1579335946690228e-05
0.416117402283881,-1.2922504697893228e-05,0.416117402283881,0.0001287015882328,0.416117402283881,-1.0407584454242063e-05,0.416117402283881,-1.2252494576067645e-05
0.416911519463812,-1.5272877818654824e-05,0.416911519463812,0.0001549091525943,0.416911519463812,-9.90340478340586e-06,0.416911519463812,-9.904522181345177e-06
0.4177056366437431,-1.7958670995511873e-05,0.4177056366437431,0.0001502271508493,0.4177056366437431,-1.158083187219492e-05,0.4177056366437431,-1.1077562287655069e-05
0.4184997538236742,-1.259036531773422e-05,0.4184997538236742,0.0001180079918443,0.4184997538236742,-1.2923983670566444e-05,0.4184997538236742,-1.0406908164716775e-05
0.4192938710036052,-7.554038084087844e-06,0.4192938710036052,5.825340792099467e-05,0.4192938710036052,-1.1581818156623232e-05,0.4192938710036052,-1.1077990921688384e-05
0.4200879881835363,1.5105051098581384e-06,0.4200879881835363,1.1757893084769918e-06,0.4200879881835363,-1.2924380016187087e-05,0.4200879881835363,-1.191728751086104e-05
0.4208821053634674,4.531395435395798e-06,0.4208821053634674,-4.71698765226724e-05,0.4208821053634674,-1.2252688169254202e-05,0.4208821053634674,-1.15813549914553e-05
0.4216762225433985,5.044407299037784e-07,0.4216762225433985,-7.939857327019707e-05,0.4216762225433985,-9.902912058600867e-06,0.4216762225433985,-9.734837125553554e-06
0.4224703397233295,3.690031308857125e-06,0.4224703397233295,-0.0001003565742604,0.4224703397233295,-9.232267614029904e-06,0.4224703397233295,-8.22586465025436e-06
0.4232644569032606,6.544168244382929e-06,0.4232644569032606,-0.000131404760403,0.4232644569032606,-8.393034047781495e-06,0.4232644569032606,-8.895550761774805e-06
0.4240585740831917,3.861970601915947e-06,0.4240585740831917,-0.0001518930152085,0.4240585740831917,-1.0237809587859095e-05,0.4240585740831917,-1.0909119549904088e-05
0.4248526912631227,3.189401061526453e-06,0.4248526912631227,-0.0001507294568839,0.4248526912631227,-1.426563360751104e-05,0.4248526912631227,-1.1581338934585172e-05
0.4256468084430538,6.545310109777017e-06,0.4256468084430538,-0.0001310947380187,0.4256468084430538,-1.393158098950481e-05,0.4256468084430538,-1.4602171094456714e-05
0.4264409256229849,1.175443138962188e-06,0.4264409256229849,-8.47682395428707e-05,0.4264409256229849,-1.3595831446302228e-05,0.4264409256229849,-1.5609905661093313e-05
0.4272350428029159,-8.390288379502133e-07,0.4272350428029159,-1.6276441470860477e-05,0.4272350428029159,-1.3595944775202998e-05,0.4272350428029159,-1.561e-05
0.428029159982847,3.189680436143792e-06,0.428029159982847,7.57128354540023e-05,0.428029159982847,-1.62814e-05,0.428029159982847,-1.561040533012639e-05
0.4288232771627781,5.872278192218526e-06,0.4288232771627781,0.0001394250066333,0.4288232771627781,-1.62814e-05,0.4288232771627781,-1.7622368630525456e-05
0.4296173943427092,5.87472e-06,0.4296173943427092,0.0001314321458196,0.4296173943427092,-1.795861965269189e-05,0.4296173943427092,-1.661786820838487e-05
0.4304115115226402,5.203743046365976e-06,0.4304115115226402,6.75147430985448e-05,0.4304115115226402,-1.9301873894963836e-05,0.4304115115226402,-1.5107329398926227e-05
0.4312056287025713,6.881035089394216e-06,0.4312056287025713,-9.6991540560185e-06,0.4312056287025713,-1.963824301694359e-05,0.4312056287025713,-1.762302260369544e-05
0.4319997458825024,1.8479515914065684e-06,0.4319997458825024,-6.057732292935405e-05,0.4319997458825024,-1.9973992560146165e-05,0.4319997458825024,-2.0308940481169325e-05
0.4327938630624334,-3.523903658753903e-06,0.4327938630624334,-0.0001022128208842,0.4327938630624334,-1.930281579330251e-05,0.4327938630624334,-2.098108420669749e-05
0.4335879802423645,-3.52483e-06,0.4335879802423645,-0.0001257184152585,0.4335879802423645,-1.8967008353448622e-05,0.4335879802423645,-1.930274176724313e-05
0.4343820974222956,-3.524747621719073e-06,0.4343820974222956,-0.0001129556681992,0.4343820974222956,-1.963827643073814e-05,0.4343820974222956,-1.644897346248816e-05
0.4351762146022266,-2.8538024726087183e-06,0.4351762146022266,-5.3185364163564565e-05,0.4351762146022266,-1.863093752469188e-05,0.4351762146022266,-1.46029e-05
0.4359703317821577,-4.195101350646085e-06,0.4359703317821577,3.131669489738248e-05,0.4359703317821577,-1.728962865775917e-05,0.4359703317821577,-1.46029e-05
0.4367644489620888,-5.538098093567827e-06,0.4367644489620888,0.0001097186004825,0.4367644489620888,-1.7623967023391956e-05,0.4367644489620888,-1.4267432976608042e-05
0.4375585661420199,-9.900715382121908e-06,0.4375585661420199,0.0001332591596616,0.4375585661420199,-1.7959716566594562e-05,0.4375585661420199,-1.1918584033838076e-05
0.438352683321951,-1.6278856086146128e-05,0.438352683321951,0.0001005550539956,0.438352683321951,-1.7624333890202835e-05,0.438352683321951,-1.0910601670608505e-05
0.439146800501882,-1.62814e-05,0.439146800501882,2.8720250258054564e-05,0.439146800501882,-1.6952968694000512e-05,0.439146800501882,-1.1581431305999487e-05
0.4399409176818131,-1.3596078430381396e-05,0.4399409176818131,-2.433260103107001e-05,0.4399409176818131,-1.4938808822786048e-05,0.4399409176818131,-1.15816e-05
0.4407350348617442,-1.1413618935907149e-05,0.4407350348617442,-3.50805e-05,0.4407350348617442,-1.5274241042380188e-05,0.4407350348617442,-1.3092236850707706e-05
0.4415291520416752,-9.567602603334248e-06,0.4415291520416752,-3.5082490235091387e-05,0.4415291520416752,-1.393130739475328e-05,0.4415291520416752,-1.3931050587757647e-05
0.4423232692216063,-1.0573574264638369e-05,0.4423232692216063,-4.547753406486573e-05,0.4423232692216063,-1.2925325744553814e-05,0.4423232692216063,-1.1583760070625566e-05
0.4431173864015373,-9.568188273143263e-06,0.4431173864015373,-6.0581925786931947e-05,0.4431173864015373,-1.158263770782827e-05,0.4431173864015373,-1.1246159426957068e-05
0.4439115035814684,-4.199588127566804e-06,0.4439115035814684,-6.612913694931234e-05,0.4439115035814684,-1.091061976750888e-05,0.4439115035814684,-1.023942965126332e-05
0.4447056207613995,-1.6977307754734267e-07,0.4447056207613995,-5.0865595471228114e-05,0.4447056207613995,-8.896972038534856e-06,0.4447056207613995,-8.225572038534856e-06
0.4454997379413306,-1.5101968135733197e-06,0.4454997379413306,-2.099106089807616e-05,0.4454997379413306,-8.224831594698559e-06,0.4454997379413306,-7.553441591398072e-06
0.4462938551212617,-6.377381818522539e-06,0.4462938551212617,1.0233103382605845e-05,0.4462938551212617,-9.231526237559974e-06,0.4462938551212617,-7.55322e-06
0.4470879723011927,-1.0574353613896805e-05,0.4470879723011927,3.575100997173905e-05,0.4470879723011927,-1.0574453156572565e-05,0.4470879723011927,-8.224586578460708e-06
0.4478820894811238,-7.720861922578202e-06,0.4478820894811238,3.188816535204022e-05,0.4478820894811238,-1.0910389161292542e-05,0.4478820894811238,-1.292492965161912e-05
0.4486762066610549,-5.874807265554872e-06,0.4486762066610549,3.18303142675602e-06,0.4486762066610549,-1.2588961796664617e-05,0.4486762066610549,-1.7624723593329233e-05
0.4494703238409859,-6.210134482288027e-06,0.4494703238409859,-2.028981381119273e-05,0.4494703238409859,-1.3594943446864078e-05,0.4494703238409859,-1.963668689372816e-05
0.450264441020917,-1.8494123292652752e-06,0.450264441020917,-3.473463770395037e-05,0.450264441020917,-1.4937654663586043e-05,0.450264441020917,-2.0309327331793023e-05
0.4510585582008481,1.5087721021198284e-06,0.4510585582008481,-4.1119550972883634e-05,0.4510585582008481,-1.6616166045495694e-05,0.4510585582008481,-2.064531320909914e-05
0.4518526753807791,-2.851655788099154e-06,0.4518526753807791,-4.7834255086918415e-05,0.4518526753807791,-1.8294913761508595e-05,0.4518526753807791,-1.9303248990793124e-05
0.4526467925607102,-1.685506336142771e-07,0.4526467925607102,-6.495322707071927e-05,0.4526467925607102,-1.6953150817982803e-05,0.4526467925607102,-1.7624638522478502e-05
0.4534409097406413,1.8461110334920055e-06,0.4534409097406413,-8.073370643059324e-05,0.4534409097406413,-1.69528e-05,0.4534409097406413,-1.4938905290344584e-05
0.4542350269205724,4.53193e-06,0.4542350269205724,-6.932058457964929e-05,0.4542350269205724,-1.644910325546444e-05,0.4542350269205724,-1.29244e-05
0.4550291441005034,4.532355937524501e-06,0.4550291441005034,-3.641703263227336e-05,0.4550291441005034,-1.3595221948534022e-05,0.4550291441005034,-1.2924278303046546e-05
0.4558232612804345,6.879636465761237e-06,0.4558232612804345,-1.8784691532932656e-06,0.4558232612804345,-1.040966333404578e-05,0.4558232612804345,-1.2253623869580238e-05
0.4566173784603656,1.1074815170860009e-05,0.4566173784603656,7.545862066642101e-06,0.4566173784603656,-7.55545369133003e-06,0.4566173784603656,-1.359474886219004e-05
0.4574114956402966,1.694906830988768e-05,0.4574114956402966,-5.530713623015129e-06,0.4574114956402966,-5.875786206249431e-06,0.4574114956402966,-1.3092519893635517e-05
0.4582056128202277,2.1314771925385025e-05,0.4582056128202277,-1.8960452092736733e-05,0.4582056128202277,-2.854913272673112e-06,0.4582056128202277,-1.2253409220736666e-05
0.4589997300001588,2.7357345246800382e-05,0.4589997300001588,-2.0309343380621197e-05,0.4589997300001588,-5.873692613198688e-06,0.4589997300001588,-1.4602100916087088e-05
0.4597938471800898,2.66881292232842e-05,0.4597938471800898,-1.1583279902694544e-05,0.4597938471800898,-1.09092308292179e-05,0.4597938471800898,-1.3595993834926293e-05
0.4605879643600209,2.1317141090543616e-05,0.4605879643600209,1.4601724666206304e-05,0.4605879643600209,-1.2420732194266502e-05,0.4605879643600209,-1.493853972624193e-05
0.461382081539952,2.064501735331679e-05,0.461382081539952,3.57513828785537e-05,0.461382081539952,-1.426699315142148e-05,0.461382081539952,-1.5609793151421483e-05
0.4621761987198831,1.5944189578911135e-05,0.4621761987198831,3.0712372235425914e-05,0.4621761987198831,-1.2253167824565428e-05,0.4621761987198831,-1.3596303473696288e-05
0.4629703158998141,9.908299677714776e-06,0.4629703158998141,1.4616765721189069e-05,0.4629703158998141,-1.292382225803169e-05,0.4629703158998141,-1.5608266774095077e-05
0.4637644330797452,8.896729067656608e-06,0.4637644330797452,-1.5730260606323068e-07,0.4637644330797452,-1.56080824672089e-05,0.4637644330797452,-1.7622761850406676e-05
0.4645585502596763,5.876431329902526e-06,0.4645585502596763,-7.213526900103839e-06,0.4645585502596763,-1.460347044518892e-05,0.4645585502596763,-1.4269101483963069e-05
0.4653526674396073,-3.520893075517748e-06,0.4653526674396073,-1.0908653351245845e-05,0.4653526674396073,-1.4267340605193724e-05,0.4653526674396073,-1.5106048507957776e-05
0.4661467846195384,-7.21651832081051e-06,0.4661467846195384,-1.9636032388231423e-05,0.4661467846195384,-1.6952071504071208e-05,0.4661467846195384,-1.4603036579423647e-05
0.4669409017994695,-1.4434107354704324e-05,0.4669409017994695,-2.030971696242296e-05,0.4669409017994695,-1.69528e-05,0.4669409017994695,-1.3763703803155207e-05
0.4677350189794005,-2.433827653710936e-05,0.4677350189794005,-1.258837100045768e-05,0.4677350189794005,-1.762424814648437e-05,0.4677350189794005,-1.0238816048828122e-05
0.4685291361593316,-3.172407495204593e-05,0.4685291361593316,1.1763198797721356e-06,0.4685291361593316,-1.9638457495204596e-05,0.4685291361593316,-1.0910573710266372e-05
0.4693232533392627,-3.507734711937723e-05,0.4693232533392627,9.224143114681247e-06,0.4693232533392627,-1.997378471193772e-05,0.4693232533392627,-1.3090150674554998e-05
0.4701173705191938,-4.111830944493759e-05,0.4701173705191938,5.7096644825251065e-06,0.4701173705191938,-2.0980401574156265e-05,0.4701173705191938,-1.393083460549037e-05
0.4709114876991248,-4.783266808961489e-05,0.4709114876991248,5.203654891665846e-06,0.4709114876991248,-2.09812e-05,0.4709114876991248,-1.5273433605018675e-05
0.4717056048790559,-5.555425772251726e-05,0.4717056048790559,7.216517671719967e-06,0.4717056048790559,-2.09812e-05,0.4717056048790559,-1.4938767055542728e-05
0.472499722058987,-5.5222517512340125e-05,0.472499722058987,-2.835404375495617e-05,0.472499722058987,-1.997445253702037e-05,0.472499722058987,-1.49386e-05
0.473293839238918,-5.555803203086246e-05,0.473293839238918,-6.881000974929652e-05,0.473293839238918,-1.9638467969137542e-05,0.473293839238918,-1.695239218517474e-05
0.4740879564188491,-5.589378157406506e-05,0.4740879564188491,-8.140620903018417e-05,0.4740879564188491,-2.030976314813012e-05,0.4740879564188491,-1.69528e-05
0.4748820735987802,-5.6732922211465584e-05,0.4748820735987802,-8.560320891507143e-05,0.4748820735987802,-1.6952613296394155e-05,0.4748820735987802,-1.795980664819708e-05
0.4756761907787112,-5.589347776395786e-05,0.4756761907787112,-8.677797914948553e-05,0.4756761907787112,-1.4938922236042137e-05,0.4756761907787112,-1.695312223604214e-05
0.4764703079586423,-5.455216889702515e-05,0.4764703079586423,-8.627493837990905e-05,0.4764703079586423,-1.6280231102974848e-05,0.4764703079586423,-1.829443110297485e-05
0.4772644251385734,-5.723465560724534e-05,0.4772644251385734,-4.316853162762006e-05,0.4772644251385734,-1.577816460984184e-05,0.4772644251385734,-1.7624686098188665e-05
0.4780585423185045,-5.522356103535052e-05,0.4780585423185045,1.9937721007635563e-05,0.4780585423185045,-1.4939083735908128e-05,0.4780585423185045,-1.7959706494108247e-05
0.4788526594984356,-5.1195727552269495e-05,0.4788526594984356,9.010491196951018e-05,0.4788526594984356,-1.4603043962689126e-05,0.4788526594984356,-1.7624343962689124e-05
0.4796467766783666,-4.850915535589236e-05,0.4796467766783666,0.0001502080989962,0.4796467766783666,-1.4267294419486543e-05,0.4796467766783666,-1.510710816021216e-05
0.4804408938582977,-4.582315901027171e-05,0.4804408938582977,0.0001851333328397,0.4804408938582977,-1.42672e-05,0.4804408938582977,-1.7288208297470246e-05
0.4812350110382288,-3.978029533308136e-05,0.4812350110382288,0.0001762411482908,0.4812350110382288,-1.69528233345932e-05,0.4812350110382288,-1.896698599924408e-05
0.4820291282181598,-3.944454585806759e-05,0.4820291282181598,0.0001149639518104,0.4820291282181598,-1.863092100647312e-05,0.4820291282181598,-1.795962929033794e-05
0.4828232453980909,-3.910921864133444e-05,0.4828232453980909,3.4150192466680034e-05,0.4828232453980909,-1.6283630489341033e-05,0.4828232453980909,-1.6282993206672167e-05
0.483617362578022,-3.843803899888667e-05,0.483617362578022,-3.167067834994605e-05,0.483617362578022,-1.4268816996660005e-05,0.483617362578022,-1.3262525494990009e-05
0.484411479757953,-3.6424619737444525e-05,0.484411479757953,-7.600666590726385e-05,0.484411479757953,-1.3931719956240754e-05,0.484411479757953,-1.4434230185918196e-05
0.4852055969378841,-2.837058991291616e-05,0.4852055969378841,-0.0001277067566459,0.4852055969378841,-1.3595970413038172e-05,0.4852055969378841,-1.225410765936638e-05
0.4859997141178152,-1.494343475741746e-05,0.4859997141178152,-0.0001673317372153,0.4859997141178152,-1.3260220869835567e-05,0.4859997141178152,-9.568376955084023e-06
0.4867938312977463,-4.198512445880754e-06,0.4867938312977463,-0.0001901681499164,0.4867938312977463,-1.393135734673407e-05,0.4867938312977463,-9.063966989949447e-06
0.4875879484776773,-1.510814266794184e-06,0.4875879484776773,-0.0002057819870737,0.4875879484776773,-9.567693183946107e-06,0.4875879484776773,-1.1077969296822108e-05
0.4883820656576084,3.6929437170091576e-06,0.4883820656576084,-0.0001955405855562,0.4883820656576084,-9.903238798861095e-06,0.4883820656576084,-9.567465518717516e-06
0.4891761828375395,6.882283232130416e-06,0.4891761828375395,-0.0001542334671321,0.4891761828375395,-1.158148420289165e-05,0.4891761828375395,-1.0238954411476751e-05
0.4899703000174705,8.894236543633998e-06,0.4899703000174705,-6.939648041031773e-05,0.4899703000174705,-1.1078543322268643e-05,0.4899703000174705,-1.090960884494306e-05
0.4907644171974016,1.0405591140985666e-05,0.4907644171974016,7.664519966569028e-06,0.4907644171974016,-1.1581230426815747e-05,0.4907644171974016,-1.292292156046133e-05
0.4915585343773327,1.2587420417304692e-05,0.4915585343773327,4.546495299795671e-05,0.4915585343773327,-1.4265625092902604e-05,0.4915585343773327,-1.29244e-05
0.4923526515572637,1.846082191871225e-05,0.4923526515572637,8.927657478174026e-05,0.4923526515572637,-1.4938305359630858e-05,0.4923526515572637,-1.225329464036914e-05
0.4931467687371948,1.7624444427891826e-05,0.4931467687371948,0.0001445019158175,0.4931467687371948,-1.896582667621612e-05,0.4931467687371948,-1.2253e-05
0.4939408859171259,1.8463279422735596e-05,0.4939408859171259,0.0002158437503578,0.4939408859171259,-1.6953089402676318e-05,0.4939408859171259,-1.0910392935117545e-05
0.494735003097057,2.265962095077148e-05,0.494735003097057,0.0002425418009692,0.494735003097057,-1.426720523769287e-05,0.494735003097057,-9.903111784808958e-06
0.495529120276988,2.8031511041243235e-05,0.495529120276988,0.0001915051313477,0.495529120276988,-1.5610203154640925e-05,0.495529120276988,-1.2923993690718153e-05
0.4963232374569191,3.2726092075507725e-05,0.4963232374569191,0.0001197459060784,0.4963232374569191,-1.6951512021573636e-05,0.4963232374569191,-1.0241375956852729e-05
0.4971173546368502,2.9711755712449017e-05,0.4971173546368502,5.997076869766276e-05,0.4971173546368502,-1.4940237141632677e-05,0.4971173546368502,-1.2419026470537927e-05
0.4979114718167812,3.3399543548901814e-05,0.4979114718167812,7.92352348941505e-06,0.4979114718167812,-1.5106288376392807e-05,0.4979114718167812,-1.3595018368662397e-05
0.4987055889967123,3.927365904154391e-05,0.4987055889967123,-4.747262801207133e-05,0.4987055889967123,-1.359658194151936e-05,0.4987055889967123,-1.292474754106719e-05
0.4994997061766434,4.212914404918384e-05,0.4994997061766434,-8.374338348525839e-05,0.4994997061766434,-1.2253496909323963e-05,0.4994997061766434,-1.225324845466198e-05
0.5002938233565745,4.3976089248417386e-05,0.5002938233565745,-8.409242531587159e-05,0.5002938233565745,-1.258862531587159e-05,0.5002938233565745,-1.5105765196032148e-05
0.5010879405365055,4.548698686957842e-05,0.5010879405365055,-8.40925e-05,0.5010879405365055,-1.2924374859074191e-05,0.5010879405365055,-1.712044915444516e-05
0.5018820577164366,4.934761458839685e-05,0.5018820577164366,-0.0001656731005691,0.5018820577164366,-1.22530488045535e-05,0.5018820577164366,-1.6281302390893e-05
0.5026761748963677,4.816989362828322e-05,0.5026761748963677,-0.0002495928122231,0.5026761748963677,-1.2924843114797314e-05,0.5026761748963677,-1.4938156885202685e-05
0.5034702920762988,3.54275592813768e-05,0.5034702920762988,-0.0002532807123845,0.5034702920762988,-1.493680641519624e-05,0.5034702920762988,-1.2926193584803757e-05
0.5042644092562298,3.139079716902212e-05,0.5042644092562298,-0.0002368472382169,0.5042644092562298,-1.3596799056340709e-05,0.5042644092562298,-1.29244e-05
0.5050585264361609,2.870380176706096e-05,0.5050585264361609,-0.0002361644002031,0.5050585264361609,-1.225380088353048e-05,0.5050585264361609,-1.493739867470428e-05
0.505852643616092,1.964246825247581e-05,0.505852643616092,-0.0002207289310835,0.505852643616092,-1.3595197289279936e-05,0.505852643616092,-1.560969864463997e-05
0.506646760796023,1.4604417017161184e-05,0.506646760796023,-0.0001572941143258,0.506646760796023,-1.493819546209035e-05,0.506646760796023,-1.4603203403432236e-05
0.507440877975954,7.889941823960279e-06,0.507440877975954,-6.698577802219952e-05,0.507440877975954,-1.560989681745029e-05,0.507440877975954,-1.443502580332156e-05
0.5082349951558852,5.035497408491719e-06,0.5082349951558852,6.62995869189954e-05,0.5082349951558852,-1.5945697951927794e-05,0.5082349951558852,-1.560999283144224e-05
0.5090291123358163,-5.040223513375185e-07,0.5090291123358163,0.0002506252790919,0.5090291123358163,-1.4266962823059516e-05,0.5090291123358163,-1.561e-05
0.5098232295157473,-3.857276538656975e-06,0.5098232295157473,0.0004363957580504,0.5098232295157473,-1.2590326739393975e-05,0.5098232295157473,-1.561e-05
0.5106173466956784,-1.0401313802076584e-05,0.5106173466956784,0.0005251270800476,0.5106173466956784,-1.460124271339465e-05,0.5106173466956784,-1.5945423785565773e-05
0.5114114638756094,-1.090986002691355e-05,0.5114114638756094,0.0004535773936664,0.5114114638756094,-1.46029e-05,0.5114114638756094,-1.6616646657536758e-05
0.5122055810555405,-1.09102e-05,0.5122055810555405,0.0002919752868557,0.5122055810555405,-1.292528564014532e-05,0.5122055810555405,-1.7623668615912806e-05
0.5129996982354716,-9.567920335505092e-06,0.5129996982354716,0.0001259500904496,0.5129996982354716,-1.091096550895848e-05,0.5129996982354716,-1.661748275447924e-05
0.5137938154154027,-1.0238643919077124e-05,0.5137938154154027,7.245107604753737e-06,0.5137938154154027,-1.1245821958376191e-05,0.5137938154154027,-1.6952721958376192e-05
0.5145879325953338,-1.02388e-05,0.5145879325953338,-7.737131843010351e-05,0.5145879325953338,-9.567552491257336e-06,0.5145879325953338,-1.4938770990527514e-05
0.5153820497752648,-6.3787329808014814e-06,0.5153820497752648,-0.0001438491465426,0.5153820497752648,-8.560141642376082e-06,0.5153820497752648,-9.231562687157434e-06
0.5161761669551959,-1.3764551749619845e-05,0.5161761669551959,-0.0001780932169823,0.5161761669551959,-5.8749314975821154e-06,0.5161761669551959,-6.88182e-06
0.5169702841351269,-1.8291519119994155e-05,0.5169702841351269,-0.0002029076307985,0.5169702841351269,-6.8809131477815785e-06,0.5169702841351269,-6.88182e-06
0.5177644013150581,-2.232086261643366e-05,0.5177644013150581,-0.0002210433320378,0.5177644013150581,-1.0236268799274e-05,0.5177644013150581,-8.391320960427311e-06
0.5185585184949891,-2.500787137297585e-05,0.5185585184949891,-0.0002324640782138,0.5185585184949891,-1.0909792843243962e-05,0.5185585184949891,-1.0573176746607174e-05
0.5193526356749202,-2.433840807035083e-05,0.5193526356749202,-0.0002311286162324,0.5193526356749202,-1.6278935437193366e-05,0.5193526356749202,-1.2923321753772097e-05
0.5201467528548512,-2.8365246096325708e-05,0.5201467528548512,-0.0002156908065684,0.5201467528548512,-1.8294973048162852e-05,0.5201467528548512,-1.29244e-05
0.5209408700347823,-2.5010049487702537e-05,0.5209408700347823,-0.0001767513740246,0.5209408700347823,-1.9638180204918988e-05,0.5209408700347823,-1.3595690102459493e-05
0.5217349872147133,-2.43381108111353e-05,0.5217349872147133,-0.0001179989459662,0.5217349872147133,-1.89670108111353e-05,0.5217349872147133,-1.22530216222706e-05
0.5225291043946444,-1.829410121068672e-05,0.5225291043946444,-4.782690524799152e-05,0.5225291043946444,-1.7959723671536523e-05,0.5225291043946444,-1.29244e-05
0.5233232215745756,-6.892995819548562e-06,0.5233232215745756,2.896262782809781e-05,0.5233232215745756,-1.6618414804603717e-05,0.5233232215745756,-1.29244e-05
0.5241173387545066,-3.863046139038584e-06,0.5241173387545066,7.901534394904665e-05,0.5241173387545066,-1.4939997859648118e-05,0.5241173387545066,-1.3259820428070376e-05
0.5249114559344377,-5.034674899455267e-06,0.5249114559344377,6.8992900861812e-05,0.5249114559344377,-1.6280479885091734e-05,0.5249114559344377,-1.52729198276376e-05
0.5257055731143687,-9.564973456172538e-06,0.5257055731143687,-1.3551400776037878e-05,0.5257055731143687,-1.594588048552446e-05,0.5257055731143687,-1.8965014659230907e-05
0.5264996902942998,-9.902969061578716e-06,0.5264996902942998,-7.198451615301381e-05,0.5264996902942998,-1.628126905767814e-05,0.5264996902942998,-2.0309276230712564e-05
0.5272938074742308,-1.6615472017613963e-05,0.5272938074742308,-0.0001075823718145,0.5272938074742308,-1.8966348807045585e-05,0.5272938074742308,-2.03098e-05
0.528087924654162,-1.3260418559166512e-05,0.528087924654162,-0.0001233675027624,0.528087924654162,-1.695299113549991e-05,0.528087924654162,-1.896712742366661e-05
0.528882041834093,-8.224663061857859e-06,0.528882041834093,-0.0001149745060874,0.528882041834093,-1.5777685035275695e-05,0.528882041834093,-1.5777631973417836e-05
0.5296761590140241,-9.231642854078144e-06,0.5296761590140241,-6.762601072401154e-05,0.5296761590140241,-1.3595363541507044e-05,0.5296761590140241,-1.258816283262514e-05
0.5304702761939551,-8.896315637344989e-06,0.5304702761939551,1.821735720386221e-05,0.5304702761939551,-1.1415686688264815e-05,0.5304702761939551,-9.905545098759905e-06
0.5312643933738862,-5.541594775480425e-06,0.5312643933738862,0.0001182575693881,0.5312643933738862,-1.0910584680413464e-05,0.5312643933738862,-1.040631524318526e-05
0.5320585105538173,-2.519602416696867e-06,0.5320585105538173,0.0002186461263587,0.5320585105538173,-1.0407010372988649e-05,0.5320585105538173,-1.090988962701135e-05
0.5328526277337483,-1.6895074447670724e-07,0.5328526277337483,0.0002744078729103,0.5328526277337483,-1.1077785214658186e-05,0.5328526277337483,-9.568039565995136e-06
0.5336467449136795,-7.718643396280987e-06,0.5336467449136795,0.0002569826083651,0.5336467449136795,-1.2252622542924472e-05,0.5336467449136795,-1.3091067599859354e-05
0.5344408620936105,-8.560164236072609e-06,0.5344408620936105,0.0001938769614737,0.5344408620936105,-1.3595566774937202e-05,0.5344408620936105,-1.3595712531917167e-05
0.5352349792735416,-6.21048134118063e-06,0.5352349792735416,0.0001153140505619,0.5352349792735416,-1.6449125515268885e-05,0.5352349792735416,-1.560994742162143e-05
0.5360290964534726,-8.224569271156264e-06,0.5360290964534726,4.749543507731867e-05,0.5360290964534726,-1.628160364421868e-05,0.5360290964534726,-1.7624037084625057e-05
0.5368232136334037,-7.88924205442311e-06,0.5368232136334037,-7.914304143138157e-07,0.5368232136334037,-1.795823972788445e-05,0.5368232136334037,-1.628272821769244e-05
0.5376173308133347,-1.1578487784751764e-05,0.5376173308133347,-3.136205354536387e-05,0.5376173308133347,-1.963698535287442e-05,0.5376173308133347,-1.8293902423449304e-05
0.5384114479932659,-1.2923466455110138e-05,0.5384114479932659,-5.285756335128447e-05,0.5384114479932659,-1.896746677244493e-05,0.5384114479932659,-1.8966533227555068e-05
0.539205565173197,-1.0911303058119167e-05,0.539205565173197,-7.56874987294135e-05,0.539205565173197,-1.695390305811917e-05,0.539205565173197,-1.5611838430198617e-05
0.539999682353128,-8.225684394537845e-06,0.539999682353128,-8.744479950639434e-05,0.539999682353128,-1.628166859963461e-05,0.539999682353128,-1.493886859963461e-05
0.5407937995330591,-9.90267621945127e-06,0.5407937995330591,-9.617539635326552e-05,0.5407937995330591,-1.69526304867706e-05,0.5407937995330591,-1.49386e-05
0.5415879167129901,-1.1245759146351614e-05,0.5415879167129901,-0.0001035622253049,0.5415879167129901,-1.7624129573175807e-05,0.5415879167129901,-1.3595940853648386e-05
0.5423820338929212,-1.4602971648952302e-05,0.5423820338929212,-0.0001022194554764,0.5423820338929212,-1.493854268083816e-05,0.5423820338929212,-1.158171463832368e-05
0.5431761510728523,-1.6280666375026743e-05,0.5431761510728523,-8.94588793819262e-05,0.5431761510728523,-1.35958e-05,0.5431761510728523,-1.4267487057422318e-05
0.5439702682527834,-1.242435343811874e-05,0.5439702682527834,-6.464486512157968e-05,0.5439702682527834,-1.35958e-05,0.5439702682527834,-1.577640958824479e-05
0.5447643854327144,-7.55698757610595e-06,0.5447643854327144,-4.784999182857567e-05,0.5447643854327144,-1.4937560653713945e-05,0.5447643854327144,-1.7287330696727478e-05
0.5455585026126455,-1.3592014731888276e-05,0.5455585026126455,-3.24045734323266e-05,0.5455585026126455,-1.560957941326218e-05,0.5455585026126455,-1.846266400453044e-05
0.5463526197925765,-1.0911486001330444e-05,0.5463526197925765,-2.4341958003991335e-05,0.5463526197925765,-1.795877474883586e-05,0.5463526197925765,-1.96378373504754e-05
0.5471467369725076,-1.5105009929516584e-05,0.5471467369725076,-2.702281034429001e-05,0.5471467369725076,-1.79599e-05,0.5471467369725076,-1.7624867241782493e-05
0.5479408541524387,-8.225874096082243e-06,0.5479408541524387,-3.7092850087165655e-05,0.5479408541524387,-1.4267878301372594e-05,0.5479408541524387,-1.561036998256687e-05
0.5487349713323698,-4.364219385700574e-06,0.5487349713323698,-5.119349094015379e-05,0.5487349713323698,-1.1246009085026446e-05,0.5487349713323698,-1.4267248482233976e-05
0.5495290885123009,-9.9029878743987e-06,0.5495290885123009,-4.313587972828092e-05,0.5495290885123009,-1.0910349502286218e-05,0.5495290885123009,-1.3763656068924145e-05
0.5503232056922319,-8.89701621309458e-06,0.5503232056922319,-3.0393445492421048e-05,0.5503232056922319,-1.2251658369218836e-05,0.5503232056922319,-1.42666968385006e-05
0.551117322872163,-5.2064791390695455e-06,0.551117322872163,-1.6964251391540006e-05,0.551117322872163,-1.292382742615897e-05,0.551117322872163,-1.4602613713079486e-05
0.551911440052094,-4.196940231153733e-06,0.551911440052094,-2.2152430507633585e-05,0.551911440052094,-1.3930789768846269e-05,0.551911440052094,-1.2925583718589554e-05
0.5527055572320251,2.8495088059068378e-06,0.5527055572320251,-3.8428420802887454e-05,0.5527055572320251,-1.3595987200515353e-05,0.5527055572320251,-1.3595425598969291e-05
0.5534996744119562,6.544605777761477e-06,0.5534996744119562,-3.977974937074919e-05,0.5534996744119562,-1.4938049370749186e-05,0.5534996744119562,-1.2756844163784784e-05
0.5542937915918873,1.5119617064019128e-06,0.5542937915918873,-5.4211511119513616e-05,0.5542937915918873,-1.3596152456440396e-05,0.5542937915918873,-1.2924355929821014e-05
0.5550879087718184,-1.5102928641300593e-06,0.5550879087718184,-9.06344150737662e-05,0.5550879087718184,-1.5777549294845823e-05,0.5550879087718184,-1.3763503578475992e-05
0.5558820259517494,-1.1749070834089784e-06,0.5558820259517494,-0.0001284051535859,0.5558820259517494,-1.527428902770494e-05,0.5558820259517494,-1.6952821944590125e-05
0.5566761431316805,-1.6821163464489777e-07,0.5566761431316805,-0.000133101280318,0.5566761431316805,-1.4939204393775428e-05,0.5566761431316805,-1.762444175751017e-05
0.5574702603116115,-2.180165945037733e-06,0.5574702603116115,-0.0001180120550098,0.5574702603116115,-1.8292476561106506e-05,0.5574702603116115,-1.8965750624442603e-05
0.5582643774915427,-2.517476805933088e-06,0.5582643774915427,-7.69072410771928e-05,0.5582643774915427,-1.997278402966544e-05,0.5582643774915427,-1.7625252776267648e-05
0.5590584946714737,-5.537107148585566e-06,0.5590584946714737,-3.510709943714128e-05,0.5590584946714737,-1.6954722857778776e-05,0.5590584946714737,-1.1585445715557546e-05
0.5598526118514048,-6.210091789565019e-06,0.5598526118514048,1.9276114656566732e-05,0.5598526118514048,-1.6617264107661753e-05,0.5598526118514048,-1.1246064107661752e-05
0.5606467290313358,-9.901839797774789e-06,0.5606467290313358,7.970777849973458e-05,0.5606467290313358,-1.4268001951214031e-05,0.5606467290313358,-1.12459e-05
0.5614408462112669,-1.1581274893717284e-05,0.5614408462112669,0.0001614551673918,0.5614408462112669,-1.1246485191308892e-05,0.5614408462112669,-8.896465146858918e-06
0.5622349633911979,-2.8538424275593767e-06,0.5622349633911979,0.0002757707297618,0.5622349633911979,-1.0238846434161958e-05,0.5622349633911979,-9.903053566299108e-06
0.563029080571129,-8.22440586721723e-06,0.563029080571129,0.0003973041033449,0.563029080571129,-9.9030659787141e-06,0.563029080571129,-1.1581361844917856e-05
0.5638231977510602,-6.212452555713367e-06,0.5638231977510602,0.0004476031858548,0.5638231977510602,-9.567748750876244e-06,0.5638231977510602,-9.234081316680792e-06
0.5646173149309912,-1.682400182358684e-06,0.5646173149309912,0.0003664850936035,0.5646173149309912,-9.56741e-06,0.5646173149309912,-1.0237931075380332e-05
0.5654114321109223,-2.8525996457532527e-06,0.5654114321109223,0.0002010343691114,0.5654114321109223,-1.1915619298658762e-05,0.5654114321109223,-1.1580639595146574e-05
0.5662055492908533,-5.873004989256104e-06,0.5662055492908533,3.6181163812986353e-05,0.5662055492908533,-1.0910771674032256e-05,0.5662055492908533,-1.023956223204301e-05
0.5669996664707844,-8.894740870927283e-06,0.5669996664707844,-6.89418625750805e-05,0.5669996664707844,-1.057464101480815e-05,0.5669996664707844,-1.02388e-05
0.5677937836507154,-6.546760298514338e-06,0.5677937836507154,-0.0001253676329337,0.5677937836507154,-1.3594976755549674e-05,0.5677937836507154,-1.1581234113577631e-05
0.5685879008306466,-2.85390120993438e-06,0.5685879008306466,-0.000170361381569,0.5685879008306466,-1.35958e-05,0.5685879008306466,-1.0238967713611764e-05
0.5693820180105776,-5.874758073998082e-06,0.5693820180105776,-0.0001975591675165,0.5693820180105776,-1.3092249497331672e-05,0.5693820180105776,-1.225303807399808e-05
0.5701761351905087,-7.552192453504504e-06,0.5701761351905087,-0.0002049465118226,0.5701761351905087,-1.5274328534550133e-05,0.5701761351905087,-1.3931328741683914e-05
0.5709702523704397,-1.516322530098413e-06,0.5709702523704397,-0.0002197011091368,0.5709702523704397,-1.5441942198439986e-05,0.5709702523704397,-1.292534709148445e-05
0.5717643695503708,-8.397790983606123e-07,0.5717643695503708,-0.0002398410069062,0.5717643695503708,-1.3764932757811787e-05,0.5717643695503708,-1.1079565993892108e-05
