X [s].2,L DELTOID ANTERIOR: EMG 3 [V],X [s].3,L BICEPS BRACHII: EMG 4 [V],X [s].4,L DELTOID POSTERIOR: EMG 5 [V],X [s].7,L DELTOID MEDIUS: EMG 8 [V]
0.0,-4.19623e-06,0.0,-9.9031e-06,0.0,-3.45769e-05,0.0,-2.97093e-05
0.000794117179931,-5.539028613318728e-06,0.000794117179931,-9.9031e-06,0.000794117179931,-4.2465891853195896e-05,0.000794117179931,-3.5248294279991385e-05
0.0015882343598621,-8.895986157529964e-06,0.0015882343598621,-1.1917285694432753e-05,0.0015882343598621,-6.411824621621742e-05,0.0015882343598621,-4.011596542785736e-05
0.0023823515397932,-2.8534386981600232e-06,0.0023823515397932,-1.2252998047240034e-05,0.0023823515397932,-8.073552603660564e-05,0.0023823515397932,-5.455104426236531e-05
0.0031764687197242,-2.182041082427236e-06,0.0031764687197242,-1.1245901623640856e-05,0.0031764687197242,-9.41633783516165e-05,0.0031764687197242,-7.737846319763519e-05
0.0039705858996553,-1.1749350600068802e-05,0.0039705858996553,-7.553239066716204e-06,0.0039705858996553,-8.107126760002541e-05,0.0039705858996553,-6.999313813363895e-05
0.0047647030795864,-1.2252995611343023e-05,0.0047647030795864,-4.196259254721166e-06,0.0047647030795864,-2.618497831393724e-05,0.0047647030795864,-3.810207791893604e-05
0.0055588202595174,-7.553219780587259e-06,0.0055588202595174,-3.189139451468148e-06,0.0055588202595174,1.5106408941052846e-05,0.0055588202595174,-2.030979747675348e-05
0.0063529374394485,-6.881822164854472e-06,0.0063529374394485,-1.5106454121361804e-06,0.0063529374394485,4.246581178234148e-05,0.0063529374394485,-1.258872489582643e-05
0.0071470546193796,-4.196248196418987e-06,0.0071470546193796,-4.196211803581013e-06,0.0071470546193796,5.2704630626233066e-05,0.0071470546193796,-4.26334964278209e-05
0.0079411717993107,1.1748845331986132e-06,0.0079411717993107,-7.553185333158775e-06,0.0079411717993107,3.877334386730331e-05,0.0079411717993107,-5.8243538799224446e-05
0.0087352889792417,1.5106395684873188e-06,0.0087352889792417,-8.56030870547481e-06,0.0087352889792417,2.769511423991848e-05,0.0087352889792417,-1.0238861706056347e-05
0.0095294061591728,9.903059409172106e-06,0.0095294061591728,-9.567405129077436e-06,0.0095294061591728,3.0044988634514022e-05,0.0095294061591728,5.690057527328013e-05
0.0103235233391039,1.6617021068508395e-05,0.0103235233391039,-7.217470668111652e-06,0.0103235233391039,3.927708972277027e-05,0.0103235233391039,9.752113998567286e-05
0.0111176405190349,1.393176546549327e-05,0.0111176405190349,-5.539167014744377e-06,0.0111176405190349,5.2537639216457227e-05,0.0111176405190349,0.0001226964928214
0.011911757698966,1.913452285951913e-05,0.011911757698966,-8.224466959442543e-06,0.011911757698966,6.898512387538718e-05,0.011911757698966,9.3157873463176e-05
0.0127058748788971,2.584858760472904e-05,0.0127058748788971,-4.867736197002785e-06,0.0127058748788971,6.529351681423556e-05,0.0127058748788971,6.160169825144657e-05
0.0134999920588282,2.803077817952793e-05,0.0134999920588282,-5.035478321463686e-06,0.0134999920588282,6.059364699901678e-05,0.0134999920588282,9.584155758059208e-05
0.0142941092387592,3.541618828314512e-05,0.0142941092387592,-2.1820439056182933e-06,0.0142941092387592,6.294339064268779e-05,0.0142941092387592,0.0001032264063518
0.0150882264186903,3.4408882247055095e-05,0.0150882264186903,-2.5175948309265367e-06,0.0150882264186903,5.354312948702076e-05,0.0150882264186903,5.219995539743412e-05
0.0158823435986214,2.7863464881722965e-05,0.0158823435986214,1.8460300779044695e-06,0.0158823435986214,3.038234497155945e-05,0.0158823435986214,1.779444361706873e-05
0.0166764607785524,2.5345324356832336e-05,0.0166764607785524,4.531797355840276e-06,0.0166764607785524,-1.844748272058957e-06,0.0166764607785524,-5.53787765549848e-06
0.0174705779584835,2.0309939765586084e-05,0.0174705779584835,-1.5104722787986051e-06,0.0174705779584835,-2.433747570520347e-05,0.0174705779584835,-2.85337617267019e-05
0.0182646951384146,1.997410205519986e-05,0.0182646951384146,-8.895964785786711e-06,0.0182646951384146,-2.5009495889600278e-05,0.0182646951384146,-2.769510513830576e-05
0.0190588123183456,1.695268803909737e-05,0.0190588123183456,-1.6281441659928467e-05,0.0190588123183456,-2.735959267716917e-05,0.0190588123183456,-3.1052480145296034e-05
0.0198529294982767,9.73517895439457e-06,0.0198529294982767,-1.8967081044119745e-05,0.0198529294982767,-3.978077380353509e-05,0.0198529294982767,-5.555872342687696e-05
0.0206470466782078,7.553366499979069e-06,0.0206470466782078,-2.114885350270649e-05,0.0206470466782078,-5.253594354137275e-05,0.0206470466782078,-7.234187307863344e-05
0.0214411638581389,1.3931209705440397e-05,0.0214411638581389,-2.047763055741788e-05,0.0214411638581389,-6.193597219614967e-05,0.0214411638581389,-7.133594583612682e-05
0.0222352810380699,9.231822224013478e-06,0.0222352810380699,-2.030980400681508e-05,0.0222352810380699,-6.630029579415361e-05,0.0222352810380699,-6.865036412814414e-05
0.023029398218001,2.349905443138172e-06,0.023029398218001,-2.198829623336452e-05,0.023029398218001,-6.730749774001871e-05,0.023029398218001,-6.965739774001871e-05
0.0238235153979321,-2.853446509363823e-06,0.0238235153979321,-2.2659593490636177e-05,0.0238235153979321,-7.33502432060041e-05,0.0238235153979321,-6.46217135879918e-05
0.0246176325778631,-3.189346553579387e-06,0.0246176325778631,-2.2323948198173315e-05,0.0246176325778631,-8.07357754064133e-05,0.0246176325778631,-4.9850793777591365e-05
0.0254117497577942,-8.224291449106353e-06,0.0254117497577942,-2.349882566785225e-05,0.0254117497577942,-8.744907526294469e-05,0.0254117497577942,-3.9948726483993525e-05
0.0262058669377253,-1.2252832278382238e-05,0.0262058669377253,-2.450595806949147e-05,0.0262058669377253,-9.651292262958674e-05,0.0262058669377253,-3.810187687051722e-05
0.0269999841176564,-1.3595773143418982e-05,0.0269999841176564,-2.198835035508939e-05,0.0269999841176564,-9.181359399803356e-05,0.0269999841176564,-3.575194699901678e-05
0.0277941012975874,-1.4938625507291816e-05,0.0277941012975874,-1.86312975314628e-05,0.0277941012975874,-6.126497202433438e-05,0.0277941012975874,-4.045170795383047e-05
0.0285882184775185,-3.0548767919277334e-05,0.0285882184775185,-1.7120619526795908e-05,0.0285882184775185,-4.414475145906077e-05,0.0285882184775185,-4.5319292189746944e-05
0.0293823356574496,-3.776551527026262e-05,0.0293823356574496,-1.7959832003648274e-05,0.0293823356574496,-5.924957614668448e-05,0.0293823356574496,-4.498362719692038e-05
0.0301764528373806,-3.692684984710539e-05,0.0301764528373806,-1.762421993765433e-05,0.0301764528373806,-6.999246200100052e-05,0.0301764528373806,-2.5682046412154497e-05
0.0309705700173117,-5.018639934083308e-05,0.0309705700173117,-1.8966949300146352e-05,0.0309705700173117,-8.006371975109765e-05,0.0309705700173117,-1.0910757694614428e-05
0.0317646871972428,-4.850842706136244e-05,0.0317646871972428,-1.7792018943759825e-05,0.0317646871972428,-8.946344845798255e-05,0.0317646871972428,-4.179400207254328e-05
0.0325588043771738,-4.850843053217972e-05,0.0325588043771738,-1.527428704707098e-05,0.0325588043771738,-4.783658365805781e-05,0.0325588043771738,-4.54871647646451e-05
0.0333529215571049,-5.404754100247138e-05,0.0333529215571049,-1.292445467177138e-05,0.0333529215571049,2.76955647073424e-05,0.0333529215571049,-5.723701914753292e-05
0.034147038737036,-5.555798347540498e-05,0.034147038737036,-1.4938444628730774e-05,0.034147038737036,4.481437935192537e-05,0.034147038737036,-7.267750882798307e-05
0.0349411559169671,-5.253696772203409e-05,0.0349411559169671,-1.2253149086252523e-05,0.0349411559169671,1.0576400838617068e-05,0.0349411559169671,-4.4481565400100216e-05
0.0357352730968981,-4.917991373090646e-05,0.0357352730968981,-1.2420794315148611e-05,0.0357352730968981,1.1917254507637416e-05,0.0357352730968981,-6.211716524880307e-06
0.0365293902768292,-4.6494232883197785e-05,0.0365293902768292,-1.4938569171389864e-05,0.0365293902768292,5.069002525066864e-05,0.0365293902768292,3.742986565023998e-05
0.0373235074567603,-4.145875271563209e-05,0.0373235074567603,-1.3931503152291196e-05,0.0373235074567603,0.0001002061765264,0.0373235074567603,6.831454956427992e-05
0.0381176246366913,-3.642326875898779e-05,0.0381176246366913,-1.426723124101221e-05,0.0381176246366913,0.0001190042710492,0.0381176246366913,6.294174009647008e-05
0.0389117418166224,-3.541627378050809e-05,0.0389117418166224,-1.5274226219491906e-05,0.0389117418166224,9.550792153053675e-05,0.0389117418166224,6.214576285838594e-06
0.0397058589965535,-3.071664267472325e-05,0.0397058589965535,-1.6281347998273592e-05,0.0397058589965535,6.697337337192123e-05,0.0397058589965535,-5.589059324132928e-05
0.0404999761764846,-2.8366570498525183e-05,0.0404999761764846,-1.5777815108326858e-05,0.0404999761764846,4.817326398820145e-05,0.0404999761764846,-8.409165402069789e-05
0.0412940933564156,-2.903789438294608e-05,0.0412940933564156,-1.6281395786791252e-05,0.0412940933564156,3.541630672318787e-05,0.0412940933564156,-5.690112748984716e-05
0.0420882105363467,-2.735931538286732e-05,0.0420882105363467,-1.5609951010365644e-05,0.0420882105363467,5.7063244360053965e-06,0.0420882105363467,-1.5609979958122616e-05
0.0428823277162778,-2.0981780508734403e-05,0.0428823277162778,-1.1917636089273387e-05,0.0428823277162778,-3.541245720401988e-05,0.0428823277162778,-1.4099437495617111e-05
0.0436764448962088,-1.728875624199656e-05,0.0436764448962088,-1.02389164736348e-05,0.0436764448962088,-4.246541081073384e-05,0.0436764448962088,-4.868270599440087e-06
0.0444705620761399,-2.2659343492199105e-05,0.0444705620761399,-1.1245851903891888e-05,0.0444705620761399,-1.5946966526071244e-05,0.0444705620761399,5.1527006630840127e-05
0.045264679256071,-2.1316935074768213e-05,0.045264679256071,-1.12459e-05,0.045264679256071,1.0573807224347983e-05,0.045264679256071,0.0001030576539225
0.046058796436002,-1.6281422599812917e-05,0.046058796436002,-1.493858342680386e-05,0.046058796436002,3.5919586248281534e-05,0.046058796436002,8.644247457691417e-05
0.0468529136159331,-1.7960124455452153e-05,0.0468529136159331,-1.493851942563251e-05,0.0468529136159331,4.2129722310821455e-05,0.0468529136159331,6.14324115190141e-05
0.0476470307958642,-3.105095918611656e-05,0.0476470307958642,-1.0239209526060508e-05,0.0476470307958642,1.426962789578789e-05,0.0476470307958642,3.877517448757834e-05
0.0484411479757953,-2.4002861849938084e-05,0.0484411479757953,-1.4266936085749666e-05,0.0484411479757953,-1.2251262571069976e-05,0.0484411479757953,3.038124982135486e-05
0.0492352651557263,-2.030996202740813e-05,0.0492352651557263,-1.6952682158693807e-05,0.0492352651557263,-3.172264565491798e-05,0.0492352651557263,4.682917822638744e-05
0.0500293823356574,-8.896263893837611e-06,0.0500293823356574,-1.4938644804834128e-05,0.0500293823356574,-3.659099172276309e-05,0.0500293823356574,5.00190290579004e-05
0.0508234995155885,-7.049671126291774e-06,0.0508234995155885,-1.49386e-05,0.0508234995155885,-4.045169764498303e-05,0.0508234995155885,2.534521505140473e-05
0.0516176166955195,-6.21042705702081e-06,0.0516176166955195,-1.7959780030646237e-05,0.0516176166955195,-5.085835645616648e-05,0.0516176166955195,1.1746012642624482e-06
0.0524117338754506,-6.546092049847375e-06,0.0524117338754506,-1.2253475152594616e-05,0.0524117338754506,-5.3543676398779007e-05,0.0524117338754506,-1.4937258397669575e-05
0.0532058510553817,-8.39597745081771e-07,0.0532058510553817,-7.553509672507296e-06,0.0532058510553817,-5.539018619652037e-05,0.0532058510553817,-3.642197578335209e-05
0.0539999682353128,8.895620581335283e-06,0.0539999682353128,-6.210473713162036e-06,0.0539999682353128,-5.723652614640224e-05,0.0539999682353128,-5.790714059340752e-05
0.0547940854152438,5.2033978212281175e-06,0.0547940854152438,-4.196266993413852e-06,0.0547940854152438,-5.052272331199173e-05,0.0547940854152438,-6.697173352881118e-05
0.0555882025951749,1.1245935102502277e-05,0.0555882025951749,-5.0354734183135e-06,0.0555882025951749,-4.515140658171918e-05,0.0555882025951749,-7.150378190010888e-05
0.056382319775106,2.198721487295248e-05,0.056382319775106,-3.021493460311276e-06,0.056382319775106,-4.716539653867859e-05,0.056382319775106,-6.596525952368455e-05
0.057176436955037,1.6617526428793376e-05,0.057176436955037,-1.1750865848977228e-06,0.057176436955037,-4.9179640089202485e-05,0.057176436955037,-5.471979282337737e-05
0.0579705541349681,5.8753404503220736e-06,0.0579705541349681,-4.196055498599606e-06,0.0579705541349681,-4.884411938910867e-05,0.0579705541349681,-4.649467503605011e-05
0.0587646713148992,1.292414534594979e-05,0.0587646713148992,-3.524854252835492e-06,0.0587646713148992,-4.9347681808567246e-05,0.0587646713148992,-4.330521519916245e-05
0.0595587884948302,1.963830272546354e-05,0.0595587884948302,-3.860525136273177e-06,0.0595587884948302,-5.25367537953196e-05,0.0595587884948302,-4.179452188604629e-05
0.0603529056747613,2.1988250827070997e-05,0.0603529056747613,-3.860541993310182e-06,0.0603529056747613,-7.402159594648146e-05,0.0603529056747613,-4.850842398662036e-05
0.0611470228546924,1.5107068479340387e-05,0.0611470228546924,-5.538866957443026e-06,0.0611470228546924,-8.744819565954421e-05,0.0611470228546924,-5.186507391488605e-05
0.0619411400346235,2.030940707235856e-05,0.0619411400346235,-4.196331399707293e-06,0.0619411400346235,-6.0763415315406754e-05,0.0619411400346235,-4.716595489897553e-05
0.0627352572145545,1.5945935134066703e-05,0.0627352572145545,-6.545993389887489e-06,0.0627352572145545,-2.70255177591261e-05,0.0627352572145545,-4.58228723489436e-05
0.0635293743944856,1.4938632473634932e-05,0.0635293743944856,-8.895934228507606e-06,0.0635293743944856,-1.6871495879372918e-07,0.0635293743944856,-4.515142164908996e-05
0.0643234915744167,1.82955643814594e-05,0.0643234915744167,-1.091017862898174e-05,0.0643234915744167,1.7959707660421864e-05,0.0643234915744167,-4.0787446303041766e-05
0.0651176087543477,2.064551480148352e-05,0.0651176087543477,-1.2924409250376055e-05,0.0651176087543477,2.3331012951849223e-05,0.0651176087543477,-3.84372261736572e-05
0.0659117259342788,2.198817477278977e-05,0.0659117259342788,-1.376352173765652e-05,0.0659117259342788,2.4505890421528133e-05,0.0659117259342788,-1.359811669406343e-05
0.0667058431142099,1.3932077153297307e-05,0.0667058431142099,-1.6281219636012813e-05,0.0667058431142099,1.9806536672756765e-05,0.0667058431142099,1.5272231874514868e-05
0.067499960294141,1.5609916073184316e-05,0.067499960294141,-1.5610033570726275e-05,0.067499960294141,4.532693730022666e-06,0.067499960294141,1.9302498575642352e-05
0.068294077474072,2.1652428591900135e-05,0.068294077474072,-1.2253095226722144e-05,0.068294077474072,-4.313594778536785e-05,0.068294077474072,-1.846232870363085e-05
0.0690881946540031,1.4602947459607249e-05,0.0690881946540031,-1.2253e-05,0.0690881946540031,-0.0001055765796468,0.0690881946540031,-6.898565987449775e-05
0.0698823118339342,1.309236770646635e-05,0.0698823118339342,-1.0910349067480649e-05,0.0698823118339342,-0.0001305842235793,0.0698823118339342,-6.327983352569152e-05
0.0706764290138652,1.292441499996651e-05,0.0706764290138652,-1.1245869991127784e-05,0.0706764290138652,-0.0001027264907274,0.0706764290138652,-3.306900078956012e-05
0.0714705461937963,1.3260077253818707e-05,0.0714705461937963,-1.3595640776730958e-05,0.0714705461937963,-6.093213190295869e-05,0.0714705461937963,-1.3597119271739172e-05
0.0722646633737274,1.2253046450471124e-05,0.0722646633737274,-1.0910323867922996e-05,0.0722646633737274,-5.085876450471124e-05,0.0722646633737274,-1.0910323867922996e-05
0.0730587805536585,8.560400428549022e-06,0.0730587805536585,-1.4602809571206095e-05,0.0730587805536585,-4.615861509119225e-05,0.0730587805536585,-9.567442882952898e-06
0.0738528977335895,2.5177572458678984e-06,0.0738528977335895,-1.6281395209457356e-05,0.0738528977335895,-6.88193209806999e-06,0.0738528977335895,2.400230418968938e-05
0.0746470149135206,5.037637901108532e-07,0.0746470149135206,-2.030936841806413e-05,0.0746470149135206,6.26003552416041e-05,0.0746470149135206,9.583420348761756e-05
0.0754411320934517,1.1748825866852072e-06,0.0754411320934517,-2.316295599478035e-05,0.0754411320934517,0.0001374625983305,0.0754411320934517,0.0001263873877143
0.0762352492733827,4.531715557553504e-06,0.0762352492733827,-2.433802494811412e-05,0.0762352492733827,0.0001690219842861,0.0762352492733827,7.603891660156375e-05
0.0770293664533138,-3.5244896428672527e-06,0.0770293664533138,-2.43381e-05,0.0770293664533138,0.000148882850897,0.0770293664533138,2.316543359421172e-05
0.0778234836332449,3.356184327965072e-07,0.0778234836332449,-2.0309883025059223e-05,0.0778234836332449,0.000117998636533,0.0778234836332449,-1.728766627242554e-05
0.078617600813176,-8.392535618241589e-07,0.078617600813176,-1.5274299140646417e-05,0.078617600813176,8.073545978485299e-05,0.078617600813176,-5.1193986423073455e-05
0.079411717993107,-8.223847407762661e-06,0.079411717993107,-1.4435086663794066e-05,0.079411717993107,4.146285560328891e-05,0.079411717993107,-3.793526920121017e-05
0.0802058351730381,-8.39848909848142e-07,0.0802058351730381,-1.4938558888228186e-05,0.0802058351730381,2.2661134687094257e-05,0.0802058351730381,-1.494047723893243e-05
0.0809999523529692,2.5175385764823567e-06,0.0809999523529692,-1.3595880569743065e-05,0.0809999523529692,1.393202369732979e-05,0.0809999523529692,-2.0309477721027743e-05
0.0817940695329002,-7.552833609189553e-06,0.0817940695329002,-1.1581677278469024e-05,0.0817940695329002,1.6837706765835792e-07,0.0817940695329002,-2.2995196965877984e-05
0.0825881867128313,-6.210442468215682e-06,0.0825881867128313,-1.2924377531784318e-05,0.0825881867128313,-2.702324502115904e-05,0.0825881867128313,-1.829567863708165e-05
0.0833823038927624,-8.22436626008956e-06,0.0833823038927624,-1.2588740623520092e-05,0.0833823038927624,-6.461745017785082e-05,0.0833823038927624,-2.500868754169929e-05
0.0841764210726934,1.6701485545399488e-07,0.0841764210726934,-1.0406916873671872e-05,0.0841764210726934,-0.0001143000618997,0.0841764210726934,-3.4408165753544394e-05
0.0849705382526245,-3.860216762585937e-06,0.0849705382526245,-1.1581508642499184e-05,0.0849705382526245,-0.0001129631043508,0.0849705382526245,-5.085702094833396e-05
0.0857646554325556,-5.538935797185013e-06,0.0857646554325556,-1.023887536225199e-05,0.0857646554325556,-9.718558552891016e-05,0.0857646554325556,-0.0001028890797015
0.0865587726124866,-5.53903e-06,0.0865587726124866,-8.896056311143434e-06,0.0865587726124866,-9.36600215659324e-05,0.0865587726124866,-0.0001280681316768
0.0873528897924177,-7.0496505818133335e-06,0.0873528897924177,-6.881845890958403e-06,0.0873528897924177,-0.0001136337432473,0.0873528897924177,-9.214966172309844e-05
0.0881470069723488,-9.902765766947034e-06,0.0881470069723488,-5.539187286073671e-06,0.0881470069723488,-0.0001814370570409,0.0881470069723488,-4.8513511812036e-05
0.0889411241522799,-8.896106191261084e-06,0.0889411241522799,-1.511024767909755e-06,0.0889411241522799,-0.000222564072175,0.0889411241522799,-3.910979778446669e-05
0.0897352413322109,-1.0238700795214164e-05,0.0897352413322109,-1.51064e-06,0.0897352413322109,-0.000180105137371,0.0897352413322109,-3.4409447219336205e-05
0.090529358512142,-1.292425969047812e-05,0.090529358512142,-2.1820049226195304e-06,0.090529358512142,-8.678297571931365e-05,0.090529358512142,5.704774135921082e-06
0.0913234756920731,-1.2253020551998625e-05,0.0913234756920731,-6.545986412621159e-06,0.0913234756920731,2.9370044519543432e-05,0.0913234756920731,8.207596221995198e-05
0.0921175928720041,-8.896040132994127e-06,0.0921175928720041,-1.0910160827170468e-05,0.0921175928720041,0.0001287391080678,0.0921175928720041,0.0001639882647536
0.0929117100519352,-1.2252619800108444e-05,0.0929117100519352,-1.1581523959795176e-05,0.0929117100519352,0.0001730479812785,0.0929117100519352,0.0001453591101893
0.0937058272318663,-9.567656096678134e-06,0.0937058272318663,-1.4266953902405506e-05,0.0937058272318663,0.0001555975996893,0.0937058272318663,5.220963643241843e-05
0.0944999444117974,-9.903076501191629e-06,0.0944999444117974,-1.4938553000983222e-05,0.0944999444117974,8.30904758518111e-05,0.0944999444117974,-5.6893262694774346e-05
0.0952940615917284,-1.191720257909517e-05,0.0952940615917284,-1.3595864947269887e-05,0.0952940615917284,8.644223763182528e-05,0.0952940615917284,-8.442686858580401e-05
0.0960881787716595,-7.553336663110486e-06,0.0960881787716595,-1.242083141077955e-05,0.0960881787716595,0.000128738869276,0.0960881787716595,-6.193700126380552e-05
0.0968822959515906,-2.518399699930127e-06,0.0968822959515906,-1.2588678003364473e-05,0.0968822959515906,0.0001478724931172,0.0968822959515906,-4.951712726629082e-05
0.0976764131315216,-4.36387802449786e-06,0.0976764131315216,-1.023905706112226e-05,0.0976764131315216,0.0001331056158346,0.0976764131315216,-4.448055084526199e-05
0.0984705303114527,-8.895612287346745e-06,0.0984705303114527,-8.224786761081715e-06,0.0984705303114527,8.812484762232703e-05,0.0984705303114527,-3.9109371356449e-05
0.0992646474913838,-1.292413362903372e-05,0.0992646474913838,-8.22461e-06,0.0992646474913838,3.65945073271501e-05,0.0992646474913838,-1.29261314089665e-05
0.1000587646713148,-6.380209433671719e-06,0.1000587646713148,-1.258740704323128e-05,0.1000587646713148,1.830102044058718e-05,0.1000587646713148,4.278508995806832e-05
0.1008528818512459,-2.5183144544198948e-06,0.1008528818512459,-1.695215061337851e-05,0.1008528818512459,4.011275308177274e-05,0.1008528818512459,9.046360674462122e-05
0.101646999031177,-8.560302626976585e-06,0.101646999031177,-1.963839672308444e-05,0.101646999031177,4.867628955489265e-05,0.101646999031177,8.97993008192289e-05
0.1024411162111081,-8.895911732823706e-06,0.1024411162111081,-1.8631201732823705e-05,0.1024411162111081,1.5602875658991065e-05,0.1024411162111081,5.689470919716585e-05
0.1032352333910391,-8.22539941138657e-06,0.1032352333910391,-1.795940661604625e-05,0.1032352333910391,-3.3075575588936205e-05,0.1032352333910391,1.4597374120294007e-05
0.1040293505709702,-1.09096078701973e-05,0.1040293505709702,-1.62812519664469e-05,0.1040293505709702,-6.462977169539226e-05,0.1040293505709702,-4.203409592047741e-06
0.1048234677509013,-9.568308992160026e-06,0.1048234677509013,-1.5945924749713746e-05,0.1048234677509013,-8.22343007404527e-05,0.1048234677509013,-2.046669969244297e-05
0.1056175849308323,-3.527988801827299e-06,0.1056175849308323,-1.2254930385283713e-05,0.1056175849308323,-9.684136622978862e-05,0.1056175849308323,-5.252004082435951e-05
0.1064117021107634,-5.046815105646818e-07,0.1064117021107634,-1.2924148107262704e-05,0.1064117021107634,-0.0001213458059526,0.1064117021107634,-7.06576989336105e-05
0.1072058192906945,-4.195389569270127e-06,0.1072058192906945,-1.29244e-05,0.1072058192906945,-0.0001129649099653,0.1072058192906945,-7.167137079050184e-05
0.1079999364706256,-5.538922560146166e-06,0.1079999364706256,-1.4602765700182707e-05,0.1079999364706256,-0.0001002070207106,0.1079999364706256,-6.462256405123145e-05
0.1087940536505566,-4.364318172659503e-06,0.1087940536505566,-1.7959922683239134e-05,0.1087940536505566,-0.0001082627731676,0.1087940536505566,-6.529408049041701e-05
0.1095881708304877,-7.888837775709786e-06,0.1095881708304877,-1.8295238867791344e-05,0.1095881708304877,-0.0001049026775406,0.1095881708304877,-7.536560007595116e-05
0.1103822880104188,-7.552002307184038e-06,0.1103822880104188,-1.661728263632982e-05,0.1103822880104188,-8.94597034076548e-05,0.1103822880104188,-8.140190744458248e-05
0.1111764051903498,-4.1972565790576505e-06,0.1111764051903498,-1.7121284389436257e-05,0.1111764051903498,-7.872027341584562e-05,0.1111764051903498,-6.764071911377724e-05
0.1119705223702809,-6.209209890561233e-06,0.1119705223702809,-1.846259325636888e-05,0.1119705223702809,-7.67083101154467e-05,0.1119705223702809,-6.277852441562322e-05
0.112764639550212,-2.854963958097277e-06,0.112764639550212,-1.7960128572378144e-05,0.112764639550212,-0.00012838153086,0.112764639550212,-3.0395406215159305e-05
0.1135587567301431,-5.538207174943343e-06,0.1135587567301431,-2.047682861395628e-05,0.1135587567301431,-0.0001653196864197,0.1135587567301431,2.8684097873264355e-05
0.1143528739100741,-9.902406970701972e-06,0.1143528739100741,-1.863159319877842e-05,0.1143528739100741,-0.0001210260368977,0.1143528739100741,5.991724215682049e-05
0.1151469910900052,-8.896021301217422e-06,0.1151469910900052,-1.4938641438208672e-05,0.1151469910900052,-5.8580100675704574e-05,0.1151469910900052,5.757232636976915e-05
0.1159411082699363,-1.3931362671721845e-05,0.1159411082699363,-1.1749010911393498e-05,0.1159411082699363,-5.321048879099992e-05,0.1159411082699363,2.332042577712604e-05
0.1167352254498673,-1.292163575179366e-05,0.1167352254498673,-8.896200638590622e-06,0.1167352254498673,-6.99827102535995e-05,0.1167352254498673,-5.4238700702436576e-05
0.1175293426297984,-3.1881272406193727e-06,0.1175293426297984,-9.569146159061356e-06,0.1175293426297984,-3.338073208489942e-05,0.1175293426297984,-0.0001366183659778
0.1183234598097295,-8.408427168244981e-07,0.1183234598097295,-1.3593062770963864e-05,0.1183234598097295,1.59121689969674e-05,0.1183234598097295,-0.0001119717656034
0.1191175769896605,-5.201004996657367e-06,0.1191175769896605,-1.2924757694133349e-05,0.1191175769896605,6.610586249672178e-05,0.1191175769896605,-4.585803249920388e-05
0.1199116941695916,-4.532188607728165e-06,0.1199116941695916,-1.1246546519320412e-05,0.1199116941695916,0.0001159647983954,0.1199116941695916,9.210504277991748e-06
0.1207058113495227,-2.1825983222544408e-06,0.1207058113495227,-7.050667003516655e-06,0.1207058113495227,0.0001414909382372,0.1207058113495227,5.823205499331823e-05
0.1214999285294538,-3.021214456352769e-06,0.1214999285294538,-7.553174673811661e-06,0.1214999285294538,0.0001361264834613,0.1214999285294538,0.0001022160415488
0.1222940457093848,-9.567352022768882e-06,0.1222940457093848,-1.0574364720369746e-05,0.1222940457093848,0.0001357900386284,0.1222940457093848,0.0001032258018269
0.1230881628893159,-8.56068878741065e-06,0.1230881628893159,-8.224059052532622e-06,0.1230881628893159,0.0001364562481042,0.1230881628893159,8.241083204898533e-05
0.123882280069247,-1.0405515867929138e-05,0.123882280069247,-5.53914840862157e-06,0.123882280069247,0.000113280238354,0.123882280069247,6.696574256825772e-05
0.124676397249178,-7.0509280756548674e-06,0.124676397249178,-5.87455226090995e-06,0.124676397249178,6.290709968304914e-05,0.124676397249178,4.950073862029014e-05
0.1254705144291091,-9.56587221225818e-06,0.1254705144291091,-5.539235033072141e-06,0.1254705144291091,-9.858606681185023e-06,0.1254705144291091,1.9992143325679444e-05
0.1262646316090402,-6.547521783278122e-06,0.1262646316090402,-2.854686029065032e-06,0.1262646316090402,-4.513504590041928e-05,0.1262646316090402,-2.1633286523973727e-05
0.1270587487889713,-7.217307577979005e-06,0.1270587487889713,-3.524617581142872e-06,0.1270587487889713,-5.287005714675856e-05,0.1270587487889713,-5.454059138424858e-05
0.1278528659689023,-6.378411669519763e-06,0.1278528659689023,-4.196116664384189e-06,0.1278528659689023,-6.076006831495447e-05,0.1278528659689023,-8.442315658197692e-05
0.1286469831488334,-8.22457081488301e-06,0.1286469831488334,-5.539001501578747e-06,0.1286469831488334,-5.992221781045213e-05,0.1286469831488334,-8.577097150157876e-05
0.1294411003287645,-5.539454183445735e-06,0.1294411003287645,-5.8748472557918725e-06,0.1294411003287645,-5.387879404665147e-05,0.1294411003287645,-6.193003723567812e-05
0.1302352175086955,-8.896377844460128e-06,0.1302352175086955,-6.883107459719552e-06,0.1302352175086955,-4.749900098239697e-05,0.1302352175086955,-1.1573231503604695e-05
0.1310293346886266,-1.0243605118297882e-05,0.1310293346886266,-1.15816e-05,0.1310293346886266,-3.910833469196496e-05,0.1310293346886266,1.8969543844058502e-05
0.1318234518685577,-2.1644730487225137e-05,0.1318234518685577,-1.15816e-05,0.1318234518685577,-3.776702582503233e-05,0.1318234518685577,2.5005333856301832e-05
0.1326175690484888,-2.567871359953064e-05,0.1326175690484888,-1.2588153386313656e-05,0.1326175690484888,-4.648946273566104e-05,0.1326175690484888,1.8133205672520562e-07
0.1334116862284198,-2.0311922542234336e-05,0.1334116862284198,-1.3595402015921467e-05,0.1334116862284198,-5.7903489513776645e-05,0.1334116862284198,-4.999926720618403e-05
0.1342058034083509,-1.5275546772353775e-05,0.1342058034083509,-9.232790533563972e-06,0.1342058034083509,-6.394910387317546e-05,0.1342058034083509,-7.032377138864592e-05
0.134999920588282,-1.2924635024680284e-05,0.134999920588282,-8.224710724862978e-06,0.134999920588282,-6.227226787477163e-05,0.134999920588282,-6.327990506403938e-05
0.135794037768213,-7.553140158758611e-06,0.135794037768213,-1.15816e-05,0.135794037768213,-5.8243747904744834e-05,0.135794037768213,-5.522275130146211e-05
0.1365881549481441,-5.875702667860074e-06,0.1365881549481441,-1.1581075910344528e-05,0.1365881549481441,-5.924896567937564e-05,0.1365881549481441,-6.260950327820773e-05
0.1373822721280752,-1.0909394620853073e-05,0.1373822721280752,-8.895837418019807e-06,0.1373822721280752,-4.984395159110495e-05,0.1373822721280752,-7.13309526841742e-05
0.1381763893080062,-8.557679761655255e-06,0.1381763893080062,-8.393692926213488e-06,0.1381763893080062,-2.869488463322948e-05,0.1381763893080062,-5.6895475103114046e-05
0.1389705064879373,-3.1924742606108164e-06,0.1389705064879373,-1.09086370628168e-05,0.1389705064879373,-1.3772873433080823e-05,0.1389705064879373,-4.5829676950919946e-05
0.1397646236678684,-2.8535991117085235e-06,0.1397646236678684,-1.795655865412101e-05,0.1397646236678684,-1.829345196823644e-05,0.1397646236678684,-5.558123296009724e-06
0.1405587408477994,1.8448060474447252e-06,0.1405587408477994,-2.299365650504985e-05,0.1405587408477994,-2.7020851251484604e-05,0.1405587408477994,6.542175550105884e-06
0.1413528580277305,5.202729748754673e-06,0.1413528580277305,-1.98067702314414e-05,0.1413528580277305,-2.2996020303640067e-05,0.1413528580277305,-1.6445088289966103e-05
0.1421469752076616,4.531950964201471e-06,0.1421469752076616,-1.695288909629502e-05,0.1421469752076616,-1.76243677104893e-05,0.1421469752076616,-2.198812704377664e-05
0.1429410923875927,7.217910608691309e-06,0.1429410923875927,-1.7288304694490773e-05,0.1429410923875927,-8.223086624009466e-06,0.1429410923875927,-1.0238526573450656e-05
0.1437352095675237,1.0573082339046983e-05,0.1437352095675237,-1.560986708034638e-05,0.1437352095675237,4.869667891084162e-06,0.1437352095675237,-7.887226526133635e-06
0.1445293267474548,5.203261013131704e-06,0.1445293267474548,-1.5106055086208672e-05,0.1445293267474548,1.258469877807895e-05,0.1445293267474548,-1.5029134954110236e-06
0.1453234439273859,5.035597404765127e-06,0.1453234439273859,-1.4267786988852511e-05,0.1453234439273859,2.86024944839885e-06,0.1453234439273859,1.727535070827356e-05
0.146117561107317,7.887332733566173e-06,0.146117561107317,-1.628028662765478e-05,0.146117561107317,-1.6606337433828583e-05,0.146117561107317,1.9133779436321625e-05
0.146911678287248,7.385574024230618e-06,0.146911678287248,-1.9301475830305503e-05,0.146911678287248,-2.265715170112898e-05,0.146911678287248,5.208974750065802e-06
0.1477057954671791,4.364858278295188e-06,0.1477057954671791,-1.963831352434765e-05,0.1477057954671791,-1.4940588914244296e-05,0.1477057954671791,-1.594025205193368e-05
0.1484999126471102,5.20323766887563e-06,0.1484999126471102,-1.7288758527148235e-05,0.1484999126471102,-1.6947402239812393e-07,0.1484999126471102,-3.00434488481122e-05
0.1492940298270412,4.531854335858662e-06,0.1492940298270412,-1.930268738924717e-05,0.1492940298270412,7.216927297246472e-06,0.1492940298270412,-3.675970619840205e-05
0.1500881470069723,2.5161240045645527e-06,0.1500881470069723,-1.896681353813369e-05,0.1500881470069723,-8.565220142113252e-06,0.1500881470069723,-5.55603996778364e-05
0.1508822641869034,-6.208409460804634e-06,0.1508822641869034,-1.7959341514209858e-05,0.1508822641869034,-3.5085861430312445e-05,0.1508822641869034,-6.797554911853206e-05
0.1516763813668344,-1.6913729602309406e-07,0.1516763813668344,-1.6279950662116988e-05,0.1516763813668344,-5.119335584982977e-05,0.1516763813668344,-5.7897210532619365e-05
0.1524704985467655,-2.851746039882613e-06,0.1524704985467655,-1.3262005711518494e-05,0.1524704985467655,-4.985204698289711e-05,0.1524704985467655,-3.543038690045068e-05
0.1532646157266966,-8.222010507255639e-06,0.1532646157266966,-1.1582412346019844e-05,0.1532646157266966,-2.116289104434363e-05,0.1532646157266966,-8.559802573489774e-07
0.1540587329066277,-4.1975851052885874e-06,0.1540587329066277,-1.091042585200273e-05,0.1540587329066277,9.55707731796964e-06,0.1540587329066277,2.332286937970572e-05
0.1548528500865587,-1.0908932349689012e-05,0.1548528500865587,-7.050398898409596e-06,0.1548528500865587,2.601349426362957e-05,0.1548528500865587,3.642082807084832e-05
0.1556469672664898,-9.56746535797246e-06,0.1556469672664898,-2.853612994127737e-06,0.1556469672664898,2.500954151878854e-05,0.1556469672664898,4.884358793906392e-05
0.1564410844464209,-6.3783592590160575e-06,0.1564410844464209,-5.5396012545121e-06,0.1564410844464209,1.1579065054579523e-05,0.1564410844464209,5.186386475555937e-05
0.157235201626352,-7.217946231505702e-06,0.157235201626352,-1.0910626234045076e-05,0.157235201626352,-1.2254875429798338e-05,0.157235201626352,3.742098026518655e-05
0.158029318806283,-8.89412532151836e-06,0.158029318806283,-1.2589373102322117e-05,0.158029318806283,-1.9632274780899177e-05,0.158029318806283,3.206878791709828e-07
0.1588234359862141,-4.199564265044724e-06,0.1588234359862141,-1.4266009185987944e-05,0.1588234359862141,-4.374916386226148e-06,0.1588234359862141,-3.706814495536781e-05
0.1596175531661451,-8.222342976619477e-06,0.1596175531661451,-1.3931688919552982e-05,0.1596175531661451,6.204469062219223e-06,0.1596175531661451,-5.823179812443844e-05
0.1604116703460762,-1.2251327487947276e-05,0.1604116703460762,-1.3595939376350375e-05,0.1604116703460762,2.030394620158775e-05,0.1604116703460762,-4.247245064694965e-05
0.1612057875260073,-9.90372883203442e-06,0.1612057875260073,-1.0575308498329966e-05,0.1612057875260073,3.608337786881457e-05,0.1612057875260073,1.660128941951165e-05
0.1619999047059384,-9.567450288745017e-06,0.1619999047059384,-1.1245819420109613e-05,0.1619999047059384,4.749993015386519e-05,0.1619999047059384,5.085419044959378e-05
0.1627940218858694,-1.6281446266287052e-05,0.1627940218858694,-1.309225551954446e-05,0.1627940218858694,4.7500800326856256e-05,0.1627940218858694,4.145820779428215e-05
0.1635881390658005,-1.7958547681419947e-05,0.1635881390658005,-1.5106488203447296e-05,0.1635881390658005,2.937195371663452e-05,0.1635881390658005,1.9971218978714257e-05
0.1643822562457316,-1.0239558377638162e-05,0.1643822562457316,-1.5609512455381944e-05,0.1643822562457316,1.9964999497387545e-05,0.1643822562457316,3.5188171874533183e-06
0.1651763734256627,-1.2589803789892797e-05,0.1651763734256627,-1.4098748128539492e-05,0.1651763734256627,-8.25433336284366e-06,0.1651763734256627,-1.5120512671743077e-05
0.1659704906055937,-1.4937094307024796e-05,0.1659704906055937,-1.2925152814450215e-05,0.1659704906055937,-7.14632540057621e-05,0.1659704906055937,-4.513214873592919e-05
0.1667646077855248,-1.2254326613595127e-05,0.1667646077855248,-1.1749980418146511e-05,0.1667646077855248,-9.448774094518764e-05,0.1667646077855248,-6.863869218043991e-05
0.1675587249654559,-9.56834026451048e-06,0.1675587249654559,-1.1078332532354486e-05,0.1675587249654559,-7.738443042369762e-05,0.1675587249654559,-6.630121398447759e-05
0.1683528421453869,-9.903033261693889e-06,0.1683528421453869,-8.896443819864717e-06,0.1683528421453869,-8.140609911646952e-05,0.1683528421453869,-6.059473456512058e-05
0.169146959325318,-4.19652234902042e-06,0.169146959325318,-9.2316928029084e-06,0.169146959325318,-0.0001038978477846,0.169146959325318,-5.790813757673282e-05
0.1699410765052491,-4.196391729591405e-06,0.1699410765052491,-5.203524075702394e-06,0.1699410765052491,-9.147430663928398e-05,0.1699410765052491,-5.0688413680658895e-05
0.1707351936851801,-5.875047557254327e-06,0.1707351936851801,-7.21858455619784e-06,0.1707351936851801,-5.520946154699875e-05,0.1707351936851801,-2.9028810332540286e-05
0.1715293108651112,-7.217913797666544e-06,0.1715293108651112,-1.1582912671922656e-05,0.1715293108651112,-2.1628750915957823e-06,0.1715293108651112,8.239640030950376e-06
0.1723234280450423,-8.223885458970627e-06,0.1723234280450423,-1.4936184839254084e-05,0.1723234280450423,4.679463884016409e-05,0.1723234280450423,4.663444652456971e-05
0.1731175452249733,-6.547081379514374e-06,0.1731175452249733,-1.3596569108193615e-05,0.1731175452249733,7.467694106225892e-05,0.1731175452249733,9.253148799254718e-06
0.1739116624049044,-1.1579459000816476e-05,0.1739116624049044,-9.569122801897914e-06,0.1739116624049044,6.429072470670189e-05,0.1739116624049044,-6.727495684897618e-05
0.1747057795848355,-6.211911044739495e-06,0.1747057795848355,-9.56741e-06,0.1747057795848355,2.770525775235084e-05,0.1747057795848355,-9.298137092967376e-05
0.1754998967647666,-5.042900028499301e-07,0.1754998967647666,-1.0910025411537728e-05,0.1754998967647666,4.534941656499989e-06,0.1754998967647666,-6.059781195851655e-05
0.1762940139446976,-2.5177753743962324e-06,0.1762940139446976,-8.392457052119012e-06,0.1762940139446976,-2.2995052379928875e-05,0.1762940139446976,-2.333021586716965e-05
0.1770881311246287,-4.532013158446853e-06,0.1770881311246287,-8.225774216604496e-06,0.1770881311246287,-8.891242263910095e-06,0.1770881311246287,2.132698984200817e-05
0.1778822483045598,-5.033747801121823e-06,0.1778822483045598,-1.5274824910835803e-05,0.1778822483045598,1.997677702962629e-05,0.1778822483045598,8.24322669596312e-05
0.1786763654844909,5.037794974168033e-07,0.1786763654844909,-1.695202834500885e-05,0.1786763654844909,2.8533396825525052e-05,0.1786763654844909,0.0001408293178636
0.1794704826644219,1.006772320295604e-06,0.1794704826644219,-1.5275392261343076e-05,0.1794704826644219,2.6353719972282825e-05,0.1794704826644219,0.0001480383036341
0.180264599844353,-4.193607655059704e-06,0.180264599844353,-1.6951954079025877e-05,0.180264599844353,2.2493745593041767e-05,0.180264599844353,0.0001136513412539
0.181058717024284,-4.19623e-06,0.181058717024284,-1.913402235137012e-05,0.181058717024284,1.2927809750459e-05,0.181058717024284,3.745755839831903e-05
0.1818528342042151,-7.552519024191821e-06,0.1818528342042151,-2.0812949511051856e-05,0.1818528342042151,2.519913023126056e-06,0.1818528342042151,-2.801713099366565e-05
0.1826469513841462,-5.539153326909929e-06,0.1826469513841462,-2.249169722706482e-05,0.1826469513841462,-5.538536691747995e-06,0.1826469513841462,-6.864781290721438e-05
0.1834410685640773,-3.1891110113844444e-06,0.1834410685640773,-2.29953e-05,0.1834410685640773,-2.1149347863386663e-05,0.1834410685640773,-0.000105574651948
0.1842351857440083,-2.8532829363637043e-06,0.1842351857440083,-2.2994396895788025e-05,0.1842351857440083,-2.5177831913303087e-05,0.1842351857440083,-7.837236744712573e-05
0.1850293029239394,-2.182935393630312e-06,0.1850293029239394,-1.9134480234251576e-05,0.1850293029239394,-2.7025874536641644e-05,0.1850293029239394,-2.1805753913304397e-05
0.1858234201038705,-4.530215921867049e-06,0.1858234201038705,-1.8296212136895417e-05,0.1858234201038705,-3.272643722110527e-05,0.1858234201038705,1.6589062569211625e-05
0.1866175372838016,-4.53193e-06,0.1866175372838016,-1.963761746182465e-05,0.1866175372838016,-2.971106071089454e-05,0.1866175372838016,3.272120960017239e-05
0.1874116544637326,5.013566394553691e-07,0.1874116544637326,-1.4269537461459928e-05,0.1874116544637326,-2.8367084365364983e-05,0.1874116544637326,1.8301881884155135e-05
0.1882057716436637,-4.8660852361088e-06,0.1882057716436637,-7.722952682951692e-06,0.1882057716436637,-3.1051327614890774e-05,0.1882057716436637,-2.343952306728962e-06
0.1889998888235948,-2.51806903315214e-06,0.1889998888235948,-3.5254175603004124e-06,0.1889998888235948,-3.944342487659876e-05,0.1889998888235948,-3.104808109757066e-05
0.1897940060035258,-5.5390096939432704e-06,0.1897940060035258,-3.524821116142712e-06,0.1897940060035258,-4.615857995501804e-05,0.1897940060035258,-5.186543299746506e-05
0.1905881231834569,-2.8536483243251104e-06,0.1905881231834569,-2.3494212687946444e-06,0.1905881231834569,-5.6734223922281815e-05,0.1905881231834569,-5.623041141795272e-05
0.191382240363388,-4.197855988693326e-06,0.191382240363388,6.707364435691192e-07,0.191382240363388,-6.461915450919133e-05,0.191382240363388,-6.210821415939745e-05
0.192176357543319,-9.567787462304724e-06,0.192176357543319,-1.5107154888630248e-06,0.192176357543319,-5.521704031321224e-05,0.192176357543319,-7.536324315591766e-05
0.1929704747232501,-1.040614545971902e-05,0.1929704747232501,-1.678379097229608e-06,0.1929704747232501,-4.3312974063661566e-05,0.1929704747232501,-7.301595263878549e-05
0.1937645919031812,-7.219159161476731e-06,0.1937645919031812,5.024264851810297e-07,0.1937645919031812,-3.776894691219047e-05,0.1937645919031812,-7.13367627084513e-05
0.1945587090831123,-7.888664006688609e-06,0.1945587090831123,2.517002012005154e-06,0.1945587090831123,-3.105455996975333e-05,0.1945587090831123,-7.016143047638713e-05
0.1953528262630433,-7.5532934530969396e-06,0.1953528262630433,5.202742359907623e-06,0.1953528262630433,-2.668895491870581e-05,0.1953528262630433,-6.160257309882848e-05
0.1961469434429744,-6.8818678241649405e-06,0.1961469434429744,7.217376528217483e-06,0.1961469434429744,-2.2492098897469357e-05,0.1961469434429744,-4.129234667742793e-05
0.1969410606229055,-6.881409903605075e-06,0.1969410606229055,1.124569495180254e-05,0.1969410606229055,-2.0309659025021768e-05,0.1969410606229055,-1.1580254372301705e-05
0.1977351778028366,-1.5115420896333782e-06,0.1977351778028366,8.558430650665246e-06,0.1977351778028366,-1.8462610680808036e-05,0.1977351778028366,6.041780674090041e-06
0.1985292949827676,-5.538780878704169e-06,0.1985292949827676,1.6473499901505217e-07,0.1985292949827676,-1.4935485991223054e-05,0.1985292949827676,2.516618958621328e-06
0.1993234121626987,-4.868126445237836e-06,0.1993234121626987,-8.21840446484319e-06,0.1993234121626987,-6.552325550684588e-06,0.1993234121626987,-5.013140053027546e-07
0.2001175293426297,-7.719378573593865e-06,0.2001175293426297,-1.2586113109417145e-05,0.2001175293426297,-5.53962697019014e-06,0.2001175293426297,-2.1810450445457817e-06
0.2009116465225608,-6.882193622091698e-06,0.2009116465225608,-1.795750881861313e-05,0.2009116465225608,-1.057225828080538e-05,0.2009116465225608,-8.893021036621983e-06
0.2017057637024919,-1.158020132707502e-05,0.2017057637024919,-2.0476850722624628e-05,0.2017057637024919,-8.560909430828414e-06,0.2017057637024919,-9.567210188731847e-06
0.202499880882423,-9.56771217308875e-06,0.202499880882423,-2.2323623014127887e-05,0.202499880882423,-1.594459202800733e-05,0.202499880882423,-5.5396343461774985e-06
0.203293998062354,-1.023879836156662e-05,0.203293998062354,-2.198830081898485e-05,0.203293998062354,-4.3472932823474965e-05,0.203293998062354,-2.4673753304270453e-05
0.2040881152422851,-9.567020209661711e-06,0.2040881152422851,-2.232380256656672e-05,0.2040881152422851,-7.838789001225036e-05,0.2040881152422851,-5.656734384032922e-05
0.2048822324222162,-6.881033865516886e-06,0.2048822324222162,-2.1651715595413363e-05,0.2048822324222162,-9.416408787023404e-05,0.2048822324222162,-7.13388480152888e-05
0.2056763496021472,-4.198591982467252e-06,0.2056763496021472,-1.863218574672335e-05,0.2056763496021472,-9.651344762445388e-05,0.2056763496021472,-8.140483325764551e-05
0.2064704667820783,-9.563807472407224e-06,0.2064704667820783,-2.0644149047122352e-05,0.2064704667820783,-9.684877484118704e-05,0.2064704667820783,-7.671025222338118e-05
0.2072645839620094,-6.883227188245765e-06,0.2072645839620094,-2.0309975899185693e-05,0.2072645839620094,-6.832955137838612e-05,0.2072645839620094,-5.523365749548658e-05
0.2080587011419405,-2.1838089762353275e-06,0.2080587011419405,-2.2323141901741025e-05,0.2080587011419405,-3.442186187901283e-05,0.2080587011419405,-1.696720450679298e-05
0.2088528183218715,-5.2026386872635655e-06,0.2088528183218715,-2.568013187219492e-05,0.2088528183218715,-8.23060137171011e-06,0.2088528183218715,4.278792737083233e-05
0.2096469355018026,-5.874665461656512e-06,0.2096469355018026,-2.5345227269577905e-05,0.2096469355018026,4.246178230917056e-05,0.2096469355018026,0.0001132922734373
0.2104410526817337,-1.5107736410847007e-06,0.2104410526817337,-2.50093218110024e-05,0.2104410526817337,0.0001079289155184,0.2104410526817337,0.0001596235967682
0.2112351698616647,-3.5249736336545605e-06,0.2112351698616647,-2.232346912042948e-05,0.2112351698616647,0.000136797215429,0.2112351698616647,0.0001384630729496
0.2120292870415958,-4.197987499727325e-06,0.2120292870415958,-2.030907275574545e-05,0.2120292870415958,0.0001377964852871,0.2120292870415958,7.802202242850184e-05
0.2128234042215269,-9.060212164567376e-06,0.2128234042215269,-1.8297109455346524e-05,0.2128234042215269,0.0001170065974054,0.2128234042215269,8.971081956552363e-07
0.2136175214014579,-6.212139965017306e-06,0.2136175214014579,-1.7624604699069412e-05,0.2136175214014579,8.092505254484238e-05,0.2136175214014579,-5.921457958639106e-05
0.214411638581389,-2.1838736668814737e-06,0.214411638581389,-1.4939822450656813e-05,0.214411638581389,5.523408961612769e-05,0.214411638581389,-5.757306403166051e-05
0.2152057557613201,1.1739073748568977e-06,0.2152057557613201,-1.3931809789388565e-05,0.2152057557613201,4.599353972068156e-05,0.2152057557613201,-3.911457944136312e-05
0.2159998729412512,-4.363193626006576e-06,0.2159998729412512,-1.39315e-05,0.2159998729412512,3.306836820918512e-05,0.2159998729412512,-3.843760743985384e-05
0.2167939901211822,-9.567345261021984e-06,0.2167939901211822,-1.6281370762929807e-05,0.2167939901211822,1.594591301169579e-05,0.2167939901211822,-2.0981417188420103e-05
0.2175881073011133,-7.552267307740306e-06,0.2175881073011133,-1.5441895857604794e-05,0.2175881073011133,-5.541252953380896e-06,0.2175881073011133,-8.226061725953152e-06
0.2183822244810444,-5.028836356265628e-07,0.2183822244810444,-1.393074072255303e-05,0.2183822244810444,-2.1992191268643544e-05,0.2183822244810444,-1.896775927744697e-05
0.2191763416609755,1.8438874028035747e-06,0.2191763416609755,-1.124690989827206e-05,0.2191763416609755,-3.57591856731889e-05,0.2191763416609755,-2.165029166109243e-05
0.2199704588409065,-3.856645314974017e-06,0.2199704588409065,-1.3594200415404142e-05,0.2199704588409065,-5.269316017373648e-05,0.2199704588409065,-1.628505619336196e-05
0.2207645760208376,5.53401083428795e-06,0.2207645760208376,-1.2924758513362228e-05,0.2207645760208376,-6.260251195460606e-05,0.2207645760208376,-2.2320673433137823e-05
0.2215586932007686,6.881301149949834e-06,0.2215586932007686,-1.3595540573042932e-05,0.2215586932007686,-5.656753484261361e-05,0.2215586932007686,-3.843127375303037e-05
0.2223528103806997,2.1831623790867164e-06,0.2223528103806997,-1.1246461191931513e-05,0.2223528103806997,-5.136314262733615e-05,0.2223528103806997,-4.464641686183606e-05
0.2231469275606308,-4.195648088343584e-06,0.2231469275606308,-7.553556895982047e-06,0.2231469275606308,-5.69003946578516e-05,0.2231469275606308,-5.891379835394481e-05
0.2239410447405619,-1.6798141239764498e-07,0.2239410447405619,-5.539219160165577e-06,0.2239410447405619,-7.16722620645239e-05,0.2239410447405619,-5.740406897055547e-05
0.2247351619204929,-2.51842458923998e-06,0.2247351619204929,-8.896078459331858e-06,0.2247351619204929,-8.341699246048153e-05,0.2247351619204929,-5.152771469976912e-05
0.225529279100424,-5.877430637361161e-06,0.225529279100424,-9.23182785410359e-06,0.225529279100424,-6.326835745757675e-05,0.225529279100424,-4.178554312323418e-05
0.2263233962803551,-1.3589936644433022e-05,0.2263233962803551,-9.567155070836744e-06,0.2263233962803551,-3.241835340707998e-05,0.2263233962803551,-1.6300774540467885e-05
0.2271175134602862,-1.2253822828120509e-05,0.2271175134602862,-9.064168560545193e-06,0.2271175134602862,-8.239420838764424e-06,0.2271175134602862,3.680440474601355e-06
0.2279116306402172,-6.884318611936977e-06,0.2279116306402172,-9.734947672344908e-06,0.2279116306402172,-5.2047354651441495e-06,0.2279116306402172,1.3926737017215478e-05
0.2287057478201483,-4.197082961823476e-06,0.2287057478201483,-1.0909826830988767e-05,0.2287057478201483,-8.559243800102708e-06,0.2287057478201483,1.493828013812517e-05
0.2294998650000794,-7.552649227476741e-06,0.2294998650000794,-1.0238914154844702e-05,0.2294998650000794,-1.0083842352018912e-06,0.2294998650000794,2.769293107495317e-05
0.2302939821800104,-1.359566438449321e-05,0.2302939821800104,-8.896040136654602e-06,0.2302939821800104,-4.5318508911414e-06,0.2302939821800104,4.414403082323182e-05
0.2310880993599415,-8.560604061628532e-06,0.2310880993599415,-1.0238631965320004e-05,0.2310880993599415,-1.829652418510875e-05,0.2310880993599415,3.306314934005184e-05
0.2318822165398726,-1.0909467585243702e-05,0.2318822165398726,-8.895186033058267e-06,0.2318822165398726,-2.5679618296675905e-05,0.2318822165398726,7.885247928945721e-06
0.2326763337198036,-8.223059911390372e-06,0.2326763337198036,-5.8734517472094816e-06,0.2326763337198036,-2.0981622753728662e-05,0.2326763337198036,-5.541707427688326e-06
0.2334704508997347,-4.534480505116363e-06,0.2334704508997347,-2.8555267744017803e-06,0.2334704508997347,-2.198760440392813e-05,0.2334704508997347,-1.1912894578932226e-05
0.2342645680796658,-5.057393603269333e-07,0.2342645680796658,-5.04826294883995e-07,0.2342645680796658,-2.7020960841749804e-05,0.2342645680796658,-2.332479117239539e-05
0.2350586852595969,-4.530333155447701e-06,0.2350586852595969,-3.18807543537954e-06,0.2350586852595969,-2.8365967716104177e-05,0.2350586852595969,-3.205574015467714e-05
0.2358528024395279,-7.552468252545892e-06,0.2358528024395279,-6.880901199491332e-06,0.2358528024395279,-2.7695267055542727e-05,0.2358528024395279,-3.642221413897227e-05
0.236646919619459,-8.895874062737263e-06,0.236646919619459,-1.023846015633698e-05,0.236646919619459,-3.440842030862457e-05,0.236646919619459,-4.582184844219788e-05
0.2374410367993901,-2.853346648475158e-06,0.2374410367993901,-1.3931391089563255e-05,0.2374410367993901,-3.843746888273236e-05,0.2374410367993901,-4.8676261101098105e-05
0.2382351539793211,-8.391483476332207e-07,0.2382351539793211,-1.1581730203672848e-05,0.2382351539793211,-3.7769224868755503e-05,0.2382351539793211,-4.784103629446545e-05
0.2390292711592522,-3.3873225907156614e-07,0.2390292711592522,-1.22535725041571e-05,0.2390292711592522,-5.388194724999007e-05,0.2390292711592522,-6.865533803658249e-05
0.2398233883391833,-9.224865544697852e-06,0.2398233883391833,-1.3930208587822874e-05,0.2398233883391833,-6.075610524854301e-05,0.2398233883391833,-8.34097355728413e-05
0.2406175055191144,-5.541329697325735e-06,0.2406175055191144,-1.5608954677372197e-05,0.2406175055191144,-6.797440514383903e-05,0.2406175055191144,-7.268539006481797e-05
0.2414116226990454,8.362151062681521e-07,0.2414116226990454,-1.4938919042645938e-05,0.2414116226990454,-0.000101197207484,0.2414116226990454,-8.006059053089468e-05
0.2422057398789765,5.036579774651601e-07,0.2422057398789765,-1.5609780043759246e-05,0.2422057398789765,-0.0001218522361981,0.2422057398789765,-9.348760090794577e-05
0.2429998570589076,1.8460982617690737e-06,0.2429998570589076,-1.5274360434917786e-05,0.2429998570589076,-9.886733985487754e-05,0.2429998570589076,-7.838831955329765e-05
0.2437939742388386,-1.510531083496971e-06,0.2437939742388386,-1.1917408917151924e-05,0.2437939742388386,-0.0001010449292119,0.2437939742388386,-5.220194955054053e-05
0.2445880914187697,-4.868132467033609e-06,0.2445880914187697,-9.903138651487411e-06,0.2445880914187697,-0.0001129583231354,0.2445880914187697,-5.051757533196666e-05
0.2453822085987008,-9.231092639797164e-06,0.2453822085987008,-1.0238976389380006e-05,0.2453822085987008,-7.231962851223656e-05,0.2453822085987008,-6.862946409900494e-06
0.2461763257786318,-6.88319563817816e-06,0.2461763257786318,-1.0912125904923389e-05,0.2461763257786318,1.6642067838260804e-05,0.2461763257786318,6.49857629811343e-05
0.2469704429585629,-1.0236447827719132e-05,0.2469704429585629,-1.5606706939187717e-05,0.2469704429585629,7.75036080639934e-05,0.2469704429585629,0.0001333920157499
0.247764560138494,-9.232267909476165e-06,0.247764560138494,-2.215247358009521e-05,0.247764560138494,0.0001253564993414,0.247764560138494,0.000217318507082
0.2485586773184251,-2.5204685571957968e-06,0.2485586773184251,-2.0646113907792255e-05,0.2485586773184251,0.000183771261365,0.2485586773184251,0.0002270960436963
0.2493527944983561,-2.182126885266797e-06,0.2493527944983561,-1.7121512308242284e-05,0.2493527944983561,0.0002270887918782,0.2493527944983561,0.0001489022442412
0.2501469116782872,-4.196005948727131e-06,0.2501469116782872,-1.9302457271020845e-05,0.2501469116782872,0.0002185409521837,0.2501469116782872,9.148418543736092e-05
0.2509410288582183,-5.53903e-06,0.2509410288582183,-1.7624090189754624e-05,0.2509410288582183,0.0001754009019338,0.2509410288582183,2.265718418550537e-05
0.2517351460381494,-5.540326625643235e-06,0.2517351460381494,-1.4602467789612985e-05,0.2517351460381494,0.0001451844430093,0.2517351460381494,-4.381339253313074e-05
0.2525292632180804,-1.258769967527766e-05,0.2525292632180804,-1.2251499514571946e-05,0.2525292632180804,0.0001149622173415,0.2525292632180804,-6.932081085263519e-05
0.2533233803980115,-9.569764713574612e-06,0.2533233803980115,-7.724602066465052e-06,0.2533233803980115,7.03635976270474e-05,0.2533233803980115,-6.66382930077234e-05
0.2541174975779426,-4.199628739680451e-06,0.2541174975779426,-9.566241685212262e-06,0.2541174975779426,2.8057565048090693e-05,0.2541174975779426,-5.254572172488179e-05
0.2549116147578736,-6.880516974304599e-06,0.2549116147578736,-1.2587234095486189e-05,0.2549116147578736,-1.156238039646541e-05,0.2549116147578736,-4.783928030345781e-05
0.2557057319378047,-8.559743325297047e-06,0.2557057319378047,-1.158194000684743e-05,0.2557057319378047,-3.6414913198191e-05,0.2557057319378047,-3.776950003471333e-05
0.2564998491177358,-1.1245389662594627e-05,0.2564998491177358,-1.1078195679118408e-05,0.2564998491177358,-4.8002699171245767e-05,0.2564998491177358,-2.971083101791696e-05
0.2572939662976669,-6.21063373731047e-06,0.2572939662976669,-1.1581578628306371e-05,0.2572939662976669,-6.193580865988132e-05,0.2572939662976669,-3.9779872523681215e-05
0.2580880834775979,-8.398283481341071e-07,0.2580880834775979,-1.2924329412016043e-05,0.2580880834775979,-7.704378823177537e-05,0.2580880834775979,-5.589422352790373e-05
0.258882200657529,-6.376700519229044e-06,0.258882200657529,-1.225232130497052e-05,0.258882200657529,-8.644333318386866e-05,0.258882200657529,-5.992224240596143e-05
0.2596763178374601,-1.6892268732356657e-07,0.2596763178374601,-9.567141577269568e-06,0.2596763178374601,-9.013620790228694e-05,0.2596763178374601,-6.010174343448705e-05
0.2604704350173911,-2.851531431182992e-06,0.2604704350173911,-8.89648714380326e-06,0.2604704350173911,-9.315415285288532e-05,0.2604704350173911,-8.94427250652079e-05
0.2612645521973222,-4.195472688970075e-06,0.2612645521973222,-8.224988658334878e-06,0.2612645521973222,-9.365961597804967e-05,0.2612645521973222,-8.879267860193655e-05
0.2620586693772533,-6.88070171644552e-06,0.2620586693772533,-8.56017021403519e-06,0.2620586693772533,-9.28209494857321e-05,0.2620586693772533,-5.523637855484104e-05
0.2628527865571843,-9.063273424733692e-06,0.2628527865571843,-9.063724635856653e-06,0.2628527865571843,-9.147816097104892e-05,0.2628527865571843,-3.74351828395163e-05
0.2636469037371154,-4.532479441630531e-06,0.2636469037371154,-9.231689650220176e-06,0.2636469037371154,-9.41630744035228e-05,0.2636469037371154,-4.817139762621496e-05
0.2644410209170465,-1.5106930615944197e-06,0.2644410209170465,-1.0910235374571905e-05,0.2644410209170465,-8.67781e-05,0.2644410209170465,-4.884336598290174e-05
0.2652351380969776,-3.5241293616796838e-06,0.2652351380969776,-1.2252766452617772e-05,0.2652351380969776,-8.677996836166525e-05,0.2652351380969776,-2.09759451995532e-05
0.2660292552769086,5.009070502420726e-07,0.2660292552769086,-1.091041558857414e-05,0.2660292552769086,-9.752298699866908e-05,0.2660292552769086,9.219852689431834e-06
0.2668233724568397,-7.714577795255683e-06,0.2668233724568397,-1.1581070022040496e-05,0.2668233724568397,-0.0001055706404223,0.2668233724568397,-2.7665951362206184e-05
0.2676174896367708,-1.0237181666482191e-05,0.2676174896367708,-1.091063155903288e-05,0.2676174896367708,-8.8467604562506e-05,0.2676174896367708,-6.459826431746904e-05
0.2684116068167018,-1.02388e-05,0.2684116068167018,-1.2252335054744653e-05,0.2684116068167018,-5.792312745503982e-05,0.2684116068167018,-5.539487147387085e-05
0.2692057239966329,-2.184840620765132e-06,0.2692057239966329,-1.3930916534443837e-05,0.2692057239966329,-2.434976927636214e-05,0.2692057239966329,-3.324190171058023e-05
0.269999841176564,-3.860194252457034e-06,0.269999841176564,-1.258896859963461e-05,0.269999841176564,8.553729346957687e-06,0.269999841176564,-1.259282970938064e-05
0.270793958356495,-4.531894786587904e-06,0.270793958356495,-1.1917335213412097e-05,0.270793958356495,3.742888582904909e-05,0.270793958356495,1.3258744288879058e-05
0.2715880755364261,-4.867917426566319e-06,0.2715880755364261,-1.2589019364965556e-05,0.2715880755364261,5.555854711095178e-05,0.2715880755364261,7.285191736483938e-05
0.2723821927163572,-7.888747043028887e-06,0.2723821927163572,-1.5946514796991358e-05,0.2723821927163572,6.025537412932678e-05,0.2723821927163572,0.0001287341335587
0.2731763098962882,-7.219221147413626e-06,0.2731763098962882,-1.9303354290465294e-05,0.2731763098962882,4.983929199149301e-05,0.2731763098962882,0.0001045338833612
0.2739704270762193,-1.157845498715364e-05,0.2739704270762193,-2.0979990374130948e-05,0.2739704270762193,1.9324715046684982e-05,0.2739704270762193,1.1984070987642264e-05
0.2747645442561504,-7.220024915137197e-06,0.2747645442561504,-1.930366343331419e-05,0.2747645442561504,-3.51172734710596e-06,0.2747645442561504,-5.853893597299947e-05
0.2755586614360815,-8.419657146584145e-07,0.2755586614360815,-1.8967143143460257e-05,0.2755586614360815,-2.0973756552858705e-05,0.2755586614360815,-6.596155088651463e-05
0.2763527786160125,-3.358383998288732e-07,0.2763527786160125,-1.8295787200515355e-05,0.2763527786160125,-2.5008376824789988e-05,0.2763527786160125,-5.623221437959052e-05
0.2771468957959436,-1.6787102839628545e-07,0.2771468957959436,-1.6281664342330295e-05,0.2771468957959436,-1.628254547030735e-05,0.2771468957959436,-4.5824165768706535e-05
0.2779410129758747,-2.8534180554098763e-06,0.2779410129758747,-1.594570548614753e-05,0.2779410129758747,-1.091016708327824e-05,0.2779410129758747,-3.17231543743398e-05
0.2787351301558057,-1.511190291861871e-06,0.2787351301558057,-1.6281234911949666e-05,0.2787351301558057,-8.895294621727036e-06,0.2787351301558057,-1.0569492345532294e-05
0.2795292473357368,-4.865854510213218e-06,0.2795292473357368,-1.5274404441014912e-05,0.2795292473357368,-4.532869966023076e-06,0.2795292473357368,1.998266410100004e-05
0.2803233645156679,8.346842009015811e-07,0.2803233645156679,-1.560973165774807e-05,0.2803233645156679,-7.550804927726121e-06,0.2803233645156679,4.747929609521181e-05
0.2811174816955989,5.200481229290209e-06,0.2811174816955989,-1.3597114822071177e-05,0.2811174816955989,-1.040483731581588e-05,0.2811174816955989,4.146274440093589e-05
0.2819115988755301,-1.6513550966094775e-07,0.2819115988755301,-1.0240495938092583e-05,0.2819115988755301,-6.21253993777157e-06,0.2819115988755301,1.4616467454221236e-05
0.2827057160554611,-4.194789399514505e-06,0.2827057160554611,-1.225227969635993e-05,0.2827057160554611,-2.4667197259546235e-05,0.2827057160554611,-8.216446590931034e-06
0.2834998332353922,-6.881255942867715e-06,0.2834998332353922,-1.3259888477787776e-05,0.2834998332353922,-6.729854560168878e-05,0.2834998332353922,-2.2488803447928704e-05
0.2842939504153233,7.887987579506746e-06,0.2842939504153233,-9.567640605591682e-06,0.2842939504153233,-9.55044390133214e-05,0.2842939504153233,-4.4143047812127617e-05
0.2850880675952543,1.393152857900111e-05,0.2850880675952543,-9.90324289500555e-06,0.2850880675952543,-9.181181384744776e-05,0.2850880675952543,-5.001942865425614e-05
0.2858821847751854,1.4265090707481788e-05,0.2858821847751854,-1.1580818780290238e-05,0.2858821847751854,-7.200440950173489e-05,0.2858821847751854,-5.388256864374023e-05
0.2866763019551165,5.201544939344105e-06,0.2866763019551165,-8.224099984514574e-06,0.2866763019551165,-5.959147265003337e-05,0.2866763019551165,-6.663670998130183e-05
0.2874704191350475,5.069818850915624e-07,0.2874704191350475,-6.8828011064773e-06,0.2874704191350475,-7.266913421367295e-05,0.2874704191350475,-6.7977918959281e-05
0.2882645363149786,-1.6745691343539197e-07,0.2882645363149786,-6.88182e-06,0.2882645363149786,-6.328468917803331e-05,0.2882645363149786,-8.911554927642677e-05
0.2890586534949096,-4.530025495867546e-06,0.2890586534949096,-1.0237334999171058e-05,0.2890586534949096,-1.3617482054163144e-05,0.2890586534949096,-9.214788149139868e-05
0.2898527706748408,-6.209935214122731e-06,0.2898527706748408,-1.393043346471591e-05,0.2898527706748408,6.694863022590304e-05,0.2898527706748408,-6.23524106348784e-06
0.2906468878547718,-1.124518878456739e-05,0.2906468878547718,-1.1917584487302971e-05,0.2906468878547718,0.0001260466550532,0.2906468878547718,6.662591108209e-05
0.2914410050347029,-1.3260117029216682e-05,0.2914410050347029,-7.888912128652087e-06,0.2914410050347029,0.0001466999393362,0.2914410050347029,8.778519361404374e-05
0.292235122214634,-1.5945389968871862e-05,0.292235122214634,-8.22461e-06,0.292235122214634,0.0001371290212517,0.292235122214634,8.677463800112809e-05
0.293029239394565,-1.3931904350971024e-05,0.293029239394565,-8.22461e-06,0.293029239394565,0.0001112765195672,0.293029239394565,6.427861736166309e-05
0.2938233565744961,-1.527321321790364e-05,0.2938233565744961,-8.22461e-06,0.2938233565744961,8.64625053069146e-05,0.2938233565744961,3.87938487788968e-05
0.2946174737544272,-1.6280732516478145e-05,0.2946174737544272,-8.22461e-06,0.2946174737544272,6.832661470339337e-05,0.2946174737544272,1.9315604615144725e-05
0.2954115909343582,-1.896561638956237e-05,0.2954115909343582,-1.0908816394714326e-05,0.2954115909343582,6.227521307196507e-05,0.2954115909343582,6.552692139274836e-06
0.2962057081142893,-2.2658242547638064e-05,0.2962057081142893,-1.2252506367591504e-05,0.2962057081142893,3.072800032483821e-05,0.2962057081142893,-1.5601855094668977e-05
0.2969998252942204,-2.333085227020101e-05,0.2969998252942204,-1.124612159469849e-05,0.2969998252942204,-3.2045387329803934e-05,0.2969998252942204,-2.6014310210118865e-05
0.2977939424741515,-1.829596481820867e-05,0.2977939424741515,-8.560504572850821e-06,0.2977939424741515,-8.425651799424225e-05,0.2977939424741515,-3.541551899248636e-05
0.2985880596540825,-1.8631085613445297e-05,0.2985880596540825,-6.210445221505665e-06,0.2985880596540825,-9.684834424836582e-05,0.2985880596540825,-3.5079415482769534e-05
0.2993821768340136,-1.5777762628781497e-05,0.2993821768340136,-6.546643350730914e-06,0.2993821768340136,-8.811484408089965e-05,0.2993821768340136,-2.0642135594808253e-05
0.3001762940139447,-1.560962754535384e-05,0.3001762940139447,-8.897748117983794e-06,0.3001762940139447,-6.092222339870583e-05,0.3001762940139447,-5.536546980120461e-06
0.3009704111938757,-1.4603645895154376e-05,0.3009704111938757,-1.3592319163352612e-05,0.3009704111938757,-4.180867193386947e-05,0.3009704111938757,1.1699673878565936e-06
0.3017645283738068,-1.762240538511644e-05,0.3017645283738068,-1.35958e-05,0.3017645283738068,-4.045249760661492e-05,0.3017645283738068,-8.380495983934542e-07
0.3025586455537379,-1.62819994338045e-05,0.3025586455537379,-1.0911398867609e-05,0.3025586455537379,-4.917590372491134e-05,0.3025586455537379,-2.634091082288976e-05
0.3033527627336689,-1.443555174880807e-05,0.3033527627336689,-1.4266196847514788e-05,0.3033527627336689,-4.985099936950296e-05,0.3033527627336689,-5.303242495268378e-05
0.3041468799136,-1.4938523834368974e-05,0.3041468799136,-1.7288043051586535e-05,0.3041468799136,-4.280266619784052e-05,0.3041468799136,-6.596274529891764e-05
0.3049409970935311,-7.553247034480197e-06,0.3049409970935311,-1.4602909830746694e-05,0.3049409970935311,-3.038074546720346e-05,0.3049409970935311,-7.402147050775991e-05
0.3057351142734621,-9.2315650569222e-06,0.3057351142734621,-1.3092707307968367e-05,0.3057351142734621,-1.963738539845539e-05,0.3057351142734621,-6.394847416819224e-05
0.3065292314533932,-8.224267932264352e-06,0.3065292314533932,-1.6617442056090196e-05,0.3065292314533932,-1.2587233988764105e-05,0.3065292314533932,-4.917647705711409e-05
0.3073233486333243,-7.050632662593574e-06,0.3073233486333243,-1.779103737017959e-05,0.3073233486333243,-7.557345715557124e-06,0.3073233486333243,-3.777545157713949e-05
0.3081174658132554,-1.3591395899402348e-05,0.3081174658132554,-1.963715778034602e-05,0.3081174658132554,-9.566054894711413e-06,0.3081174658132554,-2.635997896809282e-05
0.3089115829931864,-1.1247134161601048e-05,0.3089115829931864,-1.661868677920135e-05,0.3089115829931864,-1.7955492285248234e-05,0.3089115829931864,-6.892045847384978e-06
0.3097057001731175,-1.0574753531195045e-05,0.3097057001731175,-1.3932514124780178e-05,0.3097057001731175,-2.366454502260369e-05,0.3097057001731175,3.1853370471789595e-06
0.3104998173530486,-7.553914996953798e-06,0.3104998173530486,-1.2589008889579767e-05,0.3104998173530486,-3.105040110731128e-05,0.3104998173530486,-1.8961903335735875e-05
0.3112939345329796,-1.3595301776186537e-05,0.3112939345329796,-9.90332143353889e-06,0.3112939345329796,-3.9779580340998605e-05,0.3112939345329796,-4.984865353079318e-05
0.3120880517129107,-1.0238581361199931e-05,0.3120880517129107,-7.55311067994867e-06,0.3120880517129107,-5.018657203984601e-05,0.3120880517129107,-6.277482383089203e-05
0.3128821688928418,-6.88171288918073e-06,0.3128821688928418,-5.874505780488575e-06,0.3128821688928418,-4.514882936160868e-05,0.3128821688928418,-5.085437262456459e-05
0.3136762860727728,-6.37820960086173e-06,0.3136762860727728,-4.867992391231219e-06,0.3136762860727728,-3.306509201723461e-05,0.3136762860727728,-3.238982650836934e-05
0.314470403252704,-6.210545992495142e-06,0.314470403252704,-5.873964052535408e-06,0.314470403252704,-2.9711819849902825e-05,0.314470403252704,-1.830618329452932e-05
0.315264520432635,-5.203938271407562e-06,0.315264520432635,-8.422873715335465e-07,0.315264520432635,-3.440626137191189e-05,0.315264520432635,-3.869248625293814e-06
0.3160586376125661,-8.223231065609223e-06,0.3160586376125661,-5.03356480797068e-06,0.3160586376125661,-5.655508779316863e-05,0.3160586376125661,8.890187821415655e-06
0.3168527547924971,-6.546638360631577e-06,0.3168527547924971,-1.1579578390757418e-05,0.3168527547924971,-6.59617971940515e-05,0.3168527547924971,9.231606327256034e-06
0.3176468719724282,-1.5114519398955638e-06,0.3176468719724282,-1.527370457504501e-05,0.3176468719724282,-5.388154864736468e-05,0.3176468719724282,2.6517412338294453e-05
0.3184409891523593,-1.678673452320768e-07,0.3184409891523593,-1.829555872295117e-05,0.3184409891523593,-3.038102104234691e-05,0.3184409891523593,4.548684087390944e-05
0.3192351063322903,-3.5246052170200894e-06,0.3192351063322903,-1.89674046117744e-05,0.3192351063322903,5.2062971356026605e-06,0.3192351063322903,4.682715764469885e-05
0.3200292235122214,-1.846104049815431e-06,0.3200292235122214,-2.1988771877877343e-05,0.3200292235122214,2.7359211237603168e-05,0.3200292235122214,2.6344277643118105e-05
0.3208233406921525,-1.0077959968778895e-06,0.3208233406921525,-2.3665308072589667e-05,0.3208233406921525,2.668855680413685e-05,0.3208233406921525,-2.158375956874504e-06
0.3216174578720835,1.1734501450896658e-06,0.3216174578720835,-2.031209202670368e-05,0.3216174578720835,1.3940209892652596e-05,0.3216174578720835,-2.298108910670242e-05
0.3224115750520147,2.8525416685222587e-06,0.3224115750520147,-1.980646952620327e-05,0.3224115750520147,-1.5023753825167209e-06,0.3224115750520147,-5.923139609360069e-05
0.3232056922319457,-1.66677896427079e-07,0.3232056922319457,-1.762504578072343e-05,0.3232056922319457,-2.8356090206828987e-05,0.3232056922319457,-9.750556604492512e-05
0.3239998094118768,4.530801886575321e-06,0.3239998094118768,-1.628172231956155e-05,0.3239998094118768,-5.588719247299177e-05,0.3239998094118768,-0.0001367875722248
0.3247939265918079,1.8465882925777312e-06,0.3247939265918079,-1.2924710366877834e-05,0.3247939265918079,-5.320844829350227e-05,0.3247939265918079,-0.0001592869205326
0.3255880437717389,3.1893898368475127e-06,0.3255880437717389,-1.2253e-05,0.3255880437717389,-4.3472694639749055e-05,0.3255880437717389,-0.0001190015207972
0.32638216095167,7.719198640879873e-06,0.32638216095167,-1.2252455604287892e-05,0.32638216095167,-3.793019132080814e-05,0.32638216095167,-5.587791046193537e-05
0.3271762781316011,-1.512519113073092e-06,0.3271762781316011,-9.566705333472216e-06,0.3271762781316011,-1.9629239317646285e-05,0.3271762781316011,2.2520984996126185e-05
0.3279703953115321,-6.877734603012874e-06,0.3279703953115321,-7.554752021968636e-06,0.3279703953115321,6.526203676377008e-06,0.3279703953115321,0.0001058495486319
0.3287645124914632,-6.210832233289146e-06,0.3287645124914632,-5.875750583222865e-06,0.3287645124914632,-2.176680991800728e-06,0.3287645124914632,0.000140468770047
0.3295586296713942,-4.197169435987867e-06,0.3295586296713942,-8.391285703849144e-06,0.3295586296713942,-1.0235042256048532e-05,0.3295586296713942,0.0001549182673886
0.3303527468513254,-4.19623e-06,0.3303527468513254,-1.1916176185674691e-05,0.3303527468513254,2.5333854858390208e-05,0.3303527468513254,0.000105592733477
0.3311468640312564,-4.19623e-06,0.3311468640312564,-1.1246014974073616e-05,0.3311468640312564,4.951136095047434e-05,0.3311468640312564,2.670150936802729e-05
0.3319409812111875,-8.224514674462819e-06,0.3319409812111875,-9.567449718934386e-06,0.3319409812111875,5.606144509641619e-05,0.3319409812111875,-1.5105410998557445e-05
0.3327350983911186,-7.553427995602815e-06,0.3327350983911186,-1.0238716802502383e-05,0.3327350983911186,5.32080752018948e-05,0.3327350983911186,-2.970676245215864e-05
0.3335292155710496,-9.230162530677147e-06,0.3335292155710496,-9.566909349117283e-06,0.3335292155710496,5.219927944147526e-05,0.3335292155710496,-9.218875113920757e-06
0.3343233327509807,-3.5296198240042114e-06,0.3343233327509807,-7.722619645980278e-06,0.3343233327509807,4.549273510681218e-05,0.3343233327509807,3.806207265644248e-05
0.3351174499309118,-8.221354075945279e-06,0.3351174499309118,-8.89519602245023e-06,0.3351174499309118,3.0391165445433667e-05,0.3351174499309118,5.890068091567517e-05
0.3359115671108428,-1.2250803719960078e-05,0.3359115671108428,-9.567043952418013e-06,0.3359115671108428,4.54602276103046e-06,0.3359115671108428,3.0396256967714422e-05
0.3367056842907739,-9.904034364118891e-06,0.3367056842907739,-1.1580799120445708e-05,0.3367056842907739,1.2921062997218226e-05,0.3367056842907739,1.6958139183774667e-05
0.337499801470705,-7.218191494085737e-06,0.337499801470705,-8.393257402664822e-06,0.337499801470705,2.903387103048484e-05,0.337499801470705,2.702118190342941e-05
0.338293918650636,-7.88884121265814e-06,0.338293918650636,-1.0909942044650509e-05,0.338293918650636,3.910786817450384e-05,0.338293918650636,1.057618530473156e-05
0.3390880358305671,-7.888652468024428e-06,0.3390880358305671,-1.8295721192155e-05,0.3390880358305671,4.12896350636512e-05,0.3390880358305671,-9.568515873450435e-06
0.3398821530104982,-2.182169384443957e-06,0.3398821530104982,-2.098068246222417e-05,0.3398821530104982,1.325485994929056e-05,0.3398821530104982,-3.407695805293799e-05
0.3406762701904293,-2.8541815928608386e-06,0.3406762701904293,-1.829491544960665e-05,0.3406762701904293,-1.3936634093963897e-05,0.3406762701904293,-5.253554499094553e-05
0.3414703873703603,-5.033798512730846e-06,0.3414703873703603,-1.6282952149207864e-05,0.3414703873703603,-2.9026258958001343e-05,0.3414703873703603,-4.8846945606881087e-05
0.3422645045502914,2.5130268505698754e-06,0.3422645045502914,-1.62814e-05,0.3422645045502914,-4.614781688125946e-05,0.3422645045502914,-3.995365103351026e-05
0.3430586217302225,3.188820138125171e-06,0.3430586217302225,-1.7623560276250342e-05,0.3430586217302225,-6.125780310781635e-05,0.3430586217302225,-2.7700937455395117e-05
0.3438527389101535,-1.8446841905540584e-06,0.3438527389101535,-1.6617431163204502e-05,0.3438527389101535,-6.260735844906065e-05,0.3438527389101535,-3.642042991889432e-05
0.3446468560900846,-7.55218564657702e-06,0.3446468560900846,-1.628146084453223e-05,0.3446468560900846,-6.478940451960284e-05,0.3446468560900846,-5.186260116964208e-05
0.3454409732700157,2.853089660128184e-06,0.3454409732700157,-1.3260201711966635e-05,0.3454409732700157,-6.999292483107404e-05,0.3454409732700157,-5.690073048005561e-05
0.3462350904499467,1.8454986822125145e-06,0.3462350904499467,-1.2253e-05,0.3462350904499467,-6.932120286704328e-05,0.3462350904499467,-5.320797054876228e-05
0.3470292076298778,-5.538679301383683e-06,0.3470292076298778,-1.225374522150119e-05,0.3470292076298778,-6.495997951488909e-05,0.3470292076298778,-5.119522744515711e-05
0.3478233248098089,-4.197370434451065e-06,0.3478233248098089,-1.510397661925628e-05,0.3478233248098089,-7.367838726099767e-05,0.3478233248098089,-5.588980847942127e-05
0.34861744198974,1.1711652292591962e-06,0.34861744198974,-1.5609646078127286e-05,0.34861744198974,-8.911704754378347e-05,0.34861744198974,-6.46158659632855e-05
0.349411559169671,-2.851203435666767e-06,0.349411559169671,-1.2422570649981267e-05,0.349411559169671,-0.0001069101217918,0.349411559169671,-7.099665881107786e-05
0.3502056763496021,-2.85344e-06,0.3502056763496021,-8.226320451590733e-06,0.3502056763496021,-0.0001035643683808,0.3502056763496021,-7.55303526654872e-05
0.3509997935295332,1.1738924666259898e-06,0.3509997935295332,-6.8821691769245415e-06,0.3509997935295332,-7.302234380818822e-05,0.3509997935295332,-7.56999563655613e-05
0.3517939107094642,-5.033592429562238e-07,0.3517939107094642,-8.895783491052659e-06,0.3517939107094642,-4.146234863530188e-05,0.3517939107094642,-6.328059680086443e-05
0.3525880278893953,-5.203200293587771e-06,0.3525880278893953,-8.89601e-06,0.3525880278893953,-2.601663537457186e-05,0.3525880278893953,-5.387898684426697e-05
0.3533821450693264,-1.5112533454384978e-06,0.3533821450693264,-8.896071334726557e-06,0.3533821450693264,-2.7023209322187545e-05,0.3533821450693264,-3.641974260413041e-05
0.3541762622492574,-4.870287713144856e-06,0.3541762622492574,-9.232485165921576e-06,0.3541762622492574,-2.433234163966251e-05,0.3541762622492574,-1.6946100346258473e-05
0.3549703794291886,-1.2918110948055089e-05,0.3549703794291886,-1.1579765694158474e-05,0.3549703794291886,-6.895446236281397e-06,0.3549703794291886,3.341126343831377e-06
0.3557644966091196,-1.29244e-05,0.3557644966091196,-1.3594523010187356e-05,0.3557644966091196,3.40474346545951e-05,0.3557644966091196,1.0569924138857835e-05
0.3565586137890507,-8.226896033195922e-06,0.3565586137890507,-1.309244495696988e-05,0.3565586137890507,2.702712905709006e-05,0.3565586137890507,7.2191528746003645e-06
0.3573527309689818,-9.063575636924418e-06,0.3573527309689818,-1.493797438429222e-05,0.3573527309689818,-1.0226174347210168e-05,0.3573527309689818,-2.1642817937306387e-05
0.3581468481489128,-5.5397041174653846e-06,0.3581468481489128,-1.3931692606082955e-05,0.3581468481489128,-1.963660234322574e-05,0.3581468481489128,-4.984580706792686e-05
0.3589409653288439,-6.881761365136377e-06,0.3589409653288439,-1.3763607331595856e-05,0.3589409653288439,6.5449766151377085e-06,0.3589409653288439,-4.129127379785601e-05
0.3597350825087749,-6.882064189603406e-06,0.3597350825087749,-1.4266886040602423e-05,0.3597350825087749,4.54891232938955e-05,0.3597350825087749,1.0580360554638372e-05
0.360529199688706,-9.232215925779724e-06,0.360529199688706,-1.1245984321381922e-05,0.360529199688706,6.496208468674186e-05,0.360529199688706,6.69774651609707e-05
0.3613233168686371,-1.1244169237283304e-05,0.3613233168686371,-1.1581311538115077e-05,0.3613233168686371,8.239900006791245e-05,0.3613233168686371,8.910886168745198e-05
0.3621174340485681,-8.394493889740103e-06,0.3621174340485681,-1.6278050052217486e-05,0.3621174340485681,9.49937269612218e-05,0.3621174340485681,6.430400672429338e-05
0.3629115512284993,-5.037377376514545e-06,0.3629115512284993,-2.0307523134617663e-05,0.3629115512284993,7.772397151900568e-05,0.3629115512284993,4.281374322551878e-05
0.3637056684084303,-8.55883795477023e-06,0.3637056684084303,-1.628308234695109e-05,0.3637056684084303,5.154063521341992e-05,0.3637056684084303,5.622389221859187e-05
0.3644997855883614,-9.56713804286997e-06,0.3644997855883614,-1.1582869133273478e-05,0.3644997855883614,3.105762976797331e-05,0.3644997855883614,6.730450849857364e-05
0.3652939027682925,-9.735239445412964e-06,0.3652939027682925,-1.359555334495556e-05,0.3652939027682925,1.729018546389119e-05,0.3652939027682925,6.797881778165185e-05
0.3660880199482235,-1.2924357829857462e-05,0.3660880199482235,-1.3092132530284311e-05,0.3660880199482235,-6.882494719265741e-06,0.3660880199482235,4.397554274203545e-05
0.3668821371281546,-1.12459e-05,0.3668821371281546,-1.0406352129705111e-05,0.3668821371281546,-3.374025098089835e-05,0.3668821371281546,5.869849943673645e-06
0.3676762543080857,-1.1246436925939433e-05,0.3676762543080857,-8.392245232823071e-06,0.3676762543080857,-4.851172894082448e-05,0.3676762543080857,-2.2328839718642785e-05
0.3684703714880167,-1.2923073009605204e-05,0.3684703714880167,-7.721600788252106e-06,0.3684703714880167,-5.8906872659552274e-05,0.3684703714880167,-3.775389168836789e-05
0.3692644886679478,-2.85992564816678e-06,0.3692644886679478,-3.5275323576961256e-06,0.3692644886679478,-7.166338487742584e-05,0.3692644886679478,-6.192083444697571e-05
0.3700586058478789,-1.1757732296414106e-06,0.3700586058478789,-2.686006609856573e-06,0.3700586058478789,-6.59675329807808e-05,0.3700586058478789,-9.4818468798311e-05
0.3708527230278099,-1.846105794548644e-06,0.3708527230278099,-3.5245372466741197e-06,0.3708527230278099,-4.851448930685212e-05,0.3708527230278099,-0.0001025533066024
0.371646840207741,-8.894591256052437e-06,0.371646840207741,-4.196094880953804e-06,0.371646840207741,-3.239814283698372e-05,0.371646840207741,-9.2151294365341e-05
0.3724409573876721,-6.21056413002746e-06,0.3724409573876721,-4.19623e-06,0.3724409573876721,-2.5681260326410348e-05,0.3724409573876721,-5.455301781716437e-05
0.3732350745676032,-1.5111129013533723e-06,0.3732350745676032,-9.56756763347141e-06,0.3732350745676032,-2.568080541935367e-05,0.3732350745676032,-1.359403450117581e-05
0.3740291917475342,-6.545715161863213e-06,0.3740291917475342,-1.1245333225643732e-05,0.3740291917475342,-2.4674083400443687e-05,0.3740291917475342,5.206811621483112e-06
0.3748233089274653,-4.869089067092786e-06,0.3748233089274653,-8.898052697406994e-06,0.3748233089274653,-2.584777860348645e-05,0.3748233089274653,1.962585197432272e-05
0.3756174261073964,-3.525800557919549e-06,0.3756174261073964,-1.3592403054509444e-05,0.3756174261073964,-3.2725625926801644e-05,0.3756174261073964,2.919888481096255e-05
0.3764115432873274,-4.866857614890773e-06,0.3764115432873274,-1.560884142233616e-05,0.3764115432873274,-3.239509309627731e-05,0.3764115432873274,7.733428121483294e-06
0.3772056604672585,-2.8543013141719865e-06,0.3772056604672585,-1.5777728244843804e-05,0.3772056604672585,-3.172378710614941e-05,0.3772056604672585,-1.0902232838563832e-05
0.3779997776471896,-4.867065943567819e-06,0.3779997776471896,-1.426762303042238e-05,0.3779997776471896,-3.507955990127901e-05,0.3779997776471896,-2.248855667341465e-05
0.3787938948271206,-9.063304169280208e-06,0.3787938948271206,-1.191761126668663e-05,0.3787938948271206,-3.239525573335615e-05,0.3787938948271206,-4.044932103980373e-05
0.3795880120070517,-4.196191926153083e-06,0.3795880120070517,-1.1413692385956483e-05,0.3795880120070517,-3.10521e-05,0.3795880120070517,-4.783684770551967e-05
0.3803821291869828,-1.6784626901321554e-06,0.3803821291869828,-1.0910036140792931e-05,0.3803821291869828,-3.10546124915713e-05,0.3803821291869828,-3.776448872593237e-05
0.3811762463669139,-1.5113682203109854e-06,0.3811762463669139,-9.902787907351838e-06,0.3811762463669139,-4.6504811224412434e-05,0.3811762463669139,-2.7863676191957317e-05
0.3819703635468449,-3.858648748547722e-06,0.3819703635468449,-8.89681624604772e-06,0.3819703635468449,-8.070808744224075e-05,0.3819703635468449,-3.004325315624609e-05
0.382764480726776,-2.854098633338959e-06,0.382764480726776,-8.89601e-06,0.382764480726776,-0.0001082449971112,0.382764480726776,-4.3799698588321365e-05
0.3835585979067071,5.018479718399344e-07,0.3835585979067071,-1.2586829967403402e-05,0.3835585979067071,-0.0001205097949003,0.3835585979067071,-5.588767992738812e-05
0.3843527150866381,3.5237458644688795e-06,0.3843527150866381,-1.460217723867326e-05,0.3843527150866381,-8.36021506602069e-05,0.3843527150866381,-4.6665412638139256e-05
0.3851468322665692,-5.537115248950012e-06,0.3851468322665692,-1.393164183403704e-05,0.3851468322665692,-3.811140920319665e-05,0.3851468322665692,-3.3908194846703755e-05
0.3859409494465003,-7.553091757741198e-06,0.3859409494465003,-1.225310686907958e-05,0.3859409494465003,5.53625141475472e-06,0.3859409494465003,-1.896795112525785e-05
0.3867350666264313,-3.0219660661190708e-06,0.3867350666264313,-1.0909974645745807e-05,0.3867350666264313,4.548848029994656e-05,0.3867350666264313,-4.195722953557411e-06
0.3875291838063624,-1.107775072398286e-05,0.3875291838063624,-8.224338350380568e-06,0.3875291838063624,6.193942695554456e-05,0.3875291838063624,1.8509968810054995e-06
0.3883233009862935,-9.568738293102178e-06,0.3883233009862935,-7.050703080709791e-06,0.3883233009862935,7.501708851918504e-05,0.3883233009862935,2.1970589929414795e-05
0.3891174181662246,-5.877425959400779e-06,0.3891174181662246,-4.869228973011782e-06,0.3891174181662246,9.649755626685752e-05,0.3891174181662246,7.029337665538852e-05
0.3899115353461556,-6.545727092454542e-06,0.3899115353461556,-6.88064128321569e-06,0.3899115353461556,0.0001005396423791,0.3899115353461556,7.099980709245454e-05
0.3907056525260867,-3.861705280184754e-06,0.3907056525260867,-1.0908437081910991e-05,0.3907056525260867,6.698659110077496e-05,0.3907056525260867,9.594294498669256e-06
0.3914997697060178,-6.880943696592526e-06,0.3914997697060178,-1.560863685685438e-05,0.3914997697060178,5.153417889890705e-05,0.3914997697060178,-3.305393439942997e-05
0.3922938868859488,-9.902669585364755e-06,0.3922938868859488,-1.3092558688360106e-05,0.3922938868859488,4.347414776571248e-05,0.3922938868859488,-2.803151736247411e-05
0.3930880040658799,-8.895993669193406e-06,0.3930880040658799,-1.2252997421187466e-05,0.3930880040658799,1.3931377948837989e-05,0.3930880040658799,-3.3737751571129895e-05
0.393882121245811,-5.706331749531493e-06,0.393882121245811,-1.174973321219671e-05,0.393882121245811,-9.90566309674193e-06,0.393882121245811,-4.380818737759756e-05
0.394676238425742,-2.183248137724167e-06,0.394676238425742,-1.3932204750504676e-05,0.394676238425742,-2.6692530538958626e-05,0.394676238425742,-4.04484782834072e-05
0.3954703556056732,-6.207154760731613e-06,0.3954703556056732,-1.627949526763692e-05,0.3954703556056732,-4.178225529195163e-05,0.3954703556056732,-2.971800734794551e-05
0.3962644727856042,-2.184714836180802e-06,0.3962644727856042,-1.7958785479391348e-05,0.3962644727856042,-3.7936463430599794e-05,0.3962644727856042,-1.3606499331443248e-05
0.3970585899655353,-8.557016158028643e-06,0.3970585899655353,-1.93020065563234e-05,0.3970585899655353,-3.239776042934516e-05,0.3970585899655353,-1.1750353510876131e-05
0.3978527071454664,-1.107717135237253e-05,0.3978527071454664,-1.829597145314964e-05,0.3978527071454664,-3.373720472913382e-05,0.3978527071454664,-2.6346913947771977e-05
0.3986468243253974,-4.8690040829329785e-06,0.3986468243253974,-1.7624348549027882e-05,0.3986468243253974,-3.4744577176458176e-05,0.3986468243253974,-5.521601241392626e-05
0.3994409415053285,-1.681952369593144e-07,0.3994409415053285,-1.846333817540514e-05,0.3994409415053285,-3.03810215070477e-05,0.3994409415053285,-0.000101545587079
0.4002350586852595,-3.0212775940543905e-06,0.4002350586852595,-1.5777837221532375e-05,0.4002350586852595,-4.2634394732954126e-05,0.4002350586852595,-0.0001116181887245
0.4010291758651906,-2.8538855671802767e-06,0.4010291758651906,-1.62814e-05,0.4010291758651906,-5.203207467311015e-05,0.4010291758651906,-8.710707933939175e-05
0.4018232930451217,-4.865838878683859e-06,0.4018232930451217,-1.62814e-05,0.4018232930451217,-4.649912565253637e-05,0.4018232930451217,-5.676001616951798e-05
0.4026174102250527,-8.422382417644247e-07,0.4026174102250527,-1.7287751936587735e-05,0.4026174102250527,-5.857042323905282e-05,0.4026174102250527,-3.17420767966528e-05
0.4034115274049838,-1.510240381034945e-06,0.4034115274049838,-1.9637001321122945e-05,0.4034115274049838,-5.119839584789932e-05,0.4034115274049838,1.0549323899254548e-05
0.4042056445849149,8.381941298077716e-07,0.4042056445849149,-2.1148323816086234e-05,0.4042056445849149,-2.4685671132417464e-05,0.4042056445849149,6.224895880742735e-05
0.404999761764846,5.036487242629015e-07,0.404999761764846,-1.9638853246881245e-05,0.404999761764846,3.851968437653371e-06,0.404999761764846,9.633527647141314e-05
0.4057938789447771,1.1748376378989745e-06,0.4057938789447771,-2.0645346455018916e-05,0.4057938789447771,2.7691466121934368e-05,0.4057938789447771,0.000105911541315
0.4065879961247081,-2.349872796290901e-06,0.4065879961247081,-2.098119836154222e-05,0.4065879961247081,3.541616231547101e-05,0.4065879961247081,7.083257121859421e-05
0.4073821133046392,-8.3934180863339e-07,0.4073821133046392,-2.165212095255202e-05,0.4073821133046392,2.366564610988455e-05,0.4073821133046392,5.589720122261056e-05
0.4081762304845703,-1.511807901557515e-06,0.4081762304845703,-1.8294237444800527e-05,0.4081762304845703,1.6281691976114174e-05,0.4081762304845703,7.972479896125853e-05
0.4089703476645013,-5.535724513460024e-06,0.4089703476645013,-1.3599656410536362e-05,0.4089703476645013,1.7287673626313637e-05,0.4089703476645013,6.731769194213183e-05
0.4097644648444324,-3.5261875697030538e-06,0.4097644648444324,-1.057653635455458e-05,0.4097644648444324,1.5275657569703053e-05,0.4097644648444324,2.403158761381576e-05
0.4105585820243635,-8.406597388938909e-07,0.4105585820243635,-1.3594209534268854e-05,0.4105585820243635,-8.307635445271116e-07,0.4105585820243635,-7.536608563785442e-06
0.4113526992042945,-2.18153130142505e-06,0.4113526992042945,-1.35958e-05,0.4113526992042945,-2.164471515428299e-05,0.4113526992042945,-2.3660595635284727e-05
0.4121468163842256,-7.384166708479578e-06,0.4121468163842256,-1.225331052803755e-05,0.4121468163842256,-3.2895799362373646e-05,0.4121468163842256,-3.3735371039718374e-05
0.4129409335641567,-4.19649684282772e-06,0.4129409335641567,-9.567634709617545e-06,0.4129409335641567,-3.74300207969248e-05,0.4129409335641567,-4.313651351341006e-05
0.4137350507440878,1.6777712809362756e-06,0.4137350507440878,-4.867823088283984e-06,0.4137350507440878,-3.642289236647986e-05,0.4137350507440878,-4.447958164247743e-05
0.4145291679240188,-9.567055458533772e-06,0.4145291679240188,-7.889264541466229e-06,0.4145291679240188,-3.004521272487974e-05,0.4145291679240188,-3.793273002372271e-05
0.4153232851039499,-7.890419374868117e-06,0.4153232851039499,-9.565900625131883e-06,0.4153232851039499,-3.105119437507913e-05,0.4153232851039499,-3.2399880892102764e-05
0.416117402283881,-7.721196348455177e-06,0.416117402283881,-8.561068135898531e-06,0.416117402283881,-3.440657288033824e-05,0.416117402283881,-2.736319067949265e-05
0.416911519463812,-1.0237276246377212e-05,0.416911519463812,-8.895806831236403e-06,0.416911519463812,-3.927375408318832e-05,0.416911519463812,-2.9204682541539757e-05
0.4177056366437431,-9.232170872106772e-06,0.4177056366437431,-7.553834497667789e-06,0.4177056366437431,-4.0451162287655065e-05,0.4177056366437431,-3.9775460817709374e-05
0.4184997538236742,-8.224922247075165e-06,0.4184997538236742,-6.2108363294335545e-06,0.4184997538236742,-3.978050816471678e-05,0.4184997538236742,-4.64921183838368e-05
0.4192938710036052,-7.217683615842784e-06,0.4192938710036052,-6.546065460844192e-06,0.4192938710036052,-3.306739078311617e-05,0.4192938710036052,-3.978139076686977e-05
0.4200879881835363,-7.049672497976614e-06,0.4200879881835363,-7.721052514163702e-06,0.4200879881835363,-2.568100991097101e-05,0.4200879881835363,-3.4576977438019136e-05
0.4208821053634674,-4.196675471167e-06,0.4208821053634674,-8.896455471167e-06,0.4208821053634674,-2.7697238267971172e-05,0.4208821053634674,-3.8605901394501874e-05
0.4216762225433985,-7.550776736617687e-06,0.4216762225433985,-1.225281205580158e-05,0.4216762225433985,-4.381189502338026e-05,0.4216762225433985,-4.313748794419842e-05
0.4224703397233295,1.167690942862949e-06,0.4224703397233295,-1.158215762233527e-05,0.4224703397233295,-5.521292050335407e-05,0.4224703397233295,-4.380814237766473e-05
0.4232644569032606,-1.6765382512229383e-06,0.4232644569032606,-8.897846946060773e-06,0.4232644569032606,-4.113274393432901e-05,0.4232644569032606,-3.307364781160313e-05
0.4240585740831917,3.522038839487307e-06,0.4240585740831917,-1.0238079701724122e-05,0.4240585740831917,-3.2399581973660445e-05,0.4240585740831917,-1.9645602982758772e-05
0.4248526912631227,3.8603994672925866e-06,0.4248526912631227,-1.4936772542096212e-05,0.4248526912631227,-4.111970614960725e-05,0.4248526912631227,-2.433627258097995e-05
0.4256468084430538,3.86053e-06,0.4256468084430538,-1.6616695052475954e-05,0.4256468084430538,-3.441071979009619e-05,0.4256468084430538,-2.9708004167923047e-05
0.4264409256229849,3.0213686148188342e-06,0.4264409256229849,-1.695276855369777e-05,0.4264409256229849,-1.1583738339184187e-05,0.4264409256229849,-4.582129058686038e-05
0.4272350428029159,5.874566177424973e-06,0.4272350428029159,-1.980602808214184e-05,0.4272350428029159,-1.1917336193800747e-05,0.4272350428029159,-9.013483713328744e-05
0.428029159982847,3.0203780112403514e-06,0.428029159982847,-1.6616660882301265e-05,0.428029159982847,-1.2583903613628033e-05,0.428029159982847,-8.71045450023614e-05
0.4288232771627781,-1.5065194368668604e-06,0.4288232771627781,-1.4436984029058882e-05,0.4288232771627781,1.1224228885474152e-05,0.4288232771627781,-4.11649160878229e-05
0.4296173943427092,8.374535244477393e-07,0.4296173943427092,-1.2254664413360916e-05,0.4296173943427092,2.600533301996787e-05,0.4296173943427092,-2.166745195249485e-05
0.4304115115226402,5.037545250286204e-07,0.4304115115226402,-9.569062203920228e-06,0.4304115115226402,2.467462610503617e-05,0.4304115115226402,4.515820994859485e-06
0.4312056287025713,6.207751301134563e-06,0.4312056287025713,-6.883075859775027e-06,0.4312056287025713,1.8634125648252563e-05,0.4312056287025713,3.0033069348504263e-05
0.4319997458825024,5.053744685538592e-07,0.4319997458825024,-8.224180243785136e-06,0.4319997458825024,2.0309262800730828e-05,0.4319997458825024,5.2865194121944e-05
0.4327938630624334,-8.223104694310952e-06,0.4327938630624334,-1.1916663138560864e-05,0.4327938630624334,3.037896311770893e-05,0.4327938630624334,7.233964201147382e-05
0.4335879802423645,-3.5249469477830964e-06,0.4335879802423645,-1.3595758232756868e-05,0.4335879802423645,4.011575774998984e-05,0.4335879802423645,0.0001049051897129
0.4343820974222956,-1.0239541415571172e-05,0.4343820974222956,-1.2253e-05,0.4343820974222956,3.793159338604839e-05,0.4343820974222956,0.0001055705744474
0.4351762146022266,-1.6281762475308117e-05,0.4351762146022266,-1.2253362475308116e-05,0.4351762146022266,1.9130223773529605e-05,0.4351762146022266,5.3197597651225546e-05
0.4359703317821577,-1.7623071342240828e-05,0.4359703317821577,-1.359467134224083e-05,0.4359703317821577,2.1962892285622265e-06,0.4359703317821577,1.3964513071350629e-05
0.4367644489620888,-1.024392548537695e-05,0.4367644489620888,-1.1918464883040216e-05,0.4367644489620888,7.5494923881513565e-06,0.4367644489620888,8.899504642180624e-06
0.4375585661420199,-1.2922932532756484e-05,0.4375585661420199,-5.878021790369495e-06,0.4375585661420199,1.7954213575359795e-05,0.4375585661420199,-4.984118875973638e-07
0.438352683321951,-1.0911003341217012e-05,0.438352683321951,-2.1835127842544124e-06,0.438352683321951,1.359754057263686e-05,0.438352683321951,-2.4664159964424e-05
0.439146800501882,-1.3930740876997705e-05,0.439146800501882,-5.538186532510021e-06,0.439146800501882,1.849292134958643e-06,0.439146800501882,-1.9136191712941357e-05
0.4399409176818131,-1.4938495588606975e-05,0.4399409176818131,-1.2252303927156766e-05,0.4399409176818131,-8.38967571070058e-07,0.4399409176818131,-1.6617361023298794e-05
0.4407350348617442,-9.56735104238019e-06,0.4407350348617442,-1.4938629478809906e-05,0.4407350348617442,-1.8968017014551096e-05,0.4407350348617442,-3.743234559267247e-05
0.4415291520416752,-8.226279243559119e-06,0.4415291520416752,-1.5609678991255466e-05,0.4415291520416752,-4.213199762984467e-05,0.4415291520416752,-8.175781571886737e-05
0.4423232692216063,-1.694477688972579e-05,0.4423232692216063,-1.3933042907589693e-05,0.4423232692216063,-5.1521059809419546e-05,0.4423232692216063,-0.0001612298666398
0.4431173864015373,-1.225663197739895e-05,0.4431173864015373,-1.39315e-05,0.4431173864015373,-5.25360217191288e-05,0.4431173864015373,-0.0001552656692215
0.4439115035814684,-1.0240059302526645e-05,0.4439115035814684,-1.4937970348736678e-05,0.4439115035814684,-5.3878760464982233e-05,0.4439115035814684,-7.071739076864025e-05
0.4447056207613995,-8.561111697982996e-06,0.4447056207613995,-1.359644136220744e-05,0.4447056207613995,-5.72349965944814e-05,0.4447056207613995,6.509241854571758e-06
0.4454997379413306,-5.540027169542543e-06,0.4454997379413306,-9.568739564890867e-06,0.4454997379413306,-4.851128073108127e-05,0.4454997379413306,6.42672429285346e-05
0.4462938551212617,-6.881574985237966e-06,0.4462938551212617,-2.18338758575286e-06,0.4462938551212617,-3.911061509786023e-05,0.4462938551212617,7.97255823274996e-05
0.4470879723011927,-7.888874867516637e-06,0.4470879723011927,5.034543128660465e-07,0.4470879723011927,-3.6423393687552576e-05,0.4470879723011927,5.891582607504394e-05
0.4478820894811238,-8.559326365899342e-06,0.4478820894811238,-3.861021817106679e-06,0.4478820894811238,-2.399971392643769e-05,0.4478820894811238,4.615653273382722e-05
0.4486762066610549,1.6614732973847717e-07,0.4486762066610549,-8.225395387394337e-06,0.4486762066610549,-1.6348573551390106e-07,0.4486762066610549,2.8689284749869147e-05
0.4494703238409859,-6.372702430982466e-06,0.4494703238409859,-1.1243330349097384e-05,0.4494703238409859,1.6602824157777568e-05,0.4494703238409859,-2.093894354873083e-05
0.450264441020917,-6.881465498844766e-06,0.450264441020917,-1.5103682193010074e-05,0.450264441020917,6.38547817607633e-06,0.450264441020917,-5.7211076057624e-05
0.4510585582008481,-8.426082217485301e-07,0.4510585582008481,-1.711947925459483e-05,0.4510585582008481,-4.8613725326422505e-06,0.4510585582008481,-4.851325656342239e-05
0.4518526753807791,-5.201545786463794e-06,0.4518526753807791,-1.7288431355708844e-05,0.4518526753807791,-6.377652389446139e-06,0.4518526753807791,-4.21328076653833e-05
0.4526467925607102,-8.895045255772466e-06,0.4526467925607102,-1.3093296319259184e-05,0.4526467925607102,-1.6278812722602005e-05,0.4526467925607102,-3.77672401584441e-05
0.4534409097406413,-2.854126899865013e-06,0.4534409097406413,-6.546864137257552e-06,0.4534409097406413,-2.970777355964475e-05,0.4534409097406413,-3.27311724193961e-05
0.4542350269205724,-3.5246820359901257e-06,0.4542350269205724,-3.692606017927253e-06,0.4542350269205724,-4.347285203517641e-05,0.4542350269205724,-2.2994901636557747e-05
0.4550291441005034,8.386375177703532e-07,0.4550291441005034,-1.510518304134098e-06,0.4550291441005034,-3.9105249109522255e-05,0.4550291441005034,-1.1245595759428952e-05
0.4558232612804345,-2.5146206651077086e-06,0.4558232612804345,-8.398698640049959e-07,0.4558232612804345,-1.8985715994486436e-05,0.4558232612804345,-9.568969664658523e-06
0.4566173784603656,-1.358712814437965e-05,0.4566173784603656,-4.193602167999829e-06,0.4566173784603656,-4.207792492425694e-06,0.4566173784603656,-2.030139090534828e-05
0.4574114956402966,-4.2022007359404005e-06,0.4574114956402966,-9.563998152706098e-06,0.4574114956402966,1.8425016765584629e-06,0.4574114956402966,-4.178085262352866e-05
0.4582056128202277,-5.035070754881736e-06,0.4582056128202277,-1.2922763024403265e-05,0.4582056128202277,-1.0057085714742216e-06,0.4582056128202277,-5.186048910734403e-05
0.4589997300001588,-7.552363842065238e-06,0.4589997300001588,-1.2588814154844704e-05,0.4589997300001588,-3.18839799690994e-06,0.4589997300001588,-4.6496026477515225e-05
0.4597938471800898,-7.049766917463147e-06,0.4597938471800898,-1.3931241553431607e-05,0.4597938471800898,-1.0405310847770212e-05,0.4597938471800898,-2.786658591726617e-05
0.4605879643600209,-1.846573559914788e-06,0.4605879643600209,-1.4938554794681448e-05,0.4605879643600209,-2.2491257540666035e-05,0.4605879643600209,-1.7288974653600467e-05
0.461382081539952,2.8531297282618684e-06,0.461382081539952,-1.695273105047383e-05,0.461382081539952,-2.6519700121070003e-05,0.461382081539952,-2.5680865525236912e-05
0.4621761987198831,-1.7003070960205802e-07,0.4621761987198831,-1.6280057403476564e-05,0.4621761987198831,-2.1651089578911136e-05,0.4621761987198831,-2.5344612614021e-05
0.4629703158998141,-8.88849938797162e-06,0.4629703158998141,-1.0914821935746469e-05,0.4629703158998141,-1.5615199677714778e-05,0.4629703158998141,-2.299732209688908e-05
0.4637644330797452,-6.88325814245327e-06,0.4637644330797452,-1.4264803084011127e-05,0.4637644330797452,-1.7119521423505274e-05,0.4637644330797452,-2.13180983865939e-05
0.4645585502596763,-6.88182e-06,0.4645585502596763,-1.92998477740554e-05,0.4645585502596763,-1.6952895045876976e-05,0.4645585502596763,-2.567842812749037e-05
0.4653526674396073,-3.526236047748847e-06,0.4653526674396073,-2.030937818441882e-05,0.4653526674396073,-1.628168121038745e-05,0.4653526674396073,-2.5345340605193727e-05
0.4661467846195384,-5.202874690044505e-06,0.4661467846195384,-2.3330180469206116e-05,0.4661467846195384,-1.4938964247964396e-05,0.4661467846195384,-1.494142289459807e-05
0.4669409017994695,-1.511096705436923e-06,0.4669409017994695,-2.3163220753210347e-05,0.4669409017994695,-1.49386e-05,0.4669409017994695,-9.90372278182778e-06
0.4677350189794005,-8.393422925862846e-07,0.4677350189794005,-2.5680916048828123e-05,0.4677350189794005,-1.359580802441406e-05,0.4677350189794005,-4.699366744349066e-06
0.4685291361593316,-4.867342525689733e-06,0.4685291361593316,-2.63523e-05,0.4685291361593316,-1.3931385009590814e-05,0.4685291361593316,1.2590281109562816e-05
0.4693232533392627,-3.1907164309194224e-06,0.4693232533392627,-2.63523e-05,0.4693232533392627,-1.3260730576124554e-05,0.4693232533392627,2.1811729625247195e-05
0.4701173705191938,-2.853706141947912e-06,0.4701173705191938,-2.5681432283895824e-05,0.4701173705191938,-1.4601835432208352e-05,0.4701173705191938,2.0310997599125758e-05
0.4709114876991248,-5.537297216489499e-06,0.4709114876991248,-2.1822890853310552e-05,0.4709114876991248,-2.0809292955472127e-05,0.4709114876991248,7.225967338163628e-06
0.4717056048790559,-1.1243060070702633e-05,0.4717056048790559,-1.79618211138597e-05,0.4717056048790559,-1.9303451725060604e-05,0.4717056048790559,-6.87480369706344e-06
0.472499722058987,-1.2252647462979627e-05,0.472499722058987,-1.7624317512340123e-05,0.472499722058987,-1.779252882303314e-05,0.472499722058987,-1.5774685947490335e-05
0.473293839238918,-1.1581735938275086e-05,0.473293839238918,-2.1987416401211937e-05,0.473293839238918,-1.9134528123449825e-05,0.473293839238918,-2.702142304401579e-05
0.4740879564188491,-1.292432629626024e-05,0.4740879564188491,-2.702342361646472e-05,0.4740879564188491,-2.232372495636248e-05,0.4740879564188491,-3.910823666634218e-05
0.4748820735987802,-9.064000026777447e-06,0.4748820735987802,-2.4001622077578342e-05,0.4748820735987802,-2.366707340721169e-05,0.4748820735987802,-5.119384441366179e-05
0.4756761907787112,-1.057526529860141e-05,0.4756761907787112,-1.560822770416799e-05,0.4756761907787112,-2.76955833540632e-05,0.4756761907787112,-4.951380828477611e-05
0.4764703079586423,-1.3760823913089876e-05,0.4764703079586423,-8.231038924933419e-06,0.4764703079586423,-2.9707546654462272e-05,0.4764703079586423,-4.247203662233283e-05
0.4772644251385734,-1.057680893019582e-05,0.4772644251385734,-1.6832294356192857e-06,0.4772644251385734,-2.8702929147283e-05,0.4772644251385734,-3.609221793279233e-05
0.4780585423185045,-1.2587538964649486e-05,0.4780585423185045,-5.04225266009733e-07,0.4780585423185045,-3.440581039984021e-05,0.4780585423185045,-4.06168876992826e-05
0.4788526594984356,-1.1582031888067374e-05,0.4788526594984356,1.6775542476668068e-06,0.4788526594984356,-3.5415768111932625e-05,0.4788526594984356,-4.31362202583894e-05
0.4796467766783666,-8.22555419205283e-06,0.4796467766783666,1.175081629229817e-06,0.4796467766783666,-4.6491084185070176e-05,0.4796467766783666,-2.7028232135354145e-05
0.4804408938582977,-1.29237717333613e-05,0.4804408938582977,-3.1885566109820595e-06,0.4804408938582977,-6.193433569093765e-05,0.4804408938582977,-4.870591817363273e-06
0.4812350110382288,-8.895972664789903e-06,0.4812350110382288,-6.210438667674559e-06,0.4812350110382288,-4.078706865016679e-05,0.4812350110382288,2.735980135361281e-05
0.4820291282181598,-6.210447070966206e-06,0.4820291282181598,-7.553057574202764e-06,0.4820291282181598,-1.6948901793768804e-05,0.4820291282181598,5.623090769024271e-05
0.4828232453980909,-6.378110679332784e-06,0.4828232453980909,-6.547075924003301e-06,0.4828232453980909,7.194577899855563e-06,0.4828232453980909,6.494941532530472e-05
0.483617362578022,-8.558558261646314e-06,0.483617362578022,-6.210689499443334e-06,0.483617362578022,3.069753513530243e-05,0.483617362578022,7.636223709920649e-05
0.484411479757953,-5.876479643373863e-06,0.484411479757953,-4.197549730892356e-06,0.484411479757953,3.3400240350073976e-05,0.484411479757953,8.308100087518492e-05
0.4852055969378841,-4.532611647076344e-06,0.4852055969378841,-4.19623e-06,0.4852055969378841,3.138882247822904e-05,0.4852055969378841,5.7920780927099504e-05
0.4859997141178152,-1.5117278249195927e-06,0.4859997141178152,-5.202967390493292e-06,0.4859997141178152,3.742822434295975e-05,0.4859997141178152,2.988729257726207e-05
0.4867938312977463,3.1881414313879107e-06,0.4867938312977463,-7.21709204232692e-06,0.4867938312977463,2.7361539798988963e-05,0.4867938312977463,1.852295754730187e-06
0.4875879484776773,2.182105350291155e-06,0.4875879484776773,-7.553198216569615e-06,0.4875879484776773,7.890173431824478e-06,0.4875879484776773,-2.198675338033604e-05
0.4883820656576084,-2.18204e-06,0.4883820656576084,-7.21771431757861e-06,0.4883820656576084,-1.679045192963612e-07,0.4883820656576084,-3.508097191612772e-05
0.4891761828375395,-2.1821944114767527e-06,0.4891761828375395,-9.56818205508392e-06,0.4891761828375395,-8.390915892132001e-07,0.4891761828375395,-4.07874e-05
0.4899703000174705,-2.8528488449430617e-06,0.4899703000174705,-1.292144423352012e-05,0.4899703000174705,-1.6844015241549445e-07,0.4899703000174705,-4.07874e-05
0.4907644171974016,-7.2143167290130466e-06,0.4907644171974016,-9.737600855262812e-06,0.4907644171974016,3.186675942176308e-06,0.4907644171974016,-3.676195687907734e-05
0.4915585343773327,-8.224019415702742e-06,0.4915585343773327,-1.2922529803686109e-05,0.4915585343773327,6.208648241243961e-06,0.4915585343773327,-3.021673880672857e-05
0.4923526515572637,-1.158012680254274e-05,0.4923526515572637,-1.5273268758708005e-05,0.4923526515572637,1.896140184176321e-05,0.4923526515572637,-2.132080396294888e-05
0.4931467687371948,-1.258840666905403e-05,0.4931467687371948,-1.594550444603602e-05,0.4931467687371948,2.23229222593064e-05,0.4931467687371948,-1.5611662208693835e-05
0.4939408859171259,-2.519187007634341e-06,0.4939408859171259,-1.3931789402676318e-05,0.4939408859171259,6.548386970389406e-06,0.4939408859171259,-1.829521412976491e-05
0.494735003097057,1.8463164304991e-06,0.494735003097057,-1.2252998690576782e-05,0.494735003097057,-5.03553237661666e-07,0.494735003097057,-1.8463383632404807e-05
0.495529120276988,-4.19623e-06,0.495529120276988,-1.1917147634019308e-05,0.495529120276988,-1.848269963037107e-06,0.495529120276988,-1.426770788660231e-05
0.4963232374569191,-4.19623e-06,0.4963232374569191,-1.0911165983819772e-05,0.4963232374569191,-1.459066424331649e-05,0.4963232374569191,-1.762098005393409e-05
0.4971173546368502,-1.8482499904434571e-06,0.4971173546368502,-1.3593617144489765e-05,0.4971173546368502,-2.6342750088422706e-05,0.4971173546368502,-2.3661788656381963e-05
0.4979114718167812,-1.5108633137361991e-06,0.4979114718167812,-1.7286043548901807e-05,0.4979114718167812,-3.406826378406742e-05,0.4979114718167812,-2.9034326980220813e-05
0.4987055889967123,2.18012853448318e-06,0.4987055889967123,-1.6952973770533598e-05,0.4987055889967123,-3.944181967146248e-05,0.4987055889967123,-3.272868852413045e-05
0.4994997061766434,2.5176157726690085e-06,0.4994997061766434,-1.628164845466198e-05,0.4994997061766434,-4.045132731800703e-05,0.4994997061766434,-3.1723872681992975e-05
0.5002938233565745,-1.5097437949085243e-06,0.5002938233565745,-1.5610149368256822e-05,0.5002938233565745,-4.04517e-05,0.5002938233565745,-2.920636011983944e-05
0.5010879405365055,-4.8673785914908405e-06,0.5010879405365055,-1.4938650281851614e-05,0.5010879405365055,-3.9109000563703226e-05,0.5010879405365055,-2.8702237715133264e-05
0.5018820577164366,-3.1889447823675264e-06,0.5018820577164366,-1.4938502390893e-05,0.5018820577164366,-3.810172679316975e-05,0.5018820577164366,-3.1051904781786004e-05
0.5026761748963677,-5.05098895630729e-07,0.5026761748963677,-1.3596464672195971e-05,0.5026761748963677,-3.7094404590135125e-05,0.5026761748963677,-2.836579841257069e-05
0.5034702920762988,-7.546942478120007e-06,0.5034702920762988,-1.6614409622794364e-05,0.5034702920762988,-3.5753095723202505e-05,0.5034702920762988,-2.518023979808245e-05
0.5042644092562298,-6.882319528170353e-06,0.5042644092562298,-1.5610749292255532e-05,0.5042644092562298,-3.57519e-05,0.5042644092562298,-2.7022326334732017e-05
0.5050585264361609,-1.6815934117520493e-06,0.5050585264361609,-1.359700132529572e-05,0.5050585264361609,-3.591959991938009e-05,0.5050585264361609,-2.769469955823476e-05
0.505852643616092,-8.396226915069628e-07,0.505852643616092,-1.2589152033040048e-05,0.505852643616092,-3.4409778027117763e-05,0.505852643616092,-2.5849628704797776e-05
0.506646760796023,-8.893582783387627e-06,0.506646760796023,-1.1581903403432236e-05,0.506646760796023,-3.373790226895483e-05,0.506646760796023,-2.6352148313347106e-05
0.507440877975954,-4.532600683499465e-06,0.507440877975954,-1.1917248408725143e-05,0.507440877975954,-3.508029363490058e-05,0.507440877975954,-2.7694893634900575e-05
0.5082349951558852,-9.231681327111158e-06,0.5082349951558852,-1.2252997951927794e-05,0.5082349951558852,-4.447994265458837e-05,0.5082349951558852,-3.105207951927796e-05
0.5090291123358163,-1.1077791664325252e-05,0.5090291123358163,-1.1581884612328582e-05,0.5090291123358163,-5.925023077534284e-05,0.5090291123358163,-3.440834103379045e-05
0.5098232295157473,-8.898124799978672e-06,0.5098232295157473,-1.3593847912727227e-05,0.5098232295157473,-5.5226304174545546e-05,0.5098232295157473,-2.904310556606072e-05
0.5106173466956784,3.281021376164688e-07,0.5106173466956784,-1.5943766498960423e-05,0.5106173466956784,-3.107198735698407e-05,0.5106173466956784,-2.3335695645381827e-05
0.5114114638756094,-4.1931699532279456e-06,0.5114114638756094,-1.896495995891541e-05,0.5114114638756094,-5.053046932672095e-06,0.5114114638756094,-2.131825995986776e-05
0.5122055810555405,-5.873834365131058e-06,0.5122055810555405,-1.8967e-05,0.5122055810555405,8.553136346481171e-06,0.5122055810555405,-1.6284056920435964e-05
0.5129996982354716,-4.532440335505093e-06,0.5129996982354716,-1.91347362265896e-05,0.5129996982354716,-3.855809384226069e-06,0.5129996982354716,-1.896597932138869e-05
0.5137938154154027,-1.6886353669251217e-07,0.5137938154154027,-1.896703900918819e-05,0.5137938154154027,-2.936766886681213e-05,0.5137938154154027,-1.3597048665980952e-05
0.5145879325953338,-6.881250034036831e-06,0.5145879325953338,-1.8967e-05,0.5145879325953338,-6.126229265847026e-05,0.5145879325953338,8.558429111837658e-06
0.5153820497752648,-1.2252747463250676e-05,0.5153820497752648,-1.695277895521865e-05,0.5153820497752648,-5.3878263665787576e-05,0.5153820497752648,-2.183313203629722e-06
0.5161761669551959,-8.224680499194037e-06,0.5161761669551959,-1.661674750402981e-05,0.5161761669551959,-3.255853480926101e-05,0.5161761669551959,-2.249176473990265e-05
0.5169702841351269,-8.560007715927194e-06,0.5169702841351269,-1.4940111420364037e-05,0.5169702841351269,-1.2271288141381889e-05,0.5169702841351269,-2.2324051187059357e-05
0.5177644013150581,-6.212191843524245e-06,0.5177644013150581,-1.0577790580548091e-05,0.5177644013150581,1.1648151820157782e-06,0.5177644013150581,-2.333024063525813e-05
0.5185585184949891,-5.539437150691742e-06,0.5185585184949891,-9.903507156756036e-06,0.5185585184949891,1.9291706791844177e-05,0.5185585184949891,1.831071718677326e-06
0.5193526356749202,-8.558923692598222e-06,0.5193526356749202,-8.896472100937767e-06,0.5193526356749202,3.47377144278157e-05,0.5193526356749202,4.680925939661788e-05
0.5201467528548512,-7.889118983945716e-06,0.5201467528548512,-9.063807754013571e-06,0.5201467528548512,5.4544835004727984e-05,0.5201467528548512,7.132827211710799e-05
0.5209408700347823,-1.008226443242837e-06,0.5209408700347823,-7.5534672678293e-06,0.5209408700347823,7.150102509528638e-05,0.5209408700347823,6.093100339550945e-05
0.5217349872147133,-1.846326486241899e-06,0.5217349872147133,-9.567377566755123e-06,0.5217349872147133,6.529350000219641e-05,0.5217349872147133,2.601716217742535e-05
0.5225291043946444,-4.867718164231739e-06,0.5225291043946444,-1.057383877220138e-05,0.5225291043946444,5.455108816423174e-05,0.5225291043946444,1.4265833458347468e-05
0.5233232215745756,-5.538372597698142e-06,0.5233232215745756,-5.543960487889394e-06,0.5233232215745756,5.522174259769814e-05,0.5233232215745756,3.870719706304261e-06
0.5241173387545066,-5.874440436398406e-06,0.5241173387545066,-5.077415639539034e-07,0.5241173387545066,4.6836889298240594e-05,0.5241173387545066,-1.794172788287066e-05
0.5249114559344377,-4.532850108056056e-06,0.5249114559344377,3.857539641622998e-06,0.5249114559344377,2.938556142528536e-05,0.5249114559344377,-3.4062358689622905e-05
0.5257055731143687,-2.1833033932948465e-06,0.5257055731143687,5.538127572377686e-06,0.5257055731143687,1.662395839616566e-05,0.5257055731143687,-3.994494153020387e-05
0.5264996902942998,-5.873279642260703e-06,0.5264996902942998,3.190056592352437e-06,0.5264996902942998,1.1809633312032111e-06,0.5264996902942998,-4.112264168237061e-05
0.5272938074742308,-6.210338600880698e-06,0.5272938074742308,-1.6703501147421386e-07,0.5272938074742308,-1.527031145770275e-05,0.5272938074742308,-3.709567678943162e-05
0.528087924654162,-3.525084846384269e-06,0.528087924654162,-5.202852163053219e-06,0.528087924654162,-2.5008576187906515e-05,0.528087924654162,-2.9038664541999627e-05
0.528882041834093,-1.5106046257442213e-06,0.528882041834093,-1.057462381100167e-05,0.528882041834093,-3.541676598788171e-05,0.528882041834093,-2.2995096598845933e-05
0.5296761590140241,-8.396488743310391e-07,0.5296761590140241,-1.2924802875531145e-05,0.5296761590140241,-4.6159775772515295e-05,0.5296761590140241,-1.91371165243032e-05
0.5304702761939551,-2.851606181392759e-06,0.5304702761939551,-1.493676617593007e-05,0.5304702761939551,-5.253099289044523e-05,0.5304702761939551,-3.0705855557120306e-05
0.5312643933738862,-6.878742266367438e-06,0.5312643933738862,-1.49386e-05,0.5312643933738862,-5.186591295815214e-05,0.5312643933738862,-4.111514914864189e-05
0.5320585105538173,-5.036618141139743e-06,0.5320585105538173,-1.7622544513012287e-05,0.5320585105538173,-5.119441387174693e-05,0.5320585105538173,-3.843915548698772e-05
0.5328526277337483,-1.701311848200193e-07,0.5328526277337483,-1.896637042931637e-05,0.5328526277337483,-5.790485214658186e-05,0.5328526277337483,-4.246401128794912e-05
0.5336467449136795,-3.1881693576771e-06,0.5336467449136795,-1.728903924734128e-05,0.5336467449136795,-6.730448024701557e-05,0.5336467449136795,-4.313708430106348e-05
0.5344408620936105,-1.5109315313284969e-06,0.5344408620936105,-1.76241416937343e-05,0.5344408620936105,-8.476086807418363e-05,0.5344408620936105,-3.843831628771979e-05
0.5352349792735416,-2.8534049477476183e-06,0.5352349792735416,-1.5610052578378572e-05,0.5352349792735416,-9.684868453233894e-05,0.5352349792735416,-3.608766134144168e-05
0.5360290964534726,-4.867711457687471e-06,0.5360290964534726,-1.3931662915374942e-05,0.5360290964534726,-9.617670397757032e-05,0.5360290964534726,-2.668738907947648e-05
0.5368232136334037,-5.53836589115378e-06,0.5368232136334037,-1.527297178230756e-05,0.5368232136334037,-8.879960509839438e-05,0.5368232136334037,-2.1657580717432613e-05
0.5376173308133347,-1.178618074098466e-06,0.5376173308133347,-1.795763656459907e-05,0.5376173308133347,-6.900269283608186e-05,0.5376173308133347,-3.171501220152696e-05
0.5384114479932659,-1.678139920666302e-06,0.5384114479932659,-2.1985499365330415e-05,0.5384114479932659,-3.24203389592042e-05,0.5384114479932659,-5.688339610283736e-05
0.539205565173197,-5.536915810748002e-06,0.539205565173197,-2.0646235372079447e-05,0.539205565173197,-1.1920373241773976e-06,0.539205565173197,-6.931489786302921e-05
0.539999682353128,-7.216848504914068e-06,0.539999682353128,-1.9638802899451914e-05,0.539999682353128,2.265006477698083e-05,0.539999682353128,-2.301383329477621e-05
0.5407937995330591,-5.875059026458802e-06,0.5407937995330591,-1.93027847566147e-05,0.5407937995330591,2.098162375782578e-05,0.5407937995330591,3.607268291155588e-05
0.5415879167129901,-7.888698720576375e-06,0.5415879167129901,-1.7624376067060484e-05,0.5415879167129901,5.204985027221678e-06,0.5415879167129901,7.032520825294523e-05
0.5423820338929212,-1.0909942065052303e-05,0.5423820338929212,-1.527434298937138e-05,0.5423820338929212,1.527392742630176e-05,0.5423820338929212,7.637104892226804e-05
0.5431761510728523,-4.86763e-06,0.5431761510728523,-1.62814e-05,0.5431761510728523,6.544780360436725e-06,0.5431761510728523,6.814402502923846e-05
0.5439702682527834,-4.86763e-06,0.5439702682527834,-1.62814e-05,0.5439702682527834,-4.970592264944156e-07,0.5439702682527834,5.3557341045822966e-05
0.5447643854327144,-1.5132383579749924e-06,0.5447643854327144,-1.5275079509714542e-05,0.5447643854327144,6.372943375052429e-06,0.5447643854327144,4.515789591428784e-05
0.5455585026126455,-8.396665829792247e-07,0.5455585026126455,-1.1919402933689095e-05,0.5455585026126455,2.801723615287722e-05,0.5455585026126455,2.334466900633588e-05
0.5463526197925765,-9.227691263080985e-06,0.5463526197925765,-1.1246221500332613e-05,0.5463526197925765,4.715643728840564e-05,0.5463526197925765,-1.5255813826644975e-05
0.5471467369725076,-9.56729879303625e-06,0.5471467369725076,-1.2252666379108753e-05,0.5471467369725076,5.7568852584123786e-05,0.5471467369725076,-1.7959010344290012e-05
0.5479408541524387,-1.090995334679229e-05,0.5479408541524387,-1.158172332752229e-05,0.5479408541524387,5.153080994770061e-05,0.5479408541524387,-1.0240218266506332e-05
0.5487349713323698,-7.217653325421327e-06,0.5487349713323698,-7.553365445979822e-06,0.5487349713323698,2.937439995325007e-05,0.5487349713323698,-1.5609806071064096e-05
0.5495290885123009,-5.874570498827144e-06,0.5495290885123009,-6.2105321267146645e-06,0.5495290885123009,1.7957470595642483e-05,0.5495290885123009,-2.46746222625742e-05
0.5503232056922319,-4.533271620789871e-06,0.5503232056922319,-7.216513776914127e-06,0.5503232056922319,-3.838728569745146e-06,0.5503232056922319,-3.2051821030703604e-05
0.551117322872163,-9.563115713248395e-06,0.551117322872163,-8.559164860846e-06,0.551117322872163,-7.550070852402396e-06,0.551117322872163,-3.843206054851022e-05
0.551911440052094,-8.393288603012688e-06,0.551911440052094,-9.23123651256418e-06,0.551911440052094,-1.7305734134254206e-07,0.551911440052094,-2.90445288241015e-05
0.5527055572320251,-4.8695955942583694e-06,0.5527055572320251,-9.567222799484648e-06,0.5527055572320251,-1.0233184011863855e-05,0.5527055572320251,-1.2262359970003463e-05
0.5534996744119562,-5.706525860818848e-06,0.5534996744119562,-8.56072297193811e-06,0.5534996744119562,-2.0641232623306205e-05,0.5534996744119562,-1.5105229933345047e-05
0.5542937915918873,-9.566396690358648e-06,0.5542937915918873,-6.882260567925708e-06,0.5542937915918873,-2.400151888514688e-05,0.5542937915918873,-3.3229441838054645e-05
0.5550879087718184,-1.0406603568135268e-05,0.5550879087718184,-4.5321999952038254e-06,0.5550879087718184,-3.4407904301866195e-05,0.5550879087718184,-4.6492676466386624e-05
0.5558820259517494,-6.8816444439327085e-06,0.5558820259517494,-4.867695833443522e-06,0.5558820259517494,-3.5080697501311106e-05,0.5558820259517494,-4.649417805540988e-05
0.5566761431316805,-1.5119696609047446e-06,0.5566761431316805,-6.881699121244914e-06,0.5566761431316805,-4.112533623896509e-05,0.5566761431316805,-4.5824250545061023e-05
0.5574702603116115,-8.88913846234708e-06,0.5574702603116115,-6.2110446877787e-06,0.5574702603116115,-5.353234336913663e-05,0.5574702603116115,-5.387210374665561e-05
0.5582643774915427,-1.0237747231572508e-05,0.5582643774915427,-4.1978091565613165e-06,0.5582643774915427,-7.836612371745008e-05,0.5582643774915427,-6.394270417799263e-05
0.5590584946714737,-4.20007569646453e-06,0.5590584946714737,-4.19623e-06,0.5590584946714737,-9.5159817520428e-05,0.5590584946714737,-6.529254539654277e-05
0.5598526118514048,-8.40887068795878e-07,0.5598526118514048,-4.19623e-06,0.5598526118514048,-8.376237961161433e-05,0.5598526118514048,-4.516124645970507e-05
0.5606467290313358,-4.195084360868853e-06,0.5606467290313358,-6.880903487739525e-06,0.5606467290313358,-4.784925836300173e-05,0.5606467290313358,-2.1660619443886243e-05
0.5614408462112669,-1.1755251893720048e-06,0.5614408462112669,-1.0573784770051794e-05,0.5614408462112669,-3.03840810859714e-05,0.5614408462112669,-7.891575869581395e-06
0.5622349633911979,-4.867459741867217e-06,0.5622349633911979,-1.628113687308223e-05,0.5622349633911979,-2.970933095610797e-05,0.5622349633911979,-1.4938274961327353e-05
0.563029080571129,-1.1749740222993738e-06,0.563029080571129,-1.8295736089197496e-05,0.563029080571129,-2.937251129655477e-05,0.563029080571129,-1.2417652952510016e-05
0.5638231977510602,-1.510301239032575e-06,0.5638231977510602,-1.9637044956130305e-05,0.5638231977510602,-1.864214025004577e-05,0.5638231977510602,1.859996476188093e-05
0.5646173149309912,-2.8522814223363466e-06,0.5646173149309912,-2.131545177792043e-05,0.5646173149309912,1.0213890666512184e-05,0.5646173149309912,3.137679359847602e-05
0.5654114321109223,-4.195269602298831e-06,0.5654114321109223,-2.249095968151453e-05,0.5654114321109223,2.36570960229883e-05,0.5654114321109223,7.905717006260134e-06
0.5662055492908533,-6.880295541590417e-06,0.5662055492908533,-2.433705195932305e-05,0.5662055492908533,3.4067492701666674e-05,0.5662055492908533,-1.895175541022774e-05
0.5669996664707844,-8.224045944968026e-06,0.5669996664707844,-1.7627020254156773e-05,0.5669996664707844,5.622019306466839e-05,0.5669996664707844,-2.2322489893924717e-05
0.5677937836507154,-1.8480779523318332e-06,0.5677937836507154,-1.4268114716055915e-05,0.5677937836507154,6.294167056788817e-05,0.5677937836507154,1.1685370312054242e-06
0.5685879008306466,-1.6805864089061814e-07,0.5685879008306466,-1.5945490357985296e-05,0.5685879008306466,5.22024417088941e-05,0.5685879008306466,2.2321258528100517e-05
