X [s].2,L DELTOID ANTERIOR: EMG 3 [V],X [s].3,L BICEPS BRACHII: EMG 4 [V],X [s].4,L DELTOID POSTERIOR: EMG 5 [V],X [s].7,L DELTOID MEDIUS: EMG 8 [V]
0.0,-5.53903e-06,0.0,-2.24918e-05,0.0,-1.2253e-05,0.0,-9.23171e-06
0.000794117179931,-4.196231386681273e-06,0.000794117179931,-4.867648200109079e-06,0.000794117179931,-1.4938597226637456e-05,0.000794117179931,-1.124589791998842e-05
0.0015882343598621,-5.539020462955167e-06,0.0015882343598621,8.392054677299162e-07,0.0015882343598621,-1.3595809537044832e-05,0.0015882343598621,-1.2252992847216377e-05
0.0023823515397932,-5.874718698179413e-06,0.0023823515397932,2.1820582256821154e-06,0.0023823515397932,-1.359580781103986e-05,0.0023823515397932,-1.292440390551993e-05
0.0031764687197242,-5.203331082411115e-06,0.0031764687197242,1.1581584846083183e-05,0.0031764687197242,-1.762419350543658e-05,0.0031764687197242,-1.493859675271829e-05
0.0039705858996553,-4.867631733347225e-06,0.0039705858996553,2.735931853319678e-05,0.0039705858996553,-1.5777809533667906e-05,0.0039705858996553,-1.560999653330555e-05
0.0047647030795864,-4.86763e-06,0.0047647030795864,6.193609867634586e-05,0.0047647030795864,-1.4938607313266349e-05,0.0047647030795864,-1.6617091223557507e-05
0.0055588202595174,-1.8463396708828497e-06,0.0055588202595174,9.517049429530142e-05,0.0055588202595174,-1.4602899122349038e-05,0.0055588202595174,-1.6281398683523555e-05
0.0063529374394485,-8.392492472623621e-07,0.0063529374394485,7.771425628589383e-05,0.0063529374394485,-1.191730865941789e-05,0.0063529374394485,-1.2253012989126831e-05
0.0071470546193796,-2.3498797645168604e-06,0.0071470546193796,3.4745091142432774e-05,0.0071470546193796,-9.903113647365058e-06,0.0071470546193796,-1.0238813647365055e-05
0.0079411717993107,-1.846345200041674e-06,0.0079411717993107,-3.323349799695569e-05,0.0079411717993107,-1.1581582666527751e-05,0.0079411717993107,-1.2588675733138856e-05
0.0087352889792417,-1.510640431512681e-06,0.0087352889792417,-0.0003315016166031,0.0087352889792417,-1.5274295253360507e-05,0.0087352889792417,-1.4267197842436594e-05
0.0095294061591728,-4.196217010921532e-06,0.0095294061591728,-0.0002522773831782,0.0095294061591728,-1.4938601623640854e-05,0.0095294061591728,-1.6281390258154875e-05
0.0103235233391039,-3.3570046660911268e-06,0.0103235233391039,9.987497175031171e-05,0.0103235233391039,-1.56099605342542e-05,0.0103235233391039,-1.577787399974291e-05
0.0111176405190349,-4.196212873029407e-06,0.0111176405190349,0.0002588200693679,0.0111176405190349,-1.4267302761823562e-05,0.0111176405190349,-1.829563425394119e-05
0.011911757698966,-3.860547880202839e-06,0.011911757698966,0.0001817851034985,0.011911757698966,-1.628129271878297e-05,0.011911757698966,-1.8966964239594323e-05
0.0127058748788971,-3.524840619763548e-06,0.0127058748788971,2.602152755763236e-05,0.0127058748788971,-1.7624157520945807e-05,0.0127058748788971,-1.7120658410281247e-05
0.0134999920588282,-6.210393143518985e-06,0.0134999920588282,-4.6493474876312606e-05,0.0134999920588282,-1.5610020142435765e-05,0.0134999920588282,-1.6952801678036306e-05
0.0142941092387592,-7.217555150331956e-06,0.0142941092387592,-4.682948991240603e-05,0.0142941092387592,-1.5274280471908532e-05,0.0142941092387592,-1.4602864849435358e-05
0.0150882264186903,-1.0238855834514905e-05,0.0150882264186903,-1.1581879172574526e-05,0.0150882264186903,-1.359576091417634e-05,0.0150882264186903,-1.1581577666194035e-05
0.0158823435986214,-1.1917180798647746e-05,0.0158823435986214,-1.9973503993238728e-05,0.0158823435986214,-1.2420883444497409e-05,0.0158823435986214,-1.09102476805409e-05
0.0166764607785524,-1.3595717097091478e-05,0.0166764607785524,-5.404581707836568e-05,0.0166764607785524,-1.22530082878213e-05,0.0166764607785524,-1.0406724868403005e-05
0.0174705779584835,-1.0574583861017048e-05,0.0174705779584835,-9.147676106211684e-05,0.0174705779584835,-1.5274216138982956e-05,0.0174705779584835,-1.1917258070879307e-05
0.0182646951384146,-8.224624386337809e-06,0.0182646951384146,-0.0001191728304463,0.0182646951384146,-1.5945695889600275e-05,0.0182646951384146,-1.2252997944800136e-05
0.0190588123183456,-8.560294377681949e-06,0.0190588123183456,-0.0001205153204216,0.0190588123183456,-1.2420797397030089e-05,0.0190588123183456,-8.895978755208773e-06
0.0198529294982767,-7.55322e-06,0.0198529294982767,-7.670655138479398e-05,0.0198529294982767,-1.2253049874447294e-05,0.0198529294982767,-6.881919748523167e-06
0.0206470466782078,-7.55322e-06,0.0206470466782078,-6.19373916899969e-05,0.0206470466782078,-1.3595709845753562e-05,0.0206470466782078,-9.567229692178516e-06
0.0214411638581389,-9.567318328201487e-06,0.0214411638581389,-5.320859724643245e-05,0.0214411638581389,-1.292443055741788e-05,0.0214411638581389,-1.057445416432831e-05
0.0222352810380699,-7.049730119896355e-06,0.0222352810380699,-3.910923667036893e-05,0.0222352810380699,-1.3595783967963964e-05,0.0222352810380699,-1.1245883967963963e-05
0.023029398218001,-8.2246073633776e-06,0.023029398218001,-3.743040376663549e-05,0.023029398218001,-1.1581604519962585e-05,0.023029398218001,-1.1078100376551346e-05
0.0238235153979321,-8.89594490674958e-06,0.0238235153979321,-3.508001830901616e-05,0.0238235153979321,-1.2252986981272354e-05,0.0238235153979321,-9.231716509363824e-06
0.0246176325778631,-5.538954263236341e-06,0.0246176325778631,-1.0237973784862056e-05,0.0246176325778631,-1.1581689505033337e-05,0.0246176325778631,-9.567602784079116e-06
0.0254117497577942,-3.692796802690213e-06,0.0254117497577942,9.901825795160176e-06,0.0254117497577942,-1.3763461963620091e-05,0.0254117497577942,-1.4266902684693888e-05
0.0262058669377253,-6.210315174145031e-06,0.0262058669377253,9.73526698800174e-06,0.0262058669377253,-1.493855107899164e-05,0.0262058669377253,-1.963817637062119e-05
0.0269999841176564,-4.531963570526268e-06,0.0269999841176564,1.0574483214836868e-05,0.0269999841176564,-1.6952759715128476e-05,0.0269999841176564,-1.9134810072217903e-05
0.0277941012975874,-5.53903e-06,0.0277941012975874,1.5610004388365337e-05,0.0277941012975874,-1.661710383981967e-05,0.0277941012975874,-1.8295601645637004e-05
0.0285882184775185,-5.538971423334768e-06,0.0285882184775185,1.8295568758987796e-05,0.0285882184775185,-1.896704686151831e-05,0.0285882184775185,-1.930266094873474e-05
0.0293823356574496,-3.0214939760926908e-06,0.0293823356574496,1.6952908787681518e-05,0.0293823356574496,-2.0981036818477725e-05,0.0293823356574496,-1.7624335984601898e-05
0.0301764528373806,-5.538880468186427e-06,0.0301764528373806,1.460303956358032e-05,0.0301764528373806,-2.0309839875308665e-05,0.0301764528373806,-1.561011962592599e-05
0.0309705700173117,-4.196280699853647e-06,0.0309705700173117,1.644913028958908e-05,0.0309705700173117,-1.628155209956094e-05,0.0309705700173117,-1.393156337481706e-05
0.0317646871972428,-3.1891562366562425e-06,0.0317646871972428,1.1245983889417457e-05,0.0317646871972428,-1.2253064947269863e-05,0.0317646871972428,-1.2588721649089954e-05
0.0325588043771738,-2.85344e-06,0.0325588043771738,1.023881295292902e-05,0.0325588043771738,-1.3260090747907844e-05,0.0325588043771738,-8.560300747962966e-06
0.0333529215571049,-2.853403552152414e-06,0.0333529215571049,1.258857243280488e-05,0.0333529215571049,-1.1581713898166546e-05,0.0333529215571049,-6.881838223923792e-06
0.034147038737036,-1.5107435808461509e-06,0.034147038737036,7.88927253219015e-06,0.034147038737036,-1.5777476313712676e-05,0.034147038737036,-7.5531682095769244e-06
0.0349411559169671,-1.51064e-06,0.0349411559169671,-1.6740174351846246e-07,0.0349411559169671,-1.7624097500425728e-05,0.0349411559169671,-9.567298185865738e-06
0.0357352730968981,-2.8533945076374166e-06,0.0357352730968981,5.20314803126112e-06,0.0357352730968981,-1.3931625103997103e-05,0.0357352730968981,-1.225290901561362e-05
0.0365293902768292,-4.8676053377241056e-06,0.0365293902768292,1.0574434233971762e-05,0.0365293902768292,-1.39315e-05,0.0365293902768292,-1.4938567116802216e-05
0.0373235074567603,-4.867623695417612e-06,0.0373235074567603,6.210385324984669e-06,0.0373235074567603,-1.5609977933961643e-05,0.0373235074567603,-1.5777792119741526e-05
0.0381176246366913,-4.196198759297998e-06,0.0381176246366913,2.517656690975335e-06,0.0381176246366913,-1.326006875898779e-05,0.0381176246366913,-1.4938527104304843e-05
0.0389117418166224,-3.189213779775489e-06,0.0389117418166224,-1.6765225278428404e-07,0.0389117418166224,-1.2253073780508092e-05,0.0389117418166224,-1.2588872154518882e-05
0.0397058589965535,-4.196177998789943e-06,0.0397058589965535,-4.531704660166628e-06,0.0397058589965535,-1.1581634667817603e-05,0.0397058589965535,-1.2924382666091196e-05
0.0404999761764846,-5.538989715128468e-06,0.0404999761764846,7.552857437656241e-06,0.0404999761764846,-9.567470427007292e-06,0.0404999761764846,-1.5609919430256938e-05
0.0412940933564156,-5.874717191556702e-06,0.0412940933564156,1.7959812935831558e-05,0.0412940933564156,-8.560318425580882e-06,0.0412940933564156,-1.2756523872897471e-05
0.0420882105363467,-4.867647814279827e-06,0.0420882105363467,9.734999465411289e-06,0.0420882105363467,-1.0910173278513924e-05,0.0420882105363467,-1.1749415588274262e-05
0.0428823277162778,-6.210297786628913e-06,0.0428823277162778,-9.901312624328288e-06,0.0428823277162778,-8.896193320511703e-06,0.0428823277162778,-1.2924293057953196e-05
0.0436764448962088,-6.881773410546079e-06,0.0436764448962088,-3.3064692670778896e-05,0.0436764448962088,-9.56736341054608e-06,0.0436764448962088,-1.158169317890784e-05
0.0444705620761399,-7.88886190436946e-06,0.0444705620761399,-4.582219078740628e-05,0.0444705620761399,-1.2588555712153235e-05,0.0444705620761399,-1.4602755711675665e-05
0.045264679256071,-6.546155077119243e-06,0.045264679256071,-4.0451840306909616e-05,0.045264679256071,-1.2253008769345116e-05,0.045264679256071,-1.4267208769345116e-05
0.046058796436002,-8.560300960119715e-06,0.046058796436002,-3.0380745199625837e-05,0.046058796436002,-1.527428644011225e-05,0.046058796436002,-1.577779322028053e-05
0.0468529136159331,-4.8676242446880364e-06,0.0468529136159331,-2.23237618742273e-05,0.0468529136159331,-1.762418273406411e-05,0.0468529136159331,-1.71206e-05
0.0476470307958642,-4.531959251861465e-06,0.0476470307958642,-1.4267902035961465e-05,0.0476470307958642,-1.6617187755584396e-05,0.0476470307958642,-1.71206e-05
0.0484411479757953,-7.217344057821578e-06,0.0484411479757953,-6.2109478271904e-06,0.0484411479757953,-1.527438797141678e-05,0.0484411479757953,-1.6281454978859816e-05
0.0492352651557263,-6.210464190489824e-06,0.0492352651557263,4.531458636969163e-06,0.0492352651557263,-1.4938614730163274e-05,0.0492352651557263,-1.3931603111142922e-05
0.0500293823356574,-6.881805065055291e-06,0.0500293823356574,7.888835325721345e-06,0.0500293823356574,-1.5274292532527647e-05,0.0500293823356574,-1.695273279274881e-05
0.0508234995155885,-7.217519795218568e-06,0.0508234995155885,1.8463436860474693e-06,0.0508234995155885,-1.6952798976092843e-05,0.0508234995155885,-1.7288499795218566e-05
0.0516176166955195,-7.553195300427166e-06,0.0516176166955195,-1.2253359905959108e-05,0.0516176166955195,-1.5610007057020812e-05,0.0516176166955195,-1.7624210584480124e-05
0.0524117338754506,-6.378367825534186e-06,0.0524117338754506,-2.937217455054208e-05,0.0524117338754506,-1.5945672049847373e-05,0.0524117338754506,-1.812765807893403e-05
0.0532058510553817,-6.546109654509285e-06,0.0532058510553817,-4.078669650663142e-05,0.0532058510553817,-1.4267303454907143e-05,0.0532058510553817,-1.628151379731609e-05
0.0539999682353128,-6.881806571709491e-06,0.0539999682353128,-3.910896714145255e-05,0.0539999682353128,-1.4938573143418982e-05,0.0539999682353128,-1.561002685658102e-05
0.0547940854152438,-5.874738496798758e-06,0.0547940854152438,-3.306641098079255e-05,0.0547940854152438,-1.49386e-05,0.0547940854152438,-1.561e-05
0.0555882025951749,-6.210415063743294e-06,0.0555882025951749,-2.769507586735645e-05,0.0555882025951749,-1.5609993418280823e-05,0.0555882025951749,-1.2252998354406822e-05
0.056382319775106,-4.699932594980923e-06,0.056382319775106,-2.0310546014743825e-05,0.056382319775106,-1.359600346132141e-05,0.056382319775106,-1.1749450870381026e-05
0.057176436955037,-8.224330157692182e-06,0.057176436955037,-7.554232766796432e-06,0.057176436955037,-1.443493337447062e-05,0.057176436955037,-1.2924306714731863e-05
0.0579705541349681,-8.22461e-06,0.0579705541349681,3.352423577946508e-07,0.0579705541349681,-1.3595848469883797e-05,0.0579705541349681,-1.4434912751898878e-05
0.0587646713148992,-5.874804884562994e-06,0.0587646713148992,3.860402673263877e-06,0.0587646713148992,-1.527423936791127e-05,0.0587646713148992,-1.6952709050060768e-05
0.0595587884948302,-4.867644591035587e-06,0.0595587884948302,7.721014067286416e-06,0.0595587884948302,-1.52743e-05,0.0595587884948302,-1.69528e-05
0.0603529056747613,-6.378265202675927e-06,0.0603529056747613,5.706885591231784e-06,0.0603529056747613,-1.359579280401389e-05,0.0603529056747613,-1.561e-05
0.0611470228546924,-5.70693521702279e-06,0.0611470228546924,7.888698045647292e-06,0.0611470228546924,-1.2588797825534184e-05,0.0611470228546924,-1.561e-05
0.0619411400346235,-6.546056625182942e-06,0.0619411400346235,1.728779020280409e-05,0.0619411400346235,-1.3931398600292708e-05,0.0619411400346235,-1.762404790043906e-05
0.0627352572145545,-5.53908426116891e-06,0.0627352572145545,6.546698790471225e-06,0.0627352572145545,-1.6616955302112797e-05,0.0627352572145545,-1.6952836174471802e-05
0.0635293743944856,-5.53903e-06,0.0635293743944856,-1.5609285582611073e-05,0.0635293743944856,-1.5610032473634934e-05,0.0635293743944856,-1.5274354122724887e-05
0.0643234915744167,-6.210412876397982e-06,0.0643234915744167,-3.474459697537958e-05,0.0643234915744167,-1.426721424741624e-05,0.0643234915744167,-1.5777794657749422e-05
0.0651176087543477,-7.55321259925824e-06,0.0651176087543477,-2.3666651896280853e-05,0.0651176087543477,-1.4938601849634296e-05,0.0651176087543477,-1.359578519851648e-05
0.0659117259342788,-6.881882613605115e-06,0.0659117259342788,-1.930310697910742e-05,0.0659117259342788,-1.5106384351261635e-05,0.0659117259342788,-1.225312522721023e-05
0.0667058431142099,-8.224513808500137e-06,0.0667058431142099,-2.7358822853866247e-05,0.0667058431142099,-1.4267260116553358e-05,0.0667058431142099,-1.0238944288324326e-05
0.067499960294141,-8.22461e-06,0.067499960294141,-5.79064725369546e-05,0.067499960294141,-1.2588783926815688e-05,0.067499960294141,-1.0574483214636863e-05
0.068294077474072,-5.8747866584218365e-06,0.068294077474072,-9.214822869310745e-05,0.068294077474072,-1.3595771431983356e-05,0.068294077474072,-1.2252952386638927e-05
0.0690881946540031,-4.867636779876571e-06,0.0690881946540031,-0.0001022199322019,0.0690881946540031,-1.3092203390308552e-05,0.0690881946540031,-1.4602884180130918e-05
0.0698823118339342,-5.203292733129838e-06,0.0698823118339342,-7.603860678256891e-05,0.0698823118339342,-1.32600813610143e-05,0.0698823118339342,-1.4938562733129836e-05
0.0706764290138652,-4.53199001774443e-06,0.0706764290138652,-4.246890086934307e-05,0.0706764290138652,-1.527411994676671e-05,0.0706764290138652,-1.49386e-05
0.0714705461937963,-4.867607253818709e-06,0.0714705461937963,-1.124801538808438e-05,0.0714705461937963,-1.292455922326904e-05,0.0714705461937963,-1.560995450763742e-05
0.0722646633737274,-4.531945483490375e-06,0.0722646633737274,2.0308344556517083e-05,0.0722646633737274,-1.493850709905775e-05,0.0722646633737274,-1.443505419452246e-05
0.0730587805536585,-4.53193e-06,0.0730587805536585,2.6016460248858274e-05,0.0730587805536585,-1.49386e-05,0.0730587805536585,-1.4938587667576404e-05
0.0738528977335895,-4.364080479054264e-06,0.0738528977335895,1.4602932575404578e-05,0.0738528977335895,-1.2253007664868233e-05,0.0738528977335895,-1.2253007664868233e-05
0.0746470149135206,-4.867576052258017e-06,0.0746470149135206,4.533008951625615e-06,0.0746470149135206,-1.3595656139354712e-05,0.0746470149135206,-1.0910343860645287e-05
0.0754411320934517,-6.210305172857331e-06,0.0754411320934517,-4.195483621434806e-06,0.0754411320934517,-1.35958e-05,0.0754411320934517,-1.3092013408779256e-05
0.0762352492733827,-8.895838446170562e-06,0.0762352492733827,-2.0140881400455223e-05,0.0762352492733827,-1.4938514222765883e-05,0.0762352492733827,-9.56763516140679e-06
0.0770293664533138,-7.553276726047975e-06,0.0770293664533138,-1.6617248904872618e-05,0.0770293664533138,-1.2588799271323245e-05,0.0770293664533138,-9.56741e-06
0.0778234836332449,-4.867685351207408e-06,0.0778234836332449,-4.867872161815802e-06,0.0778234836332449,-1.2253006918926687e-05,0.0778234836332449,-1.124586540557266e-05
0.078617600813176,-6.881817250242595e-06,0.078617600813176,3.356986015096242e-06,0.078617600813176,-1.2252998968837133e-05,0.078617600813176,-9.903100171911673e-06
0.079411717993107,-4.196507306587281e-06,0.079411717993107,9.231103391646715e-06,0.079411717993107,-1.1246003990357446e-05,0.079411717993107,-1.0070982663110898e-05
0.0802058351730381,-2.182204429943741e-06,0.0802058351730381,8.896037405126682e-06,0.0802058351730381,-1.1917245189746634e-05,0.0802058351730381,-1.2252821870758348e-05
0.0809999523529692,-5.538828576242352e-06,0.0809999523529692,7.553300569143051e-06,0.0809999523529692,-1.2252979857564234e-05,0.0809999523529692,-1.2588679857564234e-05
0.0817940695329002,-4.19628151897935e-06,0.0817940695329002,9.903009842553476e-06,0.0817940695329002,-1.2253e-05,0.0817940695329002,-1.3260074240510326e-05
0.0825881867128313,-3.524841234107841e-06,0.0825881867128313,3.860631106468596e-06,0.0825881867128313,-1.3595777531784318e-05,0.0825881867128313,-1.292440561705392e-05
0.0833823038927624,-5.538786258879447e-06,0.0833823038927624,-2.852627533228496e-06,0.0833823038927624,-1.3092260941330708e-05,0.0833823038927624,-1.426703750591963e-05
0.0841764210726934,-5.53903e-06,0.0841764210726934,-4.8674298053248615e-06,0.0841764210726934,-1.4938416482333752e-05,0.0841764210726934,-1.6616866438386097e-05
0.0849705382526245,-5.203356103253915e-06,0.0849705382526245,4.363362163627658e-06,0.0849705382526245,-1.5609947793492174e-05,0.0849705382526245,-1.4603056619523488e-05
0.0857646554325556,-6.8817257977462445e-06,0.0857646554325556,2.131594855325232e-05,0.0857646554325556,-1.4938637681125994e-05,0.0857646554325556,-1.560994347831101e-05
0.0865587726124866,-8.224563688856566e-06,0.0865587726124866,3.306589477792606e-05,0.0865587726124866,-1.560997684425584e-05,0.0865587726124866,-1.695275368851168e-05
0.0873528897924177,-6.881837260596087e-06,0.0873528897924177,3.826953311533477e-05,0.0873528897924177,-1.594569568481884e-05,0.0873528897924177,-1.4938625891086946e-05
0.0881470069723488,-7.049650339094374e-06,0.0881470069723488,1.8633600308388173e-05,0.0881470069723488,-1.5274378643622505e-05,0.0881470069723488,-1.2924635930867512e-05
0.0889411241522799,-5.539174287369195e-06,0.0889411241522799,-1.6949401217911498e-05,0.0889411241522799,-1.5609967935927928e-05,0.0889411241522799,-1.3092183972739664e-05
0.0897352413322109,-6.881720795214165e-06,0.0897352413322109,-2.769430636319092e-05,0.0897352413322109,-1.6617025595856527e-05,0.0897352413322109,-1.3595762794234282e-05
0.090529358512142,-5.539100154238488e-06,0.090529358512142,-4.246512829762968e-05,0.090529358512142,-1.5106478926718312e-05,0.090529358512142,-1.6952624613097653e-05
0.0913234756920731,-3.524891655995871e-06,0.0913234756920731,-3.2563103140449164e-05,0.0913234756920731,-1.6281364032471877e-05,0.0913234756920731,-1.69528e-05
0.0921175928720041,-4.867617946766444e-06,0.0921175928720041,-3.860787637149157e-06,0.0921175928720041,-1.812768342725267e-05,0.0921175928720041,-1.6281406026616776e-05
0.0929117100519352,-6.210267920722916e-06,0.0929117100519352,-1.6826721897466178e-07,0.0929117100519352,-1.7120714060307237e-05,0.0929117100519352,-1.5610076040204825e-05
0.0937058272318663,-5.539091523482264e-06,0.0937058272318663,-8.895210186391695e-06,0.0937058272318663,-1.5610138425315106e-05,0.0937058272318663,-1.644912309908352e-05
0.0944999444117974,-5.53903e-06,0.0944999444117974,-1.980543627017745e-05,0.0944999444117974,-1.510643525276266e-05,0.0944999444117974,-1.628141174625412e-05
0.0952940615917284,-5.874703763666199e-06,0.0952940615917284,-2.433788080538248e-05,0.0952940615917284,-1.2924505536895217e-05,0.0952940615917284,-1.577782435764456e-05
0.0960881787716595,-3.860583844491969e-06,0.0960881787716595,-2.735931923286106e-05,0.0960881787716595,-1.29244e-05,0.0960881787716595,-1.4938622433979744e-05
0.0968822959515906,-5.87445612028997e-06,0.0968822959515906,-3.575080049574944e-05,0.0968822959515906,-1.2253087960340044e-05,0.0968822959515906,-1.1246383781870243e-05
0.0976764131315216,-5.035571806449742e-06,0.0976764131315216,-4.246516553965068e-05,0.0976764131315216,-9.567703783045805e-06,0.0976764131315216,-1.22528898309476e-05
0.0984705303114527,-4.867644730163275e-06,0.0984705303114527,-4.38085821586938e-05,0.0984705303114527,-1.1581423238918284e-05,0.0984705303114527,-1.0406862027408124e-05
0.0992646474913838,-2.853573185152523e-06,0.0992646474913838,-4.850808923971358e-05,0.0992646474913838,-1.0910244395271252e-05,0.0992646474913838,-8.560432089640881e-06
0.1000587646713148,-6.880626504634879e-06,0.1000587646713148,-5.454920974806416e-05,0.1000587646713148,-9.567807830800802e-06,0.1000587646713148,-8.56031e-06
0.1008528818512459,-8.39223521381135e-06,0.1008528818512459,-4.918059924507261e-05,0.1008528818512459,-9.903050048670982e-06,0.1008528818512459,-5.707294597456801e-06
0.101646999031177,-6.210422662481695e-06,0.101646999031177,-4.448000573460224e-05,0.101646999031177,-1.1917297542313326e-05,0.101646999031177,-7.553217747120549e-06
0.1024411162111081,-5.874572600699177e-06,0.1024411162111081,-3.843563292365043e-05,0.1024411162111081,-1.3092322841288446e-05,0.1024411162111081,-9.567999601594142e-06
0.1032352333910391,-4.867432646418499e-06,0.1032352333910391,-2.5677841048881078e-05,0.1032352333910391,-1.3931796030372252e-05,0.1032352333910391,-1.3596589414326005e-05
0.1040293505709702,-4.196822134212398e-06,0.1040293505709702,-1.5269784989859562e-05,0.1040293505709702,-1.4939488201318597e-05,0.1040293505709702,-1.6282436234871696e-05
0.1048234677509013,-5.538131001145016e-06,0.1048234677509013,-5.042334846184382e-06,0.1048234677509013,-1.6951451501717525e-05,0.1048234677509013,-1.8629726752003772e-05
0.1056175849308323,-2.854843911342403e-06,0.1056175849308323,8.36174945049353e-07,0.1056175849308323,-1.795937353128626e-05,0.1056175849308323,-2.0308922552143764e-05
0.1064117021107634,-4.866874325539861e-06,0.1064117021107634,4.53054459594767e-06,0.1064117021107634,-1.829547405363135e-05,0.1064117021107634,-2.1652096214525407e-05
0.1072058192906945,-6.545737986445682e-06,0.1072058192906945,4.364118201583025e-06,0.1072058192906945,-1.8631223596833948e-05,0.1072058192906945,-2.2323747216427255e-05
0.1079999364706256,-7.553139420109624e-06,0.1079999364706256,7.552964831147261e-06,0.1079999364706256,-1.7120720873836155e-05,0.1079999364706256,-1.9302941731669943e-05
0.1087940536505566,-7.5531519502825985e-06,0.1087940536505566,1.023969598456728e-05,0.1087940536505566,-1.762384840641493e-05,0.1087940536505566,-1.9134334996976255e-05
0.1095881708304877,-6.546047773558268e-06,0.1095881708304877,2.350254742454986e-05,0.1095881708304877,-1.242061944465326e-05,0.1095881708304877,-1.2252133284850735e-05
0.1103822880104188,-6.208715232234055e-06,0.1103822880104188,4.045279592679897e-05,0.1103822880104188,-1.158135646071134e-05,0.1103822880104188,-8.224366464338675e-06
0.1111764051903498,-1.510468902640936e-06,0.1111764051903498,4.346273415845616e-05,0.1111764051903498,-1.0910713292077192e-05,0.1111764051903498,-7.553904384339522e-06
0.1119705223702809,-1.1751416859077814e-06,0.1119705223702809,2.334310115446689e-05,0.1119705223702809,-1.1916694942276656e-05,0.1119705223702809,-8.895203262376794e-06
0.112764639550212,-3.5237632275160385e-06,0.112764639550212,-2.1632178930626733e-05,0.112764639550212,-1.2923942809847017e-05,0.112764639550212,-8.224914793435323e-06
0.1135587567301431,-1.6887752932931825e-07,0.1135587567301431,4.8595045937569305e-06,0.1135587567301431,-1.3595594292969871e-05,0.1135587567301431,-9.566998585939744e-06
0.1143528739100741,-4.195590279267608e-06,0.1143528739100741,5.689263693809171e-05,0.1143528739100741,-1.4267093379375056e-05,0.1143528739100741,-1.258822020877579e-05
0.1151469910900052,-4.531926232890121e-06,0.1151469910900052,5.2704747088312406e-05,0.1151469910900052,-1.3595807534219758e-05,0.1151469910900052,-1.225300376710988e-05
0.1159411082699363,-2.8547675012344366e-06,0.1159411082699363,-4.87458793473041e-06,0.1159411082699363,-1.09102e-05,0.1159411082699363,-1.3260420432649033e-05
0.1167352254498673,-1.2593561255666662e-05,0.1167352254498673,-5.5899137852143215e-05,0.1167352254498673,-1.091143915083904e-05,0.1167352254498673,-1.560971404211407e-05
0.1175293426297984,-2.970611703381953e-05,0.1175293426297984,-7.469174255775256e-05,0.1175293426297984,-1.5274589360561862e-05,0.1175293426297984,-1.4603044680280931e-05
0.1183234598097295,-2.232891826569013e-05,0.1183234598097295,-7.200912482388732e-05,0.1183234598097295,-1.594524379402817e-05,0.1183234598097295,-1.4938371897014084e-05
0.1191175769896605,-1.0580759594057752e-05,0.1191175769896605,-6.127072305285773e-05,0.1191175769896605,-1.5610178847066678e-05,0.1191175769896605,-1.49386e-05
0.1199116941695916,-6.547671638665453e-06,0.1199116941695916,-5.287573259660206e-05,0.1199116941695916,-1.6616712088407752e-05,0.1199116941695916,-1.594531208840775e-05
0.1207058113495227,3.1868269503207505e-06,0.1207058113495227,-3.441348681262214e-05,0.1207058113495227,-1.5777999413533463e-05,0.1207058113495227,-1.527445952132297e-05
0.1214999285294538,1.4433987723228303e-05,0.1214999285294538,-7.55563738590979e-06,0.1214999285294538,-1.6617024451852107e-05,0.1214999285294538,-1.52743e-05
0.1222940457093848,1.5106177756825809e-05,0.1222940457093848,1.8631763812092085e-05,0.1222940457093848,-1.5945661348512586e-05,0.1222940457093848,-1.493846471979406e-05
0.1230881628893159,1.124369620356568e-05,0.1230881628893159,2.6683523545160172e-05,0.1230881628893159,-1.527402452421481e-05,0.1230881628893159,-1.2588562262107404e-05
0.123882280069247,5.003508867947156e-07,0.123882280069247,4.865143355455271e-06,0.123882280069247,-1.393161841214889e-05,0.123882280069247,-1.191789206074445e-05
0.124676397249178,-8.561903538844433e-06,0.124676397249178,-2.18036256912474e-06,0.124676397249178,-1.4266612870711644e-05,0.124676397249178,-1.35958e-05
0.1254705144291091,-1.174745216443733e-05,0.1254705144291091,1.172889620416115e-06,0.1254705144291091,-1.3092917667668877e-05,0.1254705144291091,-1.35958e-05
0.1262646316090402,-1.4937120311777223e-05,0.1262646316090402,6.879172187656845e-06,0.1262646316090402,-1.4602199082842676e-05,0.1262646316090402,-1.35958e-05
0.1270587487889713,-1.762335031191602e-05,0.1270587487889713,1.0405584774898177e-05,0.1270587487889713,-1.4267306211010498e-05,0.1270587487889713,-1.6951737889895027e-05
0.1278528659689023,-1.6617270003423716e-05,0.1278528659689023,-7.550188277341214e-06,0.1278528659689023,-1.493848666438419e-05,0.1278528659689023,-1.7624086664384188e-05
0.1286469831488334,-1.1917399744474384e-05,0.1286469831488334,-4.850753080282088e-05,0.1286469831488334,-1.6281371501578746e-05,0.1286469831488334,-1.6281428498421254e-05
0.1294411003287645,-1.8296278684920788e-05,0.1294411003287645,-7.939439673125576e-05,0.1294411003287645,-1.3595715162805418e-05,0.1294411003287645,-1.930257274420813e-05
0.1302352175086955,-2.3663573326198024e-05,0.1302352175086955,-9.281949648579544e-05,0.1302352175086955,-1.2924216076400232e-05,0.1302352175086955,-1.8294496458401405e-05
0.1310293346886266,-1.2247488269391878e-05,0.1310293346886266,-8.878438568750936e-05,0.1310293346886266,-1.2252434691964956e-05,0.1310293346886266,-1.4266634691964957e-05
0.1318234518685577,8.302192431662841e-07,0.1318234518685577,-7.000606155045272e-05,0.1318234518685577,-1.0911125825032337e-05,0.1318234518685577,-1.2925325825032335e-05
0.1326175690484888,6.878540331993704e-06,0.1326175690484888,-4.7849025446823545e-05,0.1326175690484888,-1.309101569748426e-05,0.1326175690484888,-1.0911293227372684e-05
0.1334116862284198,8.89521403579472e-06,0.1334116862284198,-1.7971706781960765e-05,0.1334116862284198,-1.158219695635888e-05,0.1334116862284198,-9.56794064148626e-06
0.1342058034083509,4.1973936492449255e-06,0.1342058034083509,-4.199637837005755e-06,0.1342058034083509,-1.3595301291058487e-05,0.1342058034083509,-1.2923568820906782e-05
0.134999920588282,2.517907873771483e-06,0.134999920588282,1.1744028037312243e-06,0.134999920588282,-1.628113140036539e-05,0.134999920588282,-1.510618176779762e-05
0.135794037768213,-1.846499682007108e-06,0.135794037768213,1.762511018539513e-05,0.135794037768213,-1.6952720158758612e-05,0.135794037768213,-1.5609904190510336e-05
0.1365881549481441,-5.202936933246269e-06,0.1365881549481441,3.6759e-05,0.1365881549481441,-1.527410346564739e-05,0.1365881549481441,-1.359521039694217e-05
0.1373822721280752,-3.188794836039614e-06,0.1373822721280752,3.675324730159995e-05,0.1373822721280752,-1.4267890327920773e-05,0.1373822721280752,-1.0574384945346538e-05
0.1381763893080062,-2.181053659518905e-06,0.1381763893080062,1.996357901723928e-05,0.1381763893080062,-1.6280413655111646e-05,0.1381763893080062,-1.0239293172444176e-05
0.1389705064879373,-1.690993491257885e-07,0.1389705064879373,-1.4973029203105422e-06,0.1389705064879373,-1.4268450354712716e-05,0.1389705064879373,-1.124527482264364e-05
0.1397646236678684,-5.033888887654465e-07,0.1397646236678684,-2.298511691701029e-05,0.1397646236678684,-1.1582872893668188e-05,0.1397646236678684,-1.3594686218040337e-05
0.1405587408477994,-2.1814921600814487e-06,0.1405587408477994,-2.83647469039051e-05,0.1405587408477994,-1.191719043149407e-05,0.1405587408477994,-1.5105906958042716e-05
0.1413528580277305,-1.1751200759100171e-06,0.1413528580277305,-9.235131422621628e-06,0.1413528580277305,-1.3595499873483304e-05,0.1413528580277305,-1.5609909953104673e-05
0.1421469752076616,3.1890037333149347e-06,0.1421469752076616,8.559754451159006e-06,0.1421469752076616,-1.560993710739559e-05,0.1421469752076616,-1.6952758071597062e-05
0.1429410923875927,-2.8545337061973795e-06,0.1429410923875927,1.3931187511185238e-05,0.1429410923875927,-1.7288226572287083e-05,0.1429410923875927,-1.7623965633388927e-05
0.1437352095675237,-1.2254151855957838e-05,0.1437352095675237,1.1243153278703268e-05,0.1437352095675237,-1.4938156978477756e-05,0.1437352095675237,-1.561e-05
0.1445293267474548,-1.6617582887527918e-05,0.1445293267474548,8.363485655056694e-07,0.1445293267474548,-1.3260513921209776e-05,0.1445293267474548,-1.560986202626341e-05
0.1453234439273859,-1.7791178201617233e-05,0.1453234439273859,-6.205489023646403e-06,0.1453234439273859,-1.426649557140924e-05,0.1453234439273859,-1.5274534809530252e-05
0.146117561107317,-1.6282235001620835e-05,0.146117561107317,-8.223496633182398e-06,0.146117561107317,-1.2421820618954528e-05,0.146117561107317,-1.4938785562057536e-05
0.146911678287248,-8.227874448466864e-06,0.146911678287248,-1.5607007589243024e-05,0.146911678287248,-1.2253067989168482e-05,0.146911678287248,-1.6280855924580222e-05
0.1477057954671791,-1.6992440561012648e-07,0.1477057954671791,-2.4671465183146297e-05,0.1477057954671791,-1.2253e-05,0.1477057954671791,-1.5274559426957056e-05
0.1484999126471102,6.54538135441554e-06,0.1484999126471102,-3.2729713621206044e-05,0.1484999126471102,-1.4938304540402014e-05,0.1484999126471102,-1.326032159469849e-05
0.1492940298270412,9.902873007575984e-06,0.1492940298270412,-4.045205940457744e-05,0.1492940298270412,-1.3595724335483006e-05,0.1492940298270412,-1.1749444139513187e-05
0.1500881470069723,3.861493382606314e-06,0.1500881470069723,-5.002211443906655e-05,0.1500881470069723,-1.1582035077688052e-05,0.1500881470069723,-1.2924586461866309e-05
0.1508822641869034,9.065702999780176e-06,0.1508822641869034,-6.629023562516524e-05,0.1508822641869034,-1.3932393577264227e-05,0.1508822641869034,-1.3931388302841972e-05
0.1516763813668344,1.4595814372592545e-05,0.1516763813668344,-3.5734669055382135e-05,0.1516763813668344,-1.6617422075085115e-05,0.1516763813668344,-1.3596444150170228e-05
0.1524704985467655,-1.5853222030051102e-07,0.1524704985467655,1.451923027469477e-07,0.1524704985467655,-1.7288076508551445e-05,0.1524704985467655,-1.4937753017102892e-05
0.1532646157266966,-2.1306664463864555e-05,0.1532646157266966,8.556248288775664e-06,0.1532646157266966,-1.3597587161243658e-05,0.1532646157266966,-1.2925374815223811e-05
0.1540587329066277,-2.8364128587610295e-05,0.1540587329066277,6.546797552644293e-06,0.1540587329066277,-1.4266974147997267e-05,0.1540587329066277,-1.225322585200273e-05
0.1548528500865587,-2.2996314124780174e-05,0.1548528500865587,2.8541372070102155e-06,0.1548528500865587,-1.5945383086006192e-05,0.1548528500865587,-1.3931183086006194e-05
0.1556469672664898,-2.29953e-05,0.1556469672664898,5.874595444458895e-06,0.1556469672664898,-1.695275848121146e-05,0.1556469672664898,-1.4267186160403818e-05
0.1564410844464209,-1.980578941384392e-05,0.1564410844464209,1.3931000150573633e-05,0.1564410844464209,-1.6952675032059736e-05,0.1564410844464209,-1.4938528592787153e-05
0.157235201626352,-1.5945145883044527e-05,0.157235201626352,9.228982114808384e-06,0.157235201626352,-1.5777927882910397e-05,0.157235201626352,-1.426737049361803e-05
0.158029318806283,-1.3763936571211768e-05,0.158029318806283,-1.5123900580172164e-06,0.158029318806283,-1.6280659567394963e-05,0.158029318806283,-1.4937388415820193e-05
0.1588234359862141,-1.460230455752141e-05,0.1588234359862141,-5.871623897757688e-06,0.1588234359862141,-1.4436309930885823e-05,0.1588234359862141,-1.1919443465221697e-05
0.1596175531661451,-1.695147756312913e-05,0.1596175531661451,-8.223287568756757e-06,0.1596175531661451,-1.4435e-05,0.1596175531661451,-8.897710270349207e-06
0.1604116703460762,-1.2422681601489163e-05,0.1604116703460762,-1.963366120823896e-05,0.1604116703460762,-1.4267269667416126e-05,0.1604116703460762,-8.89601e-06
0.1612057875260073,-6.212081894501858e-06,0.1612057875260073,-2.8364164364917823e-05,0.1612057875260073,-1.2924759332591097e-05,0.1612057875260073,-8.560399833147774e-06
0.1619999047059384,-2.518183186996776e-06,0.1619999047059384,-2.098208636679249e-05,0.1619999047059384,-1.2253080579890389e-05,0.1619999047059384,-9.06379956508221e-06
0.1627940218858694,1.1750325322984614e-06,0.1627940218858694,-9.56716016309736e-06,0.1627940218858694,-1.0238693588091064e-05,0.1627940218858694,-1.091023701302964e-05
0.1635881390658005,4.532106389380007e-06,0.1635881390658005,-4.986091239819694e-07,0.1635881390658005,-6.378181805309996e-06,0.1635881390658005,-1.2252911796552703e-05
0.1643822562457316,5.539463355423103e-06,0.1643822562457316,2.7701275328495125e-05,0.1643822562457316,-5.875261698312973e-06,0.1643822562457316,-1.1749562525630273e-05
0.1651763734256627,6.879139376797566e-06,0.1651763734256627,4.6820438990747815e-05,0.1651763734256627,-7.555112201850437e-06,0.1651763734256627,-1.22525269471888e-05
0.1659704906055937,1.178596670124828e-06,0.1659704906055937,2.6700905875712698e-05,0.1659704906055937,-1.157901882485746e-05,0.1659704906055937,-1.1246545296989372e-05
0.1667646077855248,-8.555501050416306e-06,0.1667646077855248,-1.0891627508462789e-05,0.1667646077855248,-1.0574997480098173e-05,0.1667646077855248,-1.4936775906306696e-05
0.1675587249654559,-5.063387907603095e-07,0.1675587249654559,-4.178380195293363e-05,0.1675587249654559,-1.09100837165032e-05,0.1675587249654559,-1.49386e-05
0.1683528421453869,5.2021954193722925e-06,0.1683528421453869,-5.454846388870108e-05,0.1683528421453869,-1.393089933735214e-05,0.1683528421453869,-1.393170022088262e-05
0.169146959325318,-4.86711408930102e-06,0.169146959325318,-4.280220189308334e-05,0.169146959325318,-1.6952645226175575e-05,0.169146959325318,-1.35958171970916e-05
0.1699410765052491,-6.881561232075627e-06,0.1699410765052491,-2.2658079744346003e-05,0.1699410765052491,-1.997414851434877e-05,0.1699410765052491,-1.4603191114998903e-05
0.1707351936851801,-4.195492998617126e-06,0.1707351936851801,-6.876579103445659e-06,0.1707351936851801,-2.0477477178226427e-05,0.1707351936851801,-1.7623872442745672e-05
0.1715293108651112,-1.1741524023207598e-06,0.1715293108651112,1.4609463320510755e-05,0.1715293108651112,-1.9972918595269608e-05,0.1715293108651112,-1.6280087328077343e-05
0.1723234280450423,8.377969136246137e-07,0.1723234280450423,3.1375724268214444e-05,0.1723234280450423,-1.6954973644671324e-05,0.1723234280450423,-1.2926815160745914e-05
0.1731175452249733,-9.896947165380358e-06,0.1731175452249733,6.611269941140486e-05,0.1731175452249733,-1.6281784554096808e-05,0.1731175452249733,-1.29244e-05
0.1739116624049044,-4.178094032716616e-05,0.1739116624049044,6.730700045279881e-05,0.1739116624049044,-1.9636972661541885e-05,0.1739116624049044,-1.493774359692513e-05
0.1747057795848355,-4.17945e-05,0.1747057795848355,-2.8507794196281226e-05,0.1747057795848355,-1.762475914385932e-05,0.1747057795848355,-1.8294668093567805e-05
0.1754998967647666,-1.9137746195740604e-05,0.1754998967647666,-6.058943168892408e-05,0.1754998967647666,-1.695288729488123e-05,0.1754998967647666,-1.7959943647440616e-05
0.1762940139446976,-9.231586189525372e-06,0.1762940139446976,-4.68296641712772e-05,0.1762940139446976,-1.5945670521190116e-05,0.1762940139446976,-1.695280589576198e-05
0.1770881311246287,-2.1805985935269915e-06,0.1770881311246287,-3.339817472795921e-05,0.1770881311246287,-1.4267366316893705e-05,0.1770881311246287,-1.728869402811877e-05
0.1778822483045598,6.548219637088691e-06,0.1778822483045598,-1.0234285788702918e-05,0.1778822483045598,-1.527403752894579e-05,0.1778822483045598,-1.8463242542385565e-05
0.1786763654844909,1.3262260633975224e-05,0.1786763654844909,4.189825291157176e-06,0.1786763654844909,-1.443461419549087e-05,0.1786763654844909,-1.7959128345008848e-05
0.1794704826644219,1.795684166823939e-05,0.1794704826644219,-9.726194269896666e-06,0.1794704826644219,-1.3596346098134708e-05,0.1794704826644219,-1.6282492261343075e-05
0.180264599844353,2.517376256500999e-05,0.180264599844353,-3.7751973175169314e-05,0.180264599844353,-1.35958e-05,0.180264599844353,-1.5778053801490956e-05
0.181058717024284,9.57297328475526e-06,0.181058717024284,-6.729697166396205e-05,0.181058717024284,-1.493812143603107e-05,0.181058717024284,-1.493889908466095e-05
0.1818528342042151,-8.220894833854542e-06,0.1818528342042151,-6.361567105480483e-05,0.1818528342042151,-1.4267340195579256e-05,0.1818528342042151,-1.3931710293368889e-05
0.1826469513841462,-1.6280906690523415e-05,0.1826469513841462,-1.6955657075352275e-05,0.1826469513841462,-1.5609917781651854e-05,0.1826469513841462,-1.5274217781651853e-05
0.1834410685640773,-1.9135017418934305e-05,0.1834410685640773,-8.898285592504676e-06,0.1834410685640773,-1.5777727532778747e-05,0.1834410685640773,-1.3259955056922222e-05
0.1842351857440083,-2.1651971745454818e-05,0.1842351857440083,-3.525878396263255e-05,0.1842351857440083,-1.49386e-05,0.1842351857440083,-1.1580893215976014e-05
0.1850293029239394,-1.8965976688639228e-05,0.1850293029239394,-8.007458875092973e-05,0.1850293029239394,-1.4937320860799032e-05,0.1850293029239394,-8.559926262050075e-06
0.1858234201038705,-1.6283358954773992e-05,0.1858234201038705,-0.0001075709210782,0.1858234201038705,-1.1584048693467488e-05,0.1858234201038705,-7.553954600745955e-06
0.1866175372838016,1.5002714041425606e-06,0.1866175372838016,-0.0001153075004637,0.1866175372838016,-1.2420310942778703e-05,0.1866175372838016,-1.057273930076078e-05
0.1874116544637326,1.0570555551193738e-05,0.1874116544637326,-7.303280724788642e-05,0.1874116544637326,-1.4266396475863938e-05,0.1874116544637326,-1.3930039086587544e-05
0.1882057716436637,-1.6475947423081462e-07,0.1882057716436637,-1.529090619356765e-05,0.1882057716436637,-1.5609613807445388e-05,0.1882057716436637,-1.695193106675212e-05
0.1889998888235948,-6.880879905339609e-06,0.1889998888235948,2.8024736391253746e-05,0.1889998888235948,-1.561e-05,0.1889998888235948,-1.5610188019744198e-05
0.1897940060035258,-1.2253050765330852e-05,0.1897940060035258,3.407330354662749e-05,0.1897940060035258,-1.35958e-05,0.1897940060035258,-1.5609997461733458e-05
0.1905881231834569,-1.896679167412346e-05,0.1905881231834569,2.1320441524386875e-05,0.1905881231834569,-1.359569583706173e-05,0.1905881231834569,-1.52743e-05
0.191382240363388,-1.762247238058044e-05,0.191382240363388,4.414882062781193e-05,0.191382240363388,-1.292404429851268e-05,0.191382240363388,-1.527440162467174e-05
0.192176357543319,-1.1915035343104056e-05,0.192176357543319,5.87468980445479e-05,0.192176357543319,-1.1750834310884472e-05,0.192176357543319,-1.561e-05
0.1929704747232501,-6.885147069897253e-06,0.1929704747232501,5.807624361108157e-05,0.1929704747232501,-1.4936492814326276e-05,0.1929704747232501,-1.561e-05
0.1937645919031812,-2.519983031693844e-06,0.1937645919031812,4.750673503754435e-05,0.1937645919031812,-1.5609654916619484e-05,0.1937645919031812,-1.527447254169026e-05
0.1945587090831123,-1.5110089954629994e-06,0.1945587090831123,1.9145193317248698e-05,0.1945587090831123,-1.561e-05,0.1945587090831123,-1.6281031004537e-05
0.1953528262630433,-1.6814281917093946e-07,0.1953528262630433,3.192629106347361e-06,0.1953528262630433,-1.6952506178859752e-05,0.1953528262630433,-1.5106657104438334e-05
0.1961469434429744,1.678250880599907e-07,0.1961469434429744,-3.524351760487508e-06,0.1961469434429744,-1.561009564832988e-05,0.1961469434429744,-1.3931583688727122e-05
0.1969410606229055,3.0212259221996954e-06,0.1969410606229055,1.4604886400356753e-05,0.1969410606229055,-1.3931576893360366e-05,0.1969410606229055,-1.5609961549502255e-05
0.1977351778028366,2.180912389637775e-06,0.1977351778028366,4.0615177510033226e-05,0.1977351778028366,-1.4938825522968176e-05,0.1977351778028366,-1.510688864429437e-05
0.1985292949827676,-2.8544364814728517e-06,0.1985292949827676,2.129871421961379e-05,0.1985292949827676,-1.594594912129583e-05,0.1985292949827676,-1.7288250878704168e-05
0.1993234121626987,-5.537044226442837e-06,0.1993234121626987,-2.765885964552157e-05,0.1993234121626987,-1.6616603554762163e-05,0.1993234121626987,-1.6617596445237838e-05
0.2001175293426297,-4.197025968157087e-06,0.2001175293426297,-6.694861799068198e-05,0.2001175293426297,-1.7623603023882185e-05,0.2001175293426297,-1.3262089920392715e-05
0.2009116465225608,-4.867331102326642e-06,0.2009116465225608,-8.341377705152128e-05,0.2009116465225608,-1.5610896693020076e-05,0.2009116465225608,-1.359565055116332e-05
0.2017057637024919,-7.8880108552454e-06,0.2017057637024919,-8.56024506282587e-05,0.2017057637024919,-1.2925199245072603e-05,0.2017057637024919,-1.3763550062063156e-05
0.202499880882423,-8.224559637568505e-06,0.202499880882423,-8.140752952289258e-05,0.202499880882423,-1.158180144972598e-05,0.202499880882423,-9.56803952139236e-06
0.203293998062354,-8.896008361542218e-06,0.203293998062354,-7.234302211918006e-05,0.203293998062354,-1.2252998361542218e-05,0.203293998062354,-7.217525734577834e-06
0.2040881152422851,-1.0909907657609136e-05,0.2040881152422851,-5.790493040417024e-05,0.2040881152422851,-1.1245997447947423e-05,0.2040881152422851,-9.56741e-06
0.2048822324222162,-8.895027334091532e-06,0.2048822324222162,-3.675153172387404e-05,0.2048822324222162,-1.1917398267176294e-05,0.2048822324222162,-9.567213465647414e-06
0.2056763496021472,-5.537849008766374e-06,0.2056763496021472,-1.123999504822938e-05,0.2056763496021472,-1.2252852375546107e-05,0.2056763496021472,-8.896305248907784e-06
0.2064704667820783,-2.855241263796389e-06,0.2064704667820783,2.173033687725196e-06,0.2064704667820783,-1.1917525158812942e-05,0.2064704667820783,-9.566959682374116e-06
0.2072645839620094,-5.5376228117542345e-06,0.2072645839620094,3.188612302442923e-06,0.2072645839620094,-1.2923872302442924e-05,0.2072645839620094,-1.0238448206868388e-05
0.2080587011419405,-6.881314579831601e-06,0.2080587011419405,-5.535744755731567e-06,0.2080587011419405,-1.3595547288033822e-05,0.2080587011419405,-8.896515420168398e-06
0.2088528183218715,-4.532467687175418e-06,0.2088528183218715,-1.3593956500132218e-05,0.2088528183218715,-1.023956812780508e-05,0.2088528183218715,-8.224763625561016e-06
0.2096469355018026,-1.1752126949667211e-06,0.2096469355018026,-7.889373582012051e-06,0.2096469355018026,-7.3856017897875455e-06,0.2096469355018026,-9.567300921688384e-06
0.2104410526817337,7.2178541030435e-06,0.2104410526817337,5.7073043343546495e-06,0.2104410526817337,-1.25887890944988e-05,0.2104410526817337,-1.1917500462622298e-05
0.2112351698616647,1.2252640915863598e-05,0.2112351698616647,1.2252353650693793e-05,0.2112351698616647,-1.3931607714544344e-05,0.2112351698616647,-1.493917453461824e-05
0.2120292870415958,1.0572681900195382e-05,0.2120292870415958,9.231225170496967e-06,0.2120292870415958,-1.443506062174081e-05,0.2120292870415958,-1.7623957585248482e-05
0.2128234042215269,5.542803615884099e-06,0.2128234042215269,7.88991630356435e-06,0.2128234042215269,-1.4602774174584111e-05,0.2128234042215269,-1.6953303151782176e-05
0.2136175214014579,3.190556440715248e-06,0.2136175214014579,1.526984831626417e-05,0.2136175214014579,-1.527389530093059e-05,0.2136175214014579,-1.5610809398138822e-05
0.214411638581389,-2.8506894951259176e-06,0.214411638581389,1.4267658418996303e-05,0.214411638581389,-1.6616488774671593e-05,0.214411638581389,-1.5777723619593308e-05
0.2152057557613201,-1.0236528223454756e-05,0.2152057557613201,1.1582426105036169e-05,0.2152057557613201,-1.594590652625904e-05,0.2152057557613201,-1.628124508992545e-05
0.2159998729412512,-1.493784792102316e-05,0.2159998729412512,1.292418512029233e-05,0.2159998729412512,-1.4267468599634586e-05,0.2159998729412512,-1.762398512029233e-05
0.2167939901211822,-1.1245945943967443e-05,0.2167939901211822,8.224668474015967e-06,0.2167939901211822,-1.3595808353448626e-05,0.2167939901211822,-1.561002506034588e-05
0.2175881073011133,-9.231846098083404e-06,0.2175881073011133,4.532020732956534e-06,0.2175881073011133,-1.2253181465913067e-05,0.2175881073011133,-1.4602854633521731e-05
0.2183822244810444,-1.0239416898789575e-05,0.2183822244810444,5.203709635896268e-06,0.2183822244810444,-1.3596274548404356e-05,0.2183822244810444,-1.4267105090319128e-05
0.2191763416609755,-1.2420150801170357e-05,0.2191763416609755,6.543090318936207e-06,0.2191763416609755,-1.5274588542363448e-05,0.2191763416609755,-1.3931716385284474e-05
0.2199704588409065,-1.0911228270347888e-05,0.2199704588409065,-4.987492679949343e-07,0.2199704588409065,-1.5945242975829754e-05,0.2199704588409065,-1.443465726590748e-05
0.2207645760208376,-1.0239158513362228e-05,0.2207645760208376,1.1910667530565664e-05,0.2207645760208376,-1.4268096283405571e-05,0.2207645760208376,-1.3596248115003844e-05
0.2215586932007686,-9.567669423093098e-06,0.2215586932007686,2.064212744955812e-05,0.2215586932007686,-1.2924918853914136e-05,0.2215586932007686,-1.4266940573042932e-05
0.2223528103806997,-9.56741e-06,0.2223528103806997,1.0241285278553832e-05,0.2223528103806997,-1.29244e-05,0.2223528103806997,-1.5106199586250935e-05
0.2231469275606308,-1.0910077492618985e-05,0.2231469275606308,-1.5095680579071812e-06,0.2231469275606308,-1.4938416237559971e-05,0.2231469275606308,-1.3595937817268348e-05
0.2239410447405619,-8.895839755400195e-06,0.2239410447405619,-1.225339723871434e-05,0.2239410447405619,-1.3931443251612238e-05,0.2239410447405619,-1.4434971628623534e-05
0.2247351619204929,-5.874788459331859e-06,0.2247351619204929,-1.930352149158929e-05,0.2247351619204929,-1.292508459331858e-05,0.2247351619204929,-1.3931773837327432e-05
0.225529279100424,-6.210891416414358e-06,0.225529279100424,-2.3331824978725125e-05,0.225529279100424,-1.6281930325912667e-05,0.225529279100424,-1.52743e-05
0.2263233962803551,-7.552200283346975e-06,0.2263233962803551,-2.5679115495857208e-05,0.2263233962803551,-1.7790852856735135e-05,0.2263233962803551,-1.52743e-05
0.2271175134602862,-6.882231414060254e-06,0.2271175134602862,-2.5345405707030127e-05,0.2271175134602862,-1.6617819943966924e-05,0.2271175134602862,-1.3261334242180764e-05
0.2279116306402172,-5.539654650658301e-06,0.2279116306402172,-1.0916914998065653e-05,0.2279116306402172,-1.4939380819137736e-05,0.2279116306402172,-1.4266731508517358e-05
0.2287057478201483,-6.378003451613711e-06,0.2287057478201483,3.855838714734985e-06,0.2287057478201483,-1.5945380138125168e-05,0.2287057478201483,-1.7623133793750568e-05
0.2294998650000794,-8.89558192103262e-06,0.2294998650000794,-9.732948374596297e-06,0.2294998650000794,-1.628134292257765e-05,0.2294998650000794,-1.6952914154844704e-05
0.2302939821800104,-8.224625068439518e-06,0.2302939821800104,-3.273008390841529e-05,0.2302939821800104,-1.6952784931560484e-05,0.2302939821800104,-1.7959877397340724e-05
0.2310880993599415,-6.882030043662841e-06,0.2310880993599415,-3.843634475922868e-05,0.2310880993599415,-1.49386e-05,0.2310880993599415,-1.6280937901188703e-05
0.2318822165398726,-8.559669137429141e-06,0.2318822165398726,-2.92041062709334e-05,0.2318822165398726,-1.4938691552185435e-05,0.2318822165398726,-1.2589157760927188e-05
0.2326763337198036,-6.210138168378626e-06,0.2326763337198036,-2.299022699723339e-05,0.2326763337198036,-1.5273947684237448e-05,0.2326763337198036,-1.4267622753728662e-05
0.2334704508997347,-5.539493723807661e-06,0.2334704508997347,-1.0918547083793276e-05,0.2334704508997347,-1.4435579697927835e-05,0.2334704508997347,-1.5273604403928125e-05
0.2342645680796658,-4.8679952283530966e-06,0.2342645680796658,-6.045217894680343e-06,0.2342645680796658,-1.3260739122418904e-05,0.2342645680796658,-1.762292170076416e-05
0.2350586852595969,-3.8609292129218686e-06,0.2350586852595969,-9.901569691727476e-06,0.2350586852595969,-1.2924533070973956e-05,0.2350586852595969,-1.7959766929026046e-05
0.2358528024395279,-4.867379416685909e-06,0.2358528024395279,6.5420271591085085e-06,0.2358528024395279,-1.6616181194514997e-05,0.2358528024395279,-1.5610584694399547e-05
0.236646919619459,-9.902590234505474e-06,0.236646919619459,2.3329300783709608e-05,0.236646919619459,-1.42674378919814e-05,0.236646919619459,-1.577778301277736e-05
0.2374410367993901,-2.568072885966266e-05,0.2374410367993901,3.978090678208432e-05,0.2374410367993901,-1.42672e-05,0.2374410367993901,-1.4267106648197076e-05
0.2382351539793211,-2.1986151639398e-05,0.2382351539793211,5.286403680198984e-05,0.2382351539793211,-1.4267330203672848e-05,0.2382351539793211,-1.2253e-05
0.2390292711592522,-1.090790999360402e-05,0.2390292711592522,9.208351929303705e-06,0.2390292711592522,-1.493837099833716e-05,0.2390292711592522,-1.225288549916858e-05
0.2398233883391833,-4.2013956256269634e-06,0.2398233883391833,-5.9198110606294805e-05,0.2398233883391833,-1.4267716564870847e-05,0.2398233883391833,-1.1917558282435426e-05
0.2406175055191144,3.85551247629741e-06,0.2406175055191144,-9.883853051053816e-05,0.2406175055191144,-1.4938181870948875e-05,0.2406175055191144,-1.1246318129051125e-05
0.2414116226990454,9.900228630442264e-06,0.2414116226990454,-0.0001139628213979,0.2414116226990454,-1.4267519042645938e-05,0.2414116226990454,-1.0574819042645938e-05
0.2422057398789765,-4.527200963756381e-06,0.2422057398789765,-0.0001065864197152,0.2422057398789765,-1.3260429934361131e-05,0.2422057398789765,-1.2252450109398117e-05
0.2429998570589076,-3.189381737870873e-06,0.2429998570589076,-5.79167629730655e-05,0.2429998570589076,-1.2588820869835567e-05,0.2429998570589076,-1.0239162609506707e-05
0.2437939742388386,-2.1820726751455773e-06,0.2437939742388386,-2.736039114283804e-05,0.2437939742388386,-1.393145643313923e-05,0.2437939742388386,-9.567431783105937e-06
0.2445880914187697,-6.882051907773098e-06,0.2445880914187697,-3.709543437826082e-05,0.2445880914187697,-1.1581445394050354e-05,0.2445880914187697,-8.224687302974822e-06
0.2453822085987008,-8.893452365549522e-06,0.2453822085987008,-4.346744373452978e-05,0.2453822085987008,-1.0238535418557176e-05,0.2453822085987008,-8.896274581442823e-06
0.2461763257786318,8.468120362060853e-07,0.2461763257786318,-2.229253542659002e-05,0.2461763257786318,-9.230747051636151e-06,0.2461763257786318,-9.9033063674453e-06
0.2469704429585629,1.928976300761164e-05,0.2469704429585629,5.416167043275808e-05,0.2469704429585629,-6.883466523399331e-06,0.2469704429585629,-1.0406347137021776e-05
0.247764560138494,2.8864799835047268e-05,0.247764560138494,7.820440310854971e-05,0.247764560138494,-7.720605070820015e-06,0.247764560138494,-1.158094912684711e-05
0.2485586773184251,2.5682196090779203e-05,0.2485586773184251,-1.0202851281195771e-05,0.2485586773184251,-8.224405361359914e-06,0.2485586773184251,-1.091047285693878e-05
0.2493527944983561,9.06816079223648e-06,0.2493527944983561,-8.675829023681559e-05,0.2493527944983561,-1.09095049204538e-05,0.2493527944983561,-1.05745868852668e-05
0.2501469116782872,-6.8800462597367895e-06,0.2501469116782872,-7.268026836669664e-05,0.2501469116782872,-1.3763282598016074e-05,0.2501469116782872,-1.1581487973807384e-05
0.2509410288582183,-1.3595214347538724e-05,0.2509410288582183,-1.7622479646758206e-05,0.2509410288582183,-1.628137559772325e-05,0.2509410288582183,-1.292432679316975e-05
0.2517351460381494,2.5203949993060137e-06,0.2517351460381494,2.9709423488682005e-05,0.2517351460381494,-1.5610679187751028e-05,0.2517351460381494,-1.0910693954728016e-05
0.2525292632180804,1.6947131491363878e-05,0.2525292632180804,3.0368251532960413e-05,0.2525292632180804,-1.930347803291476e-05,0.2525292632180804,-1.3596911475592512e-05
0.2533233803980115,-1.5450561866074225e-07,0.2533233803980115,-7.188216941036674e-06,0.2533233803980115,-2.165076855004684e-05,0.2533233803980115,-1.6950183642924058e-05
0.2541174975779426,-2.0632542287725204e-05,0.2541174975779426,-2.768214233265212e-05,0.2541174975779426,-2.299445037519336e-05,0.2541174975779426,-1.963670062383204e-05
0.2549116147578736,-3.2389199289874646e-05,0.2549116147578736,-2.333311742463939e-05,0.2549116147578736,-2.29953e-05,0.2549116147578736,-1.8296251515273654e-05
0.2557057319378047,-3.323391664407998e-05,0.2557057319378047,-8.229710065574398e-06,0.2557057319378047,-1.8968359993628747e-05,0.2557057319378047,-1.3932973363005536e-05
0.2564998491177358,-3.239505949053442e-05,0.2564998491177358,6.543313147120867e-06,0.2564998491177358,-1.561063792413207e-05,0.2564998491177358,-1.3260227584826412e-05
0.2572939662976669,-2.5681184984212525e-05,0.2572939662976669,5.038044846027782e-07,0.2572939662976669,-1.3931571246053132e-05,0.2572939662976669,-1.225304274763188e-05
0.2580880834775979,-1.0053882466458618e-06,0.2580880834775979,-1.426776470387164e-05,0.2580880834775979,-1.376337059430892e-05,0.2580880834775979,-7.888874707059378e-06
0.258882200657529,1.5270227828306823e-05,0.258882200657529,-1.964149654496636e-05,0.258882200657529,-1.1581769674389162e-05,0.258882200657529,-7.55326241859729e-06
0.2596763178374601,-8.459565498701956e-07,0.2596763178374601,-3.189213814251891e-05,0.2596763178374601,-1.2252597365904352e-05,0.2596763178374601,-7.721271313049868e-06
0.2604704350173911,-1.7612271437609335e-05,0.2604704350173911,-3.3736387890074536e-05,0.2604704350173911,-1.124661571570489e-05,0.2604704350173911,-8.224252149254255e-06
0.2612645521973222,-2.4334313473049535e-05,0.2612645521973222,-2.467891188752086e-05,0.2612645521973222,-1.3594474695827926e-05,0.2612645521973222,-1.2921749397295684e-05
0.2620586693772533,-2.43381e-05,0.2620586693772533,-1.091593118291714e-05,0.2620586693772533,-1.6615841926316695e-05,0.2620586693772533,-1.7622242996492633e-05
0.2628527865571843,-2.484156462241567e-05,0.2628527865571843,-3.526815332704501e-06,0.2628527865571843,-1.7623929271713304e-05,0.2628527865571843,-2.0476832949962014e-05
0.2636469037371154,-2.131732733931444e-05,0.2636469037371154,5.030596079514213e-07,0.2636469037371154,-1.6281562798238604e-05,0.2636469037371154,-2.1652457545479327e-05
0.2644410209170465,-1.2420547958546123e-05,0.2644410209170465,7.88896306159442e-06,0.2644410209170465,-1.6952738094499168e-05,0.2644410209170465,-2.0981120407213213e-05
0.2652351380969776,-2.854461764579474e-06,0.2652351380969776,9.902983228048142e-06,0.2652351380969776,-1.4603075160536671e-05,0.2652351380969776,-1.796022111895428e-05
0.2660292552769086,-8.732310076841179e-06,0.2660292552769086,9.235536677924817e-06,0.2660292552769086,-1.561043117714828e-05,0.2660292552769086,-1.980636170748576e-05
0.2668233724568397,-2.1642397932173185e-05,0.2668233724568397,2.1139592938580564e-05,0.2668233724568397,-1.6951740044080996e-05,0.2668233724568397,-2.030940247706225e-05
0.2676174896367708,-1.9304210456615084e-05,0.2676174896367708,2.8026376552051712e-05,0.2676174896367708,-1.3765649937544926e-05,0.2676174896367708,-1.5613020913230167e-05
0.2684116068167018,-1.7289497417883016e-05,0.2684116068167018,1.997808962201277e-05,0.2684116068167018,-1.3595883093397264e-05,0.2684116068167018,-1.3764514324485754e-05
0.2692057239966329,-1.0912417169113418e-05,0.2692057239966329,1.3933600476002187e-05,0.2692057239966329,-1.3931383306888768e-05,0.2692057239966329,-1.493819155673012e-05
0.269999841176564,-2.183785889623778e-06,0.269999841176564,2.047629058678276e-05,0.269999841176564,-1.5106164985321192e-05,0.269999841176564,-1.5609865700182698e-05
0.270793958356495,1.090951334161098e-05,0.270793958356495,1.896707922755483e-05,0.270793958356495,-1.712049435976371e-05,0.270793958356495,-1.7959776753057662e-05
0.2715880755364261,2.1316133524082667e-05,0.2715880755364261,-8.226909417287255e-06,0.2715880755364261,-1.6617068063503445e-05,0.2715880755364261,-1.76242e-05
0.2723821927163572,1.3257085262296896e-05,0.2723821927163572,-3.239408520300864e-05,0.2723821927163572,-1.62814e-05,0.2723821927163572,-1.76242e-05
0.2731763098962882,8.370214217733663e-07,0.2731763098962882,-2.9019318228747032e-05,0.2731763098962882,-1.6281530858093058e-05,0.2731763098962882,-1.7623807425720824e-05
0.2739704270762193,-4.8635172893410346e-06,0.2739704270762193,1.859694676945068e-05,0.2739704270762193,-1.661685807482619e-05,0.2739704270762193,-1.6617825775521432e-05
0.2747645442561504,-1.5125668608885306e-06,0.2747645442561504,7.298318493281569e-05,0.2747645442561504,-1.628159268666284e-05,0.2747645442561504,-1.795912925334865e-05
0.2755586614360815,-8.395322843620972e-07,0.2755586614360815,6.965883143460258e-05,0.2755586614360815,-1.5610286286920515e-05,0.2755586614360815,-1.963768428269872e-05
0.2763527786160125,-1.510452801157573e-06,0.2763527786160125,1.8722415603054617e-07,0.2763527786160125,-1.6281212799484646e-05,0.2763527786160125,-1.96384e-05
0.2771468957959436,1.0067695733995214e-06,0.2771468957959436,-4.3802928545605645e-05,0.2771468957959436,-1.56100881141101e-05,0.2771468957959436,-1.7288808399385347e-05
0.2779410129758747,5.203373888853399e-06,0.2779410129758747,-4.531958253578072e-05,0.2779410129758747,-1.7624178055409876e-05,0.2779410129758747,-1.5609967083114818e-05
0.2787351301558057,7.888469768477595e-06,0.2787351301558057,-6.261165203811537e-05,0.2787351301558057,-1.6281179882599554e-05,0.2787351301558057,-1.3595910058700222e-05
0.2795292473357368,5.203121117970174e-06,0.2795292473357368,-8.610722220507457e-05,0.2795292473357368,-1.4938808882029826e-05,0.2795292473357368,-1.4267043322921924e-05
0.2803233645156679,4.532466684503865e-06,0.2803233645156679,-8.778385828874034e-05,0.2803233645156679,-1.5609463315496136e-05,0.2803233645156679,-1.3764002553345468e-05
0.2811174816955989,3.1900165415196866e-06,0.2811174816955989,-7.268856116553382e-05,0.2811174816955989,-1.561e-05,0.2811174816955989,-1.4602352124831528e-05
0.2819115988755301,5.049047464325125e-07,0.2819115988755301,-6.731021350094814e-05,0.2819115988755301,-1.4938939187618516e-05,0.2819115988755301,-1.4267369593809258e-05
0.2827057160554611,1.6796905024906536e-07,0.2827057160554611,-6.093158092576561e-05,0.2827057160554611,-1.6280919797573288e-05,0.2827057160554611,-1.3763780093790656e-05
0.2834998332353922,1.8459874648699075e-06,0.2834998332353922,-5.119604471471815e-05,0.2834998332353922,-1.3596364059232596e-05,0.2834998332353922,-1.191768778022086e-05
0.2842939504153233,3.1890561431941183e-06,0.2842939504153233,-4.582313542722352e-05,0.2842939504153233,-1.0910367713611764e-05,0.2842939504153233,-9.735396266685066e-06
0.2850880675952543,1.174711369693771e-06,0.2850880675952543,-3.575069969046663e-05,0.2850880675952543,-1.0909999947843556e-05,0.2850880675952543,-9.231681420998892e-06
0.2858821847751854,-1.51235868149976e-06,0.2858821847751854,-2.165138909420708e-05,0.2858821847751854,-8.559606904821074e-06,0.2858821847751854,-8.895541269105e-06
0.2866763019551165,-8.897795063694438e-06,0.2866763019551165,-1.6448371237655033e-05,0.2866763019551165,-5.539285005843625e-06,0.2866763019551165,-6.880927470051869e-06
0.2874704191350475,-1.3592366109063257e-05,0.2874704191350475,-1.4268794273366251e-05,0.2874704191350475,-6.209929450414589e-06,0.2874704191350475,-4.533646941815134e-06
0.2882645363149786,-1.2924792088316566e-05,0.2882645363149786,-2.860105478022185e-06,0.2882645363149786,-6.881427911683433e-06,0.2882645363149786,-5.8739358292067295e-06
0.2890586534949096,-9.568875005192984e-06,0.2890586534949096,7.2131249887850895e-06,0.2890586534949096,-1.0908441997259652e-05,0.2890586534949096,-1.023689549630395e-05
0.2898527706748408,-8.896203915506197e-06,0.2898527706748408,-3.186134321206838e-06,0.2898527706748408,-1.3595024337975208e-05,0.2898527706748408,-1.1245609126740704e-05
0.2906468878547718,-8.560357414550495e-06,0.2906468878547718,-2.366380773219352e-05,0.2906468878547718,-1.35958e-05,0.2906468878547718,-1.1581552585449505e-05
0.2914410050347029,-6.210398713605965e-06,0.2914410050347029,-1.2420737205334169e-05,0.2914410050347029,-1.56100149005646e-05,0.2914410050347029,-1.2924421286520851e-05
0.292235122214634,-2.852871611753337e-06,0.292235122214634,-2.516164014588887e-06,0.292235122214634,-1.7959693312581244e-05,0.292235122214634,-1.628142582823121e-05
0.293029239394565,8.399536123925381e-07,0.293029239394565,7.723344468189496e-06,0.293029239394565,-1.661730217548551e-05,0.293029239394565,-1.64492e-05
0.2938233565744961,3.1872381361874124e-06,0.2938233565744961,1.5268186866894785e-05,0.2938233565744961,-1.728795660895182e-05,0.2938233565744961,-1.64492e-05
0.2946174737544272,3.5246075121204936e-06,0.2946174737544272,6.216427338441127e-06,0.2946174737544272,-1.8294932516478147e-05,0.2946174737544272,-1.577824498901457e-05
0.2954115909343582,-1.6594654646737125e-07,0.2954115909343582,-4.861922632704565e-06,0.2954115909343582,-1.5275856561742337e-05,0.2954115909343582,-1.628114054728314e-05
0.2962057081142893,-5.87262207292471e-06,0.2962057081142893,-7.216656146961276e-06,0.2962057081142893,-1.6952182959489382e-05,0.2962057081142893,-1.62814e-05
0.2969998252942204,-1.0909092030908204e-05,0.2969998252942204,-3.693455579244387e-06,0.2969998252942204,-1.628154772979899e-05,0.2969998252942204,-1.527452159469849e-05
0.2977939424741515,-1.6281010852849346e-05,0.2977939424741515,-3.5248421608484582e-06,0.2977939424741515,-1.7624102713212335e-05,0.2977939424741515,-1.695267839151542e-05
0.2985880596540825,-1.5609571234403704e-05,0.2985880596540825,1.846995756142034e-06,0.2985880596540825,-1.4938398227954684e-05,0.2985880596540825,-1.4938448670966013e-05
0.2993821768340136,-9.901903771348716e-06,0.2993821768340136,1.057532241179121e-05,0.2993821768340136,-1.2252850470583415e-05,0.2993821768340136,-1.29244e-05
0.3001762940139447,-4.531309245954687e-06,0.3001762940139447,1.426384791927942e-05,0.3001762940139447,-1.1580730942857244e-05,0.3001762940139447,-1.2923158488211084e-05
0.3009704111938757,-2.85468315118426e-06,0.3009704111938757,5.210043034170282e-06,0.3009704111938757,-9.23345041462051e-06,0.3009704111938757,-9.569896309774886e-06
0.3017645283738068,-5.049438068242007e-07,0.3017645283738068,-2.2307549165372134e-05,0.3017645283738068,-8.560708803307458e-06,0.3017645283738068,-8.225407606614915e-06
0.3025586455537379,-8.390961424416869e-07,0.3025586455537379,-3.792693160434299e-05,0.3025586455537379,-1.0909150995306184e-05,0.3025586455537379,-6.882419429340441e-06
0.3033527627336689,-1.0070498411804431e-06,0.3033527627336689,-3.810174982743454e-05,0.3033527627336689,-1.2252598739005916e-05,0.3033527627336689,-8.559808426745637e-06
0.3041468799136,-5.538344580404648e-06,0.3041468799136,-2.5011480109791683e-05,0.3041468799136,-1.2253e-05,0.3041468799136,-1.2588090736961136e-05
0.3049409970935311,-9.90308402514644e-06,0.3049409970935311,-8.224671441764179e-06,0.3049409970935311,-1.2924397542313323e-05,0.3049409970935311,-1.4938591398096642e-05
0.3057351142734621,-1.1581503371281464e-05,0.3057351142734621,-5.035407528461099e-06,0.3057351142734621,-1.359613820051487e-05,0.3057351142734621,-1.5274638200514872e-05
0.3065292314533932,-1.09105909378823e-05,0.3065292314533932,-4.5293889154105085e-06,0.3065292314533932,-1.5945406796588274e-05,0.3065292314533932,-1.762400453105885e-05
0.3073233486333243,-1.225189980481501e-05,0.3073233486333243,4.189078764070737e-06,0.3073233486333243,-1.4939425146388742e-05,0.3073233486333243,-1.6953350097592496e-05
0.3081174658132554,-1.426584488798362e-05,0.3081174658132554,1.7950640088071443e-05,0.3081174658132554,-1.560954829599454e-05,0.3081174658132554,-1.628185170400546e-05
0.3089115829931864,-1.3596152617600298e-05,0.3089115829931864,1.6785517107060398e-05,0.3089115829931864,-1.6952094764799404e-05,0.3089115829931864,-1.71201592542595e-05
0.3097057001731175,-1.1582360593585133e-05,0.3097057001731175,-1.000381461092891e-06,0.3097057001731175,-1.5946080296792567e-05,0.3097057001731175,-1.7791746468804954e-05
0.3104998173530486,-9.567873332069312e-06,0.3104998173530486,-2.0305359723792545e-05,0.3104998173530486,-1.8966304998445524e-05,0.3104998173530486,-1.628174748927554e-05
0.3112939345329796,-9.56741e-06,0.3112939345329796,-2.5344784820359796e-05,0.3112939345329796,-1.9974016962422917e-05,0.3112939345329796,-1.5610055358384724e-05
0.3120880517129107,-8.560255340625631e-06,0.3120880517129107,-2.5849182616923173e-05,0.3120880517129107,-1.829540322390761e-05,0.3120880517129107,-1.35958e-05
0.3128821688928418,-7.72146273754354e-06,0.3128821688928418,-3.172478532983124e-05,0.3128821688928418,-1.52743e-05,0.3128821688928418,-1.3595657185574309e-05
0.3136762860727728,-9.57308747941496e-06,0.3136762860727728,-3.776416722757537e-05,0.3136762860727728,-1.5273696008617305e-05,0.3136762860727728,-1.292452079827654e-05
0.314470403252704,-2.5333356788025525e-05,0.314470403252704,-3.239893175984452e-05,0.314470403252704,-1.3597059924951412e-05,0.314470403252704,-1.3259848015009718e-05
0.315264520432635,-2.769368068595594e-05,0.315264520432635,-1.3942651692804386e-05,0.315264520432635,-1.5273286204254247e-05,0.315264520432635,-1.39310944817017e-05
0.3160586376125661,-1.645433271138896e-05,0.3160586376125661,5.865680295666316e-06,0.3160586376125661,-1.52743e-05,0.3160586376125661,-1.057603215946547e-05
0.3168527547924971,-7.72376546972534e-06,0.3168527547924971,1.594258982385751e-05,0.3168527547924971,-1.0911547745671564e-05,0.3168527547924971,-1.25880779635362e-05
0.3176468719724282,-1.511641393290333e-06,0.3176468719724282,1.59457e-05,0.3176468719724282,-8.225043034718464e-06,0.3176468719724282,-1.393128348183455e-05
0.3184409891523593,8.560172410520339e-06,0.3184409891523593,6.546248417212005e-06,0.3184409891523593,-1.107806101557407e-05,0.3184409891523593,-1.39315e-05
0.3192351063322903,1.6616830258817072e-05,0.3192351063322903,-3.5757249840010825e-05,0.3192351063322903,-1.3596002299191207e-05,0.3192351063322903,-1.2924265129408537e-05
0.3200292235122214,1.4599407906904452e-05,0.3200292235122214,-7.56978292324364e-05,0.3200292235122214,-1.5106635967053416e-05,0.3200292235122214,-1.1917866287190504e-05
0.3208233406921525,2.192340843359115e-06,0.3208233406921525,-6.798530324757384e-05,0.3208233406921525,-1.5945003953363025e-05,0.3208233406921525,-1.3929829587589431e-05
0.3216174578720835,-9.223916911201069e-06,0.3216174578720835,-1.2961990152866563e-05,0.3216174578720835,-1.3597404466487228e-05,0.3216174578720835,-1.3596029209498174e-05
0.3224115750520147,-9.567230333704451e-06,0.3224115750520147,3.337720615825414e-05,0.3224115750520147,-1.2253718665182192e-05,0.3224115750520147,-1.2924759332591097e-05
0.3232056922319457,-1.1580819265318364e-05,0.3232056922319457,4.8166974622671135e-05,0.3232056922319457,-1.4937559015256258e-05,0.3232056922319457,-1.29244e-05
0.3239998094118768,-1.9636466082630704e-05,0.3239998094118768,2.53506794085428e-05,0.3239998094118768,-1.49386e-05,0.3239998094118768,-1.3260019420109613e-05
0.3247939265918079,-1.7960055183438918e-05,0.3247939265918079,-3.52216086056774e-06,0.3247939265918079,-1.49386e-05,0.3247939265918079,-1.4602775853248866e-05
0.3255880437717389,-6.88141285843805e-06,0.3255880437717389,-1.997445161826877e-05,0.3255880437717389,-1.527428149348518e-05,0.3255880437717389,-1.4602992532574102e-05
0.32638216095167,5.031397041281139e-07,0.32638216095167,-2.63528784327334e-05,0.32638216095167,-1.49386e-05,0.32638216095167,-1.6281263900565197e-05
0.3271762781316011,-1.5111097800175284e-06,0.3271762781316011,-2.920785527008413e-05,0.3271762781316011,-1.4938482554995618e-05,0.3271762781316011,-1.5610234890008764e-05
0.3279703953115321,-2.8524186469501466e-06,0.3279703953115321,-3.507603161843761e-05,0.3279703953115321,-1.4603155338262465e-05,0.3279703953115321,-1.6280889323475074e-05
0.3287645124914632,2.1789482626112177e-06,0.3287645124914632,-2.9712597866313168e-05,0.3287645124914632,-1.3093127555600109e-05,0.3287645124914632,-1.3765145905533828e-05
0.3295586296713942,-3.345237047819621e-07,0.3295586296713942,-2.165635771596694e-05,0.3295586296713942,-1.2924478263400554e-05,0.3295586296713942,-1.3931421689958562e-05
0.3303527468513254,8.55747371204694e-06,0.3303527468513254,-1.7961077332633274e-05,0.3303527468513254,-1.527355078832428e-05,0.3303527468513254,-1.3595907030239388e-05
0.3311468640312564,3.8096741159597856e-05,0.3311468640312564,-9.568847174207753e-06,0.3311468640312564,-1.77915688557862e-05,0.3311468640312564,-1.2253229948147232e-05
0.3319409812111875,2.9373806539689312e-05,0.3319409812111875,1.1581099540574842e-05,0.3319409812111875,-1.5610051633739156e-05,0.3319409812111875,-1.2588692056165796e-05
0.3327350983911186,-6.884607142812579e-06,0.3327350983911186,5.6059457651115165e-05,0.3327350983911186,-1.4602567205052803e-05,0.3327350983911186,-1.3595966397473596e-05
0.3335292155710496,-2.9374510279262367e-05,0.3335292155710496,3.8757543250919e-05,0.3335292155710496,-1.1918028223409892e-05,0.3335292155710496,-1.4938144860368816e-05
0.3343233327509807,-3.272778244659391e-05,0.3343233327509807,-1.891853824927667e-05,0.3343233327509807,-1.460064595727513e-05,0.3343233327509807,-1.3261508776703045e-05
0.3351174499309118,-2.853730705278086e-05,0.3351174499309118,-4.244962037972639e-05,0.3351174499309118,-1.628023716503201e-05,0.3351174499309118,-1.3595567433006404e-05
0.3359115671108428,-2.7695557586737505e-05,0.3359115671108428,-4.5149935864192095e-05,0.3359115671108428,-1.4939332095163974e-05,0.3359115671108428,-1.4937867904836023e-05
0.3367056842907739,-1.9306036974948468e-05,0.3367056842907739,-4.850706519411586e-05,0.3367056842907739,-1.4267466961176826e-05,0.3367056842907739,-1.8294265194115868e-05
0.337499801470705,-9.569844181688104e-06,0.337499801470705,-4.917963212522838e-05,0.337499801470705,-1.527404818784257e-05,0.337499801470705,-1.82956e-05
0.338293918650636,-2.518462274773662e-06,0.338293918650636,-4.3809250296685776e-05,0.338293918650636,-1.6281296817450384e-05,0.338293918650636,-1.6281606365099234e-05
0.3390880358305671,-1.5104279146312848e-06,0.3390880358305671,-3.0044174380700403e-05,0.3390880358305671,-1.6281278807845e-05,0.3390880358305671,-1.42672e-05
0.3398821530104982,3.1891076538890104e-06,0.3398821530104982,-1.1746844678429765e-05,0.3398821530104982,-1.359528246222417e-05,0.3398821530104982,-1.4266876538890106e-05
0.3406762701904293,3.01644112177218e-06,0.3406762701904293,1.50881454248027e-06,0.3406762701904293,-1.0910998642125573e-05,0.3406762701904293,-1.25887e-05
0.3414703873703603,-1.123490565601382e-05,0.3414703873703603,-3.856390958563792e-06,0.3414703873703603,-1.3258289159257491e-05,0.3414703873703603,-1.25887e-05
0.3422645045502914,-1.711693423374969e-05,0.3422645045502914,-7.21542526483997e-06,0.3422645045502914,-1.5608533681020038e-05,0.3422645045502914,-1.2924190525860004e-05
0.3430586217302225,-1.7623960079773363e-05,0.3430586217302225,-8.559670281014446e-06,0.3430586217302225,-1.3764479643976294e-05,0.3430586217302225,-1.0240079447499317e-05
0.3438527389101535,-1.5610662326409007e-05,0.3438527389101535,-2.332614297583844e-05,0.3438527389101535,-9.904369442509166e-06,0.3438527389101535,-7.889682710855554e-06
0.3446468560900846,-6.883401954213051e-06,0.3446468560900846,-3.3903583406297085e-05,0.3446468560900846,-1.0910017466403307e-05,0.3446468560900846,-8.89582746640331e-06
0.3454409732700157,-2.517886916611844e-06,0.3454409732700157,-2.3331355990199983e-05,0.3454409732700157,-1.3260020890692617e-05,0.3454409732700157,-1.0910132192358892e-05
0.3462350904499467,-2.8527516485651624e-06,0.3462350904499467,-1.1739074751260802e-06,0.3462350904499467,-1.225311472561886e-05,0.3462350904499467,-8.224915933844464e-06
0.3470292076298778,3.19036743732202e-06,0.3470292076298778,7.886279773436105e-06,0.3470292076298778,-1.3260538373270396e-05,0.3470292076298778,-1.0910901397232632e-05
0.3478233248098089,7.88491850490015e-06,0.3478233248098089,-2.1734867840818064e-06,0.3478233248098089,-1.493717445693617e-05,0.3478233248098089,-1.3593519131097873e-05
0.34861744198974,5.540681457367464e-06,0.34861744198974,-8.220363380281156e-06,0.34861744198974,-1.628045630204392e-05,0.34861744198974,-1.6279512604087843e-05
0.349411559169671,2.183903807312373e-06,0.349411559169671,-1.1579736192687626e-05,0.349411559169671,-1.561037276257288e-05,0.349411559169671,-1.7623454474854242e-05
0.3502056763496021,-1.668911378969744e-07,0.3502056763496021,-8.897104700594482e-06,0.3502056763496021,-1.728781580958082e-05,0.3502056763496021,-1.9302015809580823e-05
0.3509997935295332,-4.195182466365952e-06,0.3509997935295332,1.5939240202192322e-05,0.3509997935295332,-2.030901434606892e-05,0.3509997935295332,-2.064515082047508e-05
0.3517939107094642,-5.538878993285396e-06,0.3517939107094642,3.138606343402771e-05,0.3517939107094642,-2.03098e-05,0.3517939107094642,-1.829586426175056e-05
0.3525880278893953,-3.5247592512075347e-06,0.3525880278893953,1.1580921990182724e-05,0.3525880278893953,-1.795975260419433e-05,0.3525880278893953,-1.661713537457186e-05
0.3533821450693264,-1.5107626694531135e-06,0.3533821450693264,-7.721652676248148e-06,0.3533821450693264,-1.376393735013141e-05,0.3533821450693264,-1.7623954661093772e-05
0.3541762622492574,-2.181597048139064e-06,0.3541762622492574,-1.090577048139064e-05,0.3541762622492574,-1.5609557046159826e-05,0.3541762622492574,-1.6281178523079914e-05
0.3549703794291886,-8.402941745435593e-07,0.3549703794291886,2.507258254564406e-06,0.3549703794291886,-1.4268248179227113e-05,0.3549703794291886,-1.5610524089613556e-05
0.3557644966091196,-2.1811886772621998e-06,0.3557644966091196,1.7111341880917757e-05,0.3557644966091196,-1.359622566327088e-05,0.3557644966091196,-1.527451283163544e-05
0.3565586137890507,-4.195250274266958e-06,0.3565586137890507,1.0577684100120184e-05,0.3565586137890507,-1.493794684626856e-05,0.3565586137890507,-1.52743e-05
0.3573527309689818,-4.8674025095395344e-06,0.3573527309689818,-1.506545192041422e-06,0.3573527309689818,-1.49386e-05,0.3573527309689818,-1.443528438001708e-05
0.3581468481489128,-4.86763e-06,0.3581468481489128,-1.3929124532626791e-05,0.3581468481489128,-1.5609871595944696e-05,0.3581468481489128,-1.62810468792855e-05
0.3589409653288439,-7.553102729836089e-06,0.3589409653288439,-3.306546445133755e-05,0.3589409653288439,-1.561e-05,0.3589409653288439,-1.6952770682349857e-05
0.3597350825087749,-8.89587046352912e-06,0.3597350825087749,-4.515091162910642e-05,0.3597350825087749,-1.2924434884377508e-05,0.3597350825087749,-1.15813906947741e-05
0.360529199688706,-7.553304318870114e-06,0.360529199688706,-4.04508989343127e-05,0.360529199688706,-1.3259509750326549e-05,0.360529199688706,-9.567072714472312e-06
0.3613233168686371,-7.888621546707924e-06,0.3613233168686371,-3.726524043087101e-05,0.3613233168686371,-1.0912219233194464e-05,0.3613233168686371,-8.225763847539694e-06
0.3621174340485681,-6.2116164027944745e-06,0.3621174340485681,-3.608843745130637e-05,0.3621174340485681,-9.568367120810008e-06,0.3621174340485681,-6.21185568477894e-06
0.3629115512284993,-7.552461044872554e-06,0.3629115512284993,-3.105494608172792e-05,0.3629115512284993,-8.896389477563723e-06,0.3629115512284993,-6.881440522436277e-06
0.3637056684084303,-9.734348732911044e-06,0.3637056684084303,-3.2729899022103715e-05,0.3637056684084303,-7.889330586737772e-06,0.3637056684084303,-6.546260195579257e-06
0.3644997855883614,-1.325914815274529e-05,0.3644997855883614,-4.313448977632301e-05,0.3644997855883614,-6.882091954429632e-06,0.3644997855883614,-4.532473911559664e-06
0.3652939027682925,-1.0239169982566656e-05,0.3652939027682925,-4.145900554587036e-05,0.3652939027682925,-8.895763346180142e-06,0.3652939027682925,-6.210214455354216e-06
0.3660880199482235,-8.224559396080193e-06,0.3660880199482235,-2.853423553770029e-05,0.3660880199482235,-1.057452951784359e-05,0.3660880199482235,-7.217629641868121e-06
0.3668821371281546,-6.210130115571499e-06,0.3668821371281546,-2.198858986888501e-05,0.3668821371281546,-1.1749602928944164e-05,0.3668821371281546,-1.1581947863386669e-05
0.3676762543080857,-4.532144770375773e-06,0.3676762543080857,-2.366605572086112e-05,0.3676762543080857,-1.292423890622395e-05,0.3676762543080857,-1.3595585229624226e-05
0.3684703714880167,-5.202799203842082e-06,0.3684703714880167,-2.165419230941564e-05,0.3684703714880167,-1.2421198136647494e-05,0.3684703714880167,-1.2924930796157917e-05
0.3692644886679478,-5.20333e-06,0.3692644886679478,-1.0246150430450125e-05,0.3692644886679478,-1.3930527116711262e-05,0.3692644886679478,-1.5272786676083798e-05
0.3700586058478789,-3.19013987060556e-06,0.3700586058478789,-1.5149727742788056e-06,0.3700586058478789,-1.4938100062215151e-05,0.3700586058478789,-1.695196677035859e-05
0.3708527230278099,-3.5247129007626364e-06,0.3708527230278099,-8.394802033583677e-07,0.3708527230278099,-1.7623263178194573e-05,0.3708527230278099,-1.4939302616354068e-05
0.371646840207741,-6.209879525827715e-06,0.371646840207741,1.0067284234279608e-06,0.371646840207741,-1.628167023809239e-05,0.371646840207741,-1.6616762202384512e-05
0.3724409573876721,-1.3595403642021975e-05,0.3724409573876721,-8.391955545172232e-06,0.3724409573876721,-1.62814e-05,0.3724409573876721,-1.9638237853115344e-05
0.3732350745676032,-3.5079680301065136e-05,0.3732350745676032,-1.7624830528250813e-05,0.3732350745676032,-1.829566305376422e-05,0.3732350745676032,-1.7792204929429405e-05
0.3740291917475342,-2.6351085502473068e-05,0.3740291917475342,-2.4337776127561034e-05,0.3740291917475342,-1.8967526280653724e-05,0.3740291917475342,-1.997337128701233e-05
0.3748233089274653,-2.13212771404292e-05,0.3748233089274653,-2.2996467260628415e-05,0.3748233089274653,-2.1147103244942505e-05,0.3748233089274653,-1.6955426336413943e-05
0.3756174261073964,-2.903231936424126e-05,0.3756174261073964,-2.165357048564088e-05,0.3756174261073964,-1.930403448100005e-05,0.3756174261073964,-1.69528e-05
0.3764115432873274,-1.8301779023353333e-05,0.3764115432873274,-8.232333845340222e-06,0.3764115432873274,-1.4941110251604988e-05,0.3764115432873274,-1.8462531095512363e-05
0.3772056604672585,8.548825792509843e-06,0.3772056604672585,2.1136439165830724e-05,0.3772056604672585,-1.5609712893850596e-05,0.3772056604672585,-2.098012333055857e-05
0.3779997776471896,3.205261933975761e-05,0.3779997776471896,3.138493271290304e-05,0.3779997776471896,-1.6616817970383702e-05,0.3779997776471896,-2.13168059901279e-05
0.3787938948271206,3.994705503988929e-05,0.3787938948271206,1.3262501186908048e-05,0.3787938948271206,-1.71205333066187e-05,0.3787938948271206,-2.0477711173296773e-05
0.3795880120070517,3.474463755094127e-05,0.3795880120070517,-2.7359702052962463e-05,0.3795880120070517,-1.8966984770400744e-05,0.3795880120070517,-2.030980253751043e-05
0.3803821291869828,2.4000761424199723e-05,0.3803821291869828,-4.733418273856091e-05,0.3803821291869828,-1.7959845380264312e-05,0.3803821291869828,-2.04773542193246e-05
0.3811762463669139,1.3926506486639857e-05,0.3811762463669139,-5.1517528327841526e-05,0.3811762463669139,-1.762425200046308e-05,0.3811762463669139,-1.8966791936168587e-05
0.3819703635468449,-2.169139983179493e-06,0.3819703635468449,-1.2284443747969352e-05,0.3819703635468449,-1.779186566435293e-05,0.3819703635468449,-1.829613750270228e-05
0.382764480726776,-1.9794673860978516e-05,0.382764480726776,4.578481862984765e-05,0.382764480726776,-1.7624309740613328e-05,0.382764480726776,-1.460531501288939e-05
0.3835585979067071,-2.936875492774517e-05,0.3835585979067071,7.769804972538956e-05,0.3835585979067071,-1.7959729996576295e-05,0.3835585979067071,-1.3596310010271113e-05
0.3843527150866381,-3.121933745084217e-05,0.3843527150866381,6.697575469119267e-05,0.3843527150866381,-1.829547953977888e-05,0.3843527150866381,-1.158232276132674e-05
0.3851468322665692,-3.189125816596296e-05,0.3851468322665692,2.585748730308101e-05,0.3851468322665692,-1.5946196419129638e-05,0.3851468322665692,-1.091034183403704e-05
0.3859409494465003,-2.4338580914041578e-05,0.3859409494465003,-8.893797818966417e-06,0.3859409494465003,-1.6617057252368167e-05,0.3859409494465003,-1.0238842747631833e-05
0.3867350666264313,-5.5375792866562665e-06,0.3867350666264313,-2.903964649358196e-05,0.3867350666264313,-1.560956337870232e-05,0.3867350666264313,-9.56735366122667e-06
0.3875291838063624,1.1754561375137612e-05,0.3875291838063624,-4.985345083028925e-05,0.3875291838063624,-1.0406040266944649e-05,0.3875291838063624,-8.89616522967512e-06
0.3883233009862935,3.405377134341722e-05,0.3883233009862935,-5.9577940115551415e-05,0.3883233009862935,-7.555728958026601e-06,0.3883233009862935,-9.566819663141476e-06
0.3891174181662246,2.937704395765466e-05,0.3891174181662246,-5.824468398790133e-05,0.3891174181662246,-5.037324969987114e-06,0.3891174181662246,-9.231955996975334e-06
0.3899115353461556,1.1256508445206726e-05,0.3899115353461556,-6.495377092454542e-05,0.3899115353461556,-6.880739510102054e-06,0.3899115353461556,-7.386450489897945e-06
0.3907056525260867,-1.5262694108722587e-05,0.3907056525260867,-5.791108512197263e-05,0.3907056525260867,-4.868511459044504e-06,0.3907056525260867,-4.197625646039942e-06
0.3914997697060178,-3.77595764153788e-05,0.3914997697060178,-4.448389469470178e-05,0.3914997697060178,-5.035431316316228e-06,0.3914997697060178,-2.182624201304839e-06
0.3922938868859488,-3.877305652750517e-05,0.3922938868859488,-3.776705646905271e-05,0.3922938868859488,-9.566764376622522e-06,0.3922938868859488,-8.2237491693049e-06
0.3930880040658799,-3.0380614048628917e-05,0.3930880040658799,-4.347298452866103e-05,0.3930880040658799,-1.0238812033263642e-05,0.3930880040658799,-8.89602117394964e-06
0.393882121245811,-1.35936469938503e-05,0.393882121245811,-4.0450828541915856e-05,0.393882121245811,-1.25887e-05,0.393882121245811,-1.10784844591667e-05
0.394676238425742,5.061656333351975e-07,0.394676238425742,-3.474288710577303e-05,0.394676238425742,-1.2589404750504676e-05,0.394676238425742,-1.359600135728705e-05
0.3954703556056732,9.224635310595517e-06,0.3954703556056732,-2.8371669987842644e-05,0.3954703556056732,-1.493669526763692e-05,0.3954703556056732,-1.4266655790753404e-05
0.3962644727856042,1.057360839015306e-05,0.3962644727856042,-1.8134498542512868e-05,0.3962644727856042,-1.527407709587827e-05,0.3962644727856042,-1.527363128763481e-05
0.3970585899655353,7.554780237944023e-06,0.3970585899655353,-1.2256033790264307e-05,0.3970585899655353,-1.6951933195404253e-05,0.3970585899655353,-1.6951933195404253e-05
0.3978527071454664,4.365256264618841e-06,0.3978527071454664,-7.554953440654952e-06,0.3978527071454664,-1.7959528546850362e-05,0.3978527071454664,-1.7959528546850362e-05
0.3986468243253974,-6.208080363873463e-06,0.3986468243253974,-4.532598468412951e-06,0.3986468243253974,-1.5610519921597594e-05,0.3986468243253974,-1.829552572548606e-05
0.3994409415053285,-1.3595255912623464e-05,0.3994409415053285,-2.1822131184428216e-06,0.3994409415053285,-1.7288376343443193e-05,0.3994409415053285,-1.930262580606592e-05
0.4002350586852595,-1.15813270699357e-05,0.4002350586852595,-1.8465633062818616e-06,0.4002350586852595,-1.76242e-05,0.4002350586852595,-1.8295525564326343e-05
0.4010291758651906,-7.88779608315538e-06,0.4010291758651906,-4.867332953738389e-06,0.4010291758651906,-1.762397721530379e-05,0.4010291758651906,-1.7288722784696208e-05
0.4018232930451217,-2.857917798844096e-06,0.4018232930451217,-3.5260240868057703e-06,0.4018232930451217,-1.6617995565104328e-05,0.4018232930451217,-1.8294704434895677e-05
0.4026174102250527,-1.6984382908093245e-07,0.4026174102250527,1.0037337295006016e-06,0.4026174102250527,-1.5610748063412265e-05,0.4026174102250527,-1.963740258211698e-05
0.4034115274049838,-2.516341326479814e-06,0.4034115274049838,1.1748401003180028e-06,0.4034115274049838,-1.6281000377463698e-05,0.4034115274049838,-1.829639924507261e-05
0.4042056445849149,-4.195478664148408e-06,0.4042056445849149,-4.193825724379653e-06,0.4042056445849149,-1.661694973193443e-05,0.4042056445849149,-1.6953401072262284e-05
0.404999761764846,-2.853842896451517e-06,0.404999761764846,-9.565798408193043e-06,0.404999761764846,-1.628150072486299e-05,0.404999761764846,-1.863079637568505e-05
0.4057938789447771,-2.5177911816603625e-06,0.4057938789447771,-1.0574346456543536e-05,0.4057938789447771,-1.4267507089962176e-05,0.4057938789447771,-1.930259763667928e-05
0.4065879961247081,-4.531920169302113e-06,0.4065879961247081,-8.22462146915567e-06,0.4065879961247081,-1.510639590409958e-05,0.4065879961247081,-1.7792007373304056e-05
0.4073821133046392,-7.721285569924581e-06,0.4073821133046392,-3.358177607203869e-07,0.4073821133046392,-1.6952704190510404e-05,0.4073821133046392,-1.8967e-05
0.4081762304845703,-9.23219662395778e-06,0.4081762304845703,-1.175426626856955e-06,0.4081762304845703,-1.6280913373143046e-05,0.4081762304845703,-1.896641604777165e-05
0.4089703476645013,-1.0908822718728204e-05,0.4089703476645013,-2.852062710522728e-06,0.4089703476645013,-1.4604277289477273e-05,0.4089703476645013,-1.6954452747372728e-05
0.4097644648444324,-1.1581147476765647e-05,0.4097644648444324,1.3752400124089746e-05,0.4097644648444324,-1.6951216168679773e-05,0.4097644648444324,-1.7959221215148473e-05
0.4105585820243635,-1.0910553436829145e-05,0.4105585820243635,1.59445513039844e-05,0.4105585820243635,-2.0643556097439712e-05,0.4105585820243635,-1.5275713747316575e-05
0.4113526992042945,-1.1581345649576017e-05,0.4113526992042945,8.89868067566346e-06,0.4113526992042945,-1.9638781525635976e-05,0.4113526992042945,-1.1582998927331905e-05
0.4121468163842256,-1.0910355264018774e-05,0.4121468163842256,-1.6575294522795698e-07,0.4121468163842256,-1.6953421056075103e-05,0.4121468163842256,-1.023911052803755e-05
0.4129409335641567,-1.107808595141299e-05,0.4129409335641567,-7.049094181887436e-06,0.4129409335641567,-1.527444044403392e-05,0.4129409335641567,-8.224778532003979e-06
0.4137350507440878,-1.2252871273625218e-05,0.4137350507440878,-6.881562548528625e-06,0.4137350507440878,-1.4602942908791594e-05,0.4137350507440878,-8.560460180131485e-06
0.4145291679240188,-1.0238374552352776e-05,0.4145291679240188,-2.8553545154686228e-06,0.4145291679240188,-1.527380364194728e-05,0.4145291679240188,-1.0909774552352778e-05
0.4153232851039499,-8.226421240849337e-06,0.4153232851039499,-1.1909149411681782e-05,0.4153232851039499,-1.2926513124815364e-05,0.4153232851039499,-8.897821240849337e-06
0.416117402283881,-7.2182781283706195e-06,0.416117402283881,-2.835411718893644e-05,0.416117402283881,-8.899042536066213e-06,0.416117402283881,-1.0237789159663202e-05
0.416911519463812,-6.882023168763596e-06,0.416911519463812,-3.105047464989123e-05,0.416911519463812,-8.89601e-06,0.416911519463812,-1.0574296831236403e-05
0.4177056366437431,-6.88182e-06,0.4177056366437431,-3.239428549775593e-05,0.4177056366437431,-1.0406008666670326e-05,0.4177056366437431,-1.10778695387771e-05
0.4184997538236742,-4.532658573408263e-06,0.4184997538236742,-2.702536531773422e-05,0.4184997538236742,-1.0910043891964704e-05,0.4184997538236742,-1.2588231644889538e-05
0.4192938710036052,-2.8537126941544014e-06,0.4192938710036052,-1.8968308923493e-05,0.4192938710036052,-1.2588427304220958e-05,0.4192938710036052,-1.3595636382532575e-05
0.4200879881835363,5.034980406463086e-07,0.4200879881835363,-2.333093505409626e-05,0.4200879881835363,-1.3595785012140317e-05,0.4200879881835363,-1.2924409991906456e-05
0.4208821053634674,-3.1892959140459027e-06,0.4208821053634674,-3.071778096473139e-05,0.4208821053634674,-1.2253e-05,0.4208821053634674,-1.22524877079589e-05
0.4216762225433985,-4.364596843746368e-06,0.4216762225433985,-4.11221602790079e-05,0.4216762225433985,-1.2252624111603158e-05,0.4216762225433985,-8.392131100452053e-06
0.4224703397233295,-6.208886546883373e-06,0.4224703397233295,-3.776888811167635e-05,0.4224703397233295,-1.091131524467054e-05,0.4224703397233295,-7.2184958307813565e-06
0.4232644569032606,-8.558702673051826e-06,0.4232644569032606,-2.736651819249053e-05,0.4232644569032606,-1.0239259238225194e-05,0.4232644569032606,-6.211108857337793e-06
0.4240585740831917,-5.876160601915947e-06,0.4240585740831917,-2.7023880075910014e-05,0.4240585740831917,-9.567770146455844e-06,0.4240585740831917,-6.881459848179965e-06
0.4248526912631227,-3.52574372506352e-06,0.4248526912631227,-2.803040840187776e-05,0.4248526912631227,-1.2251955742229069e-05,0.4248526912631227,-8.559657340351307e-06
0.4256468084430538,-1.5111259346163008e-06,0.4256468084430538,-1.8465708188824288e-05,0.4256468084430538,-1.2253e-05,0.4256468084430538,-1.0909633075878889e-05
0.4264409256229849,8.390258771958305e-07,0.4264409256229849,-1.0910907537116462e-05,0.4264409256229849,-1.560968553697771e-05,0.4264409256229849,-1.3931216983279938e-05
0.4272350428029159,-1.679575809170775e-07,0.4272350428029159,-1.309269766206491e-05,0.4272350428029159,-1.6617081903099625e-05,0.4272350428029159,-1.2588763336455914e-05
0.428029159982847,-2.182479105624558e-06,0.428029159982847,-2.2322312467066795e-05,0.428029159982847,-1.6281670220084257e-05,0.428029159982847,-1.3763768897614476e-05
0.4288232771627781,-4.362096025494869e-06,0.4288232771627781,-1.4442172818313837e-05,0.4288232771627781,-1.7622979087016972e-05,0.4288232771627781,-1.4602136883924146e-05
0.4296173943427092,-4.36408e-06,0.4296173943427092,-1.6279991579821448e-05,0.4296173943427092,-1.6953312138923248e-05,0.4296173943427092,-1.46029e-05
0.4304115115226402,-3.02211609888406e-06,0.4304115115226402,-1.3932945683813296e-05,0.4304115115226402,-1.6281813052518085e-05,0.4304115115226402,-1.695135431618671e-05
0.4312056287025713,-4.195680563978839e-06,0.4312056287025713,-4.536325511550738e-06,0.4312056287025713,-1.5945856983056412e-05,0.4312056287025713,-1.7959429050830758e-05
0.4319997458825024,-4.3640262800730825e-06,0.4319997458825024,-1.1243751212524732e-05,0.4319997458825024,-1.7791409096806272e-05,0.4319997458825024,-1.963786280073083e-05
0.4327938630624334,-1.8467742231597488e-06,0.4327938630624334,-1.913343943731881e-05,0.4327938630624334,-1.9638081559794834e-05,0.4327938630624334,-2.030968420669749e-05
0.4335879802423645,5.03489526158219e-07,0.4335879802423645,-1.2924554537555403e-05,0.4335879802423645,-1.896701670689725e-05,0.4335879802423645,-1.8967033413794504e-05
0.4343820974222956,1.527421762049209e-05,0.4343820974222956,-1.674371038101389e-07,0.4343820974222956,-1.661738832827768e-05,0.4343820974222956,-2.0981035240984184e-05
0.4351762146022266,1.4597462889274031e-05,0.4351762146022266,3.191631993448716e-06,0.4351762146022266,-1.8967543712962172e-05,0.4351762146022266,-1.9637675049383767e-05
0.4359703317821577,-5.522100192449231e-06,0.4359703317821577,1.2413040553553005e-05,0.4359703317821577,-2.0979507013361244e-05,0.4359703317821577,-1.6955057315518342e-05
0.4367644489620888,-1.9628615003282258e-05,0.4367644489620888,3.405837304348133e-05,0.4367644489620888,-1.796199678947239e-05,0.4367644489620888,-1.5275464883040217e-05
0.4375585661420199,-2.5677598253344157e-05,0.4375585661420199,4.4809830185668e-05,0.4375585661420199,-1.259163493448703e-05,0.4375585661420199,-1.594533313318912e-05
0.438352683321951,-2.5345333890202835e-05,0.438352683321951,4.414466774052178e-05,0.438352683321951,-8.561916678445637e-06,0.438352683321951,-1.2590038902028354e-05
0.439146800501882,-2.031106517987812e-05,0.439146800501882,3.29012256370714e-05,0.439146800501882,-6.546626079488959e-06,0.439146800501882,-9.568169120489725e-06
0.4399409176818131,-1.5778269856452373e-05,0.4399409176818131,1.863277914584988e-05,0.4399409176818131,-8.895766374453031e-06,0.4399409176818131,-9.56741e-06
0.4407350348617442,-2.0645662129063837e-05,0.4407350348617442,5.202917298417581e-06,0.4407350348617442,-8.896054217775793e-06,0.4407350348617442,-8.392452630297525e-06
0.4415291520416752,-2.433578875616407e-05,0.4415291520416752,-4.199119072963411e-06,0.4415291520416752,-9.903164201748908e-06,0.4415291520416752,-8.224931006832062e-06
0.4423232692216063,-1.226410884272396e-05,0.4423232692216063,-1.9288813859269327e-05,0.4423232692216063,-1.023849141848206e-05,0.4423232692216063,-9.90155710160249e-06
0.4431173864015373,-5.544218515957538e-06,0.4431173864015373,-1.963814057304293e-05,0.4431173864015373,-1.1580562292171728e-05,0.4431173864015373,-1.2251184011300524e-05
0.4439115035814684,1.1707423436675564e-06,0.4439115035814684,-1.2928597675088812e-05,0.4439115035814684,-1.2588070348736678e-05,0.4439115035814684,-1.091103953501776e-05
0.4447056207613995,1.2918788099790111e-05,0.4447056207613995,-2.522710538002444e-06,0.4447056207613995,-1.124654136220744e-05,0.4447056207613995,-1.158127931889628e-05
0.4454997379413306,1.9971773255665125e-05,0.4454997379413306,6.543128484771397e-06,0.4454997379413306,-1.3595024418555044e-05,0.4454997379413306,-1.225277840530144e-05
0.4462938551212617,1.963846125414668e-05,0.4462938551212617,3.5253812854954134e-06,0.4462938551212617,-1.4267077491706647e-05,0.4462938551212617,-1.3595554983413297e-05
0.4470879723011927,7.217953304232958e-06,0.4470879723011927,-1.6616397345797647e-05,0.4470879723011927,-1.3931511710944072e-05,0.4470879723011927,-1.35958e-05
0.4478820894811238,-4.867856992424085e-06,0.4478820894811238,-3.944501615484359e-05,0.4478820894811238,-1.5274489161292543e-05,0.4478820894811238,-1.3595989161292542e-05
0.4486762066610549,-6.882430856284593e-06,0.4486762066610549,-4.313660187556102e-05,0.4486762066610549,-1.6953061796664616e-05,0.4486762066610549,-1.5274430885334757e-05
0.4494703238409859,-9.22971138452133e-06,0.4494703238409859,-4.045398414169578e-05,0.4494703238409859,-1.795904344686408e-05,0.4494703238409859,-1.5777371765957765e-05
0.450264441020917,-1.258633666600515e-05,0.450264441020917,-4.3135409327172085e-05,0.450264441020917,-1.7624436334103488e-05,0.450264441020917,-1.7622900127230617e-05
0.4510585582008481,-1.4266266045495693e-05,0.4510585582008481,-5.186054349221981e-05,0.4510585582008481,-1.795971320909914e-05,0.4510585582008481,-1.829522641819828e-05
0.4518526753807791,-1.024044697237937e-05,0.4518526753807791,-6.2603408073655e-05,0.4518526753807791,-1.896658825690516e-05,0.4518526753807791,-2.165122752301719e-05
0.4526467925607102,-9.231973110874516e-06,0.4526467925607102,-7.871709021033223e-05,0.4526467925607102,-1.6953326226974205e-05,0.4526467925607102,-1.9638926226974205e-05
0.4534409097406413,-2.1651188033293054e-05,0.4534409097406413,-0.000112959107514,0.4534409097406413,-1.493882896775844e-05,0.4534409097406413,-1.9470519086330372e-05
0.4542350269205724,-3.038019919937218e-05,0.4542350269205724,-8.408929031508095e-05,0.4542350269205724,-1.594573414572852e-05,0.4542350269205724,-1.896702276381901e-05
0.4550291441005034,-1.560841794323028e-05,0.4550291441005034,1.05932108612788e-05,0.4550291441005034,-1.6952434909139643e-05,0.4550291441005034,-1.9638034909139643e-05
0.4558232612804345,-6.889930285958952e-06,0.4558232612804345,0.0001137060802843,0.4558232612804345,-1.4940471608740712e-05,0.4558232612804345,-1.7626071608740713e-05
0.4566173784603656,-2.185718966678949e-06,0.4566173784603656,0.0001575757072943,0.4566173784603656,-1.5609474431095022e-05,0.4566173784603656,-1.8295074431095022e-05
0.4574114956402966,7.211549270411739e-06,0.4574114956402966,0.0001354680737954,0.4574114956402966,-1.7119640446136198e-05,0.4574114956402966,-1.762462648249977e-05
0.4582056128202277,1.560590755857e-05,0.4582056128202277,9.384799831404991e-05,0.4582056128202277,-1.8630563334405527e-05,0.4582056128202277,-1.510762775973639e-05
0.4589997300001588,2.0475944771754333e-05,0.4589997300001588,4.4832366539316416e-05,0.4589997300001588,-1.980580047504605e-05,0.4589997300001588,-1.5945414595885737e-05
0.4597938471800898,1.5946572247544902e-05,0.4597938471800898,1.1833394672803004e-06,0.4597938471800898,-1.7624619966050217e-05,0.4597938471800898,-1.443529076201286e-05
0.4605879643600209,1.8469728726642688e-06,0.4605879643600209,-2.098020548568505e-05,0.4605879643600209,-1.829556986312097e-05,0.4605879643600209,-1.4435e-05
0.461382081539952,-5.539236847551567e-06,0.461382081539952,-3.843767237381543e-05,0.461382081539952,-1.644883802012235e-05,0.461382081539952,-1.4938427626184568e-05
0.4621761987198831,-7.552716528803333e-06,0.4621761987198831,-4.01162936804914e-05,0.4621761987198831,-1.292406435086914e-05,0.4621761987198831,-1.3259680438586428e-05
0.4629703158998141,-5.540763217299892e-06,0.4629703158998141,-4.128988899458063e-05,0.4629703158998141,-1.1582755483936617e-05,0.4629703158998141,-1.158304435492077e-05
0.4637644330797452,9.724354075090948e-06,0.4637644330797452,-4.447772296551084e-05,0.4637644330797452,-1.0575219074796662e-05,0.4637644330797452,-1.1246139691598889e-05
0.4645585502596763,2.186318321924197e-06,0.4645585502596763,-5.018366747726278e-05,0.4645585502596763,-9.567980439524684e-06,0.4645585502596763,-1.2420134508934105e-05
0.4653526674396073,-2.24814655643337e-05,0.4653526674396073,-5.874361458850206e-05,0.4653526674396073,-9.735189697403137e-06,0.4653526674396073,-1.1581951492042225e-05
0.4661467846195384,-5.0850605302441135e-05,0.4661467846195384,-6.629835111876328e-05,0.4661467846195384,-1.0909881285743753e-05,0.4661467846195384,-9.567956369233996e-06
0.4669409017994695,-3.978167010765329e-05,0.4669409017994695,-6.529352454399773e-05,0.4669409017994695,-1.09102e-05,0.4669409017994695,-6.546493667859885e-06
0.4677350189794005,-2.635210741645287e-05,0.4677350189794005,-5.622917100141382e-05,0.4677350189794005,-9.56744611081942e-06,0.4677350189794005,-3.5248941950734582e-06
0.4685291361593316,-1.829387514557492e-05,0.4685291361593316,-4.246549753356785e-05,0.4685291361593316,-1.107864619588015e-05,0.4685291361593316,-6.210764969514861e-06
0.4693232533392627,-8.23406863247633e-06,0.4693232533392627,-4.011820701643593e-05,0.4693232533392627,-1.426420481036817e-05,0.4693232533392627,-8.2227182810183e-06
0.4701173705191938,2.173789639254576e-06,0.4701173705191938,-3.843883070973956e-05,0.4701173705191938,-1.6950670864416704e-05,0.4701173705191938,-1.0237203156240496e-05
0.4709114876991248,1.3252952267212666e-05,0.4709114876991248,-2.9714931567378623e-05,0.4709114876991248,-1.69528e-05,0.4709114876991248,-1.02388e-05
0.4717056048790559,1.9970758889145447e-05,0.4717056048790559,-1.997894456097576e-05,0.4717056048790559,-1.6281734111085454e-05,0.4717056048790559,-1.158093177782909e-05
0.472499722058987,1.1584537808503094e-05,0.472499722058987,-1.6282692635741362e-05,0.472499722058987,-1.4267905074040742e-05,0.472499722058987,-1.1246017512340125e-05
0.473293839238918,2.855207189477333e-06,0.473293839238918,-8.897505319001256e-06,0.473293839238918,-1.66166242160372e-05,0.473293839238918,-1.5609116401211938e-05
0.4740879564188491,-3.1888083342688506e-06,0.4740879564188491,-1.8467269429870855e-06,0.4740879564188491,-1.561005527780482e-05,0.4740879564188491,-1.7624089444390363e-05
0.4748820735987802,-4.86786337858037e-06,0.4748820735987802,5.039836400784869e-07,0.4748820735987802,-1.4267075530929436e-05,0.4748820735987802,-1.5274144413661795e-05
0.4756761907787112,-7.384282458157258e-06,0.4756761907787112,5.202927204947331e-06,0.4756761907787112,-1.29244e-05,0.4756761907787112,-1.35958e-05
0.4764703079586423,-2.8573850100500457e-06,0.4764703079586423,3.526291121281441e-06,0.4764703079586423,-1.29244e-05,0.4764703079586423,-1.35958e-05
0.4772644251385734,1.842937327159477e-06,0.4772644251385734,3.189383041854264e-06,0.4772644251385734,-1.4601684754528336e-05,0.4772644251385734,-1.5105306315275843e-05
0.4780585423185045,3.0206127293788662e-06,0.4780585423185045,3.860142993980746e-06,0.4780585423185045,-1.5106109769983624e-05,0.4780585423185045,-1.6616229194665862e-05
0.4788526594984356,3.692392078910183e-06,0.4788526594984356,1.1760916972245674e-06,0.4788526594984356,-1.4267559885280649e-05,0.4788526594984356,-1.5107047853543229e-05
0.4796467766783666,3.189281626417202e-06,0.4796467766783666,2.517362322053821e-06,0.4796467766783666,-1.1582355355892356e-05,0.4796467766783666,-1.560985835670711e-05
0.4804408938582977,3.18914e-06,0.4804408938582977,8.559502230899037e-06,0.4804408938582977,-1.393118586601225e-05,0.4804408938582977,-1.896655123716036e-05
0.4812350110382288,2.1819606628001864e-06,0.4812350110382288,1.2420746331269766e-05,0.4812350110382288,-1.5274332668430478e-05,0.4812350110382288,-2.0309828000121637e-05
0.4820291282181598,-3.525587983828152e-06,0.4820291282181598,8.559768583901496e-06,0.4820291282181598,-1.7624091716135178e-05,0.4820291282181598,-2.232379173226325e-05
0.4828232453980909,-8.220149040301625e-06,0.4828232453980909,5.206516394360641e-06,0.4828232453980909,-1.6953437282668868e-05,0.4828232453980909,-2.1653237187750388e-05
0.483617362578022,-1.0908044012481312e-05,0.483617362578022,1.7189147639684e-07,0.483617362578022,-1.6281938998886667e-05,0.483617362578022,-1.9640016996660005e-05
0.484411479757953,-1.359404035007397e-05,0.484411479757953,-4.193370582629753e-06,0.484411479757953,-1.7958800218796232e-05,0.484411479757953,-1.96384e-05
0.4852055969378841,-1.4937918347847306e-05,0.4852055969378841,-7.048221494251877e-06,0.4852055969378841,-1.9637547934809137e-05,0.4852055969378841,-1.9302870413038174e-05
0.4859997141178152,-1.49386e-05,0.4859997141178152,-1.1915547394585308e-05,0.4859997141178152,-1.96384e-05,0.4859997141178152,-1.6953646088848988e-05
0.4867938312977463,-1.2253570613063725e-05,0.4867938312977463,-1.560921540703738e-05,0.4867938312977463,-1.2925826532659309e-05,0.4867938312977463,-1.628154265326593e-05
0.4875879484776773,-9.735423375078992e-06,0.4875879484776773,-2.1987886114822687e-05,0.4875879484776773,-1.359575643313923e-05,0.4875879484776773,-1.3931652484012694e-05
0.4883820656576084,-1.023877224022778e-05,0.4883820656576084,-2.232366404607075e-05,0.4883820656576084,-1.3931388960911124e-05,0.4883820656576084,-1.0070805679113702e-05
0.4891761828375395,-9.902482358692674e-06,0.4891761828375395,-1.946976655698464e-05,0.4891761828375395,-1.258831397130812e-05,0.4891761828375395,-7.720876985654058e-06
0.4899703000174705,-7.219884602618129e-06,0.4899703000174705,-1.6284207942496398e-05,0.4899703000174705,-1.0911677887642344e-05,0.4899703000174705,-6.882558943821172e-06
0.4907644171974016,-5.875705626359113e-06,0.4907644171974016,-1.7623214373640886e-05,0.4907644171974016,-8.562034838788366e-06,0.4907644171974016,-8.559077974391193e-06
0.4915585343773327,-6.881229409838476e-06,0.4915585343773327,-1.393366549725892e-05,0.4915585343773327,-7.218307447684432e-06,0.4915585343773327,-1.057331882554122e-05
0.4923526515572637,-6.88182e-06,0.4923526515572637,-1.5273710719261717e-05,0.4923526515572637,-5.539766596534405e-06,0.4923526515572637,-9.567851956165265e-06
0.4931467687371948,-6.88182e-06,0.4931467687371948,-2.1650742237342187e-05,0.4931467687371948,-8.895032236005357e-06,0.4931467687371948,-8.22500110792796e-06
0.4939408859171259,-6.210516467558773e-06,0.4939408859171259,-3.0043794169883464e-05,0.4939408859171259,-8.89601e-06,0.4939408859171259,-8.22461e-06
0.494735003097057,-6.210425237692871e-06,0.494735003097057,-3.910889476230713e-05,0.494735003097057,-7.888925713039606e-06,0.494735003097057,-5.874708215269053e-06
0.495529120276988,-7.5537278835764735e-06,0.495529120276988,-3.7763865298949833e-05,0.495529120276988,-1.1917655520621618e-05,0.495529120276988,-2.85384630776893e-06
0.4963232374569191,-1.0906980073117562e-05,0.4963232374569191,-2.3009467762690004e-05,0.4963232374569191,-1.4264946037753863e-05,0.4963232374569191,-5.536454052739009e-06
0.4971173546368502,-7.555948553131797e-06,0.4971173546368502,-6.894917035525426e-06,0.4971173546368502,-1.393177285693878e-05,0.4971173546368502,-7.048442151903491e-06
0.4979114718167812,-3.1920430652662258e-06,0.4979114718167812,6.537187490465124e-06,0.4979114718167812,-1.762174354890181e-05,0.4979114718167812,-9.230258467366889e-06
0.4987055889967123,-5.873329846083966e-06,0.4987055889967123,1.1075754082267373e-05,0.4987055889967123,-2.030840983573124e-05,0.4987055889967123,-1.1077144241359771e-05
0.4994997061766434,-5.87472e-06,0.4994997061766434,9.232393265122638e-06,0.4994997061766434,-1.762519381864793e-05,0.4994997061766434,-1.2923716768182278e-05
0.5002938233565745,-3.5253527866741486e-06,0.5002938233565745,9.063897342064206e-06,0.5002938233565745,-1.6617324052385234e-05,0.5002938233565745,-1.510591456428897e-05
0.5010879405365055,-5.538879154445158e-06,0.5010879405365055,3.525244823777996e-06,0.5010879405365055,-1.6952774859074195e-05,0.5010879405365055,-1.695266172116351e-05
0.5018820577164366,-7.553293206103342e-06,0.5018820577164366,-6.547754943819356e-06,0.5018820577164366,-1.6281302390893e-05,0.5018820577164366,-1.8967061002057335e-05
0.5026761748963677,-8.562968686583934e-06,0.5026761748963677,-2.9039672459189252e-05,0.5026761748963677,-1.493867385246622e-05,0.5026761748963677,-1.9806606199563972e-05
0.5034702920762988,-2.063473850008215e-05,0.5034702920762988,-3.7087525660784966e-05,0.5034702920762988,-1.5274001069199376e-05,0.5034702920762988,-2.1650955836073053e-05
0.5042644092562298,-3.506976021873837e-05,0.5042644092562298,-4.799678270443224e-05,0.5042644092562298,-1.846102727839131e-05,0.5042644092562298,-2.2658850782145447e-05
0.5050585264361609,-2.1660608775662e-05,0.5050585264361609,-6.997998562165259e-05,0.5050585264361609,-1.796020030150253e-05,0.5050585264361609,-2.165320060300506e-05
0.505852643616092,-1.0915021685760516e-05,0.505852643616092,-8.542836882671927e-05,0.505852643616092,-2.0308745256239888e-05,0.505852643616092,-2.232359868952459e-05
0.506646760796023,-6.547434742181069e-06,0.506646760796023,-7.905892155507083e-05,0.506646760796023,-1.846395625468899e-05,0.506646760796023,-1.963920904569285e-05
0.507440877975954,2.516347041726217e-06,0.507440877975954,-5.55617113738716e-05,0.507440877975954,-1.661738374432757e-05,0.507440877975954,-1.7792283759695837e-05
0.5082349951558852,7.888877231027757e-06,0.5082349951558852,-6.546419017199649e-06,0.5082349951558852,-1.426721433650543e-05,0.5082349951558852,-1.5610013312164286e-05
0.5090291123358163,2.366722178926907e-05,0.5090291123358163,6.026359226070194e-05,0.5090291123358163,-1.2588652564611904e-05,0.5090291123358163,-1.4267318581405096e-05
0.5098232295157473,2.7355821173333252e-05,0.5098232295157473,0.0001005029581576,0.5098232295157473,-1.2253325347878796e-05,0.5098232295157473,-1.510558667876114e-05
0.5106173466956784,-1.020786414792707e-05,0.5106173466956784,9.517491967778803e-05,0.5106173466956784,-1.5271814070091973e-05,0.5106173466956784,-1.3932466709379718e-05
0.5114114638756094,-6.139823280598267e-05,0.5114114638756094,7.353262019315662e-05,0.5114114638756094,-1.4267880013694864e-05,0.5114114638756094,-1.359602667123162e-05
0.5122055810555405,-5.52256768421558e-05,0.5122055810555405,8.24093061336117e-05,0.5122055810555405,-1.258958564014532e-05,0.5122055810555405,-1.4937891487883742e-05
0.5129996982354716,-2.0323068745935775e-05,0.5129996982354716,9.315221732356036e-05,0.5129996982354716,-1.4937706906215106e-05,0.5129996982354716,-1.6280889660694347e-05
0.5137938154154027,6.539876688693181e-06,0.5137938154154027,8.040276555845733e-05,0.5137938154154027,-1.762357566700952e-05,0.5137938154154027,-1.8295131750257145e-05
0.5145879325953338,2.7693304609648188e-05,0.5145879325953338,5.119647935415972e-05,0.5145879325953338,-1.7959871501578747e-05,0.5145879325953338,-1.6281570990527516e-05
0.5153820497752648,4.112326835825081e-05,0.5153820497752648,1.6447400680597852e-05,0.5153820497752648,-1.6281378955218648e-05,0.5153820497752648,-1.3931373731311892e-05
0.5161761669551959,4.381018046207415e-05,0.5161761669551959,-1.2257265190738988e-05,0.5161761669551959,-1.5945347504029808e-05,0.5161761669551959,-1.1916806507741798e-05
0.5169702841351269,5.085195212451694e-05,0.5169702841351269,-3.254451185861811e-05,0.5169702841351269,-1.4268711420364037e-05,0.5169702841351269,-9.56952597950506e-06
0.5177644013150581,4.4820256188451205e-05,0.5177644013150581,-4.849637683802212e-05,0.5177644013150581,-1.2925412486322487e-05,0.5177644013150581,-5.5420674438872446e-06
0.5185585184949891,2.066015752193144e-05,0.5185585184949891,-6.6625206767587e-05,0.5185585184949891,-1.1079219650757628e-05,0.5185585184949891,-4.1970443135120745e-06
0.5193526356749202,-1.500473705953494e-06,0.5193526356749202,-7.97223926740436e-05,0.5193526356749202,-9.568103176643274e-06,0.5193526356749202,-8.40786344412583e-07
0.5201467528548512,-6.880148134659595e-06,0.5201467528548512,-8.711150117659713e-05,0.5201467528548512,-7.050453686683774e-06,0.5201467528548512,-4.866376101305963e-06
0.5209408700347823,-1.2923410925409114e-05,0.5209408700347823,-8.812073515368924e-05,0.5209408700347823,-9.566997885859938e-06,0.5209408700347823,-7.8884154643414e-06
0.5217349872147133,-3.105180810095714e-05,0.5217349872147133,-7.502881081713835e-05,0.5217349872147133,-1.1749364864776418e-05,0.5217349872147133,-9.56738297216175e-06
0.5225291043946444,-3.978021183576826e-05,0.5225291043946444,-5.5891155086179234e-05,0.5225291043946444,-1.1581335508617922e-05,0.5225291043946444,-1.4267464492695216e-05
0.5233232215745756,-3.910955740230186e-05,0.5233232215745756,-3.57716219711406e-05,0.5233232215745756,-9.56938219711406e-06,0.5233232215745756,-1.6279427793094424e-05
0.5241173387545066,-2.703376458946645e-05,0.5241173387545066,-1.2943410807934124e-05,0.5241173387545066,-1.4095525828918254e-05,0.5241173387545066,-1.6952240856140753e-05
0.5249114559344377,-2.316584529610021e-05,0.5249114559344377,-6.885960503382779e-06,0.5249114559344377,-1.5608964836467147e-05,0.5249114559344377,-1.69528e-05
0.5257055731143687,-2.165341215797812e-05,0.5257055731143687,-1.443093911333434e-05,0.5257055731143687,-1.4938960971048926e-05,0.5257055731143687,-1.69528e-05
0.5264996902942998,-2.098146188464372e-05,0.5264996902942998,-1.4938403567014332e-05,0.5264996902942998,-1.6616445288390706e-05,0.5264996902942998,-1.9301783403746988e-05
0.5272938074742308,-1.8296251192954416e-05,0.5272938074742308,-1.8966023210568376e-05,0.5272938074742308,-1.527462559647721e-05,0.5272938074742308,-1.796022559647721e-05
0.528087924654162,-2.5008862891156377e-05,0.528087924654162,-3.776431607815693e-05,0.528087924654162,-1.712042479720312e-05,0.528087924654162,-1.561022299141656e-05
0.528882041834093,-1.560920407466114e-05,0.528882041834093,-3.843642108082566e-05,0.528882041834093,-1.6952764625428094e-05,0.528882041834093,-1.6281435374571907e-05
0.5296761590140241,-5.014664868233354e-07,0.5296761590140241,-1.795916139485957e-05,0.5296761590140241,-1.628113141631257e-05,0.5296761590140241,-1.6952934291843716e-05
0.5304702761939551,9.89362528964866e-06,0.5304702761939551,-1.4270562010794869e-05,0.5304702761939551,-1.4939822549379953e-05,0.5304702761939551,-1.7623588725310022e-05
0.5312643933738862,1.3928422251087183e-05,0.5312643933738862,-2.2988631620423502e-05,0.5312643933738862,-1.3093610673119013e-05,0.5312643933738862,-1.8295087041847864e-05
0.5320585105538173,2.5338164241945318e-05,0.5320585105538173,-2.467276532063268e-05,0.5320585105538173,-1.3595489565368257e-05,0.5320585105538173,-1.82956e-05
0.5328526277337483,3.1720509539252765e-05,0.5328526277337483,-2.3331629570683628e-05,0.5328526277337483,-1.2589172178012722e-05,0.5328526277337483,-1.82956e-05
0.5336467449136795,2.9374354946277797e-05,0.5336467449136795,-1.930399416149233e-05,0.5336467449136795,-1.3931068602126976e-05,0.5336467449136795,-1.7624415698936512e-05
0.5344408620936105,-1.0903203282853198e-05,0.5344408620936105,-1.3596791206516889e-05,0.5344408620936105,-1.5609708468671504e-05,0.5344408620936105,-1.69529166125314e-05
0.5352349792735416,-7.469123502584302e-05,0.5352349792735416,-1.4434978093647454e-05,0.5352349792735416,-1.3763648198152216e-05,0.5352349792735416,-1.7288491236936902e-05
0.5360290964534726,-7.670335295850886e-05,0.5360290964534726,-2.5683180803116674e-05,0.5360290964534726,-1.560991854231253e-05,0.5360290964534726,-1.8295437084625055e-05
0.5368232136334037,-4.585334890801208e-05,0.5368232136334037,-4.446140505121988e-05,0.5368232136334037,-1.493926410884622e-05,0.5368232136334037,-1.6954128217692442e-05
0.5376173308133347,-1.563546347969958e-05,0.5376173308133347,-5.6219597470120936e-05,0.5376173308133347,-1.4603182929425116e-05,0.5376173308133347,-1.7791292718577428e-05
0.5384114479932659,1.8439711402703155e-05,0.5384114479932659,-4.9520167724449306e-05,0.5384114479932659,-1.8293032751552883e-05,0.5384114479932659,-1.7959783272127638e-05
0.539205565173197,4.245275525146195e-05,0.539205565173197,-8.247222576438384e-06,0.539205565173197,-1.661801921509931e-05,0.539205565173197,-1.5611286901139033e-05
0.539999682353128,6.796869329389667e-05,0.539999682353128,5.351918894963311e-05,0.539999682353128,-1.66171e-05,0.539999682353128,-1.091208019744226e-05
0.5407937995330591,6.93213609735412e-05,0.5407937995330591,8.307794144315407e-05,0.5407937995330591,-1.5106781417390015e-05,0.5407937995330591,-7.55406756109746e-06
0.5415879167129901,2.2664494643302343e-05,0.5415879167129901,7.872175777435725e-05,0.5415879167129901,-1.6281276747812887e-05,0.5415879167129901,-6.8818904268241935e-06
0.5423820338929212,-1.3595943297904602e-05,0.5423820338929212,4.514952280769442e-05,0.5423820338929212,-1.4938471031885856e-05,0.5423820338929212,-7.21752e-06
0.5431761510728523,-1.6953055170598896e-05,0.5431761510728523,1.1704745449239506e-06,0.5431761510728523,-1.191710862205083e-05,0.5431761510728523,-7.217009660702499e-06
0.5439702682527834,-1.8294364037531515e-05,0.5439702682527834,-2.2302270804071344e-05,0.5439702682527834,-1.0911126971851366e-05,0.5439702682527834,-4.534401915732608e-06
0.5447643854327144,-2.9700465633969963e-05,0.5447643854327144,-3.255487494586813e-05,0.5447643854327144,-9.568449338545912e-06,0.5447643854327144,-4.364209918285756e-06
0.5455585026126455,-3.0548074235256105e-05,0.5455585026126455,-3.4072453711161525e-05,0.5455585026126455,-1.1580338246050866e-05,0.5455585026126455,-8.222191638786188e-06
0.5463526197925765,-2.4341073902019188e-05,0.5463526197925765,-3.575109624916847e-05,0.5463526197925765,-1.2588217749501083e-05,0.5463526197925765,-1.090891400345806e-05
0.5471467369725076,-2.0311134450438097e-05,0.5471467369725076,-3.843661034429001e-05,0.5471467369725076,-1.1581933620891246e-05,0.5471467369725076,-1.325932155125376e-05
0.5479408541524387,-1.896724665504458e-05,0.5479408541524387,-3.5081116637611446e-05,0.5479408541524387,-1.091032332752229e-05,0.5479408541524387,-1.191754665504458e-05
0.5487349713323698,-3.054818184253722e-05,0.5487349713323698,-3.038086968781892e-05,0.5487349713323698,-1.09102e-05,0.5487349713323698,-1.359573939720753e-05
0.5495290885123009,-7.771576976287167e-05,0.5495290885123009,-2.769453936642668e-05,0.5495290885123009,-1.225326162900088e-05,0.5495290885123009,-1.628154950228622e-05
0.5503232056922319,-9.179941297671072e-05,0.5503232056922319,-2.266463111542936e-05,0.5503232056922319,-1.4600552146132964e-05,0.5503232056922319,-1.7622858369218838e-05
0.551117322872163,-5.223488168605957e-05,0.551117322872163,-1.2932702235414342e-05,0.551117322872163,-1.69507959915564e-05,0.551117322872163,-1.9301268565397427e-05
0.551911440052094,-1.7648584461900004e-05,0.551911440052094,-3.238116893488357e-05,0.551911440052094,-1.6281873487435823e-05,0.551911440052094,-1.980584491968434e-05
0.5527055572320251,1.1900826410413092e-05,0.5527055572320251,-5.084800402741977e-05,0.5527055572320251,-1.6616912799484647e-05,0.5527055572320251,-2.0309519171344856e-05
0.5534996744119562,5.184901886180044e-05,0.5534996744119562,-5.740171570290532e-05,0.5534996744119562,-1.6281537657312703e-05,0.5534996744119562,-1.7625301258501626e-05
0.5542937915918873,8.274159352811874e-05,0.5542937915918873,-6.126398667460992e-05,0.5542937915918873,-1.3932116798770694e-05,0.5542937915918873,-1.69529762282202e-05
0.5550879087718184,9.886134860792768e-05,0.5550879087718184,-4.280372138842513e-05,0.5550879087718184,-1.39315e-05,0.5550879087718184,-1.5274492854537712e-05
0.5558820259517494,8.778410277376232e-05,0.5558820259517494,-1.2251858887850547e-05,0.5558820259517494,-1.3595843889180248e-05,0.5558820259517494,-1.628141097229506e-05
0.5566761431316805,5.420919565887616e-05,0.5566761431316805,2.2665099965352403e-05,0.5566761431316805,-1.4939023075642798e-05,0.5566761431316805,-1.6617039560622458e-05
0.5574702603116115,2.034134654673917e-05,0.5574702603116115,5.317977679911176e-05,0.5574702603116115,-1.728631359277455e-05,0.5574702603116115,-1.628171234388935e-05
0.5582643774915427,-8.226648161213841e-07,0.5582643774915427,6.997994037505597e-05,0.5582643774915427,-1.7623936805933087e-05,0.5582643774915427,-1.3597905552535297e-05
0.5590584946714737,-1.0903790503346711e-05,0.5590584946714737,7.032858634913569e-05,0.5590584946714737,-1.3262877461236008e-05,0.5590584946714737,-1.4266772698271384e-05
0.5598526118514048,-3.0035645912165397e-05,0.5598526118514048,5.522978479589359e-05,0.5598526118514048,-1.4266707677014743e-05,0.5598526118514048,-1.3596128215323502e-05
0.5606467290313358,-4.313283198609325e-05,0.5606467290313358,3.542295926896266e-05,0.5606467290313358,-1.42672e-05,0.5606467290313358,-1.5609312613245117e-05
0.5614408462112669,-3.9109680255078525e-05,0.5614408462112669,2.131963087340597e-05,0.5614408462112669,-1.5609739914973827e-05,0.5614408462112669,-1.5274365021256544e-05
0.5622349633911979,-3.3066578604971754e-05,0.5622349633911979,9.06442494850944e-06,0.5622349633911979,-1.6281369043892026e-05,0.5622349633911979,-1.5609984521946016e-05
0.563029080571129,-2.8365819564147257e-05,0.563029080571129,1.1742595570529426e-06,0.563029080571129,-1.3931261843904384e-05,0.563029080571129,-1.795972988850313e-05
0.5638231977510602,-2.165937511843668e-05,0.5638231977510602,-5.5322548109250495e-06,0.5638231977510602,-1.1583971326771972e-05,0.5638231977510602,-1.6283093804837124e-05
0.5646173149309912,-2.2323320797448907e-05,0.5646173149309912,-4.868209288831827e-06,0.5646173149309912,-1.3929472489088609e-05,0.5646173149309912,-1.3598117155327309e-05
0.5654114321109223,-2.2659359898786643e-05,0.5654114321109223,-6.20945960229883e-06,0.5654114321109223,-1.4602419797573289e-05,0.5654114321109223,-1.4937639595146574e-05
0.5662055492908533,-1.930460552334315e-05,0.5662055492908533,-1.5604664387051805e-05,0.5662055492908533,-1.3093057539430572e-05,0.5662055492908533,-1.091248669612903e-05
0.5669996664707844,-1.661822811846519e-05,0.5669996664707844,-2.3663315686610635e-05,0.5669996664707844,-1.3595588456784678e-05,0.5669996664707844,-2.521265353401236e-06
