X [s].2,L DELTOID ANTERIOR: EMG 3 [V],X [s].3,L BICEPS BRACHII: EMG 4 [V],X [s].4,L DELTOID POSTERIOR: EMG 5 [V],X [s].7,L DELTOID MEDIUS: EMG 8 [V]
0.0,2.04776e-05,0.0,-1.561e-05,0.0,-1.35958e-05,0.0,-1.09102e-05
0.000794117179931,1.9974100519953844e-05,0.000794117179931,-1.4267201386681271e-05,0.000794117179931,-1.4267199306659365e-05,0.000794117179931,-1.3595797226637456e-05
0.0015882343598621,1.023886914357504e-05,0.0015882343598621,-1.3931502384261209e-05,0.0015882343598621,-1.1581619074089668e-05,0.0015882343598621,-1.1581614305567249e-05
0.0023823515397932,-1.359585728076508e-05,0.0023823515397932,-1.3260099349080012e-05,0.0023823515397932,-1.3931500650919989e-05,0.0023823515397932,-1.527431236747978e-05
0.0031764687197242,-4.3137252373362826e-05,0.0031764687197242,-1.2924400541213615e-05,0.0031764687197242,-1.4267199458786382e-05,0.0031764687197242,-2.1652589716941256e-05
0.0039705858996553,-2.064561613374772e-05,0.0039705858996553,-1.2588701733347226e-05,0.0039705858996553,-1.3595803466694448e-05,0.0039705858996553,-2.5513080066765085e-05
0.0047647030795864,5.958580081269573e-05,0.0047647030795864,-1.1917305850961665e-05,0.0047647030795864,-1.443499268673365e-05,0.0047647030795864,-2.299532194154196e-05
0.0055588202595174,8.039978979734024e-05,0.0055588202595174,-9.903100877650962e-06,0.0055588202595174,-1.5777800054869524e-05,0.0055588202595174,-2.0813299725750413e-05
0.0063529374394485,4.917990066541052e-05,0.0063529374394485,-1.2588691340582111e-05,0.0063529374394485,-1.5945699458625162e-05,0.0063529374394485,-1.997410270590687e-05
0.0071470546193796,1.258894792577676e-05,0.0071470546193796,-1.2924397725439156e-05,0.0071470546193796,-1.3931513647365058e-05,0.0071470546193796,-1.6281425020169272e-05
0.0079411717993107,-1.0238564265810118e-05,0.0079411717993107,-1.2253006933388896e-05,0.0079411717993107,-1.6617072266444406e-05,0.0079411717993107,-1.3931524266861146e-05
0.0087352889792417,2.3498738183515757e-06,0.0087352889792417,-1.5945695253360502e-05,0.0087352889792417,-1.695279956848732e-05,0.0087352889792417,-1.2588701726050726e-05
0.0095294061591728,2.870207254487006e-05,0.0095294061591728,-1.24208170484708e-05,0.0095294061591728,-1.5945704870922563e-05,0.0095294061591728,-1.4267191881795728e-05
0.0103235233391039,7.218654633725886e-06,0.0103235233391039,-1.2252965468941951e-05,0.0103235233391039,-1.5442075335378403e-05,0.0103235233391039,-1.5274250667817747e-05
0.0111176405190349,4.5825488924179486e-05,0.0111176405190349,-1.1077954418709205e-05,0.0111176405190349,-1.460284861908822e-05,0.0111176405190349,-1.3595808560934362e-05
0.011911757698966,9.852469281880688e-05,0.011911757698966,-8.224761983854623e-06,0.011911757698966,-1.3595853640608514e-05,0.011911757698966,-1.3763591062561705e-05
0.0127058748788971,9.584198495810838e-05,0.0127058748788971,-6.881862478737844e-06,0.0127058748788971,-1.376359469169996e-05,0.0127058748788971,-1.3260115928063588e-05
0.0134999920588282,4.078795055691079e-05,0.0134999920588282,-8.224596571809493e-06,0.0134999920588282,-1.3931498320963676e-05,0.0134999920588282,-1.2420808393181578e-05
0.0142941092387592,-1.6953374122398868e-05,0.0142941092387592,-8.560317811236588e-06,0.0142941092387592,-1.3092205859009151e-05,0.0142941092387592,-1.191734296180123e-05
0.0150882264186903,-6.630121518059116e-05,0.0150882264186903,-9.231793749776486e-06,0.0150882264186903,-1.3595844667611924e-05,0.0150882264186903,-1.5610111669029812e-05
0.0158823435986214,-9.080465966735874e-05,0.0158823435986214,-1.1749221202232613e-05,0.0158823435986214,-1.4938504638918196e-05,0.0158823435986214,-1.896676159729549e-05
0.0166764607785524,-0.0001240393585075,0.0166764607785524,-1.3931392223749369e-05,0.0166764607785524,-1.3595866322326818e-05,0.0166764607785524,-2.0309733677673185e-05
0.0174705779584835,-0.0001176621770593,0.0174705779584835,-1.4602881364218436e-05,0.0174705779584835,-1.35958e-05,0.0174705779584835,-2.03098e-05
0.0182646951384146,-7.066478772491954e-05,0.0182646951384146,-1.3931504110399724e-05,0.0182646951384146,-1.4267195889600275e-05,0.0182646951384146,-1.7624216441598893e-05
0.0190588123183456,-4.8172783319856935e-05,0.0190588123183456,-1.1245926037455292e-05,0.0190588123183456,-1.426723124494635e-05,0.0190588123183456,-1.5777813019503264e-05
0.0198529294982767,-5.354436133492326e-05,0.0198529294982767,-1.2924387531388177e-05,0.0198529294982767,-1.628132518832906e-05,0.0198529294982767,-1.6617087531388178e-05
0.0206470466782078,-6.596386607993436e-05,0.0206470466782078,-1.2588722538561609e-05,0.0206470466782078,-1.4267335231369656e-05,0.0206470466782078,-1.628142253856161e-05
0.0214411638581389,-7.872071940906028e-05,0.0214411638581389,-1.560986249161954e-05,0.0214411638581389,-1.376362292033906e-05,0.0214411638581389,-1.191749862321622e-05
0.0222352810380699,-7.066469238443243e-05,0.0222352810380699,-1.4267232064072076e-05,0.0222352810380699,-1.37636e-05,0.0222352810380699,-1.225299198398198e-05
0.023029398218001,-7.351799359660746e-05,0.023029398218001,-1.2588703766635489e-05,0.023029398218001,-1.527429660991586e-05,0.023029398218001,-1.1581601506654194e-05
0.0238235153979321,-0.0001045686590788,0.0238235153979321,-1.1245919528091468e-05,0.0238235153979321,-1.5274286981272354e-05,0.0238235153979321,-1.3260067453180887e-05
0.0246176325778631,-3.541312923079757e-05,0.0246176325778631,-1.225305508128266e-05,0.0246176325778631,-1.4602831148396674e-05,0.0246176325778631,-1.1581641310961997e-05
0.0254117497577942,3.943986420081159e-05,0.0254117497577942,-1.3595715052588935e-05,0.0254117497577942,-1.292450618426383e-05,0.0254117497577942,-1.2588636289441702e-05
0.0262058669377253,4.64939064906038e-05,0.0262058669377253,-1.292442795367235e-05,0.0262058669377253,-1.2588713976836177e-05,0.0262058669377253,-1.25887e-05
0.0269999841176564,2.1317403556893997e-05,0.0269999841176564,-1.1581626856581017e-05,0.0269999841176564,-1.191731342829051e-05,0.0269999841176564,-1.0910233570726271e-05
0.0277941012975874,1.1917297805817332e-05,0.0277941012975874,-1.2252998354363e-05,0.0277941012975874,-1.3763598628717536e-05,0.0277941012975874,-1.1581601097091332e-05
0.0285882184775185,1.0574230547432993e-05,0.0285882184775185,-1.124593905126526e-05,0.0285882184775185,-1.292440781025305e-05,0.0285882184775185,-1.2253031241012206e-05
0.0293823356574496,-1.0061617102976864e-06,0.0293823356574496,-1.2924264015398104e-05,0.0293823356574496,-1.326007280307962e-05,0.0293823356574496,-1.359569121231848e-05
0.0301764528373806,-3.7260346745210445e-05,0.0301764528373806,-1.1917359812962997e-05,0.0301764528373806,-1.3595780062345668e-05,0.0301764528373806,-1.4267160124691336e-05
0.0309705700173117,-3.2395083785081626e-05,0.0309705700173117,-1.2588674650073176e-05,0.0309705700173117,-1.5274236625182942e-05,0.0309705700173117,-1.2924450699853644e-05
0.0317646871972428,2.2658712392148567e-05,0.0317646871972428,-1.3595783763182531e-05,0.0317646871972428,-1.3595827061362445e-05,0.0317646871972428,-1.4267178350910044e-05
0.0325588043771738,3.524818249925643e-05,0.0325588043771738,-1.4267203700836862e-05,0.0325588043771738,-1.4267203700836862e-05,0.0325588043771738,-1.628138982242302e-05
0.0333529215571049,1.39303154503821e-05,0.0333529215571049,-1.4938517992342933e-05,0.0333529215571049,-1.4938586330699995e-05,0.0333529215571049,-1.4434958997528623e-05
0.034147038737036,-2.970593363792768e-05,0.034147038737036,-1.191753305690384e-05,0.034147038737036,-1.4435038846674204e-05,0.034147038737036,-1.292451652459502e-05
0.0349411559169671,-8.308243692183368e-05,0.0349411559169671,-1.3595706821092173e-05,0.0349411559169671,-1.4267209315115122e-05,0.0349411559169671,-1.4267125456873737e-05
0.0357352730968981,-7.301474119271939e-05,0.0357352730968981,-1.4938554507637417e-05,0.0357352730968981,-1.560995450763742e-05,0.0357352730968981,-1.42672e-05
0.0365293902768292,-4.464824732693996e-05,0.0365293902768292,-1.174943904940958e-05,0.0365293902768292,-1.4938608220799446e-05,0.0365293902768292,-1.3595808220799446e-05
0.0373235074567603,-6.932129020402282e-05,0.0373235074567603,-1.4938593695417613e-05,0.0373235074567603,-1.5609993695417613e-05,0.0373235074567603,-1.4938614184840864e-05
0.0381176246366913,-2.5678879757183312e-05,0.0381176246366913,-1.4267210413670736e-05,0.0381176246366913,-1.4938516690634104e-05,0.0381176246366913,-1.644917917265853e-05
0.0389117418166224,3.94398288824548e-05,0.0389117418166224,-1.4602875406497304e-05,0.0389117418166224,-1.225319674802158e-05,0.0389117418166224,-1.5777849187005394e-05
0.0397058589965535,4.951497998789942e-05,0.0397058589965535,-1.1581756005179226e-05,0.0397058589965535,-1.2924365332182394e-05,0.0397058589965535,-1.4435069335635212e-05
0.0404999761764846,4.414456113648606e-05,0.0404999761764846,-1.057453021365365e-05,0.0404999761764846,-1.49385395726927e-05,0.0404999761764846,-1.3595825176544676e-05
0.0412940933564156,3.675906178759312e-05,0.0412940933564156,-1.1413692979100908e-05,0.0412940933564156,-1.359581123410784e-05,0.0412940933564156,-1.393149719147304e-05
0.0420882105363467,2.6016591092793757e-05,0.0420882105363467,-1.2252982185587506e-05,0.0420882105363467,-1.3595808907206244e-05,0.0420882105363467,-1.393146882477814e-05
0.0428823277162778,2.534526110714061e-05,0.0428823277162778,-1.0910322214281233e-05,0.0428823277162778,-1.4267138892859385e-05,0.0428823277162778,-1.1581813874992157e-05
0.0436764448962088,-5.536886896916218e-06,0.0436764448962088,-9.567503178213926e-06,0.0436764448962088,-1.42672e-05,0.0436764448962088,-1.2756418471925214e-05
0.0444705620761399,2.467235712487534e-05,0.0444705620761399,-8.224674128144148e-06,0.0444705620761399,-1.3595832064072076e-05,0.0444705620761399,-9.903236269918464e-06
0.045264679256071,9.046898121619376e-05,0.045264679256071,-1.0910129845500289e-05,0.045264679256071,-1.2924417538690236e-05,0.045264679256071,-1.0574482461309763e-05
0.046058796436002,9.382768493345806e-05,0.046058796436002,-1.2924390960074833e-05,0.046058796436002,-1.5609987946766444e-05,0.046058796436002,-1.2252992466729028e-05
0.0468529136159331,7.603502663192911e-05,0.0468529136159331,-1.2253e-05,0.0468529136159331,-1.6617053957504294e-05,0.0468529136159331,-1.1581594244688036e-05
0.0476470307958642,3.6762422450364e-05,0.0476470307958642,-1.2253e-05,0.0476470307958642,-1.393173401489172e-05,0.0476470307958642,-1.1245929251861464e-05
0.0484411479757953,-3.186522860833005e-06,0.0484411479757953,-1.2253e-05,0.0484411479757953,-1.527421202858322e-05,0.0484411479757953,-1.057454398570839e-05
0.0492352651557263,7.88842390680589e-06,0.0492352651557263,-1.1581629460326547e-05,0.0492352651557263,-1.5609985269836728e-05,0.0492352651557263,-1.0910185269836725e-05
0.0500293823356574,9.231680130110583e-06,0.0500293823356574,-1.2588677597582936e-05,0.0500293823356574,-1.2588767207251192e-05,0.0500293823356574,-1.2924355195165872e-05
0.0508234995155885,-3.2394874607218376e-05,0.0508234995155885,-1.225300020478143e-05,0.0508234995155885,-1.2924399795218568e-05,0.0508234995155885,-1.29244e-05
0.0516176166955195,1.008063278085057e-06,0.0516176166955195,-1.393149294297919e-05,0.0516176166955195,-1.426718588595838e-05,0.0516176166955195,-1.1749467042748782e-05
0.0524117338754506,4.682608482498157e-05,0.0524117338754506,-1.3595827950152624e-05,0.0524117338754506,-1.3595855900305248e-05,0.0524117338754506,-1.49383344693871e-05
0.0532058510553817,3.709530003229791e-05,0.0532058510553817,-1.3092231039553907e-05,0.0532058510553817,-1.3092231039553907e-05,0.0532058510553817,-1.49386e-05
0.0539999682353128,1.1763768214843182e-06,0.0539999682353128,-1.3931466427273684e-05,0.0539999682353128,-1.3595779855564192e-05,0.0539999682353128,-1.460291342829051e-05
0.0547940854152438,-4.330428306191181e-05,0.0547940854152438,-1.2924418496798758e-05,0.0547940854152438,-1.527426917200207e-05,0.0547940854152438,-1.4938593834400414e-05
0.0555882025951749,-3.5080469285310505e-05,0.0555882025951749,-1.4602896709140411e-05,0.0555882025951749,-1.527429945136002e-05,0.0555882025951749,-1.5609989578781256e-05
0.056382319775106,-2.5681849486166584e-05,0.056382319775106,-1.3595901730660704e-05,0.056382319775106,-1.5106416960160793e-05,0.056382319775106,-1.2421122152142908e-05
0.057176436955037,-3.172302026760745e-05,0.057176436955037,-1.2924453303599173e-05,0.057176436955037,-1.51064e-05,0.057176436955037,-1.0238973232727722e-05
0.0579705541349681,-3.1907880661503464e-06,0.0579705541349681,-1.4938483665348022e-05,0.0579705541349681,-1.6952693357014493e-05,0.0579705541349681,-1.2588564276239358e-05
0.0587646713148992,5.052065978255256e-05,0.0587646713148992,-1.2253097011341967e-05,0.0587646713148992,-1.527436063208873e-05,0.0587646713148992,-1.7959705977316065e-05
0.0595587884948302,6.327901517838073e-05,0.0595587884948302,-1.2253e-05,0.0595587884948302,-1.628138540881953e-05,0.0595587884948302,-2.047756352277324e-05
0.0603529056747613,5.354375128366827e-05,0.0603529056747613,-1.2924390405351854e-05,0.0603529056747613,-1.561e-05,0.0603529056747613,-2.1988322786932085e-05
0.0611470228546924,3.2732621717992895e-05,0.0611470228546924,-1.158173043404558e-05,0.0611470228546924,-1.561e-05,0.0611470228546924,-2.5177090223998543e-05
0.0619411400346235,-4.529116170959947e-06,0.0619411400346235,-8.224863498513095e-06,0.0619411400346235,-1.4938650699853646e-05,0.0619411400346235,-2.467383802866592e-05
0.0627352572145545,1.1916413729212428e-05,0.0627352572145545,-9.06381478191025e-06,0.0627352572145545,-1.29245085234154e-05,0.0627352572145545,-2.50094819127641e-05
0.0635293743944856,7.553360718439811e-06,0.0635293743944856,-9.567393763182532e-06,0.0635293743944856,-1.2588710824544976e-05,0.0635293743944856,-2.635225670182009e-05
0.0643234915744167,-2.030950436696181e-05,0.0643234915744167,-1.107808397123232e-05,0.0643234915744167,-1.3595789314437818e-05,0.0643234915744167,-2.3666728494832485e-05
0.0651176087543477,1.6953173735254266e-05,0.0651176087543477,-1.225300740074176e-05,0.0651176087543477,-1.326010370037088e-05,0.0651176087543477,-1.9134768547398665e-05
0.0659117259342788,5.0855138031593344e-05,0.0659117259342788,-1.2924337386394884e-05,0.0659117259342788,-1.3595768693197444e-05,0.0659117259342788,-1.6281666103158825e-05
0.0667058431142099,3.961320560622905e-05,0.0667058431142099,-1.0910344288324326e-05,0.0667058431142099,-1.2588772144162164e-05,0.0667058431142099,-1.4938696192216218e-05
0.067499960294141,1.3932784072779852e-05,0.067499960294141,-7.21770463799449e-06,0.067499960294141,-1.52741657170949e-05,0.067499960294141,-1.5442074824455346e-05
0.068294077474072,6.546329498221388e-06,0.068294077474072,-6.210448568016644e-06,0.068294077474072,-1.4602919045344427e-05,0.068294077474072,-1.527430475991778e-05
0.0690881946540031,-5.035005406081792e-07,0.0690881946540031,-7.55321096007481e-06,0.0690881946540031,-1.560999322005611e-05,0.0690881946540031,-1.3931509039925193e-05
0.0698823118339342,-2.0978926726248703e-05,0.0698823118339342,-8.2245354673698e-06,0.0698823118339342,-1.6616988199389514e-05,0.0698823118339342,-6.882602602053158e-06
0.0706764290138652,-5.689768906855143e-05,0.0706764290138652,-9.902949956532846e-06,0.0706764290138652,-1.3596070079849931e-05,0.0706764290138652,-1.8467901312953804e-06
0.0714705461937963,-4.095628044022348e-05,0.0714705461937963,-1.376333842230302e-05,0.0714705461937963,-1.2253090984725169e-05,0.0714705461937963,4.86717507840689e-06
0.0722646633737274,7.886657163220006e-06,0.0722646633737274,-1.493854580547754e-05,0.0722646633737274,-1.2588684516509624e-05,0.0722646633737274,7.217411616028607e-06
0.0730587805536585,1.2588584909052642e-05,0.0730587805536585,-1.7120546566028028e-05,0.0730587805536585,-1.3595775337601662e-05,0.0730587805536585,3.18923864910358e-06
0.0738528977335895,-1.4938521435386036e-05,0.0738528977335895,-1.71206e-05,0.0738528977335895,-1.2924401916217056e-05,0.0738528977335895,-6.881791256858295e-06
0.0746470149135206,-7.569349033794117e-05,0.0746470149135206,-1.4267505698514494e-05,0.0746470149135206,-9.567769650541871e-06,0.0746470149135206,-8.895794210103416e-06
0.0754411320934517,-0.0001035606173275,0.0754411320934517,-1.460287129300055e-05,0.0754411320934517,-1.292411293086062e-05,0.0754411320934517,-6.210649655140477e-06
0.0762352492733827,-7.133795864723084e-05,0.0762352492733827,-1.158179299877676e-05,0.0762352492733827,-1.3595757111382942e-05,0.0762352492733827,-8.22448133478762e-06
0.0770293664533138,-5.203411543667561e-05,0.0770293664533138,-1.0910228363235212e-05,0.0770293664533138,-1.1581685089705636e-05,0.0770293664533138,-1.1581458184246387e-05
0.0778234836332449,-7.721018108255936e-05,0.0778234836332449,-1.2252972324293245e-05,0.0778234836332449,-1.15816e-05,0.0778234836332449,-2.2995064758553615e-05
0.078617600813176,-4.750123984913997e-05,0.078617600813176,-1.2924396219079727e-05,0.078617600813176,-1.35958e-05,0.078617600813176,-3.709469518790663e-05
0.079411717993107,1.1239833926792869e-05,0.079411717993107,-9.232091296944728e-06,0.079411717993107,-1.35958e-05,0.079411717993107,-3.239538528833474e-05
0.0802058351730381,1.829502449233965e-05,0.0802058351730381,-8.224692215380049e-06,0.0802058351730381,-1.6448967060504984e-05,0.0802058351730381,-1.829675100715712e-05
0.0809999523529692,-8.894378468103059e-06,0.0809999523529692,-1.0910038861113884e-05,0.0809999523529692,-1.5945730210653585e-05,0.0809999523529692,-7.88953441490874e-06
0.0817940695329002,-3.172262418157141e-05,0.0817940695329002,-1.4938445443061953e-05,0.0817940695329002,-1.561001287974484e-05,0.0817940695329002,-1.695245224727306e-05
0.0825881867128313,-3.105211123410784e-05,0.0825881867128313,-1.66170719147304e-05,0.0825881867128313,-1.6449185958201818e-05,0.0825881867128313,-2.9709086553624263e-05
0.0833823038927624,-2.0982418693501632e-05,0.0833823038927624,-1.561012187056028e-05,0.0833823038927624,-1.7120518752959817e-05,0.0833823038927624,-3.239457501183926e-05
0.0841764210726934,-3.3736432104035174e-05,0.0841764210726934,-1.4267333463779372e-05,0.0841764210726934,-1.7959816580168286e-05,0.0841764210726934,-3.3737566536220625e-05
0.0849705382526245,-3.527179282743811e-06,0.0849705382526245,-1.493854779349217e-05,0.0849705382526245,-1.6952878309761746e-05,0.0849705382526245,-2.769556985857046e-05
0.0857646554325556,4.397383407268296e-05,0.0857646554325556,-1.2924513043377984e-05,0.0857646554325556,-1.4938713043377984e-05,0.0857646554325556,-1.4939315935781582e-05
0.0865587726124866,3.810200261103697e-05,0.0865587726124866,-1.174944052427672e-05,0.0865587726124866,-1.6952730532767518e-05,0.0865587726124866,-1.5111031135036682e-06
0.0873528897924177,1.1917636582844866e-05,0.0873528897924177,-1.0238819417672496e-05,0.0873528897924177,-1.4938625891086946e-05,0.0873528897924177,3.524765272668265e-06
0.0881470069723488,-2.7019138693321523e-05,0.0881470069723488,-1.1581442712754992e-05,0.0881470069723488,-1.3595957287245007e-05,0.0881470069723488,6.54576610487007e-06
0.0889411241522799,-5.9919057730488094e-05,0.0889411241522799,-1.0574596192216224e-05,0.0889411241522799,-1.2924464128144148e-05,0.0889411241522799,4.532122383477307e-06
0.0897352413322109,-2.2998028144539375e-05,0.0897352413322109,-8.896134006166992e-06,0.0897352413322109,-1.1246024006905788e-05,0.0897352413322109,-2.1815439745932363e-06
0.090529358512142,-6.882661850861849e-06,0.090529358512142,-6.546242770309191e-06,0.090529358512142,-1.5274089535717185e-05,0.090529358512142,-4.196124768381043e-06
0.0913234756920731,-3.189063444019401e-05,0.0913234756920731,-6.210430275999312e-06,0.0913234756920731,-1.4267230827997937e-05,0.0913234756920731,-2.8534811036911404e-06
0.0921175928720041,6.545774977356369e-06,0.0921175928720041,-9.063834386968456e-06,0.0921175928720041,-1.42672e-05,0.0921175928720041,-4.196217946856207e-06
0.0929117100519352,4.867152849640088e-05,0.0929117100519352,-8.896029010051207e-06,0.0929117100519352,-1.3931538020102412e-05,0.0929117100519352,-1.510944159686732e-06
0.0937058272318663,4.313780757170685e-05,0.0937058272318663,-1.0406561566437655e-05,0.0937058272318663,-1.39315e-05,0.0937058272318663,-8.223994758762842e-06
0.0944999444117974,-9.22804408999162e-06,0.0944999444117974,-1.4266929759153602e-05,0.0944999444117974,-1.359582349950839e-05,0.0944999444117974,-2.0308954018398012e-05
0.0952940615917284,-3.3065147191279865e-05,0.0952940615917284,-1.3595832473634944e-05,0.0952940615917284,-1.6281270105460224e-05,0.0952940615917284,-2.6016323978939684e-05
0.0960881787716595,-2.0645832040009055e-05,0.0960881787716595,-1.2924417948253096e-05,0.0960881787716595,-1.4938635896506196e-05,0.0960881787716595,-2.098133460922498e-05
0.0968822959515906,-2.56802403105507e-05,0.0968822959515906,-1.3595712039659957e-05,0.0968822959515906,-1.527425601982998e-05,0.0968822959515906,-1.5610703682720357e-05
0.0976764131315216,-4.380671695705683e-05,0.0976764131315216,-2.030906553965068e-05,0.0976764131315216,-1.62812898309476e-05,0.0976764131315216,-1.0239387568279456e-05
0.0984705303114527,-3.1724560571755766e-05,0.0984705303114527,-2.2323723246816497e-05,0.0984705303114527,-1.4603047301632746e-05,0.0984705303114527,-5.8751029824899805e-06
0.0992646474913838,-8.412881728235834e-07,0.0992646474913838,-2.23239e-05,0.0992646474913838,-1.3595866592906878e-05,0.0992646474913838,-2.182284172669419e-06
0.1000587646713148,5.031501680141117e-07,0.1000587646713148,-2.299510108311824e-05,0.1000587646713148,-1.4602601624677362e-05,0.1000587646713148,2.1807470461939997e-06
0.1008528818512459,1.6789895266823578e-07,0.1008528818512459,-2.0310199607656105e-05,0.1008528818512459,-1.2588999716902228e-05,0.1008528818512459,5.037977628947729e-07
0.101646999031177,-3.138776149642636e-05,0.101646999031177,-1.6281404915373348e-05,0.101646999031177,-1.1917300819228893e-05,0.101646999031177,-6.881810988521243e-06
0.1024411162111081,-5.051881672834888e-05,0.1024411162111081,-1.3930615596876978e-05,0.1024411162111081,-1.292425259923556e-05,0.1024411162111081,-1.829673005789121e-05
0.1032352333910391,-2.466758340039536e-05,0.1032352333910391,-7.887528533747795e-06,0.1032352333910391,-1.1917250646907456e-05,0.1032352333910391,-2.6018178828652008e-05
0.1040293505709702,-3.528826892704592e-06,0.1040293505709702,-3.187659669319673e-06,0.1040293505709702,-1.174902993816574e-05,0.1040293505709702,-3.1389428369084095e-05
0.1048234677509013,-1.2582631777813732e-05,0.1048234677509013,1.656015102269929e-07,0.1048234677509013,-1.0910761840809578e-05,0.1048234677509013,-3.507802775314879e-05
0.1056175849308323,2.1743184902305704e-06,0.1056175849308323,-8.387195339000457e-07,0.1056175849308323,-1.2252298041715011e-05,0.1056175849308323,-4.044889216686005e-05
0.1064117021107634,3.9430620005604535e-05,0.1064117021107634,-4.866118649579021e-06,0.1064117021107634,-1.3091885152837146e-05,0.1064117021107634,-4.011612594636865e-05
0.1072058192906945,3.390676066361952e-05,0.1072058192906945,-6.545737986445682e-06,0.1072058192906945,-1.2253190996535447e-05,0.1072058192906945,-3.978037640316605e-05
0.1079999364706256,1.009732260416572e-06,0.1079999364706256,-9.90283140196565e-06,0.1079999364706256,-1.1581653719926917e-05,0.1079999364706256,-3.57522223195615e-05
0.1087940536505566,3.860756831715636e-06,0.1087940536505566,-1.2924513416195668e-05,0.1087940536505566,-1.3595675238806266e-05,0.1087940536505566,-2.903733292577865e-05
0.1095881708304877,7.21470318168157e-06,0.1095881708304877,-1.4603116679325195e-05,0.1095881708304877,-1.174921944465326e-05,0.1095881708304877,-2.0644272150490563e-05
0.1103822880104188,-5.886775151260615e-06,0.1103822880104188,-1.561036530893299e-05,0.1103822880104188,-1.091068707857732e-05,0.1103822880104188,-1.4937504073201033e-05
0.1111764051903498,-3.909794981998724e-05,0.1111764051903498,-1.6618810973590642e-05,0.1111764051903498,-1.2253e-05,0.1111764051903498,-1.1917471097359064e-05
0.1119705223702809,-1.7637107838018802e-05,0.1119705223702809,-1.9972083140922184e-05,0.1119705223702809,-1.2253e-05,0.1119705223702809,-1.2252798314092218e-05
0.112764639550212,2.096367442286561e-05,0.112764639550212,-2.6517228286703947e-05,0.112764639550212,-1.2420723824339516e-05,0.112764639550212,-1.2924095206564676e-05
0.1135587567301431,2.467266864197282e-05,0.1135587567301431,-4.044743159444412e-05,0.1135587567301431,-1.6615814315742444e-05,0.1135587567301431,-2.299221442518661e-05
0.1143528739100741,-1.694618955301422e-05,0.1143528739100741,-4.6493240430255854e-05,0.1143528739100741,-1.66171e-05,0.1143528739100741,-2.568047351750023e-05
0.1151469910900052,-7.502794829335737e-05,0.1151469910900052,-4.7165592465780246e-05,0.1151469910900052,-1.5610011301329638e-05,0.1151469910900052,-2.366672260265928e-05
0.1159411082699363,-7.972222025475499e-05,0.1159411082699363,-5.253725776092719e-05,0.1159411082699363,-1.62814e-05,0.1159411082699363,-1.862990383053568e-05
0.1167352254498673,-3.440033066174385e-05,0.1167352254498673,-5.58938e-05,0.1167352254498673,-1.62814e-05,0.1167352254498673,-8.389743414280736e-06
0.1175293426297984,-3.5372724481324963e-06,0.1175293426297984,-5.588844687270366e-05,0.1175293426297984,-1.628082127887628e-05,0.1175293426297984,1.1765314787804252e-06
0.1183234598097295,-3.23752832315443e-05,0.1183234598097295,-4.34814397425304e-05,0.1183234598097295,-1.493951241194366e-05,0.1183234598097295,4.86512087394978e-06
0.1191175769896605,-1.7632069217657823e-05,0.1191175769896605,-2.770350581213371e-05,0.1191175769896605,-1.7622769223466602e-05,0.1191175769896605,6.545225769994212e-06
0.1199116941695916,2.918776216873701e-05,0.1199116941695916,-1.829922046967663e-05,0.1199116941695916,-1.6953058607728166e-05,0.1199116941695916,6.210549303864083e-06
0.1207058113495227,4.011340779038151e-05,0.1207058113495227,-9.066053415814872e-06,0.1207058113495227,-1.762404047867703e-05,0.1207058113495227,7.888511199068529e-06
0.1214999285294538,-2.849572179663905e-06,0.1214999285294538,9.230063155691427e-06,0.1214999285294538,-1.628152086983557e-05,0.1214999285294538,1.3930956086640072e-05
0.1222940457093848,-1.6616191692693984e-05,0.1222940457093848,2.8030954605949644e-05,0.1222940457093848,-1.4267171008506015e-05,0.1222940457093848,1.4602358880903295e-05
0.1230881628893159,-8.377997591028543e-07,0.1230881628893159,3.071281883530754e-05,0.1230881628893159,-1.376370331367696e-05,0.1230881628893159,5.200954031610238e-06
0.123882280069247,6.2133802966676095e-06,0.123882280069247,1.3250271826915334e-05,0.123882280069247,-1.426791047289334e-05,0.123882280069247,-6.380579029848715e-06
0.124676397249178,1.4616319476983148e-05,0.124676397249178,-1.4604074208608264e-05,0.124676397249178,-1.6280141894364063e-05,0.124676397249178,-1.2928258113998584e-05
0.1254705144291091,4.1442396926682055e-05,0.1254705144291091,-1.6951364725740346e-05,0.1254705144291091,-1.3765137824388678e-05,0.1254705144291091,-2.064078409886114e-05
0.1262646316090402,5.353829289472562e-05,0.1262646316090402,5.025278131520419e-06,0.1262646316090402,-1.225370087076048e-05,0.1262646316090402,-3.993914420234261e-05
0.1270587487889713,3.54219353629282e-05,0.1270587487889713,3.590992864398384e-05,0.1270587487889713,-1.493775031191602e-05,0.1270587487889713,-6.276837768292483e-05
0.1278528659689023,5.208430080766839e-06,0.1278528659689023,6.293893824990388e-05,0.1278528659689023,-1.5106371674536292e-05,0.1278528659689023,-6.462168831861629e-05
0.1286469831488334,-2.500885878912975e-05,0.1286469831488334,7.100002901159481e-05,0.1286469831488334,-1.8966918065977743e-05,0.1286469831488334,-5.925091399368501e-05
0.1294411003287645,-4.179322744208128e-05,0.1294411003287645,7.133602725579187e-05,0.1294411003287645,-1.8631087907013545e-05,0.1294411003287645,-4.414138829222822e-05
0.1302352175086955,-3.172391384179649e-05,0.1302352175086955,7.234254019100058e-05,0.1302352175086955,-1.6952616076400235e-05,0.1302352175086955,-2.0303270731384145e-05
0.1310293346886266,-3.323949969967975e-05,0.1310293346886266,7.065757501866988e-05,0.1310293346886266,-1.6279562748886103e-05,0.1310293346886266,3.5294937786593626e-06
0.1318234518685577,-4.5814120493742864e-05,0.1318234518685577,5.422664128769878e-05,0.1318234518685577,-1.1920308931355094e-05,0.1318234518685577,1.4595261964167423e-05
0.1326175690484888,-2.4685278833137194e-05,0.1326175690484888,2.9051565287882567e-05,0.1326175690484888,-9.5686854265072e-06,0.1326175690484888,1.8629113545254627e-05
0.1334116862284198,7.876041923211366e-06,0.1334116862284198,1.326633504437916e-05,0.1334116862284198,-9.902967342592274e-06,0.1334116862284198,1.86313e-05
0.1342058034083509,-2.850780231358442e-06,0.1342058034083509,5.205324828338144e-06,0.1342058034083509,-1.5272970109489307e-05,0.1342058034083509,1.091211171760912e-05
0.134999920588282,-5.924515943167676e-05,0.134999920588282,-7.551944156736344e-06,0.134999920588282,-1.3260301449725957e-05,0.134999920588282,2.518579369857564e-06
0.135794037768213,-5.5389030526640265e-05,0.135794037768213,-2.366746647591733e-05,0.135794037768213,-8.224673872993112e-06,0.135794037768213,-2.8535837132831595e-06
0.1365881549481441,-2.8700955282433472e-05,0.1365881549481441,-3.9782036043690615e-05,0.1365881549481441,-9.567737555302862e-06,0.1365881549481441,-5.87504755725435e-06
0.1373822721280752,-2.233011295128696e-05,0.1373822721280752,-4.86796940951406e-05,0.1373822721280752,-1.1246705382574235e-05,0.1373822721280752,-7.555060867600782e-06
0.1381763893080062,-4.044906974696438e-05,0.1381763893080062,-5.858433167547221e-05,0.1381763893080062,-1.3596786344888357e-05,0.1381763893080062,-1.2926043908147258e-05
0.1389705064879373,-3.508383427923391e-05,0.1389705064879373,-6.86440482885134e-05,0.1389705064879373,-1.5608749645287283e-05,0.1389705064879373,-1.6279316075478803e-05
0.1397646236678684,1.155948356730923e-05,0.1397646236678684,-8.307855819653349e-05,0.1397646236678684,-1.8965408882914765e-05,0.1397646236678684,-1.225490934050228e-05
0.1405587408477994,2.634747901837784e-05,0.1405587408477994,-9.147506081999052e-05,0.1405587408477994,-1.8295819137011862e-05,0.1405587408477994,-1.2924180862988135e-05
0.1413528580277305,1.158424109546628e-05,0.1413528580277305,-8.745022028575944e-05,0.1413528580277305,-1.2421850451748751e-05,0.1413528580277305,-1.628079974696661e-05
0.1421469752076616,-3.2057837333149345e-05,0.1421469752076616,-7.200778217663381e-05,0.1421469752076616,-1.1581626203690608e-05,0.1421469752076616,-1.0238988677813232e-05
0.1429410923875927,-3.944081108708387e-05,0.1429410923875927,-5.320745783906495e-05,0.1429410923875927,-1.225323436661107e-05,0.1429410923875927,-2.8545337061973795e-06
0.1437352095675237,-6.869858466408378e-06,0.1437352095675237,-4.682724189726042e-05,0.1437352095675237,-1.4267554417217796e-05,0.1437352095675237,-1.2255835311348476e-05
0.1445293267474548,3.843129118185336e-05,0.1445293267474548,-3.675596457779497e-05,0.1445293267474548,-1.5609034183843855e-05,0.1445293267474548,-2.299350638252461e-05
0.1453234439273859,2.33415664288614e-05,0.1453234439273859,-2.937876580966557e-05,0.1453234439273859,-1.3261743666711774e-05,0.1453234439273859,-1.863435245394705e-05
0.146117561107317,2.2995485562057537e-05,0.146117561107317,-4.195534145048047e-05,0.146117561107317,-1.158252781028768e-05,0.146117561107317,-1.762475668617261e-05
0.146911678287248,5.957167398532906e-05,0.146911678287248,-4.917687561487769e-05,0.146911678287248,-1.225272796229011e-05,0.146911678287248,-2.6348763550289428e-05
0.1477057954671791,5.6565978280871165e-05,0.1477057954671791,-3.3741677854248394e-05,0.1477057954671791,-1.2588613524347647e-05,0.1477057954671791,-2.5681072951304703e-05
0.1484999126471102,3.206189605782999e-05,0.1484999126471102,-3.8436982945703526e-05,0.1484999126471102,-1.0239058527148236e-05,0.1484999126471102,-1.8632075570443085e-05
0.1492940298270412,3.340220177204532e-05,0.1492940298270412,-6.630129535969453e-05,0.1492940298270412,-9.567536107152668e-06,0.1492940298270412,-1.762402344946035e-05
0.1500881470069723,3.8770465225960806e-05,0.1500881470069723,-9.01362741653438e-05,0.1500881470069723,-1.2924959385598924e-05,0.1500881470069723,-1.2922659694802206e-05
0.1508822641869034,2.3993575977752417e-05,0.1508822641869034,-9.701918987492186e-05,0.1508822641869034,-1.594581169715803e-05,0.1508822641869034,-3.5241598203791214e-06
0.1516763813668344,-2.5166127415194626e-06,0.1516763813668344,-0.0001039008516679,0.1516763813668344,-1.62814e-05,0.1516763813668344,-1.5120893330859442e-06
0.1524704985467655,-1.6933121439310985e-07,0.1524704985467655,-0.000107756565271,0.1524704985467655,-1.62814e-05,0.1524704985467655,-4.530024294789095e-06
0.1532646157266966,1.795112668766822e-05,0.1532646157266966,-9.21567546969917e-05,0.1532646157266966,-1.7623550123184125e-05,0.1532646157266966,-1.174590695083238e-05
0.1540587329066277,-4.188776907457182e-06,0.1540587329066277,-5.02010156828927e-05,0.1540587329066277,-1.561067755600819e-05,0.1540587329066277,-1.9132315627969967e-05
0.1548528500865587,-4.917130674839181e-05,0.1548528500865587,5.864135125473097e-06,0.1548528500865587,-1.4267453531195044e-05,0.1548528500865587,-2.9036030216876935e-05
0.1556469672664898,-7.469184819481288e-05,0.1556469672664898,8.241084458526316e-05,0.1556469672664898,-1.577773772387849e-05,0.1556469672664898,-4.380809105776805e-05
0.1564410844464209,-7.334445886209185e-05,0.1564410844464209,0.0001555995703606,0.1564410844464209,-1.594573570360642e-05,0.1564410844464209,-4.179366095993127e-05
0.157235201626352,-2.0300934357256156e-05,0.157235201626352,0.0001891678753282,0.157235201626352,-1.628174098723606e-05,0.157235201626352,-3.390272949140388e-05
0.158029318806283,1.459159192108988e-05,0.158029318806283,0.0001965496537953,0.158029318806283,-1.7623661518142307e-05,0.158029318806283,-2.299139604663315e-05
0.1588234359862141,-1.357579439554263e-05,0.1588234359862141,0.000193196381628,0.1588234359862141,-1.6282352651209644e-05,0.1588234359862141,-1.326700665032478e-05
0.1596175531661451,9.218863521045903e-06,0.1596175531661451,0.0001871554002142,0.1596175531661451,-1.6449105568361664e-05,0.1596175531661451,-2.188274322737881e-06
0.1604116703460762,5.218325991433968e-05,0.1604116703460762,0.0001676890839943,0.1604116703460762,-1.6952590914715373e-05,0.1604116703460762,6.542496231497423e-06
0.1612057875260073,4.548889666295548e-05,0.1612057875260073,0.0001488870306027,0.1612057875260073,-1.56103593325911e-05,0.1612057875260073,8.224160836937125e-06
0.1619999047059384,2.522897084180548e-06,0.1619999047059384,0.0001211903238904,0.1619999047059384,-1.359604173967116e-05,0.1619999047059384,8.401323744736241e-07
0.1627940218858694,-1.677009484602821e-07,0.1627940218858694,7.939145081576243e-05,0.1627940218858694,-1.359578149348518e-05,0.1627940218858694,-5.035586411908936e-06
0.1635881390658005,5.205623056685718e-06,0.1635881390658005,3.40658152899374e-05,0.1635881390658005,-1.2924282407079994e-05,0.1635881390658005,-8.896597962848566e-06
0.1643822562457316,1.8296087512345297e-05,0.1643822562457316,-9.245035710726328e-06,0.1643822562457316,-1.2253270833020105e-05,0.1643822562457316,-1.2253433358650378e-05
0.1651763734256627,1.979997150419947e-05,0.1651763734256627,-5.053962985423136e-05,0.1651763734256627,-1.309243654989149e-05,0.1651763734256627,-1.359832294832639e-05
0.1659704906055937,6.554616365507744e-06,0.1659704906055937,-8.675486937245733e-05,0.1659704906055937,-1.3595477319467928e-05,0.1659704906055937,-1.896355841605668e-05
0.1667646077855248,5.875051653398782e-06,0.1667646077855248,-0.0001119425632939,0.1667646077855248,-1.4937936693202436e-05,0.1667646077855248,-2.0980205039803657e-05
0.1675587249654559,-7.548568680911513e-06,0.1675587249654559,-0.0001159826043902,0.1675587249654559,-1.3260681417483994e-05,0.1675587249654559,-2.148452559207436e-05
0.1683528421453869,-3.171869472267424e-05,0.1683528421453869,-0.0001102781346048,0.1683528421453869,-1.426699977911738e-05,0.1683528421453869,-2.0310033581089255e-05
0.169146959325318,-5.5389087607603376e-05,0.169146959325318,-9.75210534894809e-05,0.169146959325318,-1.4938565605816794e-05,0.169146959325318,-2.03098e-05
0.1699410765052491,-5.589195628130903e-05,0.1699410765052491,-0.0001015504879018,0.1699410765052491,-1.359567061555604e-05,0.1699410765052491,-2.0309605923334065e-05
0.1707351936851801,-3.676006456107656e-05,0.1707351936851801,-0.0001169924738612,0.1707351936851801,-1.2253409446567908e-05,0.1707351936851801,-1.8295108664118512e-05
0.1715293108651112,-4.113872071767456e-05,0.1715293108651112,-0.0001230311625721,0.1715293108651112,-1.3930843664038672e-05,0.1715293108651112,-1.6281465614044867e-05
0.1723234280450423,-8.104245973101164e-05,0.1723234280450423,-0.0001183373806494,0.1723234280450423,-1.2254207580372957e-05,0.1723234280450423,-1.6449079277934716e-05
0.1731175452249733,-7.268350692621011e-05,0.1731175452249733,-0.0001086035764353,0.1731175452249733,-1.0239953662290425e-05,0.1731175452249733,-1.5945988386934378e-05
0.1739116624049044,-3.543204337184856e-05,0.1739116624049044,-9.55117664073953e-05,0.1739116624049044,-1.02388e-05,0.1739116624049044,-1.6952371798462565e-05
0.1747057795848355,-6.0083150529363504e-05,0.1747057795848355,-7.738353226697376e-05,0.1747057795848355,-1.158122723742712e-05,0.1747057795848355,-1.86308340467839e-05
0.1754998967647666,-8.241109745170001e-05,0.1754998967647666,-5.254002989760365e-05,0.1754998967647666,-1.2924225410237535e-05,0.1754998967647666,-1.762433094232185e-05
0.1762940139446976,-5.824322244503617e-05,0.1762940139446976,-3.675891156357035e-05,0.1762940139446976,-1.695283537457186e-05,0.1762940139446976,-1.6952794104238024e-05
0.1770881311246287,-3.104727683320275e-05,0.1770881311246287,-3.1723001049318883e-05,0.1770881311246287,-1.896724946708334e-05,0.1770881311246287,-1.661754351171655e-05
0.1778822483045598,-1.847914726252888e-06,0.1778822483045598,-2.8697895762419023e-05,0.1778822483045598,-2.0477862471054208e-05,0.1778822483045598,-1.9303854772566155e-05
0.1786763654844909,-6.874412144265967e-06,0.1786763654844909,-1.4927642540501248e-05,0.1786763654844909,-2.1317285804509128e-05,0.1786763654844909,-2.299468272197997e-05
0.1794704826644219,9.221224336658034e-06,0.1794704826644219,8.880499947494614e-06,0.1794704826644219,-2.215555390186529e-05,0.1794704826644219,-2.1653473744000803e-05
0.180264599844353,5.15083828972867e-05,0.180264599844353,3.1376464714383924e-05,0.180264599844353,-2.098179211948317e-05,0.180264599844353,-1.1586675525844742e-05
0.181058717024284,4.783831605091456e-05,0.181058717024284,4.665665635267305e-05,0.181058717024284,-2.165236071801553e-05,0.181058717024284,5.86849869691531e-06
0.1818528342042151,1.7966138661514793e-05,0.1818528342042151,5.488498261459464e-05,0.1818528342042151,-1.7960671075685917e-05,0.1818528342042151,3.860950584649664e-06
0.1826469513841462,-8.894365638547691e-06,0.1826469513841462,4.683039331008888e-05,0.1826469513841462,-1.695286166376111e-05,0.1826469513841462,5.874596673090072e-06
0.1834410685640773,-9.06030891100146e-06,0.1834410685640773,3.810126371492986e-05,0.1834410685640773,-1.527380719439908e-05,0.1834410685640773,1.3260476852002222e-05
0.1842351857440083,3.206768138957306e-05,0.1842351857440083,3.1888062409425443e-05,0.1842351857440083,-9.567252936363704e-06,0.1842351857440083,1.7622079643249354e-05
0.1850293029239394,6.82984829222751e-05,0.1850293029239394,1.7616908929416675e-05,0.1850293029239394,-8.896649565790119e-06,0.1850293029239394,8.556088859688632e-06
0.1858234201038705,2.6047453391804535e-05,0.1858234201038705,-1.496682491001062e-06,0.1858234201038705,-1.0573275660560547e-05,0.1858234201038705,-2.5096593480287434e-06
0.1866175372838016,3.104916548184244e-05,0.1866175372838016,-1.1911235352451673e-05,0.1866175372838016,-1.3929543654561624e-05,0.1866175372838016,-1.7950900834294105e-05
0.1874116544637326,5.655409710158376e-05,0.1874116544637326,-1.7621716447198825e-05,0.1874116544637326,-1.5105888702064852e-05,0.1874116544637326,-3.57441572024324e-05
0.1882057716436637,3.928167221476053e-05,0.1882057716436637,-1.7959803451861346e-05,0.1882057716436637,-1.258942409665978e-05,0.1882057716436637,-4.380638284467232e-05
0.1889998888235948,1.9976802762819743e-05,0.1889998888235948,-2.1652082945703456e-05,0.1889998888235948,-1.1581741014808149e-05,0.1889998888235948,-4.649382397451367e-05
0.1897940060035258,1.695277969386766e-05,0.1897940060035258,-2.50095355357316e-05,0.1897940060035258,-1.1245902538266543e-05,0.1897940060035258,-3.9108828928536806e-05
0.1905881231834569,1.4266809381224344e-05,0.1905881231834569,-2.970992497762962e-05,0.1905881231834569,-1.1581547918530864e-05,0.1905881231834569,-2.970742508262544e-05
0.191382240363388,1.1743963119416187e-05,0.191382240363388,-3.373891949606086e-05,0.191382240363388,-1.124488375630986e-05,0.191382240363388,-1.7622574005252182e-05
0.192176357543319,-6.212382701443844e-06,0.192176357543319,-3.776504315591765e-05,0.192176357543319,-7.888306093593202e-06,0.192176357543319,-1.2253754888630248e-05
0.1929704747232501,-1.0571616541184316e-05,0.1929704747232501,-3.541775263878549e-05,0.1929704747232501,-6.547007215555882e-06,0.1929704747232501,-1.393039097229608e-05
0.1937645919031812,1.5093200637791596e-05,0.1937645919031812,-3.340303525014156e-05,0.1937645919031812,-1.157901188492564e-05,0.1937645919031812,-1.1414994088375732e-05
0.1945587090831123,-1.2578552679726627e-05,0.1945587090831123,-3.575103901058634e-05,0.1945587090831123,-1.527294701663567e-05,0.1945587090831123,-7.219057455448244e-06
0.1953528262630433,-3.776059087550154e-05,0.1953528262630433,-3.709440617885975e-05,0.1953528262630433,-1.5106436738583143e-05,0.1953528262630433,-9.231269270477748e-06
0.1961469434429744,-4.783628264464895e-05,0.1961469434429744,-3.6423347824164944e-05,0.1961469434429744,-1.628131630414983e-05,0.1961469434429744,-1.560954567114537e-05
0.1969410606229055,-4.447700117650654e-05,0.1969410606229055,-3.0380084853117077e-05,0.1969410606229055,-1.426711028726201e-05,0.1969410606229055,-2.2995786991282315e-05
0.1977351778028366,-5.201300302243728e-06,0.1977351778028366,-2.232239653593879e-05,0.1977351778028366,-1.3092951743227256e-05,0.1977351778028366,-2.937250998351713e-05
0.1985292949827676,3.8432161330177765e-06,0.1985292949827676,-1.560750879075216e-05,0.1985292949827676,-1.6450757026651323e-05,0.1985292949827676,-2.4501204433607614e-05
0.1993234121626987,-4.276709718167146e-05,0.1993234121626987,-8.900974444984179e-06,0.1993234121626987,-2.0642397180292626e-05,0.1993234121626987,-1.159115653385744e-05
0.2001175293426297,-3.776908488058907e-05,0.2001175293426297,-6.212011930386498e-06,0.2001175293426297,-2.098100100796073e-05,0.2001175293426297,-4.368358311061313e-06
0.2009116465225608,3.8419984199333305e-06,0.2009116465225608,-6.21042e-06,0.2009116465225608,-1.997454834651004e-05,0.2009116465225608,-1.5119103106599177e-06
0.2017057637024919,-8.221013415029517e-06,0.2017057637024919,-6.21042e-06,0.2017057637024919,-1.695369915070668e-05,0.2017057637024919,-1.8462400943659248e-06
0.202499880882423,-1.7622789853418363e-05,0.202499880882423,-7.217368912705514e-06,0.202499880882423,-1.963799710054804e-05,0.202499880882423,-3.6924030081269994e-06
0.203293998062354,3.6926279791362393e-06,0.203293998062354,-7.553219180771109e-06,0.203293998062354,-1.896700163845778e-05,0.203293998062354,-6.881812217349937e-06
0.2040881152422851,2.9376718319803475e-05,0.2040881152422851,-8.225584478022841e-06,0.2040881152422851,-1.896682945883493e-05,0.2040881152422851,-9.5674587225223e-06
0.2048822324222162,5.0848571608091614e-05,0.2048822324222162,-1.4939238722009746e-05,0.2048822324222162,-1.779096820928508e-05,0.2048822324222162,-9.903198267176294e-06
0.2056763496021472,1.7618737908398525e-05,0.2056763496021472,-1.7121411956483965e-05,0.2056763496021472,-1.4267052375546107e-05,0.2056763496021472,-1.0241531030409448e-05
0.2064704667820783,5.2116608559574085e-06,0.2064704667820783,-1.8965761592993103e-05,0.2064704667820783,-1.3931725158812942e-05,0.2064704667820783,-1.64450345954963e-05
0.2072645839620094,2.600569431860413e-05,0.2072645839620094,-1.8967e-05,0.2072645839620094,-1.4267024100814308e-05,0.2072645839620094,-1.9636728931537055e-05
0.2080587011419405,5.0433772000116045e-06,0.2080587011419405,-1.494011627179706e-05,0.2080587011419405,-1.225375813589853e-05,0.2080587011419405,-1.8967252711966177e-05
0.2088528183218715,-2.851634906522474e-06,0.2088528183218715,-1.0911121753366094e-05,0.2088528183218715,-9.903637689463556e-06,0.2088528183218715,-1.8967e-05
0.2096469355018026,-1.1245218263801675e-05,0.2096469355018026,-1.1917218191266288e-05,0.2096469355018026,-1.0910118191266287e-05,0.2096469355018026,-1.829565453915581e-05
0.2104410526817337,-2.081161834929714e-05,0.2104410526817337,-1.3259999765371362e-05,0.2104410526817337,-9.567432272961202e-06,0.2104410526817337,-1.62814e-05
0.2112351698616647,4.5344435825368606e-06,0.2112351698616647,-1.174782004691436e-05,0.2112351698616647,-9.90324363365456e-06,0.2112351698616647,-1.628218998510008e-05
0.2120292870415958,1.6263097758472195e-05,0.2120292870415958,-4.361898278068106e-06,0.2120292870415958,-1.0574863622127277e-05,0.2120292870415958,-1.997476662251374e-05
0.2128234042215269,-3.437111219032723e-05,0.2128234042215269,1.6739616564426402e-06,0.2128234042215269,-1.1580845272326738e-05,0.2128234042215269,-2.1819016370069365e-05
0.2136175214014579,-1.6963322115527783e-05,0.2136175214014579,5.201205335913284e-06,0.2136175214014579,-1.15816e-05,0.2136175214014579,-2.047840939813882e-05
0.214411638581389,-2.188763460404974e-06,0.214411638581389,8.55878194578273e-06,0.214411638581389,-1.15816e-05,0.214411638581389,-1.628331005639191e-05
0.2152057557613201,-4.077552478316984e-05,0.2152057557613201,7.889116526259043e-06,0.2152057557613201,-9.568029575701072e-06,0.2152057557613201,-1.5610206526259044e-05
0.2159998729412512,-5.891219913994884e-05,0.2159998729412512,-8.378492889411933e-07,0.2159998729412512,-1.1245631401965653e-05,0.2159998729412512,-1.8966462800730828e-05
0.2167939901211822,-2.836688008066832e-05,0.2167939901211822,-4.196188232955937e-06,0.2167939901211822,-1.560994570258393e-05,0.2167939901211822,-1.7288520883621566e-05
0.2175881073011133,-4.194642180017644e-06,0.2175881073011133,-6.546346831039936e-06,0.2175881073011133,-1.4267562931826136e-05,0.2175881073011133,-1.2252727801130396e-05
0.2183822244810444,7.546291615914146e-06,0.2183822244810444,-8.226223461747593e-06,0.2183822244810444,-1.69528e-05,0.2183822244810444,-1.0238610183465474e-05
0.2191763416609755,-1.695121301700105e-05,0.2191763416609755,-1.3934529694816185e-05,0.2191763416609755,-1.6953954169453788e-05,0.2191763416609755,-9.56697718645483e-06
0.2199704588409065,-1.3262613632936349e-05,0.2199704588409065,-2.097640124621243e-05,0.2199704588409065,-1.9636571903319024e-05,0.2199704588409065,-8.560995536255367e-06
0.2207645760208376,1.8278749925373133e-05,0.2207645760208376,-2.7355994176456703e-05,0.2207645760208376,-1.7625275540086686e-05,0.2207645760208376,-1.0237903721934216e-05
0.2215586932007686,5.104227958152447e-07,0.2215586932007686,-4.548009551079887e-05,0.2215586932007686,-1.527520799434974e-05,0.2215586932007686,-1.4936784011300524e-05
0.2223528103806997,-2.164730877420701e-05,0.2223528103806997,-8.341204078270143e-05,0.2223528103806997,-1.7288018978344417e-05,0.2223528103806997,-1.896603795668884e-05
0.2231469275606308,-3.642195241789648e-05,0.2231469275606308,-0.0001149741210459,0.2231469275606308,-1.6952830627073338e-05,0.2231469275606308,-2.3666271230096617e-05
0.2239410447405619,-2.433429787492439e-05,0.2239410447405619,-0.0001421696078991,0.2239410447405619,-1.6952695958471686e-05,0.2239410447405619,-3.1052421574197325e-05
0.2247351619204929,4.314318746175378e-05,0.2247351619204929,-0.000170705190617,0.2247351619204929,-1.5106297321198715e-05,0.2247351619204929,-3.675896576013757e-05
0.225529279100424,7.198337573282436e-05,0.225529279100424,-0.0001814325075352,0.225529279100424,-1.4602782145896412e-05,0.225529279100424,-3.6590569674087336e-05
0.2263233962803551,3.912280369540382e-06,0.2263233962803551,-0.0001458880223394,0.2263233962803551,-1.4267454929163257e-05,0.2263233962803551,-3.5081647143264864e-05
0.2271175134602862,-4.526787348757632e-06,0.2271175134602862,-6.433628656321278e-05,0.2271175134602862,-1.5776874349002948e-05,0.2271175134602862,-2.333819974605446e-05
0.2279116306402172,1.4593998694393032e-05,0.2279116306402172,6.087105112491933e-05,0.2279116306402172,-1.6952253403344155e-05,0.2279116306402172,-5.547306622385464e-06
0.2287057478201483,4.870721988595143e-06,0.2287057478201483,0.0001924812049373,0.2287057478201483,-1.69528e-05,0.2287057478201483,1.1911755749735442e-05
0.2294998650000794,-2.030551920522544e-05,0.2294998650000794,0.0002737481873318,0.2294998650000794,-1.7624085845155297e-05,0.2294998650000794,3.30627041393944e-05
0.2302939821800104,-2.4338009591607226e-05,0.2302939821800104,0.0002945745328873,0.2302939821800104,-1.76242e-05,0.2302939821800104,5.15292856201576e-05
0.2310880993599415,-1.6951539733017415e-05,0.2310880993599415,0.0002845000931771,0.2310880993599415,-1.963806392813724e-05,0.2310880993599415,5.1360156633468846e-05
0.2318822165398726,-6.890151216148369e-06,0.2318822165398726,0.0002532694432843,0.2318822165398726,-1.6952113344973208e-05,0.2318822165398726,3.742618862674191e-05
0.2326763337198036,-3.743166826118599e-05,0.2326763337198036,0.0001998809439292,0.2326763337198036,-1.4435775069491211e-05,0.2326763337198036,2.1983790626894272e-05
0.2334704508997347,-4.0449613211784375e-05,0.2334704508997347,0.0001354985178723,0.2334704508997347,-1.6280124706000287e-05,0.2334704508997347,1.1253319691433328e-05
0.2342645680796658,-3.6425491370118576e-05,0.2342645680796658,6.969319205221529e-05,0.2342645680796658,-1.7287952157470353e-05,0.2342645680796658,-8.21401842671843e-06
0.2350586852595969,-6.66242236519838e-05,0.2350586852595969,5.7322198936910976e-06,0.2350586852595969,-1.2926129922661428e-05,0.2350586852595969,-2.500284649490603e-05
0.2358528024395279,-6.462250116662818e-05,0.2358528024395279,-5.1179842112422505e-05,0.2358528024395279,-1.2253167055542726e-05,0.2358528024395279,-3.373552827794454e-05
0.236646919619459,-6.126533984568771e-05,0.236646919619459,-9.818704218061896e-05,0.236646919619459,-9.567681875537825e-06,0.236646919619459,-4.280068241664316e-05
0.2374410367993901,-4.548524853323514e-05,0.2374410367993901,-0.0001285738634879,0.2374410367993901,-1.091023111726764e-05,0.2374410367993901,-4.548699109419794e-05
0.2382351539793211,-5.5342124776796005e-06,0.2382351539793211,-0.0001472056926089,0.2382351539793211,-1.158146979632715e-05,0.2382351539793211,-4.3136648981635753e-05
0.2390292711592522,1.928815846262579e-05,0.2390292711592522,-0.0001559313703648,0.2390292711592522,-1.090997099833716e-05,0.2390292711592522,-3.977892599002296e-05
0.2398233883391833,-2.329819828457794e-05,0.2398233883391833,-0.0001540874202841,0.2398233883391833,-1.0239316564870847e-05,0.2398233883391833,-3.57549993892251e-05
0.2406175055191144,-1.9640699647503983e-05,0.2406175055191144,-0.0001510658820166,0.2406175055191144,-9.90330906452556e-06,0.2406175055191144,-3.2396990645255606e-05
0.2414116226990454,1.4586628872576176e-05,0.2414116226990454,-0.0001445211105945,0.2414116226990454,-1.0238640478677033e-05,0.2414116226990454,-3.038165712793781e-05
0.2422057398789765,6.548759468336877e-06,0.2422057398789765,-0.0001321010692232,0.2422057398789765,-1.0909980043759246e-05,0.2422057398789765,-2.3333309540527916e-05
0.2429998570589076,-1.0235778268512888e-05,0.2429998570589076,-0.0001089381699553,0.2429998570589076,-1.1245839565082217e-05,0.2429998570589076,-1.6618308680353036e-05
0.2437939742388386,-5.038638581832322e-07,0.2437939742388386,-9.147836636270103e-05,0.2437939742388386,-1.0910210891715192e-05,0.2437939742388386,-1.4267276242006348e-05
0.2445880914187697,3.67607006539324e-05,0.2445880914187697,-7.87200824839034e-05,0.2445880914187697,-9.73539527905457e-06,0.2445880914187697,-1.3091987422576086e-05
0.2453822085987008,5.151664724893198e-05,0.2453822085987008,-6.813864203058248e-05,0.2453822085987008,-1.091046458407001e-05,0.2453822085987008,-1.1245326737142166e-05
0.2461763257786318,1.8409750037290555e-06,0.2461763257786318,-3.706993848820605e-05,0.2461763257786318,-1.1918056585016397e-05,0.2461763257786318,-9.064891730682542e-06
0.2469704429585629,-1.1236726515492356e-05,0.2469704429585629,2.3288660856903517e-05,0.2469704429585629,-1.3762306332572084e-05,0.2469704429585629,-1.1579835867285943e-05
0.247764560138494,-2.5225752413125667e-06,0.247764560138494,8.036818492655743e-05,0.247764560138494,-1.3931406986464916e-05,0.247764560138494,-1.2923656113312023e-05
0.2485586773184251,-2.0973696450439563e-05,0.2485586773184251,0.0001055667679867,0.2485586773184251,-1.39315e-05,0.2485586773184251,-1.359552714306122e-05
0.2493527944983561,-2.5679683632146653e-05,0.2493527944983561,0.0001038994342969,0.2493527944983561,-1.3595886885266798e-05,0.2493527944983561,-1.628070491786562e-05
0.2501469116782872,-3.3065478474587475e-05,0.2501469116782872,9.517147092704028e-05,0.2501469116782872,-1.4938450631743175e-05,0.2501469116782872,-1.8966701263486355e-05
0.2509410288582183,-1.9636399020575583e-05,0.2509410288582183,7.972752152167153e-05,0.2509410288582183,-1.4938685407968624e-05,0.2509410288582183,-2.0645615908997296e-05
0.2517351460381494,3.541789796018121e-05,0.2517351460381494,5.555285174940752e-05,0.2517351460381494,-1.7288561744341003e-05,0.2517351460381494,-2.383450737429214e-05
0.2525292632180804,4.462728221053189e-05,0.2525292632180804,2.7014474803570307e-05,0.2525292632180804,-1.7623755409762995e-05,0.2525292632180804,-2.3330444295312934e-05
0.2533233803980115,-1.757566677108464e-05,0.2533233803980115,-8.175303562932036e-07,0.2533233803980115,-1.6282446542830376e-05,0.2533233803980115,-2.165390810060061e-05
0.2541174975779426,-2.7688727402647488e-05,0.2541174975779426,-2.2981280238999245e-05,0.2541174975779426,-1.829432546787403e-05,0.2541174975779426,-2.433640068710938e-05
0.2549116147578736,-2.5681877272910488e-05,0.2549116147578736,-2.970604242363171e-05,0.2549116147578736,-1.728898863645524e-05,0.2549116147578736,-2.534471136354476e-05
0.2557057319378047,-3.591624328059827e-05,0.2557057319378047,-3.239399331507351e-05,0.2557057319378047,-1.5610566678079056e-05,0.2557057319378047,-1.863356667855523e-05
0.2564998491177358,-4.7834735378832565e-05,0.2564998491177358,-3.944326035932266e-05,0.2564998491177358,-1.6952544830347175e-05,0.2564998491177358,-1.1918575848264131e-05
0.2572939662976669,-2.333204018813109e-05,0.2572939662976669,-4.4815472016874605e-05,0.2572939662976669,-1.8295543003157497e-05,0.2572939662976669,-7.553405238889216e-06
0.2580880834775979,-1.5104635311966026e-06,0.2580880834775979,-4.884420588197593e-05,0.2580880834775979,-1.8966647060080224e-05,0.2580880834775979,-1.846163530986332e-06
0.258882200657529,1.6157108576127997e-07,0.258882200657529,-4.985103032561084e-05,0.258882200657529,-1.560983032561084e-05,0.258882200657529,-1.6937606217366558e-07
0.2596763178374601,-2.466923685356222e-05,0.2596763178374601,-4.918073947955651e-05,0.2596763178374601,-1.4938331577269568e-05,0.2596763178374601,-6.213506853404053e-06
0.2604704350173911,-1.3268211373588414e-05,0.2604704350173911,-5.15280299966886e-05,0.2604704350173911,-1.426767714380326e-05,0.2604704350173911,-1.3926012860475915e-05
0.2612645521973222,7.709236972153707e-06,0.2612645521973222,-5.857542408748377e-05,0.2612645521973222,-1.42672e-05,0.2612645521973222,-1.5273542683330244e-05
0.2620586693772533,-4.52682783310444e-06,0.2620586693772533,-6.126388171228151e-05,0.2620586693772533,-1.5273880642105565e-05,0.2620586693772533,-1.359649892982406e-05
0.2628527865571843,-2.8538912111229603e-06,0.2628527865571843,-5.824451218486008e-05,0.2628527865571843,-1.4267470728286692e-05,0.2628527865571843,-1.795872684409099e-05
0.2636469037371154,-4.196067202973775e-06,0.2636469037371154,-4.918089888811058e-05,0.2636469037371154,-1.2253244197357904e-05,0.2636469037371154,-2.2994689518729023e-05
0.2644410209170465,1.9303991163971385e-05,0.2644410209170465,-4.2465776188998336e-05,0.2644410209170465,-1.359584421821488e-05,0.2644410209170465,-1.6280975506427986e-05
0.2652351380969776,6.831413292262811e-05,0.2652351380969776,-3.776376452617773e-05,0.2652351380969776,-1.527447516053667e-05,0.2652351380969776,-1.6644772283758922e-07
0.2660292552769086,6.560743343178564e-05,0.2660292552769086,-2.433055444678612e-05,0.2660292552769086,-1.6280214262842227e-05,0.2660292552769086,7.88880220892396e-06
0.2668233724568397,-1.793077420304164e-06,0.2668233724568397,-8.577951133356987e-07,0.2668233724568397,-1.2591614878777269e-05,0.2668233724568397,7.5534849810861265e-06
0.2676174896367708,-6.54309909962533e-06,0.2676174896367708,1.593491105888782e-05,0.2676174896367708,-1.6949994866286276e-05,0.2676174896367708,7.21773577951644e-06
0.2684116068167018,2.230960376614481e-05,0.2684116068167018,2.0643172691606287e-05,0.2684116068167018,-1.7623867527372327e-05,0.2684116068167018,3.1911348258621773e-06
0.2692057239966329,1.2927667372353384e-05,0.2692057239966329,1.1584750714003282e-05,0.2692057239966329,-1.5610700158667397e-05,0.2692057239966329,-5.871569299901171e-06
0.269999841176564,-5.870959621117837e-06,0.269999841176564,4.86897299217216e-06,0.269999841176564,-1.5945632850091346e-05,0.269999841176564,-1.762184975719776e-05
0.270793958356495,-1.5108688861296731e-06,0.270793958356495,1.175133673242054e-06,0.270793958356495,-1.4267288033530242e-05,0.270793958356495,-2.030965914635161e-05
0.2715880755364261,1.309250340147398e-05,0.2715880755364261,-1.67912872707709e-07,0.2715880755364261,-1.325968482649612e-05,0.2715880755364261,-1.76242e-05
0.2723821927163572,1.6270359537174445e-05,0.2723821927163572,-8.393274782428412e-07,0.2723821927163572,-8.895602603931478e-06,0.2723821927163572,-1.7624933317292225e-05
0.2731763098962882,-2.921358599806598e-05,0.2731763098962882,-1.1742857142123876e-06,0.2731763098962882,-7.21752e-06,0.2731763098962882,-2.0644976567627767e-05
0.2739704270762193,-4.91654055602571e-05,0.2739704270762193,5.023383827788537e-07,0.2739704270762193,-7.21752e-06,0.2739704270762193,-1.930366770069524e-05
0.2747645442561504,-5.555443895340608e-05,0.2747645442561504,-2.851513140259438e-06,0.2747645442561504,-1.0908080458188478e-05,0.2747645442561504,-1.2592553733256756e-05
0.2755586614360815,-5.79069979957782e-05,0.2755586614360815,-4.195657430423e-06,0.2755586614360815,-1.09102e-05,0.2755586614360815,-1.2253143143460256e-05
0.2763527786160125,-3.156304757840447e-05,0.2763527786160125,-3.525017200515354e-06,0.2763527786160125,-9.567784398242496e-06,0.2763527786160125,-1.325981919922697e-05
0.2771468957959436,-2.266076751852078e-05,0.2771468957959436,-8.223993203854093e-06,0.2771468957959436,-1.0238711887202291e-05,0.2771468957959436,-1.896625103006416e-05
0.2779410129758747,-2.131642819261974e-05,0.2779410129758747,-1.1917316458442592e-05,0.2779410129758747,-1.25887e-05,0.2779410129758747,-2.5009554861475306e-05
0.2787351301558057,7.554595730474298e-06,0.2787351301558057,-1.2924620117400443e-05,0.2787351301558057,-1.258864497064989e-05,0.2787351301558057,-2.83665e-05
0.2795292473357368,1.593086943810518e-05,0.2795292473357368,-1.4267095558985086e-05,0.2795292473357368,-1.2253678851041228e-05,0.2795292473357368,-2.8366708882029827e-05
0.2803233645156679,-3.168539556009586e-05,0.2803233645156679,-1.3931768342251931e-05,0.2803233645156679,-1.4433255815330006e-05,0.2803233645156679,-2.9037363315496133e-05
0.2811174816955989,-1.8304365415196867e-05,0.2811174816955989,-1.39315e-05,0.2811174816955989,-1.2925386083914565e-05,0.2811174816955989,-2.8366938274023725e-05
0.2819115988755301,3.849336843952548e-06,0.2819115988755301,-1.728680406190741e-05,0.2819115988755301,-1.3595460812381484e-05,0.2819115988755301,-2.9373091218572224e-05
0.2827057160554611,1.1759004012772975e-06,0.2827057160554611,-1.7959659898786645e-05,0.2827057160554611,-1.3931379949393322e-05,0.2827057160554611,-2.6521220412276127e-05
0.2834998332353922,-6.208868845511606e-06,0.2834998332353922,-1.7624270507404073e-05,0.2834998332353922,-1.3595870507404072e-05,0.2834998332353922,-2.13179928542616e-05
0.2842939504153233,2.5343229376302645e-05,0.2842939504153233,-2.1988027465380885e-05,0.2842939504153233,-1.4938516143194118e-05,0.2842939504153233,-1.5274677355626466e-05
0.2850880675952543,7.603515699897891e-05,0.2850880675952543,-2.5345257158002218e-05,0.2850880675952543,-1.628131426299667e-05,0.2850880675952543,-1.1245156949376442e-05
0.2858821847751854,6.964622859468657e-05,0.2858821847751854,-2.601816244407381e-05,0.2858821847751854,-1.5275237466444287e-05,0.2858821847751854,-2.5163338073150017e-06
0.2866763019551165,2.164603351311813e-05,0.2866763019551165,-3.273225756267172e-05,0.2866763019551165,-1.9303847505406333e-05,0.2866763019551165,3.5229174390810166e-06
0.2874704191350475,4.376711818046706e-06,0.2874704191350475,-3.709151138020273e-05,0.2874704191350475,-2.232169256705128e-05,0.2874704191350475,-1.5069608452302654e-06
0.2882645363149786,1.6609944405742245e-05,0.2882645363149786,-4.4140283072676045e-05,0.2882645363149786,-2.3665915823366868e-05,0.2882645363149786,-1.0904710786927516e-05
0.2890586534949096,3.195000020771937e-06,0.2890586534949096,-5.471428524171558e-05,0.2890586534949096,-2.2660039502867103e-05,0.2890586534949096,-1.2420140767519557e-05
0.2898527706748408,-7.550117363453736e-06,0.2898527706748408,-5.3544239366576976e-05,0.2898527706748408,-2.031047867538943e-05,0.2898527706748408,-1.2253048464435418e-05
0.2906468878547718,-3.843313787830335e-05,0.2906468878547718,-4.045354915334522e-05,0.2906468878547718,-1.829588448730297e-05,0.2906468878547718,-1.695213619629307e-05
0.2914410050347029,-3.6422991346715816e-05,0.2914410050347029,-8.895780106779563e-06,0.2914410050347029,-1.997409467805274e-05,0.2914410050347029,-1.628135955561038e-05
0.292235122214634,1.2253465046692205e-05,0.292235122214634,2.736474801387193e-05,0.292235122214634,-1.913415410951252e-05,0.292235122214634,-9.90294498597516e-06
0.293029239394565,1.5260653214953038e-05,0.293029239394565,6.21095070914384e-05,0.293029239394565,-1.4938195649028975e-05,0.293029239394565,-8.896212175485512e-06
0.2938233565744961,-3.000832126611592e-05,0.2938233565744961,7.971413602545228e-05,0.2938233565744961,-1.359688678209636e-05,0.2938233565744961,-9.56686660895182e-06
0.2946174737544272,-5.721857801118773e-05,0.2946174737544272,7.167693986817483e-05,0.2946174737544272,-1.4602232516478146e-05,0.2946174737544272,-5.541699920831859e-06
0.2954115909343582,-3.844718522154383e-05,0.2954115909343582,5.690850980588738e-05,0.2954115909343582,-1.292526475652352e-05,0.2954115909343582,-1.848242459199785e-06
0.2962057081142893,-1.4276085346591478e-05,0.2962057081142893,4.213562991973202e-05,0.2962057081142893,-1.0910940448612742e-05,0.2962057081142893,-3.020858071642567e-06
0.2969998252942204,-1.1917817054296477e-05,0.2969998252942204,1.3602078494453944e-05,0.2969998252942204,-9.56770545739766e-06,0.2969998252942204,-6.209718287855435e-06
0.2977939424741515,-1.687002558419723e-07,0.2977939424741515,-3.1720216585406485e-05,0.2977939424741515,-9.56741e-06,0.2977939424741515,-1.6280670350541535e-05
0.2985880596540825,1.527374512762669e-05,0.2985880596540825,-8.678147968927214e-05,0.2985880596540825,-1.1077986500219266e-05,0.2985880596540825,-2.064499556988671e-05
0.2993821768340136,7.881284042069673e-06,0.2993821768340136,-0.0001317651400286,0.2993821768340136,-9.567746450095828e-06,0.2993821768340136,-1.393067758820879e-05
0.3001762940139447,-2.635316906084104e-05,0.3001762940139447,-0.0001458607518448,0.3001762940139447,-1.1078286208831637e-05,0.3001762940139447,-1.0240041515487202e-05
0.3009704111938757,-2.8700459577973123e-05,0.3009704111938757,-0.0001451904969671,0.3009704111938757,-1.1581227089454644e-05,0.3009704111938757,-1.3593313682818747e-05
0.3017645283738068,-2.3334190426459663e-05,0.3017645283738068,-0.0001310983752258,0.3017645283738068,-1.0239597606614916e-05,0.3017645283738068,-1.946701050075913e-05
0.3025586455537379,-2.400210028309775e-05,0.3025586455537379,-9.14954831186704e-05,0.3025586455537379,-1.627870254787975e-05,0.3025586455537379,-2.433592707477898e-05
0.3033527627336689,-2.467359936950296e-05,0.3033527627336689,-2.06666663979083e-05,0.3033527627336689,-1.863059779326035e-05,0.3033527627336689,-2.6016098423757395e-05
0.3041468799136,-2.098175847738112e-05,0.3041468799136,6.930809315218485e-05,0.3041468799136,-1.762435231613782e-05,0.3041468799136,-3.642172606657584e-05
0.3049409970935311,1.997395008147897e-05,0.3049409970935311,0.0001492177075363,0.3049409970935311,-1.7959898771156663e-05,0.3049409970935311,-5.052254838894592e-05
0.3057351142734621,5.656225283847682e-05,0.3057351142734621,0.0001896705797147,0.3057351142734621,-1.8966661799485128e-05,0.3057351142734621,-4.7163691590005007e-05
0.3065292314533932,3.606751566819459e-05,0.3065292314533932,0.0001936905233275,0.3065292314533932,-1.6617002265529426e-05,0.3065292314533932,-3.390154179761217e-05
0.3073233486333243,-3.28418777591364e-05,0.3073233486333243,0.0001680380411919,0.3073233486333243,-1.6281675048796245e-05,0.3073233486333243,-2.032093935334864e-05
0.3081174658132554,-3.507903192834329e-05,0.3081174658132554,0.0001287664247515,0.3081174658132554,-1.62814e-05,0.3081174658132554,-9.2391631093623e-06
0.3089115829931864,1.0550522108219144e-05,0.3089115829931864,8.21028066081023e-05,0.3089115829931864,-1.3093874959861296e-05,0.3089115829931864,4.524701370705716e-06
0.3097057001731175,2.735306175788546e-05,0.3097057001731175,3.677611328014236e-05,0.3097057001731175,-1.225331689511302e-05,0.3097057001731175,1.7619256153025103e-05
0.3104998173530486,9.90711554153358e-06,0.3104998173530486,3.70028637599736e-06,0.3104998173530486,-1.1917377222394942e-05,0.3104998173530486,2.0644804998445525e-05
0.3112939345329796,1.86305803409986e-05,0.3112939345329796,-2.2993099518224135e-05,0.3112939345329796,-1.2588644641615278e-05,0.3112939345329796,2.3666450895513967e-05
0.3120880517129107,3.541550035167149e-05,0.3120880517129107,-4.397729803311823e-05,0.3120880517129107,-1.3595712543958937e-05,0.3120880517129107,2.500901899828711e-05
0.3128821688928418,2.466480273372364e-05,0.3128821688928418,-5.623107095868262e-05,0.3128821688928418,-1.2252714371148616e-05,0.3128821688928418,1.7621557939506028e-05
0.3136762860727728,-1.7635675764303256e-05,0.3136762860727728,-6.361647034161102e-05,0.3136762860727728,-1.09095960122157e-05,0.3136762860727728,5.198014897422662e-06
0.314470403252704,-4.949156157604826e-05,0.314470403252704,-6.797562427018889e-05,0.314470403252704,-9.232969917445158e-06,0.314470403252704,-9.5563227054651e-06
0.315264520432635,-5.3205969649359344e-05,0.315264520432635,-6.864989448170169e-05,0.315264520432635,-1.0238191728592435e-05,0.315264520432635,-2.5000173145577863e-05
0.3160586376125661,-4.079306894438151e-05,0.3160586376125661,-7.049585728947363e-05,0.3160586376125661,-1.0909893568106905e-05,0.3160586376125661,-2.7693874272427624e-05
0.3168527547924971,-2.182625749459283e-05,0.3168527547924971,-7.67051820696779e-05,0.3168527547924971,-1.1581392654512066e-05,0.3168527547924971,-2.6017118363719835e-05
0.3176468719724282,-2.165262705670849e-05,0.3176468719724282,-7.905662109321046e-05,0.3176468719724282,-1.2252891740917274e-05,0.3176468719724282,-2.198894953837197e-05
0.3184409891523593,-2.0309818345355037e-05,0.3184409891523593,-8.073547706830621e-05,0.3184409891523593,-1.3595781654644964e-05,0.3184409891523593,-1.7959955036065105e-05
0.3192351063322903,1.0576343218024712e-05,0.3192351063322903,-8.224522334785147e-05,0.3192351063322903,-1.0910020173883913e-05,0.3192351063322903,-1.762422247173592e-05
0.3200292235122214,2.4324981097764207e-05,0.3200292235122214,-7.569731014990247e-05,0.3200292235122214,-9.567221237603163e-06,0.3200292235122214,-1.7791622475206328e-05
0.3208233406921525,-2.228520236128392e-05,0.3208233406921525,-6.614053441748429e-05,0.3208233406921525,-8.896566804136857e-06,0.3208233406921525,-1.6450313608273715e-05
0.3216174578720835,-2.299484158100365e-05,0.3216174578720835,-5.590079085555532e-05,0.3216174578720835,-1.2586178702347876e-05,0.3216174578720835,-1.7623397732617346e-05
0.3224115750520147,-8.511038973671323e-07,0.3224115750520147,-4.3144127265710935e-05,0.3224115750520147,-1.5943903337044516e-05,0.3224115750520147,-1.997284233593116e-05
0.3232056922319457,-7.550617548218691e-06,0.3232056922319457,-3.37413434466031e-05,0.3232056922319457,-1.628126987690703e-05,0.3232056922319457,-1.9302960246185937e-05
0.3239998094118768,-1.79574020281987e-05,0.3239998094118768,-2.83677892782462e-05,0.3239998094118768,-1.5274541739671162e-05,0.3239998094118768,-1.5610886378794264e-05
0.3247939265918079,2.920143935923447e-05,0.3247939265918079,-2.3331465550316756e-05,0.3247939265918079,-1.846310515608874e-05,0.3247939265918079,-1.3931655183438918e-05
0.3255880437717389,6.546020990421352e-05,0.3255880437717389,-2.232371494036461e-05,0.3255880437717389,-1.7120572242984178e-05,0.3255880437717389,-1.091021850651482e-05
0.32638216095167,4.7490003805697335e-05,0.32638216095167,-1.8966523651978195e-05,0.32638216095167,-1.6617304149152204e-05,0.32638216095167,-1.124746514350022e-05
0.3271762781316011,-8.231304326766161e-06,0.3271762781316011,-1.661698255499562e-05,0.3271762781316011,-1.7623788924992107e-05,0.3271762781316011,-1.8967939560035056e-05
0.3279703953115321,-2.7344845802707174e-05,0.3279703953115321,-1.6281655338262462e-05,0.3279703953115321,-1.6450093721949343e-05,0.3279703953115321,-2.165055729390029e-05
0.3287645124914632,-1.125579353754044e-05,0.3287645124914632,-1.4603930583222863e-05,0.3287645124914632,-1.5610515260911904e-05,0.3287645124914632,-1.8968648933156585e-05
0.3295586296713942,-5.877225165743703e-06,0.3295586296713942,-1.577725201627347e-05,0.3295586296713942,-1.3093374324135383e-05,0.3295586296713942,-1.762482629376797e-05
0.3303527468513254,-8.895046731033772e-06,0.3303527468513254,-1.695242537822079e-05,0.3303527468513254,-1.2253267559657118e-05,0.3303527468513254,-2.836307506422227e-05
0.3311468640312564,-1.8965275390608205e-05,0.3311468640312564,-2.299426525046198e-05,0.3311468640312564,-1.2588642512963192e-05,0.3311468640312564,-3.3065495181484686e-05
0.3319409812111875,-1.12460827081867e-05,0.3319409812111875,-3.977990280828979e-05,0.3319409812111875,-1.3595776168497388e-05,0.3319409812111875,-1.6281797189343864e-05
0.3327350983911186,1.1916967206291989e-05,0.3327350983911186,-4.615762642565544e-05,0.3327350983911186,-1.4938620793488286e-05,0.3327350983911186,2.1826639880476283e-06
0.3335292155710496,9.21295832583123e-06,0.3335292155710496,-3.910707944147527e-05,0.3335292155710496,-1.5106900667152227e-05,0.3335292155710496,7.216063558603384e-06
0.3343233327509807,-5.98641586432336e-05,0.3343233327509807,-3.2400535106812174e-05,0.3343233327509807,-1.6951250303661306e-05,0.3343233327509807,1.8508480686636025e-06
0.3351174499309118,-7.937921118364956e-05,0.3351174499309118,-2.233087700980793e-05,0.3351174499309118,-1.930107203104482e-05,0.3351174499309118,-1.5083143439196684e-06
0.3359115671108428,-3.778879484104313e-05,0.3359115671108428,-1.0245388801955728e-05,0.3359115671108428,-2.030925092862702e-05,0.3359115671108428,-4.865799767542068e-06
0.3367056842907739,-2.367230618471336e-05,0.3367056842907739,1.0026284201690886e-06,0.3367056842907739,-2.1652066077646347e-05,0.3367056842907739,-1.5605728633099335e-05
0.337499801470705,-2.9036557001827048e-05,0.337499801470705,1.84590352809416e-05,0.337499801470705,-2.3330580338074643e-05,0.337499801470705,-2.5007149778201024e-05
0.338293918650636,-8.226742428088678e-06,0.338293918650636,3.776412233958844e-05,0.338293918650636,-2.2324003182549617e-05,0.338293918650636,-2.7359159240717563e-05
0.3390880358305671,2.1988284850980623e-05,0.3390880358305671,6.160153319155296e-05,0.3390880358305671,-1.8295418211767504e-05,0.3390880358305671,-3.273122868204773e-05
0.3398821530104982,2.164658364069973e-05,0.3398821530104982,8.006461753777584e-05,0.3398821530104982,-1.426668246222417e-05,0.3398821530104982,-4.666394371869097e-05
0.3406762701904293,-9.57037638163922e-06,0.3406762701904293,8.27431968052494e-05,0.3406762701904293,-1.158137181653555e-05,0.3406762701904293,-5.622619133976549e-05
0.3414703873703603,-1.8288874027805285e-05,0.3414703873703603,6.362964534041439e-05,0.3414703873703603,-1.0910717383069289e-05,0.3414703873703603,-4.650170205450468e-05
0.3422645045502914,2.001516851969829e-06,0.3422645045502914,2.704653261886024e-05,0.3422645045502914,-1.158118105172001e-05,0.3422645045502914,-3.508762205836062e-05
0.3430586217302225,2.1307703990155075e-05,0.3430586217302225,-1.4918608728105234e-05,0.3430586217302225,-1.15816e-05,0.3430586217302225,-2.702753834249795e-05
0.3438527389101535,3.675392219708048e-05,0.3438527389101535,-5.520915353758561e-05,0.3438527389101535,-1.2252779224530331e-05,0.3438527389101535,-1.3600215476510512e-05
0.3446468560900846,6.293875414461072e-05,0.3446468560900846,-7.771012343446524e-05,0.3446468560900846,-1.124608253359669e-05,0.3446468560900846,3.331729613372759e-07
0.3454409732700157,7.032855137411471e-05,0.3454409732700157,-6.663657294051117e-05,0.3454409732700157,-1.1413694351018437e-05,0.3454409732700157,4.53178873398564e-06
0.3462350904499467,6.998929495072859e-05,0.3462350904499467,-2.030173099898173e-05,0.3462350904499467,-1.3595570548762276e-05,0.3462350904499467,3.0211561534446606e-06
0.3470292076298778,3.657203085414714e-05,0.3470292076298778,5.053531277260757e-05,0.3470292076298778,-1.1581950698616315e-05,0.3470292076298778,1.8462961626729603e-06
0.3478233248098089,-3.63612891739769e-05,0.3478233248098089,9.915755942100808e-05,0.3478233248098089,-1.2923259565548937e-05,0.3478233248098089,1.678632554306383e-06
0.34861744198974,-4.581619418458582e-05,0.34861744198974,9.852797184897804e-05,0.34861744198974,-1.393079222653294e-05,0.34861744198974,-3.342824614992865e-07
0.349411559169671,-1.898191039187476e-05,0.349411559169671,6.732483340411866e-05,0.349411559169671,-1.426701361871356e-05,0.349411559169671,-4.194086625199583e-06
0.3502056763496021,-2.66848527648338e-05,0.3502056763496021,4.616712075851962e-05,0.3502056763496021,-1.2589384190419178e-05,0.3502056763496021,-6.545162137489354e-06
0.3509997935295332,-4.481098610241733e-05,0.3509997935295332,3.3405317179482965e-05,0.3509997935295332,-1.1581861884643694e-05,0.3509997935295332,-3.5256156513307e-06
0.3517939107094642,-2.1655204843335604e-05,0.3517939107094642,1.091272935122396e-05,0.3517939107094642,-1.2252924496642698e-05,0.3517939107094642,-2.8535155022327363e-06
0.3525880278893953,-8.560699119939193e-06,0.3525880278893953,-1.829666123013072e-05,0.3525880278893953,-9.903206123715576e-06,0.3525880278893953,-1.2924588664383244e-05
0.3533821450693264,-1.964533078755952e-05,0.3533821450693264,-4.851342942930696e-05,0.3533821450693264,-1.292458400417967e-05,0.3533821450693264,-1.829504798746099e-05
0.3541762622492574,-5.7582211042692936e-05,0.3541762622492574,-7.603979732302162e-05,0.3541762622492574,-1.3931057046159825e-05,0.3541762622492574,-1.5273580183516052e-05
0.3549703794291886,-8.75938471068822e-05,0.3549703794291886,-8.844690434214921e-05,0.3549703794291886,-1.2589748179227114e-05,0.3549703794291886,-1.3093903330273669e-05
0.3557644966091196,-4.9875143463888026e-05,0.3557644966091196,-9.080491024195126e-05,0.3557644966091196,-1.5608084515281035e-05,0.3557644966091196,-9.569644694132512e-06
0.3565586137890507,-3.240339094986754e-05,0.3565586137890507,-9.550391396193995e-05,0.3565586137890507,-1.561e-05,0.3565586137890507,-2.8567057540648484e-06
0.3573527309689818,-1.6286859737168172e-05,0.3573527309689818,-8.510312606825421e-05,0.3573527309689818,-1.4938827490460464e-05,0.3573527309689818,-4.195775022467369e-06
0.3581468481489128,-8.421992844745863e-07,0.3581468481489128,-6.596835951557618e-05,0.3581468481489128,-1.443509631260389e-05,0.3581468481489128,-8.559475377465486e-06
0.3589409653288439,3.860324777496989e-06,0.3589409653288439,-5.119464498393652e-05,0.3589409653288439,-1.2253095280179643e-05,0.3589409653288439,-3.5250498815027498e-06
0.3597350825087749,1.6950706943584407e-05,0.3597350825087749,-4.011673256153615e-05,0.3597350825087749,-1.2924434884377508e-05,0.3597350825087749,3.3557590530221205e-07
0.360529199688706,-3.203052967733734e-06,0.360529199688706,-4.717150247161646e-05,0.360529199688706,-1.3260352964145764e-05,0.360529199688706,-8.39751926784447e-07
0.3613233168686371,-5.853180399521595e-05,0.3613233168686371,-7.064430775398382e-05,0.3613233168686371,-1.4266334614345228e-05,0.3613233168686371,-2.851709233846167e-06
0.3621174340485681,-5.740523752258489e-05,0.3621174340485681,-7.871555723237284e-05,0.3621174340485681,-1.359627856396893e-05,0.3621174340485681,-8.556242227647648e-06
0.3629115512284993,-1.0936478679986936e-05,0.3629115512284993,-5.154506878481043e-05,0.3629115512284993,-1.1582738432691168e-05,0.3629115512284993,-1.795458731975992e-05
0.3637056684084303,-3.695694192425386e-06,0.3637056684084303,3.83739784218036e-06,0.3637056684084303,-1.7621676479573367e-05,0.3637056684084303,-3.037551280532964e-05
0.3644997855883614,1.1241865988140665e-05,0.3644997855883614,6.494120132955395e-05,0.3644997855883614,-1.76242e-05,0.3644997855883614,-3.776410564771311e-05
0.3652939027682925,4.917515468782136e-05,0.3652939027682925,0.0001052360669848,0.3652939027682925,-1.76242e-05,0.3652939027682925,-2.8367651056874046e-05
0.3660880199482235,4.817226143302999e-05,0.3660880199482235,0.0001069195108288,0.3660880199482235,-2.1652519875472995e-05,0.3660880199482235,-2.0309732527771946e-05
0.3668821371281546,3.070828322218553e-05,0.3668821371281546,8.744654316121333e-05,0.3668821371281546,-1.8462327429859715e-05,0.3668821371281546,-1.762431595446222e-05
0.3676762543080857,-1.6288057849660528e-05,0.3676762543080857,7.03234307725941e-05,0.3676762543080857,-1.2251496613767275e-05,0.3676762543080857,-1.8295009365472407e-05
0.3684703714880167,-3.707824539816266e-05,0.3684703714880167,5.355716982488984e-05,0.3684703714880167,-7.556935557293803e-06,0.3684703714880167,-1.645065972896333e-05
0.3692644886679478,-1.025609506607138e-05,0.3692644886679478,2.569884363346404e-05,0.3692644886679478,-7.55322e-06,0.3692644886679478,-1.4604089008020124e-05
0.3700586058478789,-1.493626695700405e-05,0.3700586058478789,-4.85246530491658e-06,0.3700586058478789,-9.56641012939444e-06,0.3700586058478789,-1.6280566770358588e-05
0.3708527230278099,-8.226952051025251e-06,0.3708527230278099,-2.6680388368179005e-05,0.3708527230278099,-1.1077573023781189e-05,0.3708527230278099,-1.5274651308177035e-05
0.371646840207741,1.12419815657728e-05,0.371646840207741,-4.1959226051761534e-05,0.371646840207741,-1.191713111125474e-05,0.371646840207741,-1.3596137797615488e-05
0.3724409573876721,1.1581581983679485e-05,0.3724409573876721,-5.287191447226658e-05,0.3724409573876721,-1.6448956782356413e-05,0.3724409573876721,-1.3931481983679482e-05
0.3732350745676032,2.1315008390829957e-05,0.3732350745676032,-5.421545763441055e-05,0.3732350745676032,-1.896665320429679e-05,0.3732350745676032,-1.258895221505688e-05
0.3740291917475342,1.1555887086009465e-06,0.3740291917475342,-5.589331419134155e-05,0.3740291917475342,-1.527438096810974e-05,0.3740291917475342,-1.5274542904329223e-05
0.3748233089274653,-7.898725649039057e-05,0.3748233089274653,-5.388135089094263e-05,0.3748233089274653,-1.5609708184842897e-05,0.3748233089274653,-1.6280524554528686e-05
0.3756174261073964,-7.805062791843967e-05,0.3756174261073964,-4.649953806855752e-05,0.3756174261073964,-1.6448593437439616e-05,0.3756174261073964,-1.7287772081560336e-05
0.3764115432873274,-2.9401598845168517e-05,0.3764115432873274,-4.045517567547104e-05,0.3764115432873274,-1.7623524134269183e-05,0.3764115432873274,-1.72885e-05
0.3772056604672585,-1.024698248249576e-05,0.3772056604672585,-3.441168395534466e-05,0.3772056604672585,-1.7959756446925296e-05,0.3772056604672585,-1.4268491977672324e-05
0.3779997776471896,-1.02388e-05,0.3779997776471896,-2.9710616138209387e-05,0.3779997776471896,-1.8295505990127903e-05,0.3779997776471896,-1.2589170049360495e-05
0.3787938948271206,9.900432013074838e-06,0.3787938948271206,-2.6352744666695184e-05,0.3787938948271206,-1.82956e-05,0.3787938948271206,-1.3260011066660965e-05
0.3795880120070517,2.8030647705519665e-05,0.3795880120070517,-2.2323844159648287e-05,0.3795880120070517,-1.4938559387735318e-05,0.3795880120070517,-1.3931505076533083e-05
0.3803821291869828,1.7953236424786723e-05,0.3803821291869828,-1.8631627718414132e-05,0.3803821291869828,-1.2252918062261264e-05,0.3803821291869828,-1.4266872281585863e-05
0.3811762463669139,-2.300403864992973e-05,0.3811762463669139,-2.0647268511577448e-05,0.3811762463669139,-1.1748931871874098e-05,0.3811762463669139,-1.2252479840421471e-05
0.3819703635468449,-5.117142496656126e-05,0.3819703635468449,-2.6347731307087624e-05,0.3819703635468449,-1.0240009341051628e-05,0.3819703635468449,-1.05758437567557e-05
0.382764480726776,-3.24071945456736e-05,0.382764480726776,-2.8365182720242152e-05,0.382764480726776,-1.02388e-05,0.382764480726776,-1.2587382720242152e-05
0.3835585979067071,-1.561850012054374e-05,0.3835585979067071,-3.5077099931525914e-05,0.3835585979067071,-9.903270003423704e-06,0.3835585979067071,-1.023999002396593e-05
0.3843527150866381,-8.445462332231301e-07,0.3843527150866381,-4.649010438836509e-05,0.3843527150866381,-1.1245418159115503e-05,0.3843527150866381,-8.56091229751729e-06
0.3851468322665692,2.634655575403257e-05,0.3851468322665692,-5.8576846987333286e-05,0.3851468322665692,-1.3259674497888882e-05,0.3851468322665692,-9.902816334038432e-06
0.3859409494465003,2.803069313092042e-05,0.3859409494465003,-6.965669467044172e-05,0.3859409494465003,-1.32601e-05,0.3859409494465003,-1.0238778626184084e-05
0.3867350666264313,3.944367041024008e-05,0.3867350666264313,-6.663411547377807e-05,0.3867350666264313,-1.678497042766228e-05,0.3867350666264313,-1.091045352447998e-05
0.3875291838063624,2.8351792069203364e-05,0.3875291838063624,-4.178378919172119e-05,0.3875291838063624,-1.762396715548732e-05,0.3875291838063624,-1.3932508992888285e-05
0.3883233009862935,-3.519236589039678e-05,0.3883233009862935,4.491196906236509e-06,0.3883233009862935,-1.6617985505287786e-05,0.3883233009862935,-1.82917628104196e-05
0.3891174181662246,-3.57515309678976e-05,0.3891174181662246,5.686252464038936e-05,0.3891174181662246,-1.930073202419734e-05,0.3891174181662246,-2.5675488139821493e-05
0.3899115353461556,4.17285210053034e-06,0.3899115353461556,8.978004764731385e-05,0.3899115353461556,-1.561216099150002e-05,0.3899115353461556,-2.232586453772729e-05
0.3907056525260867,3.5251238211402503e-06,0.3907056525260867,8.275278507821016e-05,0.3907056525260867,-1.42677876422805e-05,0.3907056525260867,-1.5612938167640043e-05
0.3914997697060178,-1.2919629019293312e-05,0.3914997697060178,5.153875513617736e-05,0.3914997697060178,-1.5609610530529824e-05,0.3914997697060178,-1.3596384204205266e-05
0.3922938868859488,1.3256369729380727e-05,0.3922938868859488,2.333501721560892e-05,0.3922938868859488,-1.3596086944989645e-05,0.3922938868859488,-1.0574930417484464e-05
0.3930880040658799,2.0309715767308123e-05,0.3930880040658799,5.035418974418993e-06,0.3930880040658799,-1.2253013752301306e-05,0.3930880040658799,-9.063855702405842e-06
0.393882121245811,3.8505851666224165e-06,0.393882121245811,-6.883050290711797e-06,0.393882121245811,-1.4938523099004508e-05,0.393882121245811,-8.224097380651614e-06
0.394676238425742,-6.126822168660214e-05,0.394676238425742,-1.493960678643525e-05,0.394676238425742,-1.443565442617824e-05,0.394676238425742,-4.868234068862084e-06
0.3954703556056732,-7.199859273311038e-05,0.3954703556056732,-1.829287895376703e-05,0.3954703556056732,-1.6615331279420623e-05,0.3954703556056732,-6.880187380365807e-06
0.3962644727856042,-2.2356889677216468e-05,0.3962644727856042,-1.2257012274191142e-05,0.3962644727856042,-1.762353128763481e-05,0.3962644727856042,-9.565626773666138e-06
0.3970585899655353,-2.1924415828507114e-06,0.3970585899655353,-4.871443924728807e-06,0.3970585899655353,-1.5946566804595747e-05,0.3970585899655353,-9.064120041378723e-06
0.3978527071454664,3.8583012921672085e-06,0.3978527071454664,-5.538782364566908e-06,0.3978527071454664,-1.762358091141727e-05,0.3978527071454664,-7.553777176036111e-06
0.3986468243253974,-2.012890202643596e-06,0.3986468243253974,-4.196527098055768e-06,0.3986468243253974,-1.76242e-05,0.3986468243253974,-7.721032862743029e-06
0.3994409415053285,-1.2923596235327586e-05,0.3994409415053285,-4.19623e-06,0.3994409415053285,-1.4938797850490892e-05,0.3994409415053285,-1.2924016666147314e-05
0.4002350586852595,-1.3595651128652684e-05,0.4002350586852595,-6.546938790932007e-06,0.4002350586852595,-1.795983796657641e-05,0.4002350586852595,-1.4938922554585846e-05
0.4010291758651906,-1.1594521446015888e-05,0.4010291758651906,-1.762717044049471e-05,0.4010291758651906,-1.7120340095581795e-05,0.4010291758651906,-1.930336833196722e-05
0.4018232930451217,-6.994115749072443e-05,0.4018232930451217,-3.104015922086744e-05,0.4018232930451217,-1.5946744781492477e-05,0.4018232930451217,-2.232121339361216e-05
0.4026174102250527,-5.355611829478803e-05,0.4026174102250527,-3.641931032846793e-05,0.4026174102250527,-1.4268446772353774e-05,0.4026174102250527,-2.567840645529245e-05
0.4034115274049838,1.389133811366402e-05,0.4034115274049838,-3.910730150985479e-05,0.4034115274049838,-1.42672e-05,0.4034115274049838,-2.467439943380445e-05
0.4042056445849149,3.674878181630381e-05,0.4042056445849149,-4.011554919580329e-05,0.4042056445849149,-1.42672e-05,0.4042056445849149,-2.500934973193443e-05
0.404999761764846,4.279978695246618e-05,0.404999761764846,-3.978040072486299e-05,0.404999761764846,-1.493839855027402e-05,0.404999761764846,-2.903669130164412e-05
0.4057938789447771,4.917882756369936e-05,0.4057938789447771,-3.4409918906565804e-05,0.4057938789447771,-1.76237905467171e-05,0.4057938789447771,-2.90379e-05
0.4065879961247081,4.884410163845778e-05,0.4065879961247081,-2.836652949224008e-05,0.4065879961247081,-1.76242e-05,0.4065879961247081,-2.9373598361542214e-05
0.4073821133046392,2.735331612595085e-05,0.4073821133046392,-2.0980074231362192e-05,0.4073821133046392,-1.5273868857296817e-05,0.4073821133046392,-3.00450479047448e-05
0.4081762304845703,-1.527702508140718e-05,0.4081762304845703,-1.3090496826294896e-05,0.4081762304845703,-1.2252805349257218e-05,0.4081762304845703,-3.0379337444800525e-05
0.4089703476645013,-2.466608726098205e-05,0.4089703476645013,-7.222340455732107e-06,0.4089703476645013,-1.1582150915790908e-05,0.4089703476645013,-2.5684756410536363e-05
0.4097644648444324,1.157517963317388e-06,0.4097644648444324,-3.1918551259261183e-06,0.4097644648444324,-1.2923494953531295e-05,0.4097644648444324,-1.8636051426560743e-05
0.4105585820243635,5.201209384289316e-06,0.4105585820243635,-3.860176568435033e-06,0.4105585820243635,-9.56917717888154e-06,0.4105585820243635,-1.091426452353515e-05
0.4113526992042945,8.559038255456807e-06,0.4113526992042945,-8.222956729820832e-06,0.4113526992042945,-9.231837175211992e-06,0.4113526992042945,-2.5209193651463475e-06
0.4121468163842256,7.721264077710926e-06,0.4121468163842256,-9.734910655957755e-06,0.4121468163842256,-9.567332367990613e-06,0.4121468163842256,4.8659221027311e-06
0.4129409335641567,3.693017064844679e-06,0.4129409335641567,-1.5273836535524795e-05,0.4129409335641567,-8.896066177613568e-06,0.4129409335641567,8.224329113605612e-06
0.4137350507440878,3.5235641951216435e-06,0.4137350507440878,-1.7624242908791595e-05,0.4137350507440878,-9.735227818406303e-06,0.4137350507440878,7.2174341824168125e-06
0.4145291679240188,-1.6295652503574805e-05,0.4145291679240188,-1.829673451156941e-05,0.4145291679240188,-9.231780908293249e-06,0.4145291679240188,5.874081829585294e-06
0.4153232851039499,-8.36961234000738e-05,0.4153232851039499,-2.366187009034606e-05,0.4153232851039499,-9.567108125026377e-06,0.4153232851039499,2.856156856777804e-06
0.416117402283881,-4.7528592817068e-05,0.416117402283881,-2.6350278304270583e-05,0.416117402283881,-1.0238294583595557e-05,0.416117402283881,-3.520028495226371e-06
0.416911519463812,2.194624424749833e-05,0.416911519463812,-2.735879049370921e-05,0.416911519463812,-1.0909793662472806e-05,0.416911519463812,-8.389514065032039e-06
0.4177056366437431,3.8765518767711947e-05,0.4177056366437431,-2.7023853625561017e-05,0.4177056366437431,-1.1581292748877968e-05,0.4177056366437431,-1.4264511557258494e-05
0.4184997538236742,2.719519082586212e-05,0.4184997538236742,-2.6016912247075168e-05,0.4184997538236742,-1.2923983670566444e-05,0.4184997538236742,-1.896554284698256e-05
0.4192938710036052,3.675744564218266e-05,0.4192938710036052,-2.769482730422096e-05,0.4192938710036052,-1.4266981843376766e-05,0.4192938710036052,-2.232335462468832e-05
0.4200879881835363,4.817253013907848e-05,0.4200879881835363,-3.105205004046772e-05,0.4200879881835363,-1.2253029975719368e-05,0.4200879881835363,-2.047762747699864e-05
0.4208821053634674,3.389908523589634e-05,0.4208821053634674,-3.474896514791392e-05,0.4208821053634674,-1.2253267283496396e-05,0.4208821053634674,-1.6952577263753003e-05
0.4216762225433985,-1.444228282369235e-05,0.4216762225433985,-6.614561512174417e-05,0.4216762225433985,-1.426748191629763e-05,0.4216762225433985,-1.5275145748892893e-05
0.4224703397233295,-4.04300921760351e-05,0.4224703397233295,-0.0001125883846948,0.4224703397233295,-1.5273463566497093e-05,0.4224703397233295,-1.829309069949128e-05
0.4232644569032606,-8.246653359569282e-06,0.4232644569032606,-0.0001508698239683,0.4232644569032606,-1.5609770380887405e-05,0.4232644569032606,-2.030842228532441e-05
0.4240585740831917,7.880266399232707e-06,0.4240585740831917,-0.0001666655363785,0.4240585740831917,-1.7623119544539897e-05,0.4240585740831917,-1.8967720303640067e-05
0.4248526912631227,4.614361935301073e-05,0.4248526912631227,-0.0001492247875452,0.4248526912631227,-1.712079581850299e-05,0.4248526912631227,-2.165155573834069e-05
0.4256468084430538,4.011745778696101e-05,0.4256468084430538,-7.840268871313813e-05,0.4256468084430538,-1.6952840482689627e-05,0.4256468084430538,-2.131698098950481e-05
0.4264409256229849,6.549264618982049e-06,0.4264409256229849,3.473420264298571e-05,0.4264409256229849,-1.8966811322186623e-05,0.4264409256229849,-2.3666479885251782e-05
0.4272350428029159,9.231167095360706e-06,0.4272350428029159,0.0001451935650408,0.4272350428029159,-1.7624073321697376e-05,0.4272350428029159,-3.172335522479701e-05
0.428029159982847,-8.507303040768826e-07,0.428029159982847,0.0002113247698162,0.428029159982847,-1.5274502665063195e-05,0.428029159982847,-2.9035130264259973e-05
0.4288232771627781,-5.785611142189164e-05,0.4288232771627781,0.0002250734853691,0.4288232771627781,-1.6280484315262726e-05,0.4288232771627781,-1.528681426715313e-05
0.4296173943427092,-4.952190173654056e-05,0.4296173943427092,0.0002160289139517,0.4296173943427092,-1.2926960694616223e-05,0.4296173943427092,-1.493885606946162e-05
0.4304115115226402,-2.8821470023562417e-06,0.4304115115226402,0.0001999179135065,0.4304115115226402,-1.29244e-05,0.4304115115226402,-4.202838821833021e-06
0.4312056287025713,1.5936908976898516e-05,0.4312056287025713,0.0001722259509852,0.4312056287025713,-1.359548603388717e-05,0.4312056287025713,1.2413029394822955e-05
0.4319997458825024,1.3260959518830674e-05,0.4319997458825024,0.0001267405579881,0.4319997458825024,-1.2589022319561503e-05,0.4319997458825024,2.5005471021483575e-05
0.4327938630624334,2.265797891101144e-05,0.4327938630624334,7.06741686717732e-05,0.4327938630624334,-1.4938194723441224e-05,0.4327938630624334,2.198882105261474e-05
0.4335879802423645,2.6520103934096613e-05,0.4335879802423645,9.568930319936063e-06,0.4335879802423645,-1.7624133172410988e-05,0.4335879802423645,1.7960000241383517e-05
0.4343820974222956,-1.4275643862751145e-05,0.4343820974222956,-3.8608739338320255e-05,0.4343820974222956,-1.6953129518031633e-05,0.4343820974222956,4.19431469116491e-06
0.4351762146022266,-8.308367824228643e-05,0.4351762146022266,-6.664263388273111e-05,0.4351762146022266,-1.9638943712962177e-05,0.4351762146022266,-1.1415784233021675e-05
0.4359703317821577,-7.671246112435606e-05,0.4359703317821577,-9.045066649287984e-05,0.4359703317821577,-2.165090701336125e-05,0.4359703317821577,-1.9128310217884767e-05
0.4367644489620888,-2.9070982539541648e-05,0.4367644489620888,-0.0001075791184705,0.4367644489620888,-1.980748140604436e-05,0.4367644489620888,-2.6011824014235235e-05
0.4375585661420199,-5.551870267346073e-06,0.4375585661420199,-0.0001156435974889,0.4375585661420199,-1.81286171670272e-05,0.4375585661420199,-3.37334810316749e-05
0.438352683321951,4.192347200071327e-06,0.438352683321951,-0.0001025612215982,0.438352683321951,-1.6953268595767984e-05,0.438352683321951,-3.642222887837732e-05
0.439146800501882,-4.865352641043398e-06,0.439146800501882,-6.8323203394026e-05,0.439146800501882,-1.426787477600204e-05,0.439146800501882,-3.810137826499872e-05
0.4399409176818131,-1.1580903927156766e-05,0.4399409176818131,-2.85385242241056e-05,0.4399409176818131,-1.728818676582093e-05,0.4399409176818131,-2.769617891772791e-05
0.4407350348617442,1.8631705331440875e-05,0.4407350348617442,6.378690072163025e-06,0.4407350348617442,-1.913482211130275e-05,0.4407350348617442,-1.4938526302975236e-05
0.4415291520416752,2.785147583388297e-05,0.4415291520416752,1.5943196139442507e-05,0.4415291520416752,-1.96375011755153e-05,0.4415291520416752,-1.3260549412242352e-05
0.4423232692216063,-3.233950984733464e-05,0.4423232692216063,2.8654746424308603e-06,0.4423232692216063,-1.4942920141251132e-05,0.4423232692216063,-1.5607839929374433e-05
0.4431173864015373,-2.6692410258270157e-05,0.4431173864015373,-2.1969102451544616e-05,0.4431173864015373,-1.3093626886903576e-05,0.4431173864015373,-1.1584713123484812e-05
0.4439115035814684,8.873762440819628e-06,0.4439115035814684,-3.104643320115133e-05,0.4439115035814684,-1.3595485143107724e-05,0.4439115035814684,-1.091061976750888e-05
0.4447056207613995,3.255149601975169e-05,0.4447056207613995,-2.8535602530257425e-05,0.4447056207613995,-1.326026034055186e-05,0.4447056207613995,-1.5607755232273958e-05
0.4454997379413306,3.2059366212526354e-05,0.4454997379413306,-2.4675074186019154e-05,0.4454997379413306,-1.4938046013253602e-05,0.4454997379413306,-1.8294713621205763e-05
0.4462938551212617,3.273047749170665e-05,0.4462938551212617,-2.3331245016586705e-05,0.4462938551212617,-1.6281154983413295e-05,0.4462938551212617,-1.997379372926662e-05
0.4470879723011927,3.27306e-05,0.4470879723011927,-2.0309905395008134e-05,0.4470879723011927,-1.4267270265664433e-05,0.4470879723011927,-2.030978828905593e-05
0.4478820894811238,1.5269457493450237e-05,0.4478820894811238,-1.7624578322585085e-05,0.4478820894811238,-1.3595724335482982e-05,0.4478820894811238,-1.963930796293454e-05
0.4486762066610549,-2.769867788774975e-05,0.4486762066610549,-2.098268348843773e-05,0.4486762066610549,-1.2923920052445754e-05,0.4486762066610549,-2.769658351443282e-05
0.4494703238409859,-4.144709377380908e-05,0.4494703238409859,-2.6683146283947895e-05,0.4494703238409859,-1.1079670304890127e-05,0.4494703238409859,-3.339714619889645e-05
0.450264441020917,-1.831190698274033e-05,0.450264441020917,-3.205541865434418e-05,0.450264441020917,-1.2252172865837984e-05,0.450264441020917,-2.7699117679759306e-05
0.4510585582008481,-1.7960086790900863e-05,0.4510585582008481,-4.145356985477588e-05,0.4510585582008481,-1.2588513209099138e-05,0.4510585582008481,-3.306331134558621e-05
0.4518526753807791,7.207226455336156e-06,0.4518526753807791,-4.649214132540982e-05,0.4518526753807791,-1.1582011743094842e-05,0.4518526753807791,-4.397203947024789e-05
0.4526467925607102,1.0573622960268166e-05,0.4526467925607102,-4.9850322955043e-05,0.4526467925607102,-1.22528245910086e-05,0.4526467925607102,-3.5082824156073133e-05
0.4534409097406413,1.1760085116589784e-06,0.4534409097406413,-5.152950919353464e-05,0.4534409097406413,-1.1581676322586146e-05,0.4534409097406413,-1.7626184375872124e-05
0.4542350269205724,1.0573492706094355e-05,0.4542350269205724,-4.917973740119296e-05,0.4542350269205724,-1.4267268291457045e-05,0.4542350269205724,-4.3638808176007725e-06
0.4550291441005034,-1.9144140195862903e-05,0.4550291441005034,-4.733313490913964e-05,0.4550291441005034,-1.62814e-05,0.4550291441005034,1.511370179908134e-06
0.4558232612804345,-7.06166182420185e-05,0.4558232612804345,-4.532117160874071e-05,0.4558232612804345,-1.62814e-05,0.4558232612804345,5.535286791810644e-06
0.4566173784603656,-4.88611809111323e-05,0.4566173784603656,-3.86105556890498e-05,0.4566173784603656,-1.661683721554751e-05,0.4566173784603656,3.1909794833394745e-06
0.4574114956402966,-4.224590940135691e-06,0.4574114956402966,-5.152149024364007e-05,0.4574114956402966,-1.4604179447499318e-05,0.4574114956402966,1.8471929649995444e-06
0.4582056128202277,1.3251587735674344e-05,0.4582056128202277,-6.763534254249252e-05,0.4582056128202277,-1.628058150976347e-05,0.4582056128202277,3.1884852078107773e-06
0.4589997300001588,5.038276783493689e-06,0.4589997300001588,-6.999230091608708e-05,0.4589997300001588,-1.829491507093179e-05,0.4589997300001588,4.867059229176993e-06
0.4597938471800898,-1.668475235893193e-07,0.4597938471800898,-7.553113389828195e-05,0.4597938471800898,-1.7624329223284196e-05,0.4597938471800898,5.043879478828406e-07
0.4605879643600209,3.524664248107927e-06,0.4605879643600209,-8.006389657831084e-05,0.4605879643600209,-1.6617145205318554e-05,0.4605879643600209,-5.035231371735468e-06
0.461382081539952,-1.8637884648940966e-05,0.461382081539952,-7.234036269602815e-05,0.461382081539952,-1.460300342428926e-05,0.461382081539952,-6.881354592752236e-06
0.4621761987198831,-8.2750874771958e-05,0.4621761987198831,-4.665249208362312e-05,0.4621761987198831,-1.561016782456543e-05,0.4621761987198831,-2.3481698057032134e-06
0.4629703158998141,-8.744545580622184e-05,0.4629703158998141,-8.257685590005115e-06,0.4629703158998141,-1.6280822258031693e-05,0.4629703158998141,4.52600817063994e-06
0.4637644330797452,-4.920712477087262e-05,0.4637644330797452,2.4650310358970057e-05,0.4637644330797452,-1.62814e-05,0.4637644330797452,7.5510627827500675e-06
0.4645585502596763,-8.415562911202338e-06,0.4645585502596763,6.023774432663383e-05,0.4645585502596763,-1.225528178075568e-05,0.4645585502596763,4.533641329902527e-06
0.4653526674396073,2.600218804722298e-05,0.4653526674396073,7.166681946529749e-05,0.4653526674396073,-8.897416047748847e-06,0.4653526674396073,-3.5214554921042384e-06
0.4661467846195384,7.558228376959245e-06,0.4661467846195384,6.395269439866928e-05,0.4661467846195384,-1.0238435754748204e-05,0.4661467846195384,-6.209691506783808e-06
0.4669409017994695,-1.8292403063178323e-05,0.4669409017994695,5.891572278182778e-05,0.4669409017994695,-9.231834555128776e-06,0.4669409017994695,-6.881736962422962e-06
0.4677350189794005,-1.6281769120656488e-05,0.4677350189794005,5.471883580468751e-05,0.4677350189794005,-9.567474195073458e-06,0.4677350189794005,-1.762431233940651e-05
0.4685291361593316,-3.173126181836609e-05,0.4685291361593316,5.2032466310969926e-05,0.4685291361593316,-1.2253e-05,0.4685291361593316,-2.2323095084262664e-05
0.4693232533392627,-7.700023629943189e-05,0.4693232533392627,4.71701717238628e-05,0.4693232533392627,-1.2253e-05,0.4693232533392627,-1.7628613938952276e-05
0.4701173705191938,-5.960033930201173e-05,0.4701173705191938,4.079245661773063e-05,0.4701173705191938,-1.2588433858052089e-05,0.4701173705191938,-1.6282464567791647e-05
0.4709114876991248,-1.362547389906738e-05,0.4709114876991248,3.407773197490663e-05,0.4709114876991248,-1.3595150203764006e-05,0.4709114876991248,-2.198461782132937e-05
0.4717056048790559,-4.200907540267373e-06,0.4717056048790559,2.6020609333025468e-05,0.4717056048790559,-1.4434582386024852e-05,0.4717056048790559,-2.718901066396939e-05
0.472499722058987,-1.4934839615617584e-05,0.472499722058987,1.66203903105183e-05,0.472499722058987,-1.25893463003681e-05,0.472499722058987,-2.4339098872393635e-05
0.473293839238918,-1.2253543753100346e-05,0.473293839238918,5.541272975464837e-06,0.473293839238918,-1.2924332030862455e-05,0.473293839238918,-2.500936406172491e-05
0.4740879564188491,-5.539398517052148e-06,0.4740879564188491,-5.034899585244929e-06,0.4740879564188491,-1.4938489444390363e-05,0.4740879564188491,-3.205881305536627e-05
0.4748820735987802,-4.851200959377698e-05,0.4748820735987802,-9.903691228085178e-06,0.4748820735987802,-1.4938351061858872e-05,0.4748820735987802,-3.508034441366179e-05
0.4756761907787112,-8.744474701837851e-05,0.4756761907787112,-1.6282769503179077e-05,0.4756761907787112,-1.225235553031546e-05,0.4756761907787112,-3.340063049682093e-05
0.4764703079586423,-6.7660441231121e-05,0.4764703079586423,-2.19833321876431e-05,0.4764703079586423,-9.569747785345384e-06,0.4764703079586423,-2.7700067812356895e-05
0.4772644251385734,-2.30276253847449e-05,0.4772644251385734,-2.735551128689136e-05,0.4772644251385734,-1.0238313909051402e-05,0.4772644251385734,-2.5011444392754662e-05
0.4780585423185045,-2.8650502728056333e-06,0.4780585423185045,-2.970794545875773e-05,0.4780585423185045,-1.0909812988216497e-05,0.4780585423185045,-2.8532368159315344e-05
0.4788526594984356,5.367652926981736e-06,0.4788526594984356,-2.9206015922591524e-05,0.4788526594984356,-1.174904011471935e-05,0.4788526594984356,-2.366878748043448e-05
0.4796467766783666,1.225106440896368e-05,0.4796467766783666,-2.501068025764488e-05,0.4796467766783666,-1.0239224873626374e-05,0.4796467766783666,-1.5947871620064375e-05
0.4804408938582977,9.90341413398775e-06,0.4804408938582977,-2.568081024743207e-05,0.4804408938582977,-9.56749975123113e-06,0.4804408938582977,-1.359611413398775e-05
0.4812350110382288,1.2588410652295524e-05,0.4812350110382288,-2.433810466691864e-05,0.4812350110382288,-1.4267218667674558e-05,0.4812350110382288,-9.23160266128835e-06
0.4820291282181598,-8.232298120533534e-06,0.4820291282181598,-2.467526183217512e-05,0.4820291282181598,-1.5610054141932414e-05,0.4820291282181598,-1.509990300036672e-06
0.4828232453980909,-5.5848553129839225e-05,0.4828232453980909,-3.3729096683970293e-05,0.4828232453980909,-1.5945381358665564e-05,0.4828232453980909,2.513916322970492e-06
0.483617362578022,-2.9730320876300213e-05,0.483617362578022,-4.5813098100319816e-05,0.483617362578022,-1.762285250278333e-05,0.483617362578022,-1.6569301328411089e-07
0.484411479757953,2.933488789819236e-05,0.484411479757953,-4.984856052511096e-05,0.484411479757953,-1.7959680043759245e-05,0.484411479757953,-1.09031614324015e-05
0.4852055969378841,6.426857709479348e-05,0.4852055969378841,-4.9180140826076346e-05,0.4852055969378841,-1.7624370413038173e-05,0.4852055969378841,-2.0472743253793808e-05
0.4859997141178152,5.32121887045738e-05,0.4859997141178152,-4.347505475119937e-05,0.4859997141178152,-1.4939566958684557e-05,0.4859997141178152,-2.064543954707956e-05
0.4867938312977463,4.951628459296262e-05,0.4867938312977463,-4.011671326632965e-05,0.4867938312977463,-1.728800071356924e-05,0.4867938312977463,-1.628232724622855e-05
0.4875879484776773,5.085821286627846e-05,0.4875879484776773,-3.508082675145577e-05,0.4875879484776773,-1.930256929941769e-05,0.4875879484776773,-1.225326140116462e-05
0.4883820656576084,3.138413572660554e-05,0.4883820656576084,-2.4673161533508187e-05,0.4883820656576084,-1.762395016205003e-05,0.4883820656576084,-1.1916939124615e-05
0.4891761828375395,-1.2925326468860516e-05,0.4891761828375395,-1.695071544736368e-05,0.4891761828375395,-1.4602745588523248e-05,0.4891761828375395,-7.552447944916078e-06
0.4899703000174705,-1.6949253069658372e-05,0.4899703000174705,-7.896890584463852e-06,0.4899703000174705,-1.393209115505694e-05,0.4899703000174705,-4.199185766479879e-06
0.4907644171974016,8.206129571827374e-06,0.4907644171974016,-4.86984764462784e-06,0.4907644171974016,-1.6279675153871552e-05,0.4907644171974016,-4.19623e-06
0.4915585343773327,2.130922233376446e-05,0.4915585343773327,-3.861120590161523e-06,0.4915585343773327,-1.7623412546451303e-05,0.4915585343773327,-4.867236273225651e-06
0.4923526515572637,3.138338043834736e-05,0.4923526515572637,-4.867188039446289e-06,0.4923526515572637,-1.594643660092285e-05,0.4923526515572637,-5.538735359630859e-06
0.4931467687371948,2.7360573323783883e-05,0.4931467687371948,-7.552437787056708e-06,0.4931467687371948,-1.359648443887393e-05,0.4931467687371948,-6.881428894984669e-06
0.4939408859171259,1.9639509362557767e-05,0.4939408859171259,-5.539319401239505e-06,0.4939408859171259,-1.5945362363544296e-05,0.4939408859171259,-1.023831766507976e-05
0.494735003097057,-1.6794982500657336e-07,0.494735003097057,-2.1820413094232173e-06,0.494735003097057,-1.5609997381153567e-05,0.494735003097057,-2.1652607856149247e-05
0.495529120276988,-2.602378657272892e-05,0.495529120276988,-2.517333692382361e-06,0.495529120276988,-1.493870157732046e-05,0.495529120276988,-2.36655826646041e-05
0.4963232374569191,-7.347243790704341e-05,0.4963232374569191,1.652730536981825e-07,0.4963232374569191,-1.560935601078682e-05,0.4963232374569191,-1.6288483785427633e-05
0.4971173546368502,-5.2553853518033726e-05,0.4971173546368502,3.857528589116623e-06,0.4971173546368502,-1.493914571387756e-05,0.4971173546368502,-1.46042642846939e-05
0.4979114718167812,-4.228387025012503e-06,0.4979114718167812,6.544333496762588e-06,0.4979114718167812,-1.1919309823625792e-05,0.4979114718167812,-1.1080444760969182e-05
0.4987055889967123,3.5208332984327632e-06,0.4987055889967123,5.5395513064244224e-06,0.4987055889967123,-1.1581773770533594e-05,0.4987055889967123,-6.548465917732628e-06
0.4994997061766434,-8.220262065618578e-06,0.4994997061766434,5.874595776369555e-06,0.4994997061766434,-1.4266206181352069e-05,0.4994997061766434,-9.566291957721624e-06
0.5002938233565745,1.0570317708831544e-05,0.5002938233565745,7.888461897454263e-06,0.5002938233565745,-1.5609701263486356e-05,0.5002938233565745,-1.5105167725229588e-05
0.5010879405365055,1.3259898872593545e-05,0.5010879405365055,1.0909973732416648e-05,0.5010879405365055,-1.6617024577222578e-05,0.5010879405365055,-1.7959686298386087e-05
0.5018820577164366,-2.064879428555402e-05,0.5018820577164366,1.0238629184789658e-05,0.5018820577164366,-2.03098e-05,0.5018820577164366,-1.82955511954465e-05
0.5026761748963677,-6.596085969375615e-05,0.5026761748963677,7.888171479737719e-06,0.5026761748963677,-2.030876606547293e-05,0.5026761748963677,-1.7623683032736467e-05
0.5034702920762988,-4.852394431258556e-05,0.5034702920762988,4.534919290196862e-06,0.5034702920762988,-1.561418503120877e-05,0.5034702920762988,-1.5276392515604384e-05
0.5042644092562298,1.0865991980126614e-05,0.5042644092562298,8.419933930327901e-07,0.5042644092562298,-1.359729858451106e-05,0.5042644092562298,-1.2255247876766592e-05
0.5050585264361609,7.096436064093943e-05,0.5050585264361609,-5.535225817544494e-06,0.5050585264361609,-1.35958e-05,0.5050585264361609,-9.56901176109668e-06
0.505852643616092,7.502679186783981e-05,0.505852643616092,-1.1578887815225096e-05,0.505852643616092,-1.3260250677680016e-05,0.505852643616092,-1.0238498649128429e-05
0.506646760796023,4.5831598669408415e-05,0.506646760796023,-1.4937588655225878e-05,0.506646760796023,-1.2588902268954824e-05,0.506646760796023,-1.02388e-05
0.507440877975954,2.4509276022900905e-05,0.507440877975954,-1.863073249597659e-05,0.507440877975954,-1.4938238861076013e-05,0.507440877975954,-1.2420464664397574e-05
0.5082349951558852,1.5945752225536164e-05,0.5082349951558852,-2.165258156735016e-05,0.5082349951558852,-1.1581620480722042e-05,0.5082349951558852,-2.0645449821925947e-05
0.5090291123358163,-6.780616371258228e-07,0.5090291123358163,-2.417060832295749e-05,0.5090291123358163,-1.2588510258447612e-05,0.5090291123358163,-2.0981152564611905e-05
0.5098232295157473,-4.779128886241244e-05,0.5098232295157473,-2.635018528724596e-05,0.5098232295157473,-1.1247201391515182e-05,0.5098232295157473,-2.06458253478788e-05
0.5106173466956784,-3.7103538779615066e-05,0.5106173466956784,-2.90356902845262e-05,0.5106173466956784,-1.12459e-05,0.5106173466956784,-3.171438500595071e-05
0.5114114638756094,8.529482840791247e-06,0.5114114638756094,-2.8366953342463243e-05,0.5114114638756094,-7.723450034427628e-06,0.5114114638756094,-3.541370661645217e-05
0.5122055810555405,3.775068991951157e-05,0.5122055810555405,-2.4004702664377837e-05,0.5122055810555405,-6.8822628200726606e-06,0.5122055810555405,-2.904126543255222e-05
0.5129996982354716,2.300091373236219e-05,0.5129996982354716,-2.467354483034717e-05,0.5129996982354716,-1.090866898968416e-05,0.5129996982354716,-3.054802584927834e-05
0.5137938154154027,1.3094502216278666e-05,0.5137938154154027,-2.5177282925940573e-05,0.5137938154154027,-1.3259553708633333e-05,0.5137938154154027,-2.5682031615168958e-05
0.5145879325953338,-1.7621592407189265e-05,0.5145879325953338,-2.2324142240825277e-05,0.5145879325953338,-1.2924428498421252e-05,0.5145879325953338,-6.379908649034918e-06
0.5153820497752648,-4.985246268061216e-05,0.5153820497752648,-2.03098e-05,0.5153820497752648,-1.2924484179125404e-05,0.5153820497752648,1.292471567172027e-05
0.5161761669551959,-6.999091454598546e-05,0.5161761669551959,-2.0309588502417884e-05,0.5161761669551959,-1.4267340998388076e-05,0.5161761669551959,1.795919500805962e-05
0.5169702841351269,-5.959587071621113e-05,0.5169702841351269,-1.930360685221842e-05,0.5169702841351269,-1.4937995431854386e-05,0.5169702841351269,1.4605922840728071e-05
0.5177644013150581,-1.765584004677555e-05,0.5177644013150581,-1.7625465607903112e-05,0.5177644013150581,-1.4267706243161243e-05,0.5177644013150581,5.210417381637091e-06
0.5185585184949891,1.834532490460691e-06,0.5185585184949891,-1.76242e-05,0.5185585184949891,-1.5609185686487927e-05,0.5185585184949891,-7.209987630334785e-06
0.5193526356749202,6.543963516721148e-06,0.5193526356749202,-1.5946470175877073e-05,0.5193526356749202,-1.628109192964917e-05,0.5193526356749202,-1.5270603164967002e-05
0.5201467528548512,-3.5216952563775643e-06,0.5201467528548512,-1.6281295508027142e-05,0.5201467528548512,-1.5274613475918573e-05,0.5201467528548512,-2.2992896715750867e-05
0.5209408700347823,-1.3594151541802907e-05,0.5209408700347823,-1.460317474385127e-05,0.5209408700347823,-1.426736484631076e-05,0.5209408700347823,-2.568046040983797e-05
0.5217349872147133,-1.69527459443235e-05,0.5217349872147133,-1.3595816216702947e-05,0.5217349872147133,-1.393150540556765e-05,0.5217349872147133,-2.90378459443235e-05
0.5225291043946444,-2.635666411633967e-05,0.5225291043946444,-1.3595888164231738e-05,0.5225291043946444,-1.29244e-05,0.5225291043946444,-3.323373713121767e-05
0.5233232215745756,-5.955395868397315e-05,0.5233232215745756,-1.426654259769814e-05,0.5233232215745756,-1.29244e-05,0.5233232215745756,-2.971275141104233e-05
0.5241173387545066,-3.811969252021563e-05,0.5241173387545066,-1.7789064536379094e-05,0.5241173387545066,-1.5272342996492634e-05,0.5241173387545066,-2.2330050582451725e-05
0.5249114559344377,4.979093274759696e-05,0.5249114559344377,-1.762431498010248e-05,0.5249114559344377,-1.62807099138188e-05,0.5249114559344377,-1.6956480391110956e-05
0.5257055731143687,7.837025878418459e-05,0.5257055731143687,-1.2591407282866944e-05,0.5257055731143687,-1.493932194209785e-05,0.5257055731143687,-9.571380676161789e-06
0.5264996902942998,3.610409865454273e-05,0.5264996902942998,-1.3259838115356282e-05,0.5264996902942998,-1.6952014346068847e-05,0.5264996902942998,-5.540601300061157e-06
0.5272938074742308,2.8536231468060504e-05,0.5272938074742308,-2.1818324334581585e-05,0.5272938074742308,-1.6281562798238604e-05,0.5272938074742308,-5.2034113991193024e-06
0.528087924654162,2.668817521228628e-05,0.528087924654162,-2.90372151025367e-05,0.528087924654162,-1.829540886450009e-05,0.528087924654162,-4.531993711833302e-06
0.528882041834093,-3.375286262983176e-07,0.528882041834093,-2.7694967347989745e-05,0.528882041834093,-1.4938608841008588e-05,0.528882041834093,-8.895948095026043e-06
0.5296761590140241,-3.5081104313296714e-05,0.5296761590140241,-2.5178306459944195e-05,0.5296761590140241,-1.5106903604414812e-05,0.5296761590140241,-7.721707882257292e-06
0.5304702761939551,-3.809904926389511e-05,0.5304702761939551,-2.9705173941365056e-05,0.5304702761939551,-1.7621907674390198e-05,0.5304702761939551,-1.090729646343157e-05
0.5312643933738862,-2.544926675101421e-06,0.5312643933738862,-3.2392848167391455e-05,0.5312643933738862,-1.86305305627718e-05,0.5312643933738862,-2.4663284434282487e-05
0.5320585105538173,2.2979572972245684e-05,0.5320585105538173,-3.70918028977715e-05,0.5320585105538173,-1.8966793064126537e-05,0.5320585105538173,-2.869971676951843e-05
0.5328526277337483,2.1317686916469618e-05,0.5328526277337483,-4.4979901295676144e-05,0.5328526277337483,-1.796037217801272e-05,0.5328526277337483,-2.3669060890063607e-05
0.5336467449136795,1.7464350075804266e-07,0.5336467449136795,-3.374131294112322e-05,0.5336467449136795,-1.7624307849468258e-05,0.5336467449136795,-1.9304102010960592e-05
0.5344408620936105,-2.8697185687376387e-05,0.5344408620936105,-1.829828207085361e-05,0.5344408620936105,-1.86311250812029e-05,0.5344408620936105,-1.1415070205928216e-05
0.5352349792735416,-3.4073259790990475e-05,0.5352349792735416,-4.867980521740701e-06,0.5352349792735416,-1.728853505225238e-05,0.5352349792735416,-3.525035929894435e-06
0.5360290964534726,-1.9977399012077548e-05,0.5360290964534726,1.3934147362710295e-05,0.5360290964534726,-1.4266955626937586e-05,0.5360290964534726,-8.225791135255077e-06
0.5368232136334037,-4.713870378955617e-05,0.5368232136334037,3.573031656141189e-05,0.5368232136334037,-1.225499232653866e-05,0.5368232136334037,-1.7950270431621215e-05
0.5376173308133347,-4.045735850422188e-05,0.5376173308133347,6.593923652030042e-05,0.5376173308133347,-1.510399514202673e-05,0.5376173308133347,-1.7624482929425117e-05
0.5384114479932659,1.053902543322979e-05,0.5384114479932659,8.911179642017214e-05,0.5384114479932659,-1.8628849409902985e-05,0.5384114479932659,-1.4940467089779724e-05
0.539205565173197,1.3258629255841107e-05,0.539205565173197,8.141112833469272e-05,0.539205565173197,-1.5779362693050864e-05,0.539205565173197,-1.5609632313960278e-05
0.539999682353128,-1.1691651318594515e-06,0.539999682353128,5.590400674610923e-05,0.539999682353128,-1.6281198530271093e-05,0.539999682353128,-1.1247645897624958e-05
0.5407937995330591,2.1811924389025397e-06,0.5407937995330591,3.558912776256552e-05,0.5407937995330591,-1.2254017079376406e-05,0.5407937995330591,-1.5105425311554806e-05
0.5415879167129901,3.860353933988471e-06,0.5415879167129901,2.1318396554279785e-05,0.5415879167129901,-8.560697346484109e-06,0.5415879167129901,-2.567979078276373e-05
0.5423820338929212,-1.3932159166092544e-05,0.5423820338929212,3.1885023290200102e-06,0.5423820338929212,-5.53903e-06,0.5423820338929212,-2.702312681265022e-05
0.5431761510728523,-2.936945350057142e-05,0.5431761510728523,-1.1751792214863197e-05,0.5431761510728523,-5.539412753998054e-06,0.5431761510728523,-1.3594141396808047e-05
0.5439702682527834,-7.573304279660516e-06,0.5439702682527834,-2.4326512897879764e-05,0.5439702682527834,-7.551366065501636e-06,0.5439702682527834,-4.875663728432067e-06
0.5447643854327144,4.578148620185333e-05,0.5447643854327144,-3.44013049028546e-05,0.5447643854327144,-9.56585098831106e-06,0.5447643854327144,-6.209380661454089e-06
0.5455585026126455,6.226179562492343e-05,0.5455585026126455,-4.1454383839252896e-05,0.5455585026126455,-1.2251317659313049e-05,0.5455585026126455,-8.223348246050866e-06
0.5463526197925765,5.052822625582071e-05,0.5463526197925765,-5.790012328973608e-05,0.5463526197925765,-1.2924078499667389e-05,0.5463526197925765,-1.392876725196131e-05
0.5471467369725076,2.0990986146556115e-05,0.5471467369725076,-7.972117158048321e-05,0.5471467369725076,-1.3595577586072502e-05,0.5471467369725076,-1.963650948161627e-05
0.5479408541524387,3.192408171993193e-06,0.5479408541524387,-0.0001002022385289,0.5479408541524387,-1.2588884991283434e-05,0.5479408541524387,-1.96384e-05
0.5487349713323698,1.090992122859885e-05,0.5487349713323698,-0.000121690224277,0.5487349713323698,-1.3595763638324515e-05,0.5487349713323698,-2.400224243635011e-05
0.5495290885123009,-8.454876930609197e-07,0.5495290885123009,-0.0001314254393107,0.5495290885123009,-1.42676111312871e-05,0.5495290885123009,-2.2994496430778382e-05
0.5503232056922319,-5.684488716067224e-05,0.5503232056922319,-0.0001263950316149,0.5503232056922319,-1.7956210515351803e-05,0.5503232056922319,-1.578501121549229e-05
0.551117322872163,-5.069579626538923e-05,0.551117322872163,-9.150757332805002e-05,0.551117322872163,-1.8295313713079487e-05,0.551117322872163,-1.0411280505447651e-05
0.551911440052094,-1.5453228206813665e-06,0.551911440052094,-3.5791199245605986e-05,0.551911440052094,-1.9805134688530603e-05,0.551911440052094,-6.381110945771652e-06
0.5527055572320251,6.206114410452552e-06,0.5527055572320251,2.262702727762112e-05,0.5527055572320251,-1.896746797340627e-05,0.5527055572320251,1.8417536096795216e-06
0.5534996744119562,-2.1641174475850487e-05,0.5534996744119562,5.655129665242304e-05,0.5534996744119562,-1.7624750629250813e-05,0.5534996744119562,9.22868155142235e-06
0.5542937915918873,-3.776187054896311e-05,0.5542937915918873,7.16676348912934e-05,0.5542937915918873,-1.69529762282202e-05,0.5542937915918873,1.0574147546184393e-05
0.5550879087718184,-6.361193005160894e-05,0.5550879087718184,7.838482858184916e-05,0.5550879087718184,-1.4938831425445252e-05,0.5550879087718184,9.2318642824812e-06
0.5558820259517494,-7.200769500262222e-05,0.5558820259517494,7.066408305605613e-05,0.5558820259517494,-1.4938578055409876e-05,0.5558820259517494,4.867202082453683e-06
0.5566761431316805,-8.408917585223913e-05,0.5566761431316805,5.790648901556144e-05,0.5566761431316805,-1.4266958242489828e-05,0.5566761431316805,-8.226725376413597e-06
0.5574702603116115,-6.564627882087167e-05,0.5574702603116115,4.952330859723374e-05,0.5574702603116115,-1.2925649375557398e-05,0.5574702603116115,-1.996316797317702e-05
0.5582643774915427,-1.3972031729501325e-05,0.5582643774915427,4.6832005552535294e-05,0.5582643774915427,-1.3092068442167328e-05,0.5582643774915427,-3.1714288286059644e-05
0.5590584946714737,9.552454496777476e-06,0.5590584946714737,4.8171845396542765e-05,0.5590584946714737,-1.158256139706769e-05,0.5590584946714737,-3.323323853928892e-05
0.5598526118514048,1.292275892827101e-05,0.5598526118514048,4.196533596729979e-05,0.5598526118514048,-1.3259279461691243e-05,0.5598526118514048,-2.702673601618501e-05
0.5606467290313358,-1.157323682860928e-05,0.5606467290313358,2.333735831041916e-05,0.5606467290313358,-1.4938027177704262e-05,0.5606467290313358,-1.964092038397421e-05
0.5614408462112669,-3.171959874397625e-05,0.5614408462112669,3.6964837183282775e-06,0.5614408462112669,-1.3092557626595418e-05,0.5614408462112669,-1.8295860085026176e-05
0.5622349633911979,-2.0646010771170877e-05,0.5622349633911979,-9.902473142041023e-06,0.5622349633911979,-1.359577678061368e-05,0.5622349633911979,-1.6281492868323918e-05
0.563029080571129,-1.5613572321164793e-05,0.563029080571129,-1.896815674804398e-05,0.563029080571129,-1.426721700608232e-05,0.563029080571129,-1.4938736089197496e-05
0.5638231977510602,-5.0822730300244034e-05,0.5638231977510602,-3.0369182228019373e-05,0.5638231977510602,-1.4434830669972195e-05,0.5638231977510602,-1.62800449561303e-05
0.5646173149309912,-4.5719007309503575e-06,0.5646173149309912,-3.54118553337613e-05,0.5646173149309912,-1.4267344779067591e-05,0.5646173149309912,-1.7623041422336346e-05
0.5654114321109223,5.7527881468639975e-05,0.5654114321109223,-3.709349949393322e-05,0.5654114321109223,-1.2925360404853425e-05,0.5654114321109223,-2.0643339089079795e-05
0.5662055492908533,5.019109227623655e-05,0.5662055492908533,-3.373960558010753e-05,0.5662055492908533,-1.2253381116021504e-05,0.5662055492908533,-2.43360039186461e-05
0.5669996664707844,1.5960083426418758e-05,0.5669996664707844,-3.138878710365704e-05,0.5669996664707844,-1.1581882029616296e-05,0.5669996664707844,-2.1989287061650843e-05
