X [s],R BICEPS BRACHII: EMG 1 [V],X [s].1,R DELTOID ANTERIOR: EMG 2 [V],X [s].5,R DELTOID MEDIUS: EMG 6 [V],X [s].6,R DELTOID POSTERIOR: EMG 7 [V]
0.0,-6.37827e-06,0.0,-1.96384e-05,0.0,1.67849e-07,0.0,1.25887e-05
0.000794117179931,-6.496752332979097e-06,0.000794117179931,-2.03098e-05,0.000794117179931,2.9620785730314893e-08,0.000794117179931,7.691444128271777e-06
0.0015882343598621,-7.227392905598689e-06,0.0015882343598621,-2.121811497487054e-05,0.0015882343598621,1.3526687879590638e-06,0.0015882343598621,1.4119112314877817e-06
0.0023823515397932,-6.358524506983114e-06,0.0023823515397932,-2.1929014895781863e-05,0.0023823515397932,2.557230986033772e-06,0.0023823515397932,-6.812827616912934e-07
0.0031764687197242,-7.316253297915807e-06,0.0031764687197242,-2.0230809617088663e-05,0.0031764687197242,2.438752513281572e-06,0.0031764687197242,-7.405128130994325e-07
0.0039705858996553,-8.22461e-06,0.0039705858996553,-2.0072826949576497e-05,0.0039705858996553,2.715197899860169e-06,0.0039705858996553,-7.82962700549563e-06
0.0047647030795864,-8.066637379482022e-06,0.0047647030795864,-2.16526e-05,0.0047647030795864,3.0311650265631446e-06,0.0047647030795864,-1.3516799787494842e-05
0.0055588202595174,-8.185107512754447e-06,0.0055588202595174,-2.188956145084071e-05,0.0055588202595174,1.2539461512285382e-06,0.0055588202595174,-2.3311178203158743e-05
0.0063529374394485,-6.684353404168386e-06,0.0063529374394485,-2.1237914561133056e-05,0.0063529374394485,-8.194931233710575e-07,0.0063529374394485,-2.136622445332388e-05
0.0071470546193796,-5.519290655973886e-06,0.0071470546193796,-2.046778114621365e-05,0.0071470546193796,-6.022918099165904e-07,0.0071470546193796,-3.248493506275107e-06
0.0079411717993107,-4.522057094401311e-06,0.0079411717993107,-2.1178666829838817e-05,0.0079411717993107,5.232936935577535e-07,0.0079411717993107,2.636236900306208e-06
0.0087352889792417,-5.775959679784464e-06,0.0087352889792417,-2.275834725926455e-05,0.0087352889792417,1.3526549851973145e-06,0.0087352889792417,-5.716655064797148e-06
0.0095294061591728,-9.36993021447281e-06,0.0095294061591728,-2.172168860559838e-05,0.0095294061591728,2.024065026563145e-06,0.0095294061591728,-1.509654952186339e-05
0.0103235233391039,-9.44896185848685e-06,0.0103235233391039,-1.942116674856216e-05,0.0103235233391039,4.443241056630584e-07,0.0103235233391039,-2.4160136990592043e-05
0.0111176405190349,-8.30359069929089e-06,0.0111176405190349,-2.04776e-05,0.0111176405190349,2.241308611204396e-06,0.0111176405190349,-2.9659997195158328e-05
0.011911757698966,-6.289334310142389e-06,0.011911757698966,-2.063562316574808e-05,0.011911757698966,5.726707421746899e-06,0.011911757698966,-2.2619573312008925e-05
0.0127058748788971,-6.220200427411778e-06,0.0127058748788971,-2.16526e-05,0.0127058748788971,4.611080779106748e-06,0.0127058748788971,-8.067220503519434e-06
0.0134999920588282,-8.224589956175307e-06,0.0134999920588282,-2.16526e-05,0.0134999920588282,1.1749743611347789e-06,0.0134999920588282,-1.678948146928371e-07
0.0142941092387592,-7.790192793467455e-06,0.0142941092387592,-2.2363404226616737e-05,0.0142941092387592,6.022675591127613e-07,0.0142941092387592,5.262763967098942e-06
0.0150882264186903,-6.88182e-06,0.0150882264186903,-2.4515865818675342e-05,0.0150882264186903,2.2716260229980895e-07,0.0150882264186903,1.1423562707980523e-05
0.0158823435986214,-6.802862208132295e-06,0.0158823435986214,-2.3686534295617095e-05,0.0158823435986214,-6.81331121874886e-07,0.0158823435986214,1.1117615336599048e-05
0.0166764607785524,-7.316277902127338e-06,0.0166764607785524,-2.168222529136881e-05,0.0166764607785524,1.8858637892891877e-06,0.0166764607785524,6.407837955675971e-06
0.0174705779584835,-8.18516777948425e-06,0.0174705779584835,-2.042826617745969e-05,0.0174705779584835,2.5868721821426245e-06,0.0174705779584835,3.5051115366274185e-06
0.0182646951384146,-5.795758833481407e-06,0.0182646951384146,-2.115886845897028e-05,0.0182646951384146,9.775330849551744e-07,0.0182646951384146,1.994555577067192e-06
0.0190588123183456,-5.53903e-06,0.0190588123183456,-2.2225205882197255e-05,0.0190588123183456,-1.086061648466385e-06,0.0190588123183456,-3.899967886861657e-06
0.0198529294982767,-5.993185322080537e-06,0.0198529294982767,-2.1622998083679e-05,0.0198529294982767,1.0960141958416743e-06,0.0198529294982767,-1.3596089524630878e-05
0.0206470466782078,-4.413481858486851e-06,0.0206470466782078,-2.0467761749328318e-05,0.0206470466782078,-7.886837826042643e-08,0.0206470466782078,-2.3666183121796955e-05
0.0214411638581389,-4.847896278888871e-06,0.0214411638581389,-2.184998684123392e-05,0.0214411638581389,-7.307107690239812e-07,0.0214411638581389,-3.235543255777774e-05
0.0222352810380699,-4.53193e-06,0.0222352810380699,-2.1771058800353667e-05,0.0222352810380699,1.3921713037803555e-06,0.0222352810380699,-2.966974559432712e-05
0.023029398218001,-3.722321872064699e-06,0.023029398218001,-2.03098e-05,0.023029398218001,4.542021646432258e-07,0.023029398218001,-2.724094527724493e-05
0.0238235153979321,-3.702485031702334e-06,0.0238235153979321,-2.1198413284394137e-05,0.0238235153979321,-4.443298325017955e-07,0.0238235153979321,-2.0941979873190663e-05
0.0246176325778631,-4.828133923498759e-06,0.0246176325778631,-2.240295319835977e-05,0.0246176325778631,-1.67849e-07,0.0246176325778631,-1.584697645900745e-05
0.0254117497577942,-3.781602626373836e-06,0.0254117497577942,-2.29953e-05,0.0254117497577942,-9.18176197042887e-07,0.0254117497577942,-1.5333579006193482e-05
0.0262058669377253,-5.776019973523059e-06,0.0262058669377253,-2.1178689075711187e-05,0.0262058669377253,8.983575145909176e-07,0.0262058669377253,-1.8650820766832984e-05
0.0269999841176564,-4.196275814846372e-06,0.0269999841176564,-2.0981189730926917e-05,0.0269999841176564,1.510651453711593e-06,0.0269999841176564,-1.997411145371159e-05
0.0277941012975874,-6.585642377659163e-06,0.0277941012975874,-1.8927563369149908e-05,0.0277941012975874,-8.39246e-07,0.0277941012975874,-1.944094825177277e-05
0.0285882184775185,-4.986279642079711e-06,0.0285882184775185,-1.910512667627277e-05,0.0285882184775185,2.2706676257391624e-06,0.0285882184775185,-1.8206947675853425e-05
0.0293823356574496,-4.828156830921945e-06,0.0293823356574496,-2.190918520518344e-05,0.0293823356574496,3.031247323687778e-06,0.0293823356574496,-1.4721491690837886e-05
0.0301764528373806,-4.53193e-06,0.0301764528373806,-2.0941724966277556e-05,0.0301764528373806,1.8759656676485968e-07,0.0301764528373806,-1.3506929299473491e-05
0.0309705700173117,-5.87472e-06,0.0309705700173117,-2.0862728688003768e-05,0.0309705700173117,1.0856526492443737e-07,0.0309705700173117,-1.431660199668963e-05
0.0317646871972428,-6.54612e-06,0.0317646871972428,-2.137611768512021e-05,0.0317646871972428,6.023738004140445e-07,0.0317646871972428,-1.1680426624396888e-05
0.0325588043771738,-6.230176628534318e-06,0.0325588043771738,-2.16526e-05,0.0325588043771738,-1.67849e-07,0.0325588043771738,-1.0436332000199667e-05
0.0333529215571049,-8.50117408864805e-06,0.0333529215571049,-2.16526e-05,0.0333529215571049,1.609397902127337e-06,0.0333529215571049,-1.276650265744568e-05
0.034147038737036,-1.0653691454935314e-05,0.034147038737036,-2.19093139907993e-05,0.034147038737036,2.0439703413706003e-06,0.034147038737036,-1.46624606827412e-05
0.0349411559169671,-7.55322e-06,0.0349411559169671,-2.2264817450478163e-05,0.0349411559169671,-9.880107887307335e-08,0.0349411559169671,-4.611329886512507e-06
0.0357352730968981,-8.066639500593907e-06,0.0357352730968981,-2.117863050275577e-05,0.0357352730968981,1.1354491398139402e-06,0.0357352730968981,6.289441887427548e-06
0.0365293902768292,-6.5658895621495735e-06,0.0365293902768292,-2.149455081737967e-05,0.0365293902768292,1.7081443432243596e-06,0.0365293902768292,4.018685908290949e-06
0.0373235074567603,-5.775878704324776e-06,0.0373235074567603,-2.1079945882678626e-05,0.0373235074567603,1.411790468179916e-06,0.0373235074567603,-4.393441789549671e-06
0.0381176246366913,-8.807099454878788e-06,0.0381176246366913,-2.0448026324932216e-05,0.0381176246366913,2.221541803357038e-06,0.0381176246366913,-6.2894236067140765e-06
0.0389117418166224,-7.770380777782032e-06,0.0389117418166224,-2.1593325834977805e-05,0.0389117418166224,2.467976126500753e-07,0.0389117418166224,-4.551723216843291e-06
0.0397058589965535,-5.558827080290946e-06,0.0397058589965535,-2.29953e-05,0.0397058589965535,-2.0745745651326649e-07,0.0397058589965535,-1.2410139276361858e-05
0.0404999761764846,-6.210368458809608e-06,0.0404999761764846,-2.2323930807219265e-05,0.0404999761764846,5.03548e-07,0.0404999761764846,-2.4002073574337383e-05
0.0412940933564156,-8.461578399030591e-06,0.0412940933564156,-2.317300402416473e-05,0.0412940933564156,-6.911798724388269e-08,0.0412940933564156,-2.915641559127532e-05
0.0420882105363467,-7.079338137375723e-06,0.0420882105363467,-2.3153333437880168e-05,0.0420882105363467,1.284264409327786e-07,0.0420882105363467,-3.484315490099421e-05
0.0428823277162778,-8.89601e-06,0.0428823277162778,-2.3785071495123908e-05,0.0428823277162778,-1.253874884444518e-06,0.0428823277162778,-3.822991169504678e-05
0.0436764448962088,-7.513753126020107e-06,0.0436764448962088,-2.419996123159512e-05,0.0436764448962088,-1.5698869781797628e-06,0.0436764448962088,-4.04517e-05
0.0444705620761399,-8.40231042731998e-06,0.0444705620761399,-2.262010876251105e-05,0.0444705620761399,-4.838467333888829e-07,0.0444705620761399,-3.642347283492753e-05
0.045264679256071,-7.55322e-06,0.045264679256071,-2.034943724708165e-05,0.045264679256071,1.49074826004762e-06,0.045264679256071,-2.4911909503268128e-05
0.046058796436002,-8.185085877910732e-06,0.046058796436002,-1.8967e-05,0.046058796436002,3.1496152892197764e-06,0.046058796436002,-1.1265922397022012e-05
0.0468529136159331,-6.427643224207866e-06,0.0468529136159331,-2.095133121188861e-05,0.0468529136159331,4.620811284727532e-06,0.0468529136159331,-3.722231026806479e-06
0.0476470307958642,-6.052766713440577e-06,0.0476470307958642,-2.339024276205873e-05,0.0476470307958642,5.993156687801556e-06,0.0476470307958642,2.8330465731188456e-06
0.0484411479757953,-3.880252267399534e-06,0.0484411479757953,-2.2699235840474056e-05,0.0484411479757953,4.354430180900988e-06,0.0484411479757953,6.941409431400112e-06
0.0492352651557263,-4.19623e-06,0.0492352651557263,-2.226466915689864e-05,0.0492352651557263,7.405225765611451e-07,0.0492352651557263,4.640856356561952e-07
0.0500293823356574,-4.216011013401187e-06,0.0500293823356574,-2.3232181009553944e-05,0.0500293823356574,1.8265589865988128e-06,0.0500293823356574,1.8117114431641063e-05
0.0508234995155885,-3.64324378037837e-06,0.0508234995155885,-2.4555282477174875e-05,0.0508234995155885,2.63615378037837e-06,0.0508234995155885,2.4497362699845607e-05
0.0516176166955195,-4.19623e-06,0.0516176166955195,-2.2699192834330952e-05,0.0516176166955195,3.18914e-06,0.0516176166955195,-1.430939136810812e-06
0.0524117338754506,-6.72389241373568e-06,0.0524117338754506,-2.0369089568631816e-05,0.0524117338754506,1.984561950614854e-06,0.0524117338754506,-3.29679120810739e-05
0.0532058510553817,-6.388365374978116e-06,0.0532058510553817,-2.048753995899933e-05,0.0532058510553817,3.090448487021164e-06,0.0532058510553817,-5.372109815574603e-05
0.0539999682353128,-6.881705463566448e-06,0.0539999682353128,-1.9638441076292343e-05,0.0539999682353128,1.8464087222695575e-06,0.0539999682353128,-5.455113744453912e-05
0.0547940854152438,-9.745116302111038e-06,0.0547940854152438,-2.109957258407771e-05,0.0547940854152438,3.465583629936241e-06,0.0547940854152438,-4.835044793390244e-05
0.0555882025951749,-7.790605029912193e-06,0.0555882025951749,-2.2205573195412472e-05,0.0555882025951749,3.643529572986119e-06,0.0555882025951749,-3.828074887732492e-05
0.056382319775106,-6.743427401326952e-06,0.056382319775106,-2.03098e-05,0.056382319775106,1.92526343073293e-06,0.056382319775106,-2.396350087845736e-05
0.057176436955037,-7.948162705035557e-06,0.057176436955037,-2.09812e-05,0.057176436955037,3.0706345899288863e-06,0.057176436955037,-1.5037485165462238e-05
0.0579705541349681,-6.52643059661164e-06,0.0579705541349681,-2.163285525679205e-05,0.0579705541349681,1.945280264096088e-06,0.0579705541349681,-1.234989525598611e-06
0.0587646713148992,-5.124383661843889e-06,0.0587646713148992,-2.0231048087670103e-05,0.0587646713148992,-6.614387949577232e-07,0.0587646713148992,8.817063661843889e-06
0.0595587884948302,-5.815416342123833e-06,0.0595587884948302,-1.888796738224496e-05,0.0595587884948302,-2.122735753262282e-06,0.0595587884948302,5.4010096447359584e-06
0.0603529056747613,-6.753463743380181e-06,0.0603529056747613,-2.1425313477036063e-05,0.0603529056747613,-7.602583367650368e-07,0.0603529056747613,-1.9845659361758785e-06
0.0611470228546924,-7.780281952592006e-06,0.0611470228546924,-2.1810569024739924e-05,0.0611470228546924,2.418901921891524e-06,0.0611470228546924,-5.183737117162714e-06
0.0619411400346235,-7.47435383782504e-06,0.0619411400346235,-2.0635760784509604e-05,0.0619411400346235,1.08621627234461e-06,0.0619411400346235,-2.163364017600099e-06
0.0627352572145545,-6.21042e-06,0.0627352572145545,-2.0497357107426133e-05,0.0627352572145545,-7.207496508582663e-07,0.0627352572145545,2.198773401274064e-05
0.0635293743944856,-5.854932830141158e-06,0.0635293743944856,-2.143533537024043e-05,0.0635293743944856,4.6396089496777606e-07,0.0635293743944856,2.3470149702922643e-05
0.0643234915744167,-7.0002223266667735e-06,0.0643234915744167,-2.16526e-05,0.0643234915744167,1.84634e-06,0.0643234915744167,-3.997081805946446e-06
0.0651176087543477,-8.145584662903453e-06,0.0651176087543477,-2.204750905681943e-05,0.0651176087543477,1.2539665141372706e-06,0.0651176087543477,-2.5384074287142267e-05
0.0659117259342788,-7.63219891481657e-06,0.0659117259342788,-2.1336668324080485e-05,0.0659117259342788,9.083614857734866e-07,0.0659117259342788,-4.767913407712775e-05
0.0667058431142099,-7.799931525605895e-06,0.0667058431142099,-2.0912091165020796e-05,0.0667058431142099,-1.67849e-07,0.0667058431142099,-6.160024388055433e-05
0.067499960294141,-8.895967048581523e-06,0.067499960294141,-2.030982567268272e-05,0.067499960294141,1.678203658916096e-07,0.067499960294141,-6.327922863427899e-05
0.068294077474072,-5.460085386678385e-06,0.068294077474072,-2.1000887514138237e-05,0.068294077474072,5.03548e-07,0.068294077474072,-5.075982080447317e-05
0.0690881946540031,-6.841908746499308e-06,0.0690881946540031,-2.1020633957430096e-05,0.0690881946540031,1.293661657060842e-06,0.0690881946540031,-2.6729954393474645e-05
0.0698823118339342,-8.145699198313445e-06,0.0698823118339342,-2.2639704221211616e-05,0.0698823118339342,-8.39246e-07,0.0698823118339342,-6.883112267311226e-06
0.0706764290138652,-7.276778431891354e-06,0.0706764290138652,-2.4199997171821406e-05,0.0706764290138652,2.665153315665175e-07,0.0706764290138652,1.2035237240356225e-05
0.0714705461937963,-9.271060611185148e-06,0.0714705461937963,-2.3054561005511543e-05,0.0714705461937963,2.2017179521367517e-06,0.0714705461937963,2.0507166928205127e-05
0.0722646633737274,-8.56071715546991e-06,0.0722646633737274,-2.050758174791537e-05,0.0722646633737274,2.004221222600616e-06,0.0722646633737274,1.8315537554798766e-05
0.0730587805536585,-4.640685361027231e-06,0.0730587805536585,-1.82956e-05,0.0730587805536585,3.7814353526253274e-06,0.0730587805536585,2.139554048167784e-05
0.0738528977335895,-5.30205354099255e-06,0.0738528977335895,-2.008251902343556e-05,0.0738528977335895,5.53903e-06,0.0738528977335895,3.1831973631618905e-05
0.0746470149135206,-4.4922930852249e-06,0.0746470149135206,-2.09812e-05,0.0746470149135206,3.722532591350441e-06,0.0746470149135206,3.103349531820081e-05
0.0754411320934517,-5.499608372624128e-06,0.0754411320934517,-2.19883e-05,0.0754411320934517,2.51774e-06,0.0754411320934517,1.8039976176517517e-05
0.0762352492733827,-6.921193499686471e-06,0.0762352492733827,-2.2264658890884557e-05,0.0762352492733827,3.031132786571851e-06,0.0762352492733827,-1.1941070652595756e-06
0.0770293664533138,-7.592822536844276e-06,0.0770293664533138,-2.4811820942815545e-05,0.0770293664533138,1.1355775748132702e-06,0.0770293664533138,-2.714112658950943e-05
0.0778234836332449,-4.986020872955176e-06,0.0778234836332449,-2.56809e-05,0.0778234836332449,3.454337224237429e-07,0.0778234836332449,-3.324501149597105e-05
0.078617600813176,-6.871835749551408e-06,0.078617600813176,-2.3982745378555917e-05,0.078617600813176,1.17494e-06,0.078617600813176,-1.9619262825997436e-05
0.079411717993107,-9.152709787020667e-06,0.079411717993107,-2.331122654138298e-05,0.079411717993107,1.9648063826942213e-06,0.079411717993107,-1.2134533617305778e-05
0.0802058351730381,-6.378742435759571e-06,0.0802058351730381,-2.2383348407440623e-05,0.0802058351730381,1.6886420552886883e-06,0.0802058351730381,-1.098952258392767e-05
0.0809999523529692,-5.538909736028256e-06,0.0809999523529692,-1.829587726497338e-05,0.0809999523529692,-1.677802780375022e-07,0.0809999523529692,-2.8541272196249774e-06
0.0817940695329002,-8.836714873852824e-06,0.0817940695329002,-1.967775449408529e-05,0.0817940695329002,-6.417493193998837e-07,0.0817940695329002,3.376709769273049e-06
0.0825881867128313,-9.686145387491292e-06,0.0825881867128313,-2.03098e-05,0.0825881867128313,2.8603813039338e-07,0.0825881867128313,-7.077702363237256e-06
0.0833823038927624,-8.10626039019958e-06,0.0833823038927624,-1.991494505372485e-05,0.0833823038927624,3.457476584790397e-07,0.0833823038927624,-1.782145130827434e-05
0.0841764210726934,-6.249994555615038e-06,0.0841764210726934,-2.1139006229402013e-05,0.0841764210726934,-1.3921127417399863e-06,0.0841764210726934,-2.0546620112590257e-05
0.0849705382526245,-6.21042e-06,0.0849705382526245,-2.210675655319569e-05,0.0849705382526245,-1.2441204172539243e-06,0.0849705382526245,-2.4910482753098076e-05
0.0857646554325556,-4.216192813573858e-06,0.0857646554325556,-2.147500855907787e-05,0.0857646554325556,-1.51064e-06,0.0857646554325556,-2.97682744222226e-05
0.0865587726124866,-3.820971517287732e-06,0.0865587726124866,-2.040854919874464e-05,0.0865587726124866,-5.628861365103192e-07,0.0865587726124866,-2.7892895359575035e-05
0.0873528897924177,-5.766116978179762e-06,0.0873528897924177,-2.0625559193487237e-05,0.0873528897924177,-1.3822572269556382e-06,0.0873528897924177,-2.0823304266021107e-05
0.0881470069723488,-4.86763e-06,0.0881470069723488,-2.216591044017291e-05,0.0881470069723488,-6.024080437935642e-07,0.0881470069723488,-1.2717938310342636e-05
0.0889411241522799,-5.756490065992128e-06,0.0889411241522799,-2.1633152247636147e-05,0.0889411241522799,-1.67849e-07,0.0889411241522799,-7.691154433855008e-06
0.0897352413322109,-3.090465647139958e-06,0.0897352413322109,-1.969766389594911e-05,0.0897352413322109,3.455300389311516e-07,0.0897352413322109,-1.272669733073139e-05
0.090529358512142,-4.19623e-06,0.090529358512142,-2.075410508794793e-05,0.090529358512142,9.971854935030285e-07,0.090529358512142,-1.4800473050734002e-05
0.0913234756920731,-4.2554197096218e-06,0.0913234756920731,-2.0941678755448668e-05,0.0913234756920731,2.4978642740544973e-06,0.0913234756920731,-1.104849632932529e-05
0.0921175928720041,-6.012797623480796e-06,0.0921175928720041,-1.9756976837035944e-05,0.0921175928720041,3.18914e-06,0.0921175928720041,-1.179872586765933e-05
0.0929117100519352,-7.651950434408877e-06,0.0929117100519352,-1.8335157186307152e-05,0.0929117100519352,2.122818262364488e-06,0.0929117100519352,-1.3990721737635512e-05
0.0937058272318663,-7.07916866482288e-06,0.0937058272318663,-2.027017856142903e-05,0.0937058272318663,3.623504332411441e-06,0.0937058272318663,-1.8186214458340445e-05
0.0944999444117974,-7.55322e-06,0.0944999444117974,-2.03098718835116e-05,0.0944999444117974,4.531849824018854e-06,0.0944999444117974,-2.4337719170060364e-05
0.0952940615917284,-4.689999600214131e-06,0.0952940615917284,-2.1533864520618276e-05,0.0952940615917284,2.991791362803021e-06,0.0952940615917284,-2.4436854508392598e-05
0.0960881787716595,-5.222720660457177e-06,0.0960881787716595,-2.287706561248173e-05,0.0960881787716595,2.96908679085648e-08,0.0960881787716595,-2.3844846268793476e-05
0.0968822959515906,-7.395441860803725e-06,0.0968822959515906,-2.038893298123069e-05,0.0968822959515906,2.6646045449703065e-07,0.0968822959515906,-1.7259504655180517e-05
0.0976764131315216,-5.381137891247745e-06,0.0976764131315216,-2.1060098722079463e-05,0.0976764131315216,1.145306822759613e-06,0.0976764131315216,-1.1048659084823544e-05
0.0984705303114527,-5.222985049633544e-06,0.0984705303114527,-2.143539698467895e-05,0.0984705303114527,1.481945381906275e-07,0.0984705303114527,-1.0771832574450316e-05
0.0992646474913838,-5.825263736383077e-06,0.0992646474913838,-2.317287603731249e-05,0.0992646474913838,-6.813883901769663e-07,0.0992646474913838,-1.3605251280233367e-05
0.1000587646713148,-6.842521053773519e-06,0.1000587646713148,-2.40024e-05,0.1000587646713148,4.642492293720277e-07,0.1000587646713148,-1.6854552634433798e-05
0.1008528818512459,-6.88182e-06,0.1008528818512459,-2.4495771435311256e-05,0.1008528818512459,-4.837996193130323e-07,0.1008528818512459,-1.76242e-05
0.101646999031177,-8.806848519745066e-06,0.101646999031177,-2.3982351061532717e-05,0.101646999031177,-8.295042147370804e-07,0.101646999031177,-1.820640615404949e-05
0.1024411162111081,-9.459741730715433e-06,0.1024411162111081,-2.192853627566376e-05,0.1024411162111081,-8.000938649691544e-07,0.1024411162111081,-1.9263547690025858e-05
0.1032352333910391,-7.592757178785566e-06,0.1032352333910391,-2.015216965681009e-05,0.1032352333910391,8.586451607727626e-07,0.1032352333910391,-1.7091546145426795e-05
0.1040293505709702,-9.38972713878694e-06,0.1040293505709702,-2.0784179858764654e-05,0.1040293505709702,3.68284713878694e-06,0.1040293505709702,-1.444488286121306e-05
0.1048234677509013,-8.658377229114207e-06,0.1048234677509013,-2.298444881636831e-05,0.1048234677509013,2.5266942763967e-06,0.1048234677509013,-1.3791930918839963e-05
0.1056175849308323,-6.367556677157584e-06,0.1056175849308323,-2.33903976443914e-05,0.1056175849308323,-3.035452450876817e-08,0.1056175849308323,-7.431796029618461e-06
0.1064117021107634,-5.736619379703629e-06,0.1064117021107634,-2.2679197305234492e-05,0.1064117021107634,1.9653210630821075e-06,0.1064117021107634,-7.395985708556263e-06
0.1072058192906945,-6.605518803321759e-06,0.1072058192906945,-2.26596e-05,0.1072058192906945,7.798444332636126e-07,0.1072058192906945,-1.0288202062166909e-05
0.1079999364706256,-8.224518469985668e-06,0.1079999364706256,-2.333091781575728e-05,0.1079999364706256,-1.67849e-07,0.1079999364706256,-9.735351536830787e-06
0.1087940536505566,-7.67163678547513e-06,0.1087940536505566,-2.315308957516017e-05,0.1087940536505566,1.312908908950195e-06,0.1087940536505566,-8.323476429049737e-06
0.1095881708304877,-9.034023006010188e-06,0.1095881708304877,-2.1949269758016437e-05,0.1095881708304877,2.655753006010188e-06,0.1095881708304877,-9.052683924860471e-06
0.1103822880104188,-7.950264079993387e-06,0.1103822880104188,-2.151436663795298e-05,0.1103822880104188,2.51774e-06,0.1103822880104188,-1.051827792426718e-05
0.1111764051903498,-3.941329393237584e-06,0.1111764051903498,-2.1869374678458923e-05,0.1111764051903498,1.9653403330452546e-06,0.1111764051903498,-6.44842066609051e-06
0.1119705223702809,-3.405691358997568e-06,0.1119705223702809,-2.054715429786777e-05,0.1119705223702809,9.973518442723344e-07,0.1119705223702809,-8.618762688833006e-06
0.112764639550212,-5.53903e-06,0.112764639550212,-2.256099747210928e-05,0.112764639550212,5.825303556375028e-07,0.112764639550212,-1.1818548478580536e-05
0.1135587567301431,-6.803149053051267e-06,0.1135587567301431,-2.3429930318636464e-05,0.1135587567301431,5.232157660310217e-07,0.1135587567301431,-1.2272667883206375e-05
0.1143528739100741,-1.154206931112126e-05,0.1143528739100741,-2.2402730581140456e-05,0.1143528739100741,6.91268374149138e-08,0.1143528739100741,-8.264147159285408e-06
0.1151469910900052,-7.455072111752662e-06,0.1151469910900052,-2.291638209810165e-05,0.1151469910900052,7.403271524748204e-07,0.1151469910900052,-9.882080290098236e-06
0.1159411082699363,-7.286015893933258e-06,0.1159411082699363,-2.246194311229184e-05,0.1159411082699363,9.97314555823895e-07,0.1159411082699363,-1.9281581079668036e-05
0.1167352254498673,-8.777389882576645e-06,0.1167352254498673,-2.1711961688785205e-05,0.1167352254498673,1.0958613351239885e-06,0.1167352254498673,-2.126763189580856e-05
0.1175293426297984,-8.984854290962084e-06,0.1175293426297984,-2.1237517938317598e-05,0.1175293426297984,2.51774e-06,0.1175293426297984,-1.96384e-05
0.1183234598097295,-5.677170312306864e-06,0.1183234598097295,-1.9737716399374997e-05,0.1183234598097295,1.6087297578834484e-06,0.1183234598097295,-1.96384e-05
0.1191175769896605,-6.428251463478036e-06,0.1191175769896605,-1.9776546041289135e-05,0.1191175769896605,-3.856787612456443e-07,0.1191175769896605,-1.919374070539124e-05
0.1199116941695916,-5.242645700864772e-06,0.1199116941695916,-2.029019755825033e-05,0.1199116941695916,8.987223567967405e-07,0.1199116941695916,-1.7367131401729546e-05
0.1207058113495227,-6.368564839083657e-06,0.1207058113495227,-1.981639774559773e-05,0.1207058113495227,-2.666176735987753e-07,0.1207058113495227,-1.62814e-05
0.1214999285294538,-8.560155542333958e-06,0.1214999285294538,-1.96384e-05,0.1214999285294538,-1.67900486246545e-07,0.1214999285294538,-1.561010297279983e-05
0.1222940457093848,-8.422354324126871e-06,0.1222940457093848,-2.048770528832467e-05,0.1222940457093848,1.648595675873128e-06,0.1222940457093848,-5.671270111525873e-06
0.1230881628893159,-6.053780473051035e-06,0.1230881628893159,-2.050686788258094e-05,0.1230881628893159,2.7937545459929475e-06,0.1230881628893159,5.184687746047509e-06
0.123882280069247,-4.590710062084589e-06,0.123882280069247,-2.07837384985622e-05,0.123882280069247,1.0965675177378686e-06,0.123882280069247,-1.8855267080563928e-06
0.124676397249178,-5.449771169149404e-06,0.124676397249178,-1.96384e-05,0.124676397249178,1.055929643605513e-06,0.124676397249178,1.132272898377664e-06
0.1254705144291091,-6.2493671464881255e-06,0.1254705144291091,-1.96384e-05,0.1254705144291091,1.6882256091243337e-06,0.1254705144291091,8.902679805172056e-07
0.1262646316090402,-6.022875377938775e-06,0.1262646316090402,-1.991483076848786e-05,0.1262646316090402,1.5896171054824135e-06,0.1262646316090402,-9.69557988785019e-06
0.1270587487889713,-4.393590424330112e-06,0.1270587487889713,-1.987516455472629e-05,0.1270587487889713,1.21428723244015e-06,0.1270587487889713,-1.39315e-05
0.1278528659689023,-5.30204163767967e-06,0.1278528659689023,-2.088197633387583e-05,0.1278528659689023,1.066343560815973e-06,0.1278528659689023,-1.345752327535934e-05
0.1286469831488334,-7.572672235179904e-06,0.1286469831488334,-2.2679631356336536e-05,0.1286469831488334,1.4117105077994897e-06,0.1286469831488334,-1.8867227533350672e-05
0.1294411003287645,-6.735085415605209e-06,0.1294411003287645,-2.3409401207375705e-05,0.1294411003287645,8.959088524434725e-08,0.1294411003287645,-2.5876546889596747e-05
0.1302352175086955,-4.36408e-06,0.1302352175086955,-2.1711966825300377e-05,0.1302352175086955,-1.4315542010066672e-06,0.1302352175086955,-3.083419940704667e-05
0.1310293346886266,-4.86763e-06,0.1310293346886266,-2.16526e-05,0.1310293346886266,1.4816098270357152e-07,0.1310293346886266,-3.910939685520044e-05
0.1318234518685577,-6.843104199260581e-06,0.1318234518685577,-2.1060668106635304e-05,0.1318234518685577,1.2937343874455937e-06,0.1318234518685577,-4.224634209415805e-05
0.1326175690484888,-8.521014364683188e-06,0.1326175690484888,-2.125748180954792e-05,0.1326175690484888,2.142744364683188e-06,0.1326175690484888,-3.0395286518237104e-05
0.1334116862284198,-6.72356050064221e-06,0.1334116862284198,-2.228469068427409e-05,0.1334116862284198,2.379623799743116e-06,0.1334116862284198,-1.3751172605908335e-05
0.1342058034083509,-5.588408675392731e-06,0.1342058034083509,-2.2639294235774205e-05,0.1342058034083509,3.821119704409077e-06,0.1342058034083509,-5.894190593978524e-06
0.134999920588282,-6.545976982222451e-06,0.134999920588282,-2.29953e-05,0.134999920588282,4.867572792888981e-06,0.134999920588282,-8.397036541615708e-07
0.135794037768213,-7.1186421049228654e-06,0.135794037768213,-2.188927626918056e-05,0.135794037768213,4.008846842615701e-06,0.135794037768213,-3.6420318897301297e-06
0.1365881549481441,-6.0538148709624966e-06,0.1365881549481441,-2.303430969592286e-05,0.1365881549481441,3.515530260902182e-06,0.1365881549481441,-7.967220509089202e-06
0.1373822721280752,-4.352953900170741e-06,0.1373822721280752,-2.327178727015472e-05,0.1373822721280752,1.6896170335432905e-06,0.1373822721280752,-9.802494683113573e-06
0.1381763893080062,-7.19615212509262e-06,0.1381763893080062,-2.09812e-05,0.1381763893080062,-6.012006318776379e-07,0.1381763893080062,-1.2410165176165497e-05
0.1389705064879373,-7.1980602231735215e-06,0.1389705064879373,-2.184918566734774e-05,0.1389705064879373,-4.84087810125161e-07,0.1389705064879373,-1.0160966182532885e-05
0.1397646236678684,-6.2499056923856575e-06,0.1397646236678684,-2.436774087444145e-05,0.1397646236678684,8.886424523551835e-07,0.1397646236678684,-4.591375735183452e-06
0.1405587408477994,-6.852300976149325e-06,0.1405587408477994,-2.296702845387838e-05,0.1405587408477994,1.1355817705070948e-06,0.1405587408477994,3.387651845531338e-06
0.1413528580277305,-7.543320128739189e-06,0.1413528580277305,-2.3250764050520297e-05,0.1413528580277305,1.6192400429130633e-06,0.1413528580277305,8.323310171652253e-06
0.1421469752076616,-7.898635754980532e-06,0.1421469752076616,-2.402188854293941e-05,0.1421469752076616,2.473512166485596e-07,0.1421469752076616,6.606187359260101e-06
0.1429410923875927,-8.65810419709774e-06,0.1429410923875927,-2.0052502524828414e-05,0.1429410923875927,-1.4324047005850073e-06,0.1429410923875927,4.480688620298458e-07
0.1437352095675237,-1.1265233921182253e-05,0.1437352095675237,-1.9736612152737807e-05,0.1437352095675237,8.585765128019039e-07,0.1437352095675237,-1.3829567601198187e-05
0.1445293267474548,-8.30341489335354e-06,0.1445293267474548,-2.03098e-05,0.1445293267474548,2.51774e-06,0.1445293267474548,-2.8248299719843536e-05
0.1453234439273859,-5.53903e-06,0.1453234439273859,-2.0605760820045108e-05,0.1453234439273859,3.504182931112834e-06,0.1453234439273859,-2.75350193778363e-05
0.146117561107317,-6.13181843406787e-06,0.146117561107317,-2.003352846348241e-05,0.146117561107317,-8.024051072638379e-08,0.146117561107317,-1.80352142909908e-05
0.146911678287248,-7.276976133458791e-06,0.146911678287248,-2.027057457043997e-05,0.146911678287248,-9.083086124134764e-07,0.146911678287248,-1.1008075466164835e-05
0.1477057954671791,-8.076476689154028e-06,0.1477057954671791,-2.145427594411579e-05,0.1477057954671791,2.271777711354649e-07,0.1477057954671791,-7.592640436470052e-06
0.1484999126471102,-6.210703175199464e-06,0.1484999126471102,-2.165265650166686e-05,0.1484999126471102,8.393089266973878e-07,0.1484999126471102,-6.210545855644207e-06
0.1492940298270412,-6.012655689413404e-06,0.1492940298270412,-2.1474704984705685e-05,0.1492940298270412,-1.67849e-07,0.1492940298270412,-8.115336619186262e-06
0.1500881470069723,-5.8561450758429865e-06,0.1500881470069723,-2.0961700288553726e-05,0.1500881470069723,2.2789023450642142e-06,0.1500881470069723,-1.1342766455752536e-05
0.1508822641869034,-5.715317422158624e-06,0.1508822641869034,-2.0448048771592543e-05,0.1508822641869034,3.86053e-06,0.1508822641869034,-1.4493768697902267e-05
0.1516763813668344,-5.530673534675623e-06,0.1516763813668344,-2.038905278787052e-05,0.1516763813668344,2.755807541691714e-06,0.1516763813668344,-1.3833869314623756e-05
0.1524704985467655,-3.505386954264094e-06,0.1524704985467655,-2.1415214883041225e-05,0.1524704985467655,4.646491478266411e-07,0.1524704985467655,-1.2430574167702144e-05
0.1532646157266966,-3.66293163209233e-06,0.1532646157266966,-2.0803423124554614e-05,0.1532646157266966,-1.51064e-06,0.1532646157266966,-1.2450606015638856e-05
0.1540587329066277,-7.573432469532915e-06,0.1540587329066277,-2.092111720580708e-05,0.1540587329066277,-5.626027776311917e-07,0.1540587329066277,-6.169995060934169e-06
0.1548528500865587,-6.309313176613488e-06,0.1548528500865587,-2.190948482840505e-05,0.1548528500865587,7.009212943659841e-07,0.1548528500865587,-3.978841176198951e-06
0.1556469672664898,-4.630882424255345e-06,0.1556469672664898,-2.1395833311443857e-05,0.1556469672664898,1.84634e-06,0.1556469672664898,-1.2804180605957244e-05
0.1564410844464209,-4.293995532200076e-06,0.1564410844464209,-2.078354442821732e-05,0.1564410844464209,8.39246e-07,0.1564410844464209,-1.967750644586452e-05
0.157235201626352,-7.799233053071756e-06,0.157235201626352,-2.0862445803338592e-05,0.157235201626352,7.109453845889403e-07,0.157235201626352,-1.646075860623304e-05
0.158029318806283,-9.093427232172428e-06,0.158029318806283,-2.09812e-05,0.158029318806283,-1.67849e-07,0.158029318806283,-5.6572936351018616e-06
0.1588234359862141,-7.21752e-06,0.1588234359862141,-2.2164934612864812e-05,0.1588234359862141,1.293711504601218e-06,0.1588234359862141,-3.881144513803654e-06
0.1596175531661451,-7.513912898655771e-06,0.1596175531661451,-2.271903873651277e-05,0.1596175531661451,1.2535542026884572e-06,0.1596175531661451,-8.058351980373363e-06
0.1604116703460762,-4.827419549373894e-06,0.1604116703460762,-2.1691829858726417e-05,0.1604116703460762,1.0840509818373802e-07,0.1604116703460762,-1.3557323337156988e-05
0.1612057875260073,-5.894589439762135e-06,0.1612057875260073,-2.16526e-05,0.1612057875260073,2.271548392685434e-07,0.1612057875260073,-1.889802709503229e-05
0.1619999047059384,-8.224472704978482e-06,0.1619999047059384,-2.16526e-05,0.1619999047059384,5.036852954305045e-07,0.1619999047059384,-2.299492244329193e-05
0.1627940218858694,-7.21752e-06,0.1627940218858694,-2.133697975755832e-05,0.1627940218858694,-1.3623089041090684e-06,0.1627940218858694,-2.275848936110455e-05
0.1635881390658005,-6.605839852089259e-06,0.1635881390658005,-2.224592750741736e-05,0.1635881390658005,5.818155224003213e-07,0.1635881390658005,-2.364614470625608e-05
0.1643822562457316,-4.632614112709373e-06,0.1643822562457316,-1.999396954053852e-05,0.1643822562457316,-5.818860845897501e-07,0.1643822562457316,-2.4259760981969465e-05
0.1651763734256627,-3.405785674368408e-06,0.1651763734256627,-2.0192011068848077e-05,0.1651763734256627,-8.987679855055509e-07,0.1651763734256627,-2.3390523049367024e-05
0.1659704906055937,-5.53903e-06,0.1659704906055937,-2.1928933473370305e-05,0.1659704906055937,3.259800819587756e-07,0.1659704906055937,-2.021261553008978e-05
0.1667646077855248,-5.53903e-06,0.1667646077855248,-2.1000874270496268e-05,0.1667646077855248,1.0761244187882787e-06,0.1667646077855248,-1.7011899716745534e-05
0.1675587249654559,-5.53903e-06,0.1675587249654559,-1.983630165037098e-05,0.1675587249654559,1.84634e-06,0.1675587249654559,-2.019165510843281e-05
0.1683528421453869,-9.310546629269991e-06,0.1683528421453869,-1.9953640140319093e-05,0.1683528421453869,1.84634e-06,0.1683528421453869,-1.7782379661409035e-05
0.169146959325318,-8.422541306572438e-06,0.169146959325318,-2.2008169722744742e-05,0.169146959325318,1.8657441645759183e-06,0.169146959325318,-1.5136527780565442e-05
0.1699410765052491,-8.75578431689506e-06,0.1699410765052491,-2.3133354681491805e-05,0.1699410765052491,2.4395500403258023e-06,0.1699410765052491,-1.651596987902259e-05
0.1707351936851801,-1.2173897038873356e-05,0.1707351936851801,-2.348855329546233e-05,0.1707351936851801,6.617520371663394e-07,0.1707351936851801,-2.1977642534470247e-05
0.1715293108651112,-7.632106424390294e-06,0.1715293108651112,-2.3212430717884685e-05,0.1715293108651112,2.3203056056942925e-06,0.1715293108651112,-1.9796262454555567e-05
0.1723234280450423,-6.88182e-06,0.1723234280450423,-2.210753645892771e-05,0.1723234280450423,2.794059968410515e-06,0.1723234280450423,-1.6615878575700218e-05
0.1731175452249733,-4.807118669435005e-06,0.1731175452249733,-2.07643980190862e-05,0.1731175452249733,1.9249656687158387e-06,0.1731175452249733,-8.339474345017525e-06
0.1739116624049044,-4.236400319700983e-06,0.1739116624049044,-1.902586896343107e-05,0.1739116624049044,2.3796066007019987e-06,0.1739116624049044,3.388331568475651e-06
0.1747057795848355,-5.341442507492942e-06,0.1747057795848355,-1.9282363416683173e-05,0.1747057795848355,2.90281301788095e-06,0.1747057795848355,5.459919489611991e-06
0.1754998967647666,-1.1753118462215548e-06,0.1754998967647666,-2.0980932901211186e-05,0.1754998967647666,3.1891028153778443e-06,0.1754998967647666,-1.5096732042546544e-06
0.1762940139446976,-4.797319740049725e-06,0.1762940139446976,-1.942037628868006e-05,0.1762940139446976,2.241920376473039e-06,0.1762940139446976,-4.906644717645221e-06
0.1770881311246287,-6.80356697717505e-06,0.1770881311246287,-1.9755336630495583e-05,0.1770881311246287,2.053316511412475e-06,0.1770881311246287,-5.0838632534198346e-06
0.1778822483045598,-4.94595755200312e-06,0.1778822483045598,-2.16526e-05,0.1778822483045598,2.06454867199532e-06,0.1778822483045598,-8.459591489379153e-06
0.1786763654844909,-5.815193003194739e-06,0.1786763654844909,-2.135651614066076e-05,0.1786763654844909,1.7272824598437462e-06,0.1786763654844909,-1.0791142459843744e-05
0.1794704826644219,-7.75020288951225e-06,0.1794704826644219,-2.1869597168490262e-05,0.1794704826644219,2.695302726279938e-06,0.1794704826644219,-1.4630644905581473e-05
0.180264599844353,-1.0396708445276005e-05,0.180264599844353,-2.22054202783927e-05,0.180264599844353,1.6884315547239948e-06,0.180264599844353,-1.7506057773619976e-05
0.181058717024284,-8.698185251193702e-06,0.181058717024284,-2.117911190364552e-05,0.181058717024284,1.8069469034501823e-06,0.181058717024284,-6.722529081686307e-06
0.1818528342042151,-5.163919252590258e-06,0.1818528342042151,-2.196779611945992e-05,0.1818528342042151,1.4119742264299837e-06,0.1818528342042151,1.1067248534536885e-05
0.1826469513841462,-4.600804643689862e-06,0.1826469513841462,-2.350881283105163e-05,0.1826469513841462,-1.872362026166841e-07,0.1826469513841462,1.4288627494170964e-05
0.1834410685640773,-7.611844688594865e-06,0.1834410685640773,-2.2836941773178214e-05,0.1834410685640773,-4.644646608262154e-07,0.1834410685640773,3.469696608262154e-06
0.1842351857440083,-7.27736105265962e-06,0.1842351857440083,-2.192891262863895e-05,0.1842351857440083,4.244395538151661e-07,0.1842351857440083,-6.445703167329785e-06
0.1850293029239394,-7.0003293665303525e-06,0.1850293029239394,-2.346955658240057e-05,0.1850293029239394,-3.060970905253444e-07,0.1850293029239394,-1.3477393774244037e-05
0.1858234201038705,-8.777261378243204e-06,0.1858234201038705,-2.4042154559866663e-05,0.1858234201038705,-1.51064e-06,0.1858234201038705,-1.84051984882292e-05
0.1866175372838016,-7.780046679816232e-06,0.1866175372838016,-2.147511967520944e-05,0.1866175372838016,-4.733120488077305e-07,0.1866175372838016,-2.2700416600918835e-05
0.1874116544637326,-8.619731735376564e-06,0.1874116544637326,-2.287753710097096e-05,0.1874116544637326,-1.2343642043512258e-06,0.1874116544637326,-2.598767708245096e-05
0.1882057716436637,-8.89601e-06,0.1882057716436637,-2.3707393712694308e-05,0.1882057716436637,-2.18204e-06,0.1882057716436637,-2.963034181648924e-05
0.1889998888235948,-8.224770179910829e-06,0.1889998888235948,-2.0981631445852987e-05,0.1889998888235948,-1.5108001799108297e-06,0.1889998888235948,-3.306581946026751e-05
0.1897940060035258,-4.591833308527873e-06,0.1897940060035258,-2.117913881724642e-05,0.1897940060035258,2.2001349693985138e-06,0.1897940060035258,-3.312620330852787e-05
0.1905881231834569,-7.176266145319604e-06,0.1905881231834569,-2.1574662792396965e-05,0.1905881231834569,2.163546960360292e-06,0.1905881231834569,-2.9276871136576465e-05
0.191382240363388,-8.837272935518193e-06,0.191382240363388,-1.9914928362276064e-05,0.191382240363388,6.210211957960726e-07,0.191382240363388,-2.4539615148739815e-05
0.192176357543319,-8.254377245394624e-06,0.192176357543319,-2.1139632256566372e-05,0.192176357543319,1.51064e-06,0.192176357543319,-1.6562551852627958e-05
0.1929704747232501,-6.01345427245065e-06,0.1929704747232501,-2.1455996510774584e-05,0.1929704747232501,1.17494e-06,0.1929704747232501,-1.414788502784417e-05
0.1937645919031812,-4.4529814980731015e-06,0.1937645919031812,-1.9598917744681395e-05,0.1937645919031812,3.583880157876915e-06,0.1937645919031812,-1.5807708988438606e-05
0.1945587090831123,-4.512227718711384e-06,0.1945587090831123,-2.1928085165182453e-05,0.1945587090831123,4.393633421932924e-06,0.1945587090831123,-1.1739218250308927e-05
0.1953528262630433,-5.420507153771313e-06,0.1953528262630433,-2.1495000475901108e-05,0.1953528262630433,2.873305008068063e-06,0.1953528262630433,-1.1561731461313938e-05
0.1961469434429744,-6.229789766493647e-06,0.1961469434429744,-2.0596034840304585e-05,0.1961469434429744,2.3993834111687844e-06,0.1961469434429744,-1.2312160666088406e-05
0.1969410606229055,-8.48216648638435e-06,0.1969410606229055,-2.16526e-05,0.1969410606229055,7.415663461034413e-07,0.1969410606229055,-1.0082512972768698e-05
0.1977351778028366,-6.19117761019533e-06,0.1977351778028366,-2.220513267638574e-05,0.1977351778028366,-4.543691324833467e-07,0.1977351778028366,-7.040048805097664e-06
0.1985292949827676,-6.032697093809223e-06,0.1985292949827676,-2.277815900908497e-05,0.1985292949827676,8.194984228977117e-07,0.1985292949827676,-7.197774187618445e-06
0.1993234121626987,-5.598396821665952e-06,0.1993234121626987,-2.2699359686503923e-05,0.1993234121626987,3.848113502158093e-07,0.1993234121626987,-5.57787881766486e-06
0.2001175293426297,-5.57835312897335e-06,0.2001175293426297,-2.2511917293534244e-05,0.2001175293426297,4.248997506529235e-07,0.2001175293426297,-2.121608931285367e-06
0.2009116465225608,-2.7346153461731585e-06,0.2009116465225608,-2.1662413706193235e-05,0.2009116465225608,1.17494e-06,0.2009116465225608,5.9355699042025405e-06
0.2017057637024919,-4.1172374184070215e-06,0.2017057637024919,-2.0823528564688742e-05,0.2017057637024919,-1.67849e-07,0.2017057637024919,1.0929957243809856e-05
0.202499880882423,-6.3780554758898246e-06,0.202499880882423,-1.98063926307946e-05,0.202499880882423,1.1745967601456334e-06,0.202499880882423,-1.0046544062283297e-06
0.203293998062354,-4.828649680437031e-06,0.203293998062354,-2.03098e-05,0.203293998062354,7.013587632687701e-07,0.203293998062354,-1.2981414718106204e-05
0.2040881152422851,-4.886090264566056e-06,0.2040881152422851,-1.9322179165385604e-05,0.2040881152422851,1.184175721282507e-06,0.2040881152422851,-1.643783724948552e-05
0.2048822324222162,-5.343268450129285e-06,0.2048822324222162,-2.0230692047040335e-05,0.2048822324222162,3.3849003835820656e-06,0.2048822324222162,-2.145101605680322e-05
0.2056763496021472,-3.308218649386981e-06,0.2056763496021472,-2.3074511774772483e-05,0.2056763496021472,5.143789788499665e-06,0.2056763496021472,-2.8875737038995316e-05
0.2064704667820783,-5.458486274732915e-06,0.2064704667820783,-2.3232726209080132e-05,0.2064704667820783,3.387553222269172e-06,0.2064704667820783,-3.356014871514226e-05
0.2072645839620094,-7.474277218784205e-06,0.2072645839620094,-2.284721279206492e-05,0.2072645839620094,2.6756255624315896e-06,0.2072645839620094,-2.5050153985476804e-05
0.2080587011419405,-7.533511985697694e-06,0.2080587011419405,-2.13275669775656e-05,0.2080587011419405,3.18914e-06,0.2080587011419405,-1.1995468300348416e-05
0.2088528183218715,-8.22461e-06,0.2088528183218715,-2.1888960404864463e-05,0.2088528183218715,1.7675828962120433e-06,0.2088528183218715,-1.2370746262910235e-05
0.2096469355018026,-7.612395427908757e-06,0.2096469355018026,-2.201777288417579e-05,0.2096469355018026,7.402468912392983e-07,0.2096469355018026,-2.352682587068106e-05
0.2104410526817337,-6.784169127390887e-06,0.2104410526817337,-2.194899240481894e-05,0.2104410526817337,4.840177673003672e-07,0.2104410526817337,-2.4755612036374255e-05
0.2112351698616647,-4.4335903697798695e-06,0.2112351698616647,-2.293590235560861e-05,0.2112351698616647,4.244281124270358e-07,0.2112351698616647,-1.795137307857915e-05
0.2120292870415958,-6.684334119294386e-06,0.2120292870415958,-2.048702289201141e-05,0.2120292870415958,-1.67849e-07,0.2120292870415958,-1.4464685880705617e-05
0.2128234042215269,-7.434494261087613e-06,0.2128234042215269,-1.8375129626282337e-05,0.2128234042215269,2.466542263149903e-07,0.2128234042215269,-1.0869249103187547e-05
0.2136175214014579,-6.88182e-06,0.2136175214014579,-2.1138419373172463e-05,0.2136175214014579,-1.3533209208283092e-06,0.2136175214014579,-4.73771414570816e-06
0.214411638581389,-8.817258204982655e-06,0.214411638581389,-2.105974773943911e-05,0.214411638581389,-1.67849e-07,0.214411638581389,3.0129473244049674e-06
0.2152057557613201,-6.091992247217913e-06,0.2152057557613201,-1.928233259759216e-05,0.2152057557613201,2.9607791146315832e-08,0.2152057557613201,1.0811471163279225e-05
0.2159998729412512,-4.867446937244755e-06,0.2159998729412512,-2.098087126302912e-05,0.2159998729412512,1.0069627023882497e-06,0.2159998729412512,6.882826839700684e-06
0.2167939901211822,-8.26357606697087e-06,0.2167939901211822,-2.026972266912608e-05,0.2167939901211822,7.943055431884525e-08,0.2167939901211822,-2.258460588536022e-06
0.2175881073011133,-7.001351432397901e-06,0.2175881073011133,-1.901568217166533e-05,0.2175881073011133,-1.3726728580994751e-06,0.2175881073011133,-4.591695716198951e-06
0.2183822244810444,-6.28871315392091e-06,0.2183822244810444,-2.0497218815466628e-05,0.2183822244810444,-3.078165145391728e-07,0.2183822244810444,-7.821335514815168e-06
0.2191763416609755,-6.88182e-06,0.2191763416609755,-2.1850592007271654e-05,0.2191763416609755,1.7272481355771297e-06,0.2191763416609755,-2.059971725858608e-05
0.2199704588409065,-4.86763e-06,0.2199704588409065,-2.365650495622455e-05,0.2199704588409065,3.8569105436844156e-07,0.2199704588409065,-2.3272826615120245e-05
0.2207645760208376,-7.711091769592655e-06,0.2207645760208376,-2.3390233275905955e-05,0.2207645760208376,3.057707764698056e-07,0.2207645760208376,-2.0625548242018827e-05
0.2215586932007686,-6.328701896653211e-06,0.2215586932007686,-2.3429971331734523e-05,0.2215586932007686,3.584254977004807e-06,0.2215586932007686,-2.449638214658564e-05
0.2223528103806997,-3.9790643122561045e-06,0.2223528103806997,-2.360677494667092e-05,0.2223528103806997,3.090505093552653e-06,0.2223528103806997,-2.1080679374246016e-05
0.2231469275606308,-6.920487211499028e-06,0.2231469275606308,-2.5661296287261958e-05,0.2231469275606308,3.643175122803819e-06,0.2231469275606308,-1.4286535368411456e-05
0.2239410447405619,-9.212185442136286e-06,0.2239410447405619,-2.433756698616656e-05,0.2239410447405619,3.1500908842725685e-06,0.2239410447405619,-1.7731582160213818e-05
0.2247351619204929,-8.38286168794208e-06,0.2247351619204929,-2.23239e-05,0.2247351619204929,2.51774e-06,0.2247351619204929,-1.9342251136783856e-05
0.225529279100424,-8.22461e-06,0.225529279100424,-2.228404289756436e-05,0.225529279100424,1.0466311548999776e-06,0.225529279100424,-1.707129668884494e-05
0.2263233962803551,-5.913636024435077e-06,0.2263233962803551,-1.9797479759113777e-05,0.2263233962803551,5.629047951129848e-07,0.2263233962803551,-1.4760528553764732e-05
0.2271175134602862,-3.642837299238253e-06,0.2271175134602862,-2.03098e-05,0.2271175134602862,8.39246e-07,0.2271175134602862,-1.3042407299238253e-05
0.2279116306402172,-3.8114587900587295e-06,0.2279116306402172,-2.1257969398386863e-05,0.2279116306402172,1.5700273372943136e-06,0.2279116306402172,-1.0515112662705686e-05
0.2287057478201483,-5.53903e-06,0.2287057478201483,-2.133727767543817e-05,0.2287057478201483,2.2807631037070865e-06,0.2287057478201483,-1.2568831037070868e-05
0.2294998650000794,-5.03562587813309e-06,0.2294998650000794,-1.9303136603789462e-05,0.2294998650000794,2.51774e-06,0.2294998650000794,-1.6281010991645093e-05
0.2302939821800104,-4.157284078519281e-06,0.2302939821800104,-1.91448641962033e-05,0.2302939821800104,2.6661170392596404e-06,0.2302939821800104,-1.0952259419803525e-05
0.2310880993599415,-5.221732934770486e-06,0.2310880993599415,-1.96384e-05,0.2310880993599415,3.86053e-06,0.2310880993599415,-2.876400490752641e-06
0.2318822165398726,-7.206232209839891e-06,0.2318822165398726,-1.9243559181367096e-05,0.2318822165398726,3.505259578026627e-06,0.2318822165398726,4.626776951520021e-06
0.2326763337198036,-9.3589792147711e-06,0.2326763337198036,-1.9125382536446896e-05,0.2326763337198036,2.942765705429303e-06,0.2326763337198036,7.612769878968032e-06
0.2334704508997347,-9.507704319942913e-06,0.2334704508997347,-2.139468311214794e-05,0.2334704508997347,4.647864437683822e-07,0.2334704508997347,-2.414595087869092e-06
0.2342645680796658,-9.38006897092877e-06,0.2342645680796658,-2.141568744243682e-05,0.2342645680796658,-4.540945394411416e-07,0.2342645680796658,-1.5016564116284926e-05
0.2350586852595969,-6.328736294564563e-06,0.2350586852595969,-2.1256694166512877e-05,0.2350586852595969,-5.232673628469681e-07,0.2350586852595969,-2.4062033149521608e-05
0.2358528024395279,-6.407663350051082e-06,0.2358528024395279,-2.3202580441912897e-05,0.2358528024395279,2.043579818920749e-06,0.2358528024395279,-2.3588000226349066e-05
0.236646919619459,-7.987934745572911e-06,0.236646919619459,-2.2689198565221563e-05,0.236646919619459,2.7351006102099026e-06,0.236646919619459,-2.0172142440839613e-05
0.2374410367993901,-6.565638824850026e-06,0.2374410367993901,-2.1889502973932194e-05,0.2374410367993901,2.498221175149974e-06,0.2374410367993901,-1.7803749401199792e-05
0.2382351539793211,-8.036370316141096e-06,0.2382351539793211,-2.248139394446325e-05,0.2382351539793211,8.992039376421255e-07,0.2382351539793211,-1.2965184082139298e-05
0.2390292711592522,-1.0465876302241385e-05,0.2390292711592522,-2.4012397743128136e-05,0.2390292711592522,-8.39246e-07,0.2390292711592522,-9.606964978686e-06
0.2398233883391833,-1.0159041771752214e-05,0.2398233883391833,-2.374625013283137e-05,0.2398233883391833,-3.653737140169927e-07,0.2398233883391833,-4.333468915684243e-06
0.2406175055191144,-7.335543326355004e-06,0.2406175055191144,-2.298577103730096e-05,0.2406175055191144,-7.999047349584225e-07,0.2406175055191144,-4.5135576770863465e-06
0.2414116226990454,-7.948289986907794e-06,0.2414116226990454,-2.2965829920942947e-05,0.2414116226990454,-2.241415871266913e-06,0.2414116226990454,-2.49730103242809e-05
0.2422057398789765,-7.513669171437575e-06,0.2422057398789765,-2.16526e-05,0.2422057398789765,-5.628724200083097e-07,0.2422057398789765,-3.681847418098609e-05
0.2429998570589076,-8.895804054400338e-06,0.2429998570589076,-2.299493019844937e-05,0.2429998570589076,1.6795197249308998e-07,0.2429998570589076,-2.769695351039695e-05
0.2437939742388386,-8.510848120406602e-06,0.2437939742388386,-2.3488840940311875e-05,0.2437939742388386,-1.648492481626408e-06,0.2437939742388386,-1.987835067908311e-05
0.2445880914187697,-7.672791406000365e-06,0.2445880914187697,-2.2897987018760788e-05,0.2445880914187697,-2.418867837936564e-06,0.2445880914187697,-7.677443135142944e-06
0.2453822085987008,-5.265085389245068e-06,0.2453822085987008,-2.04285018688684e-05,0.2453822085987008,-2.2520522226674117e-06,0.2453822085987008,-4.8419569988424535e-06
0.2461763257786318,-2.6368547472672926e-06,0.2461763257786318,-2.03098e-05,0.2461763257786318,-1.2344973736336466e-06,0.2461763257786318,-1.5120032988268817e-05
0.2469704429585629,-5.28079769332e-06,0.2469704429585629,-2.0743742971828843e-05,0.2469704429585629,-4.841793410937751e-07,0.2469704429585629,-1.9125165877275563e-05
0.247764560138494,-6.931281571376252e-06,0.247764560138494,-2.1929076997124395e-05,0.247764560138494,8.192485954692468e-07,0.247764560138494,-1.0576638355498788e-05
0.2485586773184251,-7.1780695733131375e-06,0.2485586773184251,-2.070572634003609e-05,0.2485586773184251,2.794264359969707e-06,0.2485586773184251,1.1108569778426632e-05
0.2493527944983561,-1.0663172119502124e-05,0.2493527944983561,-1.9124558431977487e-05,0.2493527944983561,4.946301108582395e-06,0.2493527944983561,2.2639697978160544e-05
0.2501469116782872,-7.277947795753547e-06,0.2501469116782872,-2.015186146589988e-05,0.2501469116782872,6.645152686447222e-06,0.2501469116782872,1.1941667214878934e-05
0.2509410288582183,-4.906656183672558e-06,0.2509410288582183,-2.011221620113893e-05,0.2509410288582183,4.373836545918139e-06,0.2509410288582183,-3.185160817419433e-06
0.2517351460381494,-6.565273215808224e-06,0.2517351460381494,-2.0467260838189287e-05,0.2517351460381494,4.53193e-06,0.2517351460381494,-1.2665305791089432e-05
0.2525292632180804,-4.591304734211036e-06,0.2525292632180804,-2.222534161521656e-05,0.2525292632180804,2.379577367105518e-06,0.2525292632180804,-1.6459145789035174e-05
0.2533233803980115,-2.201525731692805e-06,0.2533233803980115,-2.177192872923547e-05,0.2533233803980115,1.17494e-06,0.2533233803980115,-1.4029817170708488e-05
0.2541174975779426,-2.39969830267955e-06,0.2541174975779426,-2.058598935227487e-05,0.2541174975779426,1.17494e-06,0.2541174975779426,-1.29244e-05
0.2549116147578736,-5.341497797380244e-06,0.2549116147578736,-2.240336079623112e-05,0.2549116147578736,8.39246e-07,0.2549116147578736,-1.6913922026197565e-05
0.2557057319378047,-3.76181836232033e-06,0.2557057319378047,-2.169334340483552e-05,0.2557057319378047,-6.913795041468635e-08,0.2557057319378047,-1.991495344928132e-05
0.2564998491177358,-3.52483e-06,0.2564998491177358,-2.09812e-05,0.2564998491177358,1.174613922381292e-06,0.2564998491177358,-1.7960226080532744e-05
0.2572939662976669,-4.19623e-06,0.2572939662976669,-2.181044607682703e-05,0.2572939662976669,1.7474105077994895e-06,0.2572939662976669,-1.991408203119796e-05
0.2580880834775979,-3.989305085710871e-06,0.2580880834775979,-2.06649586193249e-05,0.2580880834775979,2.18204e-06,0.2580880834775979,-1.7587500571405804e-05
0.258882200657529,-5.172431657112184e-06,0.258882200657529,-2.09812e-05,0.258882200657529,1.84634e-06,0.258882200657529,-1.186989424947127e-05
0.2596763178374601,-5.79621464151712e-06,0.2596763178374601,-2.0764256142511677e-05,0.2596763178374601,1.5702030943447469e-06,0.2596763178374601,-1.106721071696576e-05
0.2604704350173911,-8.302041927801505e-06,0.2604704350173911,-2.16526e-05,0.2604704350173911,1.7575757989933376e-06,0.2604704350173911,-1.0990949670185167e-05
0.2612645521973222,-9.626882706605749e-06,0.2612645521973222,-2.2185700113122677e-05,0.2612645521973222,1.84634e-06,0.2612645521973222,-3.7227129606773383e-06
0.2620586693772533,-7.622277724494589e-06,0.2620586693772533,-2.23239e-05,0.2620586693772533,1.84634e-06,0.2620586693772533,-5.341721124184135e-06
0.2628527865571843,-7.118923022594458e-06,0.2628527865571843,-2.173137407947359e-05,0.2628527865571843,1.1948984150085555e-06,0.2628527865571843,-1.7464563728866492e-05
0.2636469037371154,-7.57250024647643e-06,0.2636469037371154,-2.185989896442836e-05,0.2636469037371154,-6.218752188003502e-07,0.2636469037371154,-3.0496402627727888e-05
0.2644410209170465,-8.14658114580447e-06,0.2644410209170465,-2.102053968162012e-05,0.2644410209170465,-5.080548626870713e-08,0.2644410209170465,-3.4155504335305805e-05
0.2652351380969776,-6.88182e-06,0.2652351380969776,-1.9757236380904133e-05,0.2652351380969776,1.3332260122086946e-06,0.2652351380969776,-2.5683531103773903e-05
0.2660292552769086,-7.869112275458545e-06,0.2660292552769086,-2.03098e-05,0.2660292552769086,-6.614955492439313e-07,0.2660292552769086,-1.3793830194925932e-05
0.2668233724568397,-6.980160053552795e-06,0.2668233724568397,-2.03098e-05,0.2668233724568397,1.2936199732236022e-06,0.2668233724568397,-5.637361821202084e-06
0.2676174896367708,-5.87472e-06,0.2676174896367708,-2.1178810460377733e-05,0.2676174896367708,2.142687034546126e-06,0.2676174896367708,-6.013656344996508e-06
0.2684116068167018,-4.255582939212103e-06,0.2684116068167018,-2.28773521956053e-05,0.2684116068167018,3.18914e-06,0.2684116068167018,-9.172357060787897e-06
0.2692057239966329,-7.21752e-06,0.2692057239966329,-2.3707516989058333e-05,0.2692057239966329,9.775305429088397e-07,0.2692057239966329,-4.98612704766701e-06
0.269999841176564,-5.539602067701964e-06,0.269999841176564,-2.0646219081522053e-05,0.269999841176564,1.5102967600604676e-06,0.269999841176564,-1.0572554968450031e-05
0.270793958356495,-6.012552496703721e-06,0.270793958356495,-1.96384e-05,0.270793958356495,1.9947428378212984e-06,0.270793958356495,-1.5334340900856795e-05
0.2715880755364261,-6.003503685231403e-06,0.2715880755364261,-2.03098e-05,0.2715880755364261,1.312884209845731e-06,0.2715880755364261,-1.02388e-05
0.2723821927163572,-5.656399769282103e-06,0.2723821927163572,-2.080328309743154e-05,0.2723821927163572,4.839861775471895e-07,0.2723821927163572,-1.6095884888670436e-05
0.2731763098962882,-6.960316777416243e-06,0.2731763098962882,-2.159322372351774e-05,0.2731763098962882,1.9763323008134449e-07,0.2731763098962882,-2.867491725371573e-05
0.2739704270762193,-5.322811881623678e-06,0.2739704270762193,-2.1474474134073303e-05,0.2739704270762193,8.585891320966559e-07,0.2739704270762193,-3.72915680439066e-05
0.2747645442561504,-5.2621985375664426e-06,0.2747645442561504,-2.226470490873972e-05,0.2747645442561504,2.3104329111698445e-06,0.2747645442561504,-3.115231644679379e-05
0.2755586614360815,-6.862083320629152e-06,0.2755586614360815,-2.19883e-05,0.2755586614360815,1.5501133587416957e-06,0.2755586614360815,-2.127724431130166e-05
0.2763527786160125,-7.098962755689042e-06,0.2763527786160125,-2.181011442182893e-05,0.2763527786160125,7.406596633077828e-07,0.2763527786160125,-2.0092003009454485e-05
0.2771468957959436,-6.526853427752964e-06,0.2771468957959436,-2.23239e-05,0.2771468957959436,9.633228731286156e-09,0.2771468957959436,-2.571943314449407e-05
0.2779410129758747,-5.461023496764393e-06,0.2779410129758747,-2.188951835384396e-05,0.2779410129758747,1.2139432516178038e-06,0.2779410129758747,-2.682868374191098e-05
0.2787351301558057,-5.222435092738116e-06,0.2787351301558057,-2.179069718717573e-05,0.2787351301558057,2.8725450927381152e-06,0.2787351301558057,-1.956195605182776e-05
0.2795292473357368,-8.22461e-06,0.2795292473357368,-2.2560956379987944e-05,0.2795292473357368,2.735120857165352e-06,0.2795292473357368,-1.0802058070902714e-05
0.2803233645156679,-8.105943235677523e-06,0.2803233645156679,-2.240348089265492e-05,0.2803233645156679,1.0851508759509819e-07,0.2803233645156679,-3.129007655405545e-06
0.2811174816955989,-7.10870804770135e-06,0.2811174816955989,-2.2402512076046588e-05,0.2811174816955989,4.248309547958624e-07,0.2811174816955989,9.781479145861504e-07
0.2819115988755301,-7.94825558933794e-06,0.2819115988755301,-2.4259443680273137e-05,0.2819115988755301,2.466867321463036e-07,0.2819115988755301,3.604098167411211e-06
0.2827057160554611,-8.04701233934734e-06,0.2827057160554611,-2.335141876755952e-05,0.2827057160554611,-1.273640171652253e-06,0.2827057160554611,6.70391791813104e-06
0.2834998332353922,-7.21752e-06,0.2834998332353922,-2.3666484266362877e-05,0.2834998332353922,-2.852959460267511e-06,0.2834998332353922,7.88891e-06
0.2842939504153233,-7.55322e-06,0.2842939504153233,-2.2283978376388125e-05,0.2842939504153233,-1.3533904064947091e-06,0.2842939504153233,1.651957773542806e-06
0.2850880675952543,-8.086671523167998e-06,0.2850880675952543,-2.275684173147293e-05,0.2850880675952543,-3.057870659339483e-07,0.2850880675952543,-8.555365888182958e-06
0.2858821847751854,-8.165934297426143e-06,0.2858821847751854,-2.43381e-05,0.2858821847751854,-2.260275823783785e-06,0.2858821847751854,-1.3634917911891892e-05
0.2866763019551165,-8.135249970985774e-06,0.2866763019551165,-2.2540886406149382e-05,0.2866763019551165,-1.7489381430676871e-06,0.2866763019551165,-1.3655374535766922e-05
0.2874704191350475,-6.171757445599728e-06,0.2874704191350475,-2.078477569452436e-05,0.2874704191350475,-1.2918133041401912e-07,0.2874704191350475,-1.2411183039408864e-05
0.2882645363149786,-6.407691142372967e-06,0.2882645363149786,-1.831538983520223e-05,0.2882645363149786,1.74736537084756e-06,0.2882645363149786,-1.450392537084756e-05
0.2890586534949096,-6.259776030961441e-06,0.2890586534949096,-1.76242e-05,0.2890586534949096,3.149655175230847e-06,0.2890586534949096,-1.622217276284627e-05
0.2898527706748408,-4.216218931973897e-06,0.2898527706748408,-1.82956e-05,0.2898527706748408,3.8212374433115806e-06,0.2898527706748408,-1.803848511337684e-05
0.2906468878547718,-5.577525221941706e-06,0.2906468878547718,-1.82956e-05,0.2906468878547718,3.879779373205851e-06,0.2906468878547718,-2.534237978149982e-05
0.2914410050347029,-8.788783170379981e-06,0.2914410050347029,-1.9243293921924937e-05,0.2914410050347029,3.446847009572741e-06,0.2914410050347029,-3.014674928645792e-05
0.292235122214634,-6.664851671289833e-06,0.292235122214634,-1.912441460955277e-05,0.292235122214634,2.4385855524734448e-06,0.292235122214634,-2.2247647581500985e-05
0.293029239394565,-7.17786349061802e-06,0.293029239394565,-2.121824610695757e-05,0.293029239394565,3.52483e-06,0.293029239394565,-1.4702029511684857e-05
0.2938233565744961,-7.749985173100242e-06,0.2938233565744961,-2.106079114592947e-05,0.2938233565744961,4.097103313955328e-06,0.2938233565744961,-8.757083405791777e-06
0.2946174737544272,-4.3536877259250216e-06,0.2946174737544272,-2.06455e-05,0.2946174737544272,7.790980822828416e-07,0.2946174737544272,-4.471779847761355e-06
0.2954115909343582,-4.018617508946586e-06,0.2954115909343582,-2.111949910491212e-05,0.2954115909343582,-1.3724550035786346e-06,0.2954115909343582,-9.969552738365994e-07
0.2962057081142893,-6.220150535234836e-06,0.2962057081142893,-2.04776e-05,0.2962057081142893,2.6654314464257976e-07,0.2962057081142893,-1.2732898751389775e-06
0.2969998252942204,-6.881882927822103e-06,0.2969998252942204,-2.1652204471500985e-05,0.2969998252942204,-5.031704345670017e-07,0.2969998252942204,-7.216135591662782e-06
0.2977939424741515,-7.118573308758384e-06,0.2977939424741515,-2.1494738513627454e-05,0.2977939424741515,-1.3127483860009732e-06,0.2977939424741515,-1.3079839705100611e-05
0.2985880596540825,-8.620144512363451e-06,0.2985880596540825,-2.1613713580441204e-05,0.2985880596540825,-2.6556727438182742e-06,0.2985880596540825,-1.6203301768545178e-05
0.2993821768340136,-5.242442178878245e-06,0.2993821768340136,-2.1375989453481253e-05,0.2993821768340136,-5.964232868716415e-07,0.2993821768340136,-1.1034031825890993e-05
0.3001762940139447,-6.643500748894413e-06,0.3001762940139447,-2.1731728214540497e-05,0.3001762940139447,3.4841508771334323e-06,0.3001762940139447,-3.8445192716452895e-06
0.3009704111938757,-6.171780328273812e-06,0.3009704111938757,-2.2757801879707487e-05,0.3009704111938757,2.479095040479952e-06,0.3009704111938757,1.1441560603255923e-06
0.3017645283738068,-4.86763e-06,0.3017645283738068,-2.36074975431851e-05,0.3017645283738068,2.8333485945580007e-06,0.3017645283738068,2.51774e-06
0.3025586455537379,-4.86763e-06,0.3025586455537379,-2.3094302091558043e-05,0.3025586455537379,3.228635702528863e-06,0.3025586455537379,1.2539325815930494e-06
0.3033527627336689,-9.50738867092343e-06,0.3033527627336689,-2.263893467971233e-05,0.3033527627336689,2.043465158646661e-06,0.3033527627336689,2.379165158646661e-06
0.3041468799136,-7.594599076661329e-06,0.3041468799136,-2.3795093328503737e-05,0.3041468799136,4.749319275278445e-06,0.3041468799136,4.5896229981947785e-06
0.3049409970935311,-4.609890058543283e-06,0.3049409970935311,-2.2560828607118477e-05,0.3049409970935311,3.8020601012382017e-06,0.3049409970935311,9.628064121201833e-06
0.3057351142734621,-6.900879327049406e-06,0.3057351142734621,-2.31526992000072e-05,0.3057351142734621,2.083820504712945e-06,0.3057351142734621,1.731985369646079e-06
0.3065292314533932,-6.960785664060195e-06,0.3065292314533932,-2.374551041518204e-05,0.3065292314533932,1.87686755120507e-07,0.3065292314533932,-1.2370494514110964e-05
0.3073233486333243,-5.301738702085991e-06,0.3073233486333243,-2.1180191641977824e-05,0.3073233486333243,3.6535941223925125e-07,0.3073233486333243,-2.0665719275490476e-05
0.3081174658132554,-4.788889671010033e-06,0.3081174658132554,-2.110030347969302e-05,0.3081174658132554,-3.854379756263327e-07,0.3081174658132554,-2.4694538684040128e-05
0.3089115829931864,-6.269738541129812e-06,0.3089115829931864,-1.9677748705924127e-05,0.3089115829931864,-4.4422922392175686e-07,0.3089115829931864,-2.7833290729435093e-05
0.3097057001731175,-7.197703058437314e-06,0.3097057001731175,-2.06455e-05,0.3097057001731175,5.330759992074861e-07,0.3097057001731175,-2.307459716413744e-05
0.3104998173530486,-7.55322e-06,0.3104998173530486,-2.1652245580453277e-05,0.3104998173530486,1.8460110630311367e-06,0.3104998173530486,-2.2994773733773304e-05
0.3112939345329796,-6.507277272766033e-06,0.3112939345329796,-2.2146119596786174e-05,0.3112939345329796,-2.455355811701677e-07,0.3112939345329796,-2.5285090302978626e-05
0.3120880517129107,-7.019747010804625e-06,0.3120880517129107,-2.088400963367878e-05,0.3120880517129107,-1.0187824546751314e-06,0.3120880517129107,-2.6747845978390747e-05
0.3128821688928418,-7.849804719057912e-06,0.3128821688928418,-1.871053122932369e-05,0.3128821688928418,3.2673517268066043e-06,0.3128821688928418,-2.508771289172903e-05
0.3136762860727728,-7.0009919543783245e-06,0.3136762860727728,-1.8078594622864573e-05,0.3136762860727728,3.86053e-06,0.3136762860727728,-2.595701402281084e-05
0.314470403252704,-5.184018961662144e-06,0.314470403252704,-1.8967e-05,0.314470403252704,2.8341289616621435e-06,0.314470403252704,-2.1891697684545205e-05
0.315264520432635,-6.683799742938053e-06,0.315264520432635,-1.987518928119913e-05,0.315264520432635,3.18914e-06,0.315264520432635,-1.647941790683807e-05
0.3160586376125661,-8.382583060794023e-06,0.3160586376125661,-2.1454585563609382e-05,0.3160586376125661,2.241301635235859e-06,0.3160586376125661,-1.4306707756823903e-05
0.3168527547924971,-8.22461e-06,0.3168527547924971,-2.14950929331742e-05,0.3168527547924971,6.221217369210632e-07,0.3168527547924971,-1.52743e-05
0.3176468719724282,-7.751393557296972e-06,0.3176468719724282,-2.04677898992518e-05,0.3176468719724282,1.3124638523544031e-06,0.3176468719724282,-1.561e-05
0.3184409891523593,-5.144876719696617e-06,0.3184409891523593,-2.119839784361755e-05,0.3184409891523593,2.1528133598483084e-06,0.3184409891523593,-1.3873046719696616e-05
0.3192351063322903,-5.222366444204911e-06,0.3192351063322903,-2.159316126348721e-05,0.3192351063322903,2.063291166576841e-06,0.3192351063322903,-1.3950536444204913e-05
0.3200292235122214,-5.312060685843896e-06,0.3200292235122214,-2.2679438341345315e-05,0.3200292235122214,2.201888785181345e-06,0.3200292235122214,-1.37243582884941e-05
0.3208233406921525,-5.894930855636628e-06,0.3208233406921525,-2.3626894173760785e-05,0.3208233406921525,1.964974207534757e-06,0.3208233406921525,-1.2253e-05
0.3216174578720835,-7.55322e-06,0.3216174578720835,-2.1969296160876635e-05,0.3216174578720835,2.221415897508712e-06,0.3216174578720835,-1.1660351795017423e-05
0.3224115750520147,-3.880118195578163e-06,0.3224115750520147,-2.09812e-05,0.3224115750520147,1.076194114558823e-06,0.3224115750520147,-1.02388e-05
0.3232056922319457,-3.248168950826699e-06,0.3232056922319457,-2.09812e-05,0.3232056922319457,1.8767442296864598e-07,0.3232056922319457,-1.0811517027388852e-05
0.3239998094118768,-7.551847033425333e-06,0.3239998094118768,-2.16523534472718e-05,0.3239998094118768,1.1743908162330453e-06,0.3239998094118768,-1.05745e-05
0.3247939265918079,-7.998528759895364e-06,0.3247939265918079,-2.092133055641723e-05,0.3247939265918079,6.62637133311397e-07,0.3247939265918079,-8.45447633115615e-06
0.3255880437717389,-9.04303447226814e-06,0.3255880437717389,-2.0329232936749053e-05,0.3255880437717389,-2.875633539173365e-07,0.3255880437717389,9.22124111948588e-06
0.32638216095167,-9.45010786144764e-06,0.32638216095167,-2.0448115546289755e-05,0.32638216095167,1.7681385742984258e-06,0.32638216095167,1.6568481917780395e-05
0.3271762781316011,-8.008093395800493e-06,0.3271762781316011,-1.8591740252349048e-05,0.3271762781316011,1.17494e-06,0.3271762781316011,-1.9317561306749783e-06
0.3279703953115321,-7.375720201542174e-06,0.3279703953115321,-1.89464220004702e-05,0.3279703953115321,1.7672398992289128e-06,0.3279703953115321,-1.6397197581493903e-05
0.3287645124914632,-5.53903e-06,0.3287645124914632,-2.0368992183784597e-05,0.3287645124914632,9.382682306004336e-07,0.3287645124914632,-1.8789082589631788e-05
0.3295586296713942,-6.8027821429064906e-06,0.3295586296713942,-2.147387154023293e-05,0.3295586296713942,4.837884474352402e-07,0.3295586296713942,-2.151428272002023e-05
0.3303527468513254,-7.868873003228523e-06,0.3303527468513254,-2.36667e-05,0.3303527468513254,1.9448796472684965e-06,0.3303527468513254,-2.605501805997673e-05
0.3311468640312564,-9.56741e-06,0.3311468640312564,-2.3153300172282125e-05,0.3311468640312564,4.843499858964162e-07,0.3311468640312564,-3.1870628303029455e-05
0.3319409812111875,-8.068781610449656e-06,0.3319409812111875,-2.1889538860393017e-05,0.3319409812111875,-8.976817331175439e-07,0.3319409812111875,-3.5197372162524406e-05
0.3327350983911186,-5.53903e-06,0.3327350983911186,-2.331005446927164e-05,0.3327350983911186,-2.6159251710204594e-06,0.3327350983911186,-3.478594448693862e-05
0.3335292155710496,-6.88182e-06,0.3335292155710496,-2.443678471213346e-05,0.3335292155710496,-1.3725831624234708e-06,0.3335292155710496,-2.2878109534607557e-05
0.3343233327509807,-5.321347776931531e-06,0.3343233327509807,-2.3114732858629487e-05,0.3343233327509807,-6.020015278532927e-07,0.3343233327509807,-1.2331287936234617e-05
0.3351174499309118,-4.413785108432812e-06,0.3351174499309118,-2.1869114301031368e-05,0.3351174499309118,1.0961776774510205e-06,0.3351174499309118,-1.1937948128940598e-05
0.3359115671108428,-7.829620274088615e-06,0.3359115671108428,-2.2975615374007596e-05,0.3359115671108428,1.7475910977312353e-06,0.3359115671108428,-1.69528e-05
0.3367056842907739,-4.17689226226518e-06,0.3367056842907739,-2.11111331606106e-05,0.3367056842907739,7.405693482920035e-07,0.3367056842907739,-1.2332336562415485e-05
0.337499801470705,-3.524400950927672e-06,0.337499801470705,-2.0980943174241493e-05,0.337499801470705,1.1746539678531525e-06,0.337499801470705,-1.09102e-05
0.338293918650636,-5.53903e-06,0.338293918650636,-2.250172310408194e-05,0.338293918650636,1.2904119685515916e-07,0.338293918650636,-1.100916389028272e-05
0.3390880358305671,-3.308871929188756e-06,0.3390880358305671,-2.236275560046773e-05,0.3390880358305671,2.458955801827908e-07,0.3390880358305671,-1.0436584455222832e-05
0.3398821530104982,-3.009818754767524e-06,0.3398821530104982,-2.260054136560982e-05,0.3398821530104982,1.2140349798370988e-06,0.3398821530104982,-1.0316989959674195e-05
0.3406762701904293,-4.472332581388663e-06,0.3406762701904293,-2.23239e-05,0.3406762701904293,1.2345374186113371e-06,0.3406762701904293,-1.104829241410532e-05
0.3414703873703603,-4.86763e-06,0.3414703873703603,-2.275777106061642e-05,0.3414703873703603,1.8656281554934028e-06,0.3414703873703603,-1.0732705922253298e-05
0.3422645045502914,-3.2680232242217573e-06,0.3422645045502914,-2.3548325905461125e-05,0.3422645045502914,2.51774e-06,0.3422645045502914,-7.850344532822808e-06
0.3430586217302225,-6.684167144386295e-06,0.3430586217302225,-2.2048640390058195e-05,0.3430586217302225,2.51774e-06,0.3430586217302225,-3.64342206663622e-06
0.3438527389101535,-6.349063637517921e-06,0.3438527389101535,-2.1810063064327706e-05,0.3438527389101535,3.3469546684273355e-06,0.3438527389101535,-5.321029212150455e-06
0.3446468560900846,-7.118407051360899e-06,0.3446468560900846,-2.2837289554687493e-05,0.3446468560900846,3.86053e-06,0.3446468560900846,-7.751439421065084e-06
0.3454409732700157,-6.054636894147285e-06,0.3454409732700157,-2.264966866357408e-05,0.3454409732700157,4.36408e-06,0.3454409732700157,-3.923609825789394e-06
0.3462350904499467,-3.011792302167906e-06,0.3462350904499467,-2.168231565028696e-05,0.3462350904499467,3.4662582977243622e-06,0.3462350904499467,2.299200574262433e-06
0.3470292076298778,-4.472314995922592e-06,0.3470292076298778,-2.3173071411187825e-05,0.3470292076298778,3.3470494619607065e-06,0.3470292076298778,1.0965181509477822e-06
0.3478233248098089,-8.165304337654823e-06,0.3478233248098089,-2.127981466604625e-05,0.3478233248098089,2.6162173506192896e-06,0.3478233248098089,-9.97024602928605e-07
0.34861744198974,-7.592606190245545e-06,0.34861744198974,-2.058591744106249e-05,0.34861744198974,2.2514215911597773e-06,0.34861744198974,-1.3530916018171328e-06
0.349411559169671,-8.343182403102306e-06,0.349411559169671,-2.09812e-05,0.349411559169671,2.004187570857194e-06,0.349411559169671,-8.106409280830723e-06
0.3502056763496021,-1.0199114519751192e-05,0.3502056763496021,-2.08031149336444e-05,0.3502056763496021,6.515558477308633e-07,0.3502056763496021,-1.6437973144842075e-05
0.3509997935295332,-1.1916853784534134e-05,0.3509997935295332,-2.232336584220473e-05,0.3509997935295332,-1.6732841573289308e-07,0.3509997935295332,-2.970573032058004e-05
0.3517939107094642,-8.917394414918361e-06,0.3517939107094642,-2.214613500174144e-05,0.3517939107094642,-2.892231130110652e-06,0.3517939107094642,-3.926406452044261e-05
0.3525880278893953,-5.401120188236519e-06,0.3525880278893953,-2.1662308438999124e-05,0.3525880278893953,-1.492494227683921e-06,0.3525880278893953,-3.962424112941912e-05
0.3533821450693264,-6.88182e-06,0.3533821450693264,-2.191911648774548e-05,0.3533821450693264,-9.369684184124584e-07,0.3533821450693264,-3.325252581670848e-05
0.3541762622492574,-4.6730533390914775e-06,0.3541762622492574,-2.3686480637789093e-05,0.3541762622492574,-1.5404415696612308e-06,0.3541762622492574,-1.9293070146146785e-05
0.3549703794291886,-2.85344e-06,0.3549703794291886,-2.3726102492946516e-05,0.3549703794291886,-1.7768725355534546e-06,0.3549703794291886,-5.029835434695188e-06
0.3557644966091196,-4.926326917255794e-06,0.3557644966091196,-2.4219736178491505e-05,0.3557644966091196,-1.1951227011666297e-06,0.3557644966091196,2.319616770649481e-06
0.3565586137890507,-7.158206767640704e-06,0.3565586137890507,-2.36667e-05,0.3565586137890507,4.64006021779035e-07,0.3565586137890507,5.756094124232183e-06
0.3573527309689818,-8.974451788034358e-06,0.3573527309689818,-2.29953e-05,0.3573527309689818,-4.9258064140338295e-08,0.3573527309689818,5.993311642393129e-06
0.3581468481489128,-1.1087614070919614e-05,0.3581468481489128,-2.29953e-05,0.3581468481489128,6.31414662774019e-07,0.3581468481489128,3.349055596948492e-06
0.3589409653288439,-1.0871265544546695e-05,0.3589409653288439,-2.19883e-05,0.3589409653288439,1.2138744554533023e-06,0.3589409653288439,3.4543161386332564e-07
0.3597350825087749,-9.469256794501838e-06,0.3597350825087749,-2.3369446980207827e-05,0.3597350825087749,1.3333061021641894e-06,0.3597350825087749,-1.035544524000768e-06
0.360529199688706,-8.89601e-06,0.360529199688706,-2.2758305258194124e-05,0.360529199688706,-9.573869929096911e-07,0.360529199688706,-7.276013490324202e-06
0.3613233168686371,-7.4542202626466094e-06,0.3613233168686371,-2.08445941686144e-05,0.3613233168686371,-2.02423982490226e-06,0.3613233168686371,-1.2401241021803171e-05
0.3621174340485681,-7.691945690712234e-06,0.3621174340485681,-1.9481478495903665e-05,0.3621174340485681,-2.85344e-06,0.3621174340485681,-1.3536704487868668e-05
0.3629115512284993,-1.2164245447695028e-05,0.3629115512284993,-1.766358979804543e-05,0.3629115512284993,-1.095869844452076e-06,0.3629115512284993,-1.4800386338510112e-05
0.3637056684084303,-1.0120876750545313e-05,0.3637056684084303,-2.026883918851684e-05,0.3637056684084303,1.5696030942801222e-06,0.3637056684084303,-1.4780344903022896e-05
0.3644997855883614,-6.882437832197875e-06,0.3644997855883614,-2.03100773718192e-05,0.3644997855883614,1.846648918399492e-06,0.3644997855883614,-2.097872865280407e-05
0.3652939027682925,-5.638002407982574e-06,0.3652939027682925,-1.983613849315489e-05,0.3652939027682925,5.03548e-07,0.3652939027682925,-2.5383973931069585e-05
0.3660880199482235,-4.987413685000898e-06,0.3660880199482235,-2.03098e-05,0.3660880199482235,7.793528711348505e-07,0.3660880199482235,-2.4260087763750675e-05
0.3668821371281546,-5.102129918618776e-06,0.3668821371281546,-2.0704538088329496e-05,0.3668821371281546,2.8925235138096817e-06,0.3668821371281546,-2.0965148375712863e-05
0.3676762543080857,-8.538358615457395e-06,0.3676762543080857,-2.074393379356504e-05,0.3676762543080857,3.18914e-06,0.3676762543080857,-1.6086870880268306e-05
0.3684703714880167,-7.939126059806009e-06,0.3684703714880167,-1.85331494854442e-05,0.3684703714880167,3.86053e-06,0.3684703714880167,-1.3773282636324513e-05
0.3692644886679478,-6.694738752470654e-06,0.3692644886679478,-1.9361876774239088e-05,0.3692644886679478,3.288209951494513e-06,0.3692644886679478,-1.7011470663412863e-05
0.3700586058478789,-4.275337241867138e-06,0.3700586058478789,-1.940172772474432e-05,0.3700586058478789,2.833663189533216e-06,0.3700586058478789,-1.892744637906643e-05
0.3708527230278099,-7.275838062421368e-06,0.3708527230278099,-2.0152334025295524e-05,0.3708527230278099,2.0835347508137137e-06,0.3708527230278099,-2.0941015747558857e-05
0.371646840207741,-8.659445880693933e-06,0.371646840207741,-1.9253335012296008e-05,0.371646840207741,1.6480682386121316e-06,0.371646840207741,-2.0626353821040905e-05
0.3724409573876721,-8.954393904410001e-06,0.3724409573876721,-1.9875354240304776e-05,0.3724409573876721,3.111294021148309e-06,0.3724409573876721,-1.741012355815785e-05
0.3732350745676032,-9.133573956464586e-06,0.3732350745676032,-1.936215928257344e-05,0.3732350745676032,1.0768109000305291e-06,0.3732350745676032,-1.264894385896574e-05
0.3740291917475342,-5.934408356296097e-06,0.3740291917475342,-1.9401415531224504e-05,0.3740291917475342,2.004242724564912e-06,0.3740291917475342,-1.0989174880710303e-05
0.3748233089274653,-4.986218441845926e-06,0.3748233089274653,-1.926287366721172e-05,0.3748233089274653,2.51774e-06,0.3748233089274653,-1.1759482662768887e-05
0.3756174261073964,-3.761222977381036e-06,0.3756174261073964,-2.254045266743956e-05,0.3756174261073964,1.925137659127012e-06,0.3756174261073964,-1.4366507022618966e-05
0.3764115432873274,-4.571498355823463e-06,0.3764115432873274,-2.3962999928924185e-05,0.3764115432873274,1.4513787890071992e-06,0.3764115432873274,-1.71502806054964e-05
0.3772056604672585,-6.921539878331058e-06,0.3772056604672585,-2.2858186018157943e-05,0.3772056604672585,1.4709201216689415e-06,0.3772056604672585,-1.801884016222525e-05
0.3779997776471896,-5.53935035505014e-06,0.3779997776471896,-2.3330568532725745e-05,0.3779997776471896,1.8465001799108295e-06,0.3779997776471896,-1.796038053973249e-05
0.3787938948271206,-4.047758366014201e-06,0.3787938948271206,-2.2264206799029363e-05,0.3787938948271206,4.153020181595001e-07,0.3787938948271206,-1.194948669540889e-05
0.3795880120070517,-3.8006266914721273e-06,0.3795880120070517,-1.936093717206509e-05,0.3795880120070517,5.03548e-07,0.3795880120070517,-4.123864997855513e-06
0.3803821291869828,-4.86763e-06,0.3803821291869828,-2.188865246944588e-05,0.3803821291869828,8.39246e-07,0.3803821291869828,2.954673315224039e-06
0.3811762463669139,-6.110006162478057e-06,0.3811762463669139,-2.321238227669425e-05,0.3811762463669139,-5.411745169399184e-07,0.3811762463669139,-1.5858977442114508e-06
0.3819703635468449,-7.159753793090933e-06,0.3819703635468449,-2.297466036228813e-05,0.3819703635468449,2.256080922005101e-07,0.3819703635468449,-7.452753122522477e-06
0.382764480726776,-2.9323084119714883e-06,0.382764480726776,-2.410141344910425e-05,0.382764480726776,1.017205055554478e-06,0.382764480726776,-7.810043937400332e-06
0.3835585979067071,-5.400552784929002e-06,0.3835585979067071,-2.29953e-05,0.3835585979067071,1.1353753844729127e-06,0.3835585979067071,-9.132797871889953e-06
0.3843527150866381,-7.661768445789707e-06,0.3843527150866381,-2.426759145368024e-05,0.3843527150866381,3.406230424588304e-06,0.3843527150866381,1.2305134974831687e-05
0.3851468322665692,-8.579438979918034e-06,0.3851468322665692,-2.4782560443174844e-05,0.3851468322665692,1.373237512062262e-06,0.3851468322665692,2.519220339340123e-05
0.3859409494465003,-9.805821771061618e-06,0.3859409494465003,-2.1297115568594102e-05,0.3859409494465003,1.885251523398549e-06,0.3859409494465003,5.0575820655364e-06
0.3867350666264313,-6.942090103436043e-06,0.3867350666264313,-2.0467106742734205e-05,0.3867350666264313,2.2612344925042622e-06,0.3867350666264313,-1.5663262076461656e-05
0.3875291838063624,-6.684111011561365e-06,0.3875291838063624,-2.2432538803298176e-05,0.3875291838063624,2.6557310115613645e-06,0.3875291838063624,-2.277773798411736e-05
0.3883233009862935,-7.316065999152485e-06,0.3883233009862935,-2.1732251053656045e-05,0.3883233009862935,4.413352999576243e-06,0.3883233009862935,-2.7004473502330665e-05
0.3891174181662246,-6.803010874845531e-06,0.3891174181662246,-2.116942785103303e-05,0.3891174181662246,3.5642345625772347e-06,0.3891174181662246,-3.2415363499382125e-05
0.3899115353461556,-7.158270255034609e-06,0.3899115353461556,-2.1583628962876413e-05,0.3899115353461556,3.18914e-06,0.3899115353461556,-3.188145076510383e-05
0.3907056525260867,-6.88182e-06,0.3907056525260867,-2.1614725614823432e-05,0.3907056525260867,1.9258165057554487e-06,0.3907056525260867,-2.90379e-05
0.3914997697060178,-6.88182e-06,0.3914997697060178,-2.1652227580463825e-05,0.3914997697060178,-1.8451787015766417e-06,0.3914997697060178,-3.0547853422491554e-05
0.3922938868859488,-5.2635743406811004e-06,0.3922938868859488,-2.1928537616590414e-05,0.3922938868859488,-2.0443136446751094e-06,0.3922938868859488,-2.549797095659036e-05
0.3930880040658799,-7.70917156871993e-06,0.3930880040658799,-2.1020014508346424e-05,0.3930880040658799,-6.414397911995111e-07,0.3930880040658799,-1.64012295491105e-05
0.393882121245811,-8.856937952217735e-06,0.393882121245811,-2.263933506545124e-05,0.393882121245811,-2.2601840955645297e-06,0.393882121245811,-2.085679702997412e-05
0.394676238425742,-7.73207912836791e-06,0.394676238425742,-2.463426588553536e-05,0.394676238425742,-2.577360301455786e-06,0.394676238425742,-2.721813758835371e-05
0.3954703556056732,-7.90815710320367e-06,0.3954703556056732,-2.2602844741743188e-05,0.3954703556056732,-6.425311732339048e-07,0.3954703556056732,-2.592038805097674e-05
0.3962644727856042,-6.605800580588616e-06,0.3962644727856042,-2.033937443819728e-05,0.3962644727856042,-8.18996885680455e-07,0.3962644727856042,-1.8198622322354467e-05
0.3970585899655353,-5.233011825278199e-06,0.3970585899655353,-2.0359304238044577e-05,0.3970585899655353,-2.1622517235057963e-06,0.3970585899655353,-9.548321834444153e-06
0.3978527071454664,-5.420421158565726e-06,0.3978527071454664,-1.7980709142712394e-05,0.3978527071454664,-1.8797575771298785e-07,0.3978527071454664,-4.19623e-06
0.3986468243253974,-4.650200593625642e-06,0.3986468243253974,-1.797949692513238e-05,0.3986468243253974,1.17494e-06,0.3986468243253974,-9.880394787655216e-06
0.3994409415053285,-6.88182e-06,0.3994409415053285,-2.03098e-05,0.3994409415053285,5.03548e-07,0.3994409415053285,-1.6023500114742183e-05
0.4002350586852595,-7.138319786784613e-06,0.4002350586852595,-2.03098e-05,0.4002350586852595,-9.449281345931441e-09,0.4002350586852595,-1.6519000639646158e-05
0.4010291758651906,-7.908832137059338e-06,0.4010291758651906,-1.940143607728515e-05,0.4010291758651906,6.415186164178408e-07,0.4010291758651906,-1.2331922124847618e-05
0.4018232930451217,-5.696873427442889e-06,0.4018232930451217,-1.955872682787446e-05,0.4018232930451217,4.097661118003048e-06,0.4018232930451217,-1.8394876133509902e-05
0.4026174102250527,-5.163919704409077e-06,0.4026174102250527,-2.086195269788223e-05,0.4026174102250527,4.610750591181846e-06,0.4026174102250527,-2.109943088677277e-05
0.4034115274049838,-6.67447370920351e-06,0.4034115274049838,-2.1178568398555168e-05,0.4034115274049838,3.584072396628229e-06,0.4034115274049838,-1.377353946584092e-05
0.4042056445849149,-4.611441491419842e-06,0.4042056445849149,-2.129638877516742e-05,0.4042056445849149,4.314755712735552e-06,0.4042056445849149,-1.008126006594874e-05
0.404999761764846,-2.350319053332693e-06,0.404999761764846,-2.0981508190910267e-05,0.404999761764846,3.5251732426661557e-06,0.404999761764846,-5.540746203106091e-06
0.4057938789447771,-4.273677616732438e-06,0.4057938789447771,-1.961850515698781e-05,0.4057938789447771,3.5441941158130324e-06,0.4057938789447771,4.092863145081304e-06
0.4065879961247081,-7.235550291099691e-06,0.4065879961247081,-2.0387408470632216e-05,0.4065879961247081,4.136303759417294e-06,0.4065879961247081,8.56031e-06
0.4073821133046392,-8.482177370462928e-06,0.4073821133046392,-2.1849953634619213e-05,0.4073821133046392,5.164263685231464e-06,0.4073821133046392,8.872839354421312e-06
0.4081762304845703,-8.164983977833163e-06,0.4081762304845703,-2.24029579756548e-05,0.4081762304845703,4.591556022166837e-06,0.4081762304845703,1.290234386699898e-05
0.4089703476645013,-7.958417075143737e-06,0.4089703476645013,-2.407984923866183e-05,0.4089703476645013,3.86053e-06,0.4089703476645013,7.950990356757709e-06
0.4097644648444324,-8.402596058901459e-06,0.4097644648444324,-2.4792842317849827e-05,0.4097644648444324,2.6168690883521857e-06,0.4097644648444324,2.050134018440725e-05
0.4105585820243635,-5.361680896795368e-06,0.4105585820243635,-2.1575429124479755e-05,0.4105585820243635,1.84634e-06,0.4105585820243635,2.937404613264766e-05
0.4113526992042945,-3.367058328321537e-06,0.4113526992042945,-2.0467235155613426e-05,0.4113526992042945,1.727725425552012e-06,0.4113526992042945,-9.07387471162866e-06
0.4121468163842256,-1.6289048606119276e-06,0.4121468163842256,-2.149453818953581e-05,0.4121468163842256,1.3732833758986848e-06,0.4121468163842256,-3.448547832734313e-05
0.4129409335641567,-5.3394394904865696e-06,0.4129409335641567,-2.044803924043301e-05,0.4129409335641567,-5.32714559351073e-07,0.4129409335641567,-3.480827986059399e-05
0.4137350507440878,-7.55322e-06,0.4137350507440878,-2.0250325307881057e-05,0.4137350507440878,-1.391833458536387e-06,0.4137350507440878,-2.7815759339264705e-05
0.4145291679240188,-3.6045502037215434e-06,0.4145291679240188,-2.06455e-05,0.4145291679240188,-1.84634e-06,0.4145291679240188,-2.6628213374589597e-05
0.4153232851039499,-2.300594117579276e-06,0.4153232851039499,-2.094135828729996e-05,0.4153232851039499,-1.540278529394819e-06,0.4153232851039499,-2.9709909999423847e-05
0.416117402283881,-4.038567059725988e-06,0.416117402283881,-2.2264324957937036e-05,0.416117402283881,-2.715483899883861e-06,0.416117402283881,-4.24087672276755e-05
0.416911519463812,-7.888853072730863e-06,0.416911519463812,-2.2343615445083408e-05,0.416911519463812,-1.6291605530902528e-06,0.416911519463812,-4.935757089455684e-05
0.4177056366437431,-8.205513047816267e-06,0.4177056366437431,-2.1268861092998497e-05,0.4177056366437431,-2.171701269153397e-07,0.4177056366437431,-3.848997950135409e-05
0.4184997538236742,-6.881642657955878e-06,0.4184997538236742,-1.9974418463940503e-05,0.4184997538236742,-1.510019307071778e-06,0.4184997538236742,-2.165729953775545e-05
0.4192938710036052,-8.698013423270056e-06,0.4192938710036052,-1.910502314502724e-05,0.4192938710036052,-1.097907588295624e-07,0.4192938710036052,-1.356787412931894e-05
0.4200879881835363,-9.765222960577844e-06,0.4200879881835363,-1.861190301885713e-05,0.4200879881835363,6.414283252403654e-07,0.4200879881835363,-1.2372875413220329e-05
0.4208821053634674,-9.528349418245112e-06,0.4208821053634674,-1.967703948672851e-05,0.4208821053634674,8.783058836211661e-07,0.4208821053634674,-8.622587091271987e-06
0.4216762225433985,-9.507778257122046e-06,0.4216762225433985,-2.202781208762409e-05,0.4216762225433985,2.0031447713661383e-06,0.4216762225433985,-4.613650423805406e-06
0.4224703397233295,-9.972615656040012e-06,0.4224703397233295,-2.254080471121721e-05,0.4224703397233295,1.313963911315804e-06,0.4224703397233295,2.671495954535218e-06
0.4232644569032606,-7.395517500323624e-06,0.4232644569032606,-2.200821824043099e-05,0.4232644569032606,1.4114937495145624e-06,0.4232644569032606,1.242749262689448e-05
0.4240585740831917,-8.46131187719656e-06,0.4240585740831917,-2.0843596462586702e-05,0.4240585740831917,-2.9251451133784668e-08,0.4240585740831917,2.462340796985171e-05
0.4248526912631227,-8.93632831124892e-06,0.4248526912631227,-2.1296026317909224e-05,0.4248526912631227,-1.51064e-06,0.4248526912631227,1.721370170997545e-05
0.4256468084430538,-5.7564643951639775e-06,0.4256468084430538,-2.2580563958252748e-05,0.4256468084430538,-3.66211603264373e-07,0.4256468084430538,-1.2283832265053548e-06
0.4264409256229849,-6.901258562658129e-06,0.4264409256229849,-2.1415625253146212e-05,0.4264409256229849,8.586842152307357e-07,0.4264409256229849,-1.398457125316258e-05
0.4272350428029159,-7.21752e-06,0.4272350428029159,-2.3586058917710795e-05,0.4272350428029159,1.17494e-06,0.4272350428029159,-2.1335753381449742e-05
0.428029159982847,-5.174235573541311e-06,0.428029159982847,-2.2955905160978464e-05,0.428029159982847,2.813554663877977e-06,0.428029159982847,-1.5098122532472396e-05
0.4288232771627781,-4.2555013380785874e-06,0.4288232771627781,-2.106089367867457e-05,0.4288232771627781,5.933991338078588e-06,0.4288232771627781,-6.763277323842826e-06
0.4296173943427092,-3.3468258721581484e-06,0.4296173943427092,-2.09812e-05,0.4296173943427092,4.729037633776488e-06,0.4296173943427092,-9.321332677322643e-06
0.4304115115226402,-3.653060852447273e-07,0.4304115115226402,-1.987522497282797e-05,0.4304115115226402,3.05089767344155e-06,0.4304115115226402,-1.73080920812986e-05
0.4312056287025713,-3.682322604255933e-06,0.4312056287025713,-2.0268736458213464e-05,0.4312056287025713,2.5774230117431594e-06,0.4312056287025713,-2.248145615999092e-05
0.4319997458825024,-4.532113062755245e-06,0.4319997458825024,-2.1987806894543675e-05,0.4319997458825024,5.04097183903204e-07,0.4319997458825024,-1.947278825717474e-05
0.4327938630624334,-6.524494799530552e-06,0.4327938630624334,-2.241282005430169e-05,0.4327938630624334,1.6483319572425995e-06,0.4327938630624334,-8.840266379560195e-06
0.4335879802423645,-7.346406879478119e-06,0.4335879802423645,-2.2688690655211543e-05,0.4335879802423645,2.0441645863187465e-06,0.4335879802423645,-1.0628437098116816e-05
0.4343820974222956,-5.382810605035362e-06,0.4343820974222956,-2.32618422879792e-05,0.4343820974222956,1.963504546223479e-06,0.4343820974222956,-1.9662034641078525e-05
0.4351762146022266,-3.644104927178156e-06,0.4351762146022266,-2.157356253089424e-05,0.4351762146022266,3.129502536410922e-06,0.4351762146022266,-2.532307521846553e-05
0.4359703317821577,-6.642159755510637e-06,0.4359703317821577,-2.1414999149404114e-05,0.4359703317821577,2.3594940327690127e-06,0.4359703317821577,-2.1201604467669304e-05
0.4367644489620888,-8.995173412618783e-06,0.4367644489620888,-2.2205615436897423e-05,0.4367644489620888,2.360048941745854e-06,0.4367644489620888,-1.534416133325197e-05
0.4375585661420199,-7.276935836630486e-06,0.4375585661420199,-2.16526e-05,0.4375585661420199,2.162234524464691e-06,0.4375585661420199,-1.1720238328747162e-05
0.438352683321951,-4.670734161901516e-06,0.438352683321951,-2.23239e-05,0.438352683321951,2.083592080950758e-06,0.438352683321951,-8.807651141663827e-06
0.439146800501882,-5.1041367891690215e-06,0.439146800501882,-2.23239e-05,0.439146800501882,7.019302965125392e-07,0.439146800501882,-9.388080239500136e-06
0.4399409176818131,-5.558462250769523e-06,0.4399409176818131,-2.2610254640368774e-05,0.4399409176818131,-1.289835143736622e-07,0.4399409176818131,-1.45446015110668e-05
0.4407350348617442,-6.644167873954057e-06,0.4407350348617442,-2.3458511481817425e-05,0.4407350348617442,-5.223779144655585e-07,0.4407350348617442,-1.154393900278918e-05
0.4415291520416752,-6.566071757981176e-06,0.4415291520416752,-2.3311300344564287e-05,0.4415291520416752,-1.1948945796812825e-06,0.4415291520416752,-1.0514650023222964e-05
0.4423232692216063,-7.908811938770838e-06,0.4423232692216063,-2.206799206064552e-05,0.4423232692216063,8.985105581070992e-07,0.4423232692216063,-1.511639685210239e-05
0.4431173864015373,-8.974864989264136e-06,0.4431173864015373,-2.062678617537489e-05,0.4431173864015373,1.17494e-06,0.4431173864015373,-1.3871792462424476e-05
0.4439115035814684,-8.22461e-06,0.4439115035814684,-2.02703485637725e-05,0.4439115035814684,-8.984471754177958e-07,0.4439115035814684,-1.025864617965806e-05
0.4447056207613995,-6.536610185792729e-06,0.4447056207613995,-1.932324204392365e-05,0.4447056207613995,-9.77679599489129e-07,0.4447056207613995,-8.264418811617516e-06
0.4454997379413306,-7.216670474401338e-06,0.4454997379413306,-2.064465247499684e-05,0.4454997379413306,-1.5100736540997537e-06,0.4454997379413306,-7.55322e-06
0.4462938551212617,-8.56031e-06,0.4462938551212617,-2.1474817988039403e-05,0.4462938551212617,-1.7086595087847537e-06,0.4462938551212617,-1.4223863438506727e-05
0.4470879723011927,-8.215639905262356e-06,0.4470879723011927,-2.301468670811252e-05,0.4470879723011927,-2.0621187226701658e-06,0.4470879723011927,-2.413421318270366e-05
0.4478820894811238,-6.249469115727432e-06,0.4478820894811238,-2.3133661774926288e-05,0.4478820894811238,-2.736292652817706e-06,0.4478820894811238,-2.9553103537090275e-05
0.4486762066610549,-5.994006368600324e-06,0.4486762066610549,-2.1198359176253077e-05,0.4486762066610549,-6.040909080058531e-07,0.4486762066610549,-2.6158045474401293e-05
0.4494703238409859,-5.716473026138576e-06,0.4494703238409859,-1.9984426037918063e-05,0.4494703238409859,1.2133370194961729e-06,0.4494703238409859,-1.812283038295762e-05
0.450264441020917,-7.789737076728085e-06,0.450264441020917,-2.03098e-05,0.450264441020917,1.866682175448061e-06,0.450264441020917,-9.292726996048136e-06
0.4510585582008481,-7.612653035500773e-06,0.4510585582008481,-2.054644151543214e-05,0.4510585582008481,1.1551291455387336e-06,0.4510585582008481,-3.999207869696764e-06
0.4518526753807791,-5.87472e-06,0.4518526753807791,-2.088160650478364e-05,0.4518526753807791,2.9518764530217845e-06,0.4518526753807791,-6.366905798971703e-06
0.4526467925607102,-7.335767661570782e-06,0.4526467925607102,-2.2165830917157584e-05,0.4526467925607102,3.4256318007209043e-06,0.4526467925607102,-1.2073633630995476e-05
0.4534409097406413,-8.22461e-06,0.4534409097406413,-2.135645500038487e-05,0.4534409097406413,4.315512258423119e-06,0.4534409097406413,-1.4996881289892256e-05
0.4542350269205724,-8.22461e-06,0.4542350269205724,-2.1474129695006675e-05,0.4542350269205724,3.1401222841523166e-06,0.4542350269205724,-1.4919792384239048e-05
0.4550291441005034,-6.428182701171658e-06,0.4550291441005034,-2.26596e-05,0.4550291441005034,3.386929501768235e-06,0.4550291441005034,-9.331525402343317e-06
0.4558232612804345,-4.6504497933126925e-06,0.4558232612804345,-2.2068002312392925e-05,0.4558232612804345,1.84634e-06,0.4558232612804345,-9.478827806592196e-06
0.4566173784603656,-7.277188581136503e-06,0.4566173784603656,-2.179061762840989e-05,0.4566173784603656,1.84634e-06,0.4566173784603656,-1.8355779098207013e-05
0.4574114956402966,-7.6914696742125e-06,0.4574114956402966,-2.19883e-05,0.4574114956402966,2.18204e-06,0.4574114956402966,-2.1840032317816244e-05
0.4582056128202277,-6.062481536288905e-06,0.4582056128202277,-2.214582690263664e-05,0.4582056128202277,1.17494e-06,0.4582056128202277,-1.5968410591110404e-05
0.4589997300001588,-4.868116254649645e-06,0.4589997300001588,-2.249171265323056e-05,0.4589997300001588,1.17494e-06,0.4589997300001588,-4.534847551073822e-06
0.4597938471800898,-5.459334231007816e-06,0.4597938471800898,-2.103035445740735e-05,0.4597938471800898,-1.0155658074449248e-06,0.4597938471800898,-1.2385908688807546e-05
0.4605879643600209,-6.447201973826906e-06,0.4605879643600209,-1.9360844714791995e-05,0.4605879643600209,-6.834612421896394e-07,0.4605879643600209,-2.38583820948567e-05
0.461382081539952,-5.499986617286257e-06,0.461382081539952,-2.1691072837339597e-05,0.461382081539952,2.51774e-06,0.461382081539952,-3.270724706170994e-05
0.4621761987198831,-6.721602799289615e-06,0.4621761987198831,-2.173148898719833e-05,0.4621761987198831,2.51774e-06,0.4621761987198831,-3.342419343006751e-05
0.4629703158998141,-8.89601e-06,0.4629703158998141,-1.92640090498574e-05,0.4629703158998141,2.51774e-06,0.4629703158998141,-2.244861584785993e-05
0.4637644330797452,-7.751607822119977e-06,0.4637644330797452,-2.042808163726581e-05,0.4637644330797452,1.7077252192622394e-06,0.4637644330797452,-1.3951863649180416e-05
0.4645585502596763,-4.631014117496634e-06,0.4645585502596763,-2.027129083361541e-05,0.4645585502596763,2.191948470781363e-06,0.4645585502596763,-1.29244e-05
0.4653526674396073,-5.53903e-06,0.4653526674396073,-1.995318812698409e-05,0.4653526674396073,1.0866257989364363e-06,0.4653526674396073,-7.42710677622401e-06
0.4661467846195384,-6.446903857114268e-06,0.4661467846195384,-2.162278314588956e-05,0.4661467846195384,-2.860905763321457e-07,0.4661467846195384,-5.775510334864386e-06
0.4669409017994695,-5.509897954574465e-06,0.4669409017994695,-2.0586360507062163e-05,0.4669409017994695,-1.0958519841558966e-07,0.4669409017994695,-5.716580681808512e-06
0.4677350189794005,-5.933121501409637e-06,0.4677350189794005,-2.0190809523640736e-05,0.4677350189794005,5.827763447493384e-07,0.4677350189794005,-7.413539459482423e-06
0.4685291361593316,-7.23749464082559e-06,0.4685291361593316,-2.09812e-05,0.4685291361593316,-1.648528038761614e-06,0.4685291361593316,-8.56031e-06
0.4693232533392627,-7.987712026660563e-06,0.4693232533392627,-2.157287556150192e-05,0.4693232533392627,-1.84634e-06,0.4693232533392627,-5.874611269558388e-06
0.4701173705191938,-8.935448960659445e-06,0.4701173705191938,-2.29953e-05,0.4701173705191938,-1.550078960659445e-06,0.4701173705191938,-1.7472725891291257e-06
0.4709114876991248,-6.48693905119911e-06,0.4709114876991248,-2.29953e-05,0.4709114876991248,8.877107061897663e-08,0.4709114876991248,-3.090157913747664e-06
0.4717056048790559,-5.90410981892075e-06,0.4717056048790559,-2.22828278826752e-05,0.4717056048790559,2.043579818920749e-06,0.4717056048790559,-1.2802917645969744e-05
0.472499722058987,-6.210520112444269e-06,0.472499722058987,-2.2324259556061883e-05,0.472499722058987,3.0209896626671942e-06,0.472499722058987,-2.5005896011650325e-05
0.473293839238918,-5.263711931985435e-06,0.473293839238918,-2.0132028261069784e-05,0.473293839238918,3.425811729273981e-06,0.473293839238918,-1.8558858572717656e-05
0.4740879564188491,-3.782659462669279e-06,0.4740879564188491,-2.141377640346137e-05,0.4740879564188491,3.998388214640124e-06,0.4740879564188491,-9.312763393120704e-06
0.4748820735987802,-3.89956764970005e-06,0.4748820735987802,-2.338995590408674e-05,0.4748820735987802,3.704380564072893e-06,0.4748820735987802,-5.492108109591025e-06
0.4756761907787112,-4.19623e-06,0.4756761907787112,-2.437760335464109e-05,0.4756761907787112,2.51774e-06,0.4756761907787112,1.0523022962138742e-05
0.4764703079586423,-5.064240611907164e-06,0.4764703079586423,-2.3806263339373865e-05,0.4764703079586423,2.834266258728557e-06,0.4764703079586423,1.215713129364279e-05
0.4772644251385734,-5.992962550490658e-06,0.4772644251385734,-2.2581367840809637e-05,0.4772644251385734,1.639075816503114e-06,0.4772644251385734,2.9553697046613823e-06
0.4780585423185045,-6.5362086627117724e-06,0.4780585423185045,-1.993560621352724e-05,0.4780585423185045,8.788909948602443e-07,0.4780585423185045,-8.499558279934236e-06
0.4788526594984356,-9.526944097105272e-06,0.4788526594984356,-2.072419189523087e-05,0.4788526594984356,6.943641877172024e-08,0.4788526594984356,-1.5983424365318384e-05
0.4796467766783666,-1.1108655217826375e-05,0.4796467766783666,-2.046791317561588e-05,0.4796467766783666,6.862233446307946e-08,0.4796467766783666,-2.054627239108681e-05
0.4804408938582977,-8.463232425346068e-06,0.4804408938582977,-2.035913767196606e-05,0.4804408938582977,4.647169123021726e-07,0.4804408938582977,-1.4788910391642706e-05
0.4812350110382288,-6.36888907496394e-06,0.4812350110382288,-2.0891940575822777e-05,0.4812350110382288,-1.1937039743224548e-06,0.4812350110382288,-4.06071519174537e-06
0.4820291282181598,-5.40115382569398e-06,0.4820291282181598,-2.0290146573200785e-05,0.4820291282181598,-9.581444057914742e-07,0.4820291282181598,-4.511943917752199e-06
0.4828232453980909,-5.598276690311466e-06,0.4828232453980909,-1.934256734588632e-05,0.4828232453980909,4.935261900846899e-08,0.4828232453980909,-1.2736477674937496e-06
0.483617362578022,-7.3559965316343326e-06,0.483617362578022,-2.09998367768978e-05,0.483617362578022,-1.3923068589792576e-06,0.483617362578022,-1.5009899359693895e-06
0.484411479757953,-9.883177825648665e-06,0.484411479757953,-2.1672341127659247e-05,0.484411479757953,-9.08380276792575e-07,0.484411479757953,-7.009815651297331e-06
0.4852055969378841,-1.0090881672898543e-05,0.4852055969378841,-2.1296327136985355e-05,0.4852055969378841,-3.461774678214722e-07,0.4852055969378841,-1.6751424270608022e-05
0.4859997141178152,-8.896524863999152e-06,0.4859997141178152,-2.232353022599101e-05,0.4859997141178152,2.516710275682581e-06,0.4859997141178152,-3.80933562304139e-05
0.4867938312977463,-7.415570957002423e-06,0.4867938312977463,-2.2639766795169845e-05,0.4867938312977463,2.9029534767167468e-06,0.4867938312977463,-4.973038437253205e-05
0.4875879484776773,-7.001810073494416e-06,0.4875879484776773,-2.23239e-05,0.4875879484776773,6.235345905551783e-07,0.4875879484776773,-4.405502902352885e-05
0.4883820656576084,-4.53193e-06,0.4883820656576084,-2.1929313148453707e-05,0.4883820656576084,-1.0930147378120537e-07,0.4883820656576084,-2.516576687625643e-05
0.4891761828375395,-5.36004896069964e-06,0.4891761828375395,-2.0388796456007705e-05,0.4891761828375395,-2.163780180100241e-07,0.4891761828375395,-5.31463506142662e-06
0.4899703000174705,-6.387851149924597e-06,0.4899703000174705,-2.1414958057282737e-05,0.4899703000174705,-5.03548e-07,0.4899703000174705,3.5439970144410944e-06
0.4907644171974016,-6.181215732301885e-06,0.4907644171974016,-2.23239e-05,0.4907644171974016,5.03548e-07,0.4907644171974016,-2.846756452163393e-07
0.4915585343773327,-4.275543630360562e-06,0.4915585343773327,-2.23239e-05,0.4915585343773327,1.1352836573465608e-06,0.4915585343773327,-6.328008697825559e-06
0.4923526515572637,-4.630332054939575e-06,0.4923526515572637,-2.358801324128429e-05,0.4923526515572637,2.2413644862651065e-06,0.4923526515572637,-6.072946842010846e-06
0.4931467687371948,-6.446880925059354e-06,0.4931467687371948,-2.2047885070312607e-05,0.4931467687371948,2.754200925059354e-06,0.4931467687371948,-1.198220568401176e-06
0.4939408859171259,-6.132780987833339e-06,0.4939408859171259,-2.161296945874192e-05,0.4939408859171259,3.86053e-06,0.4939408859171259,5.8164908854229456e-06
0.494735003097057,-5.380549483613874e-06,0.494735003097057,-2.23239e-05,0.494735003097057,3.732300129096532e-06,0.494735003097057,-5.180016592913532e-07
0.495529120276988,-7.51322025050812e-06,0.495529120276988,-2.074430798849757e-05,0.495529120276988,2.51774e-06,0.495529120276988,-1.225087634665308e-05
0.4963232374569191,-7.711183561183033e-06,0.4963232374569191,-2.0901455054952885e-05,0.4963232374569191,2.399254530953825e-06,0.4963232374569191,-1.855232734523088e-05
0.4971173546368502,-7.1780695733131375e-06,0.4971173546368502,-2.0902893343406893e-05,0.4971173546368502,9.575965749591257e-07,0.4971173546368502,-2.6945553644640625e-05
0.4979114718167812,-1.0495387025119085e-05,0.4979114718167812,-1.999384626417444e-05,0.4979114718167812,5.627052524117543e-07,0.4979114718167812,-3.531713206698422e-05
0.4987055889967123,-9.212846770764852e-06,0.4987055889967123,-1.885060784011257e-05,0.4987055889967123,2.625775058050532e-06,0.4987055889967123,-3.4291632452536334e-05
0.4994997061766434,-6.21126666524298e-06,0.4994997061766434,-1.8966429846816145e-05,0.4994997061766434,5.87334417528538e-06,0.4994997061766434,-3.105294666524298e-05
0.5002938233565745,-5.935157795753434e-06,0.5002938233565745,-2.03098e-05,0.5002938233565745,5.3820914525298365e-06,0.5002938233565745,-3.290683656776403e-05
0.5010879405365055,-5.676872642364587e-06,0.5010879405365055,-1.975459697231098e-05,0.5010879405365055,4.53193e-06,0.5010879405365055,-2.7503752022197052e-05
0.5018820577164366,-5.53903e-06,0.5018820577164366,-2.2639129617085e-05,0.5018820577164366,2.85344e-06,0.5018820577164366,-2.059093816327438e-05
0.5026761748963677,-5.53903e-06,0.5026761748963677,-2.291631379726677e-05,0.5026761748963677,2.025338201433513e-06,0.5026761748963677,-1.6796098201433513e-05
0.5034702920762988,-7.90806557318938e-06,0.5034702920762988,-2.123959514285196e-05,0.5034702920762988,-8.775459601402179e-07,0.5034702920762988,-8.513003972409378e-06
0.5042644092562298,-7.55322e-06,0.5042644092562298,-2.0457604716431773e-05,0.5042644092562298,6.860060279566186e-08,0.5042644092562298,2.150955043762289e-05
0.5050585264361609,-7.395287070301934e-06,0.5050585264361609,-2.2095484035532387e-05,0.5050585264361609,1.7868379326859912e-06,0.5050585264361609,2.1753245184991816e-05
0.505852643616092,-6.88182e-06,0.505852643616092,-2.1180510266797027e-05,0.505852643616092,2.202304116631902e-06,0.505852643616092,3.5885569128687647e-06
0.506646760796023,-7.000044729515962e-06,0.506646760796023,-1.9381766860838312e-05,0.506646760796023,2.481251698102261e-07,0.506646760796023,-9.364532276360116e-06
0.507440877975954,-6.804203919717625e-06,0.507440877975954,-2.050718898664531e-05,0.507440877975954,-8.004378442546152e-07,0.507440877975954,-2.1252852523851887e-05
0.5082349951558852,-6.051930402810636e-06,0.5082349951558852,-2.15335787045498e-05,0.5082349951558852,-6.807547503773551e-07,0.5082349951558852,-2.580916520745305e-05
0.5090291123358163,-7.375365517453932e-06,0.5090291123358163,-2.19883e-05,0.5090291123358163,-2.0831082761808974e-06,0.5090291123358163,-2.2363964949998827e-05
0.5098232295157473,-4.907144930940147e-06,0.5098232295157473,-2.0509187995804152e-05,0.5098232295157473,-1.2341770138119706e-06,0.5098232295157473,-2.3686422082871824e-05
0.5106173466956784,-3.52483e-06,0.5106173466956784,-1.990508090519383e-05,0.5106173466956784,-1.51064e-06,0.5106173466956784,-2.445646847910176e-05
0.5114114638756094,-4.85763818839829e-06,0.5114114638756094,-2.170189159586243e-05,0.5114114638756094,-7.209521914119413e-07,0.5114114638756094,-1.5670323624338266e-05
0.5122055810555405,-6.88182e-06,0.5122055810555405,-2.169373375091675e-05,0.5122055810555405,8.885485301004092e-07,0.5122055810555405,-6.84189182458214e-07
0.5129996982354716,-5.539899541611682e-06,0.5129996982354716,-2.031019037515288e-05,0.5129996982354716,8.39354696101168e-07,0.5129996982354716,5.202895225956342e-06
0.5137938154154027,-3.486252308176576e-06,0.5137938154154027,-2.066531265876954e-05,0.5137938154154027,1.17494e-06,0.5137938154154027,8.225319493822566e-07
0.5145879325953338,-7.115285034313706e-06,0.5145879325953338,-2.16526e-05,0.5145879325953338,2.733399956318692e-06,0.5145879325953338,-8.751568037429405e-06
0.5153820497752648,-8.70090890906619e-06,0.5153820497752648,-2.2047166308545746e-05,0.5153820497752648,2.2836182259351244e-06,0.5153820497752648,-1.5094681802635654e-05
0.5161761669551959,-7.079505893927847e-06,0.5161761669551959,-2.16526e-05,0.5161761669551959,3.6553389392784725e-07,0.5161761669551959,-1.6833456424288612e-05
0.5169702841351269,-8.06632970850237e-06,0.5169702841351269,-2.2520010420491186e-05,0.5169702841351269,6.618273485110872e-07,0.5169702841351269,-1.62814e-05
0.5177644013150581,-6.566577528225662e-06,0.5177644013150581,-2.360757972742778e-05,0.5177644013150581,5.03548e-07,0.5177644013150581,-1.778182240972102e-05
0.5185585184949891,-7.118321222912498e-06,0.5185585184949891,-2.404084764673768e-05,0.5185585184949891,-1.2816943006498838e-07,0.5185585184949891,-2.0506620884677347e-05
0.5193526356749202,-9.014670438557615e-06,0.5193526356749202,-2.386604108588784e-05,0.5193526356749202,1.5887406349852566e-06,0.5193526356749202,-2.353793123002262e-05
0.5201467528548512,-6.7636010034977135e-06,0.5201467528548512,-2.1297464435050564e-05,0.5201467528548512,2.716264013990856e-06,0.5201467528548512,-2.2522459229658565e-05
0.5209408700347823,-7.514423136875624e-06,0.5209408700347823,-2.03098e-05,0.5209408700347823,-4.647513102306877e-07,0.5209408700347823,-1.9089317252815936e-05
0.5217349872147133,-6.112475098845934e-06,0.5217349872147133,-2.08621684315193e-05,0.5217349872147133,1.4500836266338898e-06,0.5217349872147133,-1.2276172094999046e-05
0.5225291043946444,-7.197499593485456e-06,0.5225291043946444,-2.16526e-05,0.5225291043946444,1.13606467610656e-06,0.5225291043946444,-8.027895819726041e-06
0.5233232215745756,-5.855034005805996e-06,0.5233232215745756,-2.16526e-05,0.5233232215745756,-4.4431688334023457e-07,0.5233232215745756,-7.454443407992178e-06
0.5241173387545066,-4.19623e-06,0.5241173387545066,-2.1721575420050497e-05,0.5241173387545066,4.2462456722471e-07,0.5241173387545066,-9.44902432185727e-06
0.5249114559344377,-4.877179373301025e-06,0.5249114559344377,-2.292615506237147e-05,0.5249114559344377,1.767192627036904e-06,0.5249114559344377,-1.2835225886764908e-05
0.5257055731143687,-7.750411017754915e-06,0.5257055731143687,-2.3567345704038692e-05,0.5257055731143687,2.3205460451888614e-06,0.5257055731143687,-1.2184937354739343e-05
0.5264996902942998,-6.547235532018719e-06,0.5264996902942998,-2.3331300515974217e-05,0.5264996902942998,1.84634e-06,0.5264996902942998,-8.226060226848374e-06
0.5272938074742308,-6.88182e-06,0.5272938074742308,-2.2106596985069277e-05,0.5272938074742308,2.715828304949302e-06,0.5272938074742308,7.086063298326046e-06
0.528087924654162,-5.53903e-06,0.528087924654162,-2.034851177804305e-05,0.528087924654162,3.0690770244348765e-06,0.528087924654162,2.5620870565170708e-05
0.528882041834093,-6.300240564709488e-06,0.528882041834093,-2.177037084901106e-05,0.528882041834093,3.821515282354744e-06,0.528882041834093,9.139114544676016e-06
0.5296761590140241,-5.568866976579815e-06,0.5296761590140241,-2.2165980368980365e-05,0.5296761590140241,2.9727932394299428e-06,0.5296761590140241,-1.6818613247004037e-05
0.5304702761939551,-6.052133987791287e-06,0.5304702761939551,-2.0764336380904146e-05,0.5304702761939551,3.109996993895643e-06,0.5304702761939551,-2.4870341963373855e-05
0.5312643933738862,-6.268747420746628e-06,0.5312643933738862,-2.192918486394298e-05,0.5312643933738862,2.459412579253372e-06,0.5312643933738862,-2.3963008995411804e-05
0.5320585105538173,-1.0080036329291766e-05,0.5320585105538173,-2.1889210755608545e-05,0.5320585105538173,5.432387403257923e-07,0.5320585105538173,-2.17815934872487e-05
0.5328526277337483,-8.62120847436746e-06,0.5328526277337483,-2.190962865082983e-05,0.5328526277337483,1.6090076568572554e-06,0.5328526277337483,-8.604034876366673e-06
0.5336467449136795,-5.794392796046936e-06,0.5336467449136795,-2.113935426773724e-05,0.5336467449136795,1.6099134730228285e-06,0.5336467449136795,-8.404547445236715e-06
0.5344408620936105,-8.166432482033814e-06,0.5344408620936105,-2.194862332358812e-05,0.5344408620936105,-6.392964276962296e-07,0.5344408620936105,-2.8160524765164944e-05
0.5352349792735416,-7.98684009998073e-06,0.5352349792735416,-2.1969193436693444e-05,0.5352349792735416,-2.3405548406527098e-06,0.5352349792735416,-3.57519e-05
0.5360290964534726,-7.928978397513897e-06,0.5360290964534726,-2.1771030596205693e-05,0.5360290964534726,-2.9712056785177867e-06,0.5360290964534726,-3.3470927605844367e-05
0.5368232136334037,-6.052396717169168e-06,0.5368232136334037,-2.110086355730596e-05,0.5368232136334037,-2.7153368322750658e-06,0.5368232136334037,-3.41919426006721e-05
0.5376173308133347,-6.88182e-06,0.5376173308133347,-1.998334647119557e-05,0.5376173308133347,1.4219518435854438e-06,0.5376173308133347,-2.4989090643201066e-05
0.5384114479932659,-6.407831809331939e-06,0.5384114479932659,-2.0951554546066896e-05,0.5384114479932659,2.725172286002091e-06,0.5384114479932659,-1.20565933126271e-05
0.539205565173197,-5.20333e-06,0.539205565173197,-2.017287093270399e-05,0.539205565173197,1.17494e-06,0.539205565173197,-5.42169298175053e-06
0.539999682353128,-6.880675864596073e-06,0.539999682353128,-2.0477086379084767e-05,0.539999682353128,2.516824686223693e-06,0.539999682353128,-5.056074437270684e-07
0.5407937995330591,-6.724944599209245e-06,0.5407937995330591,-2.317304605635439e-05,0.5407937995330591,3.3762581223151425e-06,0.5407937995330591,1.17494e-06
0.5415879167129901,-5.53903e-06,0.5415879167129901,-2.1930247742481008e-05,0.5415879167129901,3.318089781378395e-06,0.5415879167129901,-7.969533306917115e-07
0.5423820338929212,-5.6873666697034745e-06,0.5423820338929212,-2.117850226946751e-05,0.5423820338929212,1.6903049910895351e-06,0.5423820338929212,-4.137716523052815e-06
0.5431761510728523,-6.643088860762524e-06,0.5431761510728523,-2.184014474063828e-05,0.5431761510728523,5.03548e-07,0.5431761510728523,-5.185044031600699e-07
0.5439702682527834,-7.040111732919757e-06,0.5439702682527834,-2.177144151741931e-05,0.5439702682527834,3.861715936917962e-07,0.5439702682527834,7.883554686184761e-06
0.5447643854327144,-5.717122820450319e-06,0.5447643854327144,-2.248228760935748e-05,0.5447643854327144,-1.0955199960085073e-07,0.5447643854327144,1.7504398344067974e-05
0.5455585026126455,-4.413708349112436e-06,0.5455585026126455,-2.070617748411465e-05,0.5455585026126455,1.806637320710052e-06,0.5455585026126455,1.4249121434319587e-05
0.5463526197925765,-5.183014286244783e-06,0.5463526197925765,-1.9992386240204463e-05,0.5463526197925765,4.051917486526779e-07,0.5463526197925765,-2.867308633153871e-06
0.5471467369725076,-5.756515990750386e-06,0.5471467369725076,-2.1790582545328768e-05,0.5471467369725076,1.17494e-06,0.5471467369725076,-1.3751852713323804e-05
0.5479408541524387,-4.215616965534736e-06,0.5479408541524387,-2.1771075140809236e-05,0.5479408541524387,8.586326190295427e-07,0.5479408541524387,-1.7818069655347355e-05
0.5487349713323698,-6.326980373867986e-06,0.5487349713323698,-2.2757213502838143e-05,0.5487349713323698,1.17494e-06,0.5487349713323698,-2.3545492200927465e-05
0.5495290885123009,-9.171575430453393e-06,0.5495290885123009,-2.297572362092835e-05,0.5495290885123009,1.8789269979986165e-07,0.5495290885123009,-2.7614926842564815e-05
0.5503232056922319,-1.1858080148321322e-05,0.5503232056922319,-2.025333896998745e-05,0.5503232056922319,2.666696517276738e-07,0.5503232056922319,-3.480365733021622e-05
0.551117322872163,-9.804248976597934e-06,0.551117322872163,-2.07237450184111e-05,0.551117322872163,-1.4316939880279453e-06,0.551117322872163,-4.422361137739675e-05
0.551911440052094,-6.625301771045368e-06,0.551911440052094,-2.194876637952968e-05,0.551911440052094,-3.386540195886983e-06,0.551911440052094,-4.550716961840895e-05
0.5527055572320251,-6.407591022756225e-06,0.5527055572320251,-2.147443788591681e-05,0.5527055572320251,-1.116300597530751e-06,0.5527055572320251,-3.879444488621888e-05
0.5534996744119562,-6.378621823732681e-06,0.5534996744119562,-2.16526e-05,0.5534996744119562,1.6761445224225296e-07,0.5534996744119562,-3.776516180337952e-05
0.5542937915918873,-6.21042e-06,0.5542937915918873,-2.0803459080160765e-05,0.5542937915918873,9.76831123570755e-07,0.5542937915918873,-3.626916742202405e-05
0.5550879087718184,-5.263382366884205e-06,0.5550879087718184,-2.0329145615991143e-05,0.5550879087718184,2.526599541394744e-06,0.5550879087718184,-2.154622655891293e-05
0.5558820259517494,-4.906633251617799e-06,0.5558820259517494,-2.123739139885705e-05,0.5558820259517494,3.485827910230626e-06,0.5558820259517494,-8.982363549429862e-06
0.5566761431316805,-6.307365978088384e-06,0.5566761431316805,-2.12182126338088e-05,0.5566761431316805,2.6371178999780003e-06,0.5566761431316805,-2.323849821867617e-06
0.5574702603116115,-6.023464907261923e-06,0.5574702603116115,-2.058605897171401e-05,0.5574702603116115,2.074233634077403e-06,0.5574702603116115,-2.536845092738077e-06
0.5582643774915427,-5.045741914545562e-06,0.5582643774915427,-2.23239e-05,0.5582643774915427,1.332528085454438e-06,0.5582643774915427,-2.6958519145455622e-06
0.5590584946714737,-4.53193e-06,0.5590584946714737,-2.23239e-05,0.5590584946714737,2.1621829273413727e-06,0.5590584946714737,-3.445402300877932e-06
0.5598526118514048,-7.197187087203752e-06,0.5598526118514048,-2.3252338923860135e-05,0.5598526118514048,2.9517847248025014e-06,0.5598526118514048,-1.508110853980966e-05
0.5606467290313358,-5.439730073867924e-06,0.5606467290313358,-2.325191259310105e-05,0.5606467290313358,3.5153808248626664e-06,0.5606467290313358,-2.708041617715063e-05
0.5614408462112669,-7.55322e-06,0.5614408462112669,-2.178120776949605e-05,0.5614408462112669,2.875931217962183e-06,0.5614408462112669,-2.7268718657914957e-05
0.5622349633911979,-8.066074637803412e-06,0.5622349633911979,-2.089189434259591e-05,0.5622349633911979,-9.311984892979632e-09,0.5622349633911979,-1.005256974734288e-05
0.563029080571129,-7.751146797471501e-06,0.563029080571129,-2.346898129270144e-05,0.563029080571129,1.6684626346094362e-06,0.563029080571129,1.3669462686226684e-05
0.5638231977510602,-5.914351109062463e-06,0.5638231977510602,-2.3746496211419603e-05,0.5638231977510602,1.4117965238702198e-06,0.5638231977510602,2.522677173806489e-05
0.5646173149309912,-4.53193e-06,0.5646173149309912,-2.110069385484584e-05,0.5646173149309912,2.221519091755349e-06,0.5646173149309912,2.3785137275266048e-05
0.5654114321109223,-6.723426179566726e-06,0.5654114321109223,-2.094165610649944e-05,0.5654114321109223,3.504735836262197e-06,0.5654114321109223,2.293619931339094e-05
0.5662055492908533,-1.09102e-05,0.5662055492908533,-2.0398857088621985e-05,0.5662055492908533,4.0390340447218525e-06,0.5662055492908533,1.4676138809887092e-05
0.5669996664707844,-8.561991881906435e-06,0.5669996664707844,-2.0645284266362876e-05,0.5669996664707844,1.8470608095987336e-06,0.5669996664707844,8.446520462242973e-07
0.5677937836507154,-7.079942703031512e-06,0.5677937836507154,-2.082323578332401e-05,0.5677937836507154,4.135687544826207e-06,0.5677937836507154,-6.848771710863023e-06
0.5685879008306466,-6.584997125316303e-06,0.5685879008306466,-2.196895952052398e-05,0.5685879008306466,3.249197938305804e-06,0.5685879008306466,-1.161698083544202e-05
0.5693820180105776,-6.1324261244693454e-06,0.5693820180105776,-2.12580160071256e-05,0.5693820180105776,1.7683449627916983e-06,0.5693820180105776,-1.52743e-05
0.5701761351905087,-6.091032436814708e-06,0.5701761351905087,-2.13563674681803e-05,0.5701761351905087,1.726950658599912e-06,0.5701761351905087,-1.4998294670700044e-05
0.5709702523704397,-8.085405192588352e-06,0.5709702523704397,-2.2086231823268168e-05,0.5709702523704397,2.023736825657995e-06,0.5709702523704397,-1.6458796825657994e-05
0.5717643695503708,-9.9031e-06,0.5717643695503708,-2.090320191441936e-05,0.5717643695503708,2.2813750339518984e-06,0.5717643695503708,-1.4959146711935866e-05
0.5725584867303019,-7.850177053504363e-06,0.5725584867303019,-1.8967e-05,0.5725584867303019,5.63135943670718e-07,0.5725584867303019,-1.2983988417017292e-05
0.573352603910233,-4.53193e-06,0.573352603910233,-1.9163628133848787e-05,0.573352603910233,7.205633364675066e-07,0.573352603910233,-1.29244e-05
0.5741467210901641,-6.54612e-06,0.5741467210901641,-2.1217579230980542e-05,0.5741467210901641,4.965363972925139e-08,0.5741467210901641,-1.728363309560717e-05
0.5749408382700951,-4.079977580122948e-06,0.5749408382700951,-2.125792455945433e-05,0.5749408382700951,2.2597497907168674e-07,0.5749408382700951,-2.8163317356528563e-05
0.5757349554500262,-3.335946740402344e-06,0.5757349554500262,-2.03098e-05,0.5757349554500262,1.17494e-06,0.5757349554500262,-3.5630554175402924e-05
0.5765290726299572,-8.322233696159345e-06,0.5765290726299572,-2.06455e-05,0.5765290726299572,1.17494e-06,0.5765290726299572,-3.2337413947117685e-05
0.5773231898098883,-9.607059712447672e-06,0.5773231898098883,-2.094129676765286e-05,0.5773231898098883,1.17494e-06,0.5773231898098883,-2.8070457948717844e-05
0.5781173069898193,-4.67004554484224e-06,0.5781173069898193,-2.307351419931996e-05,0.5781173069898193,1.17494e-06,0.5781173069898193,-2.1652430259137843e-05
0.5789114241697505,-1.67849e-07,0.5789114241697505,-2.4930391666938387e-05,0.5789114241697505,4.444585434452338e-07,0.5789114241697505,-1.1760159286800829e-05
