X [s],L DELTOID ANTERIOR: EMG 3 [V],L DELTOID ANTERIOR: EMG 3->filter (FilterSlidingRMS63) [V]
0.000000e+000,0.000000e+000,0.000000e+000
7.941176e-004,0.000000e+000,0.000000e+000
1.588235e-003,0.000000e+000,0.000000e+000
2.382353e-003,0.000000e+000,0.000000e+000
3.176471e-003,0.000000e+000,0.000000e+000
3.970588e-003,0.000000e+000,0.000000e+000
4.764706e-003,0.000000e+000,0.000000e+000
5.558824e-003,0.000000e+000,0.000000e+000
6.352941e-003,0.000000e+000,0.000000e+000
7.147059e-003,0.000000e+000,0.000000e+000
7.941176e-003,0.000000e+000,0.000000e+000
8.735294e-003,0.000000e+000,0.000000e+000
9.529412e-003,0.000000e+000,0.000000e+000
1.032353e-002,0.000000e+000,0.000000e+000
1.111765e-002,0.000000e+000,0.000000e+000
1.191176e-002,0.000000e+000,0.000000e+000
1.270588e-002,0.000000e+000,0.000000e+000
1.350000e-002,0.000000e+000,0.000000e+000
1.429412e-002,0.000000e+000,0.000000e+000
1.508824e-002,0.000000e+000,0.000000e+000
1.588235e-002,0.000000e+000,0.000000e+000
1.667647e-002,0.000000e+000,0.000000e+000
1.747059e-002,0.000000e+000,0.000000e+000
1.826471e-002,0.000000e+000,0.000000e+000
1.905882e-002,0.000000e+000,0.000000e+000
1.985294e-002,0.000000e+000,0.000000e+000
2.064706e-002,0.000000e+000,0.000000e+000
2.144118e-002,0.000000e+000,0.000000e+000
2.223529e-002,0.000000e+000,0.000000e+000
2.302941e-002,0.000000e+000,0.000000e+000
2.382353e-002,0.000000e+000,0.000000e+000
2.461765e-002,0.000000e+000,0.000000e+000
2.541176e-002,0.000000e+000,0.000000e+000
2.620588e-002,0.000000e+000,0.000000e+000
2.700000e-002,0.000000e+000,0.000000e+000
2.779412e-002,0.000000e+000,0.000000e+000
2.858824e-002,0.000000e+000,0.000000e+000
2.938235e-002,0.000000e+000,0.000000e+000
3.017647e-002,0.000000e+000,0.000000e+000
3.097059e-002,0.000000e+000,0.000000e+000
3.176471e-002,0.000000e+000,0.000000e+000
3.255882e-002,0.000000e+000,0.000000e+000
3.335294e-002,0.000000e+000,0.000000e+000
3.414706e-002,0.000000e+000,0.000000e+000
3.494118e-002,0.000000e+000,0.000000e+000
3.573529e-002,0.000000e+000,0.000000e+000
3.652941e-002,0.000000e+000,0.000000e+000
3.732353e-002,0.000000e+000,0.000000e+000
3.811765e-002,0.000000e+000,0.000000e+000
3.891176e-002,0.000000e+000,0.000000e+000
3.970588e-002,0.000000e+000,0.000000e+000
4.050000e-002,0.000000e+000,0.000000e+000
4.129412e-002,0.000000e+000,0.000000e+000
4.208824e-002,0.000000e+000,0.000000e+000
4.288235e-002,0.000000e+000,0.000000e+000
4.367647e-002,0.000000e+000,0.000000e+000
4.447059e-002,0.000000e+000,0.000000e+000
4.526471e-002,0.000000e+000,0.000000e+000
4.605882e-002,0.000000e+000,0.000000e+000
4.685294e-002,0.000000e+000,0.000000e+000
4.764706e-002,0.000000e+000,0.000000e+000
4.844118e-002,0.000000e+000,0.000000e+000
4.923529e-002,0.000000e+000,0.000000e+000
5.002941e-002,0.000000e+000,0.000000e+000
5.082353e-002,0.000000e+000,0.000000e+000
5.161765e-002,0.000000e+000,0.000000e+000
5.241176e-002,0.000000e+000,0.000000e+000
5.320588e-002,0.000000e+000,0.000000e+000
5.400000e-002,0.000000e+000,0.000000e+000
5.479412e-002,0.000000e+000,0.000000e+000
5.558824e-002,0.000000e+000,0.000000e+000
5.638235e-002,0.000000e+000,0.000000e+000
5.717647e-002,0.000000e+000,0.000000e+000
5.797059e-002,0.000000e+000,0.000000e+000
5.876471e-002,0.000000e+000,0.000000e+000
5.955882e-002,0.000000e+000,0.000000e+000
6.035294e-002,0.000000e+000,0.000000e+000
6.114706e-002,0.000000e+000,0.000000e+000
6.194118e-002,0.000000e+000,0.000000e+000
6.273529e-002,0.000000e+000,0.000000e+000
6.352941e-002,0.000000e+000,0.000000e+000
6.432353e-002,0.000000e+000,0.000000e+000
6.511765e-002,0.000000e+000,0.000000e+000
6.591176e-002,0.000000e+000,0.000000e+000
6.670588e-002,0.000000e+000,0.000000e+000
6.750000e-002,0.000000e+000,0.000000e+000
6.829412e-002,0.000000e+000,0.000000e+000
6.908824e-002,0.000000e+000,0.000000e+000
6.988235e-002,0.000000e+000,0.000000e+000
7.067647e-002,0.000000e+000,0.000000e+000
7.147059e-002,0.000000e+000,0.000000e+000
7.226471e-002,0.000000e+000,0.000000e+000
7.305882e-002,0.000000e+000,0.000000e+000
7.385294e-002,0.000000e+000,0.000000e+000
7.464706e-002,0.000000e+000,0.000000e+000
7.544118e-002,0.000000e+000,0.000000e+000
7.623529e-002,0.000000e+000,0.000000e+000
7.702941e-002,0.000000e+000,0.000000e+000
7.782353e-002,0.000000e+000,0.000000e+000
7.861765e-002,0.000000e+000,0.000000e+000
7.941176e-002,0.000000e+000,0.000000e+000
8.020588e-002,0.000000e+000,0.000000e+000
8.100000e-002,0.000000e+000,0.000000e+000
8.179412e-002,0.000000e+000,0.000000e+000
8.258824e-002,0.000000e+000,0.000000e+000
8.338235e-002,0.000000e+000,0.000000e+000
8.417647e-002,0.000000e+000,0.000000e+000
8.497059e-002,0.000000e+000,0.000000e+000
8.576471e-002,0.000000e+000,0.000000e+000
8.655882e-002,0.000000e+000,0.000000e+000
8.735294e-002,0.000000e+000,0.000000e+000
8.814706e-002,0.000000e+000,0.000000e+000
8.894118e-002,0.000000e+000,0.000000e+000
8.973529e-002,0.000000e+000,0.000000e+000
9.052941e-002,0.000000e+000,0.000000e+000
9.132353e-002,0.000000e+000,0.000000e+000
9.211765e-002,0.000000e+000,0.000000e+000
9.291176e-002,0.000000e+000,0.000000e+000
9.370588e-002,0.000000e+000,0.000000e+000
9.450000e-002,-9.567407e-006,0.000000e+000
9.529412e-002,-3.189136e-006,0.000000e+000
9.608824e-002,-5.874723e-006,0.000000e+000
9.688235e-002,-6.546120e-006,0.000000e+000
9.767647e-002,-6.881819e-006,0.000000e+000
9.847059e-002,-7.888914e-006,0.000000e+000
9.926471e-002,-5.874723e-006,0.000000e+000
1.000588e-001,-4.196231e-006,0.000000e+000
1.008529e-001,-2.182040e-006,0.000000e+000
1.016471e-001,-4.867628e-006,0.000000e+000
1.024412e-001,-7.217518e-006,0.000000e+000
1.032353e-001,-8.224612e-006,0.000000e+000
1.040294e-001,-6.881819e-006,0.000000e+000
1.048235e-001,-8.224612e-006,0.000000e+000
1.056176e-001,-5.874723e-006,0.000000e+000
1.064118e-001,-4.196231e-006,0.000000e+000
1.072059e-001,-5.203327e-006,0.000000e+000
1.080000e-001,-5.874723e-006,0.000000e+000
1.087941e-001,-3.524834e-006,0.000000e+000
1.095882e-001,-7.049668e-006,0.000000e+000
1.103824e-001,-6.881819e-006,0.000000e+000
1.111765e-001,-5.874723e-006,0.000000e+000
1.119706e-001,-6.210422e-006,0.000000e+000
1.127647e-001,-4.196231e-006,0.000000e+000
1.135588e-001,-5.539025e-006,0.000000e+000
1.143529e-001,-8.224612e-006,0.000000e+000
1.151471e-001,-5.539025e-006,0.000000e+000
1.159412e-001,-6.881819e-006,0.000000e+000
1.167353e-001,-6.881819e-006,0.000000e+000
1.175294e-001,-5.539025e-006,0.000000e+000
1.183235e-001,-5.035477e-006,0.000000e+000
1.191176e-001,-7.888914e-006,0.000000e+000
1.199118e-001,-5.539025e-006,0.000000e+000
1.207059e-001,-5.539025e-006,0.000000e+000
1.215000e-001,-5.706874e-006,0.000000e+000
1.222941e-001,-2.182040e-006,0.000000e+000
1.230882e-001,-5.706874e-006,0.000000e+000
1.238824e-001,-4.867628e-006,0.000000e+000
1.246765e-001,-4.196231e-006,0.000000e+000
1.254706e-001,-7.553216e-006,0.000000e+000
1.262647e-001,-2.853437e-006,0.000000e+000
1.270588e-001,-2.182040e-006,0.000000e+000
1.278529e-001,-4.196231e-006,0.000000e+000
1.286471e-001,-4.531929e-006,0.000000e+000
1.294412e-001,-4.867628e-006,0.000000e+000
1.302353e-001,-3.860533e-006,0.000000e+000
1.310294e-001,-2.853437e-006,0.000000e+000
1.318235e-001,-4.531929e-006,0.000000e+000
1.326176e-001,-7.553216e-006,0.000000e+000
1.334118e-001,-6.881819e-006,0.000000e+000
1.342059e-001,-3.524834e-006,0.000000e+000
1.350000e-001,-3.524834e-006,0.000000e+000
1.357941e-001,-7.553216e-006,0.000000e+000
1.365882e-001,-3.524834e-006,0.000000e+000
1.373824e-001,-1.174945e-006,0.000000e+000
1.381765e-001,-4.196231e-006,0.000000e+000
1.389706e-001,-2.182040e-006,0.000000e+000
1.397647e-001,-5.035477e-006,0.000000e+000
1.405588e-001,-3.356985e-006,0.000000e+000
1.413529e-001,-5.203327e-006,0.000000e+000
1.421471e-001,-7.217518e-006,0.000000e+000
1.429412e-001,-9.567407e-006,0.000000e+000
1.437353e-001,-5.539025e-006,0.000000e+000
1.445294e-001,-6.210422e-006,0.000000e+000
1.453235e-001,-7.049668e-006,0.000000e+000
1.461176e-001,-6.881819e-006,0.000000e+000
1.469118e-001,-5.203327e-006,0.000000e+000
1.477059e-001,-6.546120e-006,0.000000e+000
1.485000e-001,-5.874723e-006,0.000000e+000
1.492941e-001,-5.706874e-006,0.000000e+000
1.500882e-001,-7.553216e-006,0.000000e+000
1.508824e-001,-6.378271e-006,0.000000e+000
1.516765e-001,-5.539025e-006,0.000000e+000
1.524706e-001,-6.042573e-006,0.000000e+000
1.532647e-001,-6.881819e-006,0.000000e+000
1.540588e-001,-3.692683e-006,0.000000e+000
1.548529e-001,-3.524834e-006,0.000000e+000
1.556471e-001,-5.706874e-006,0.000000e+000
1.564412e-001,-3.021286e-006,0.000000e+000
1.572353e-001,-1.510643e-006,0.000000e+000
1.580294e-001,-2.517739e-006,0.000000e+000
1.588235e-001,-4.531929e-006,0.000000e+000
1.596176e-001,-7.553216e-006,0.000000e+000
1.604118e-001,-6.881819e-006,0.000000e+000
1.612059e-001,-8.224612e-006,0.000000e+000
1.620000e-001,-5.539025e-006,0.000000e+000
1.627941e-001,-6.210422e-006,0.000000e+000
1.635882e-001,-1.124590e-005,0.000000e+000
1.643824e-001,-9.903105e-006,0.000000e+000
1.651765e-001,-5.539025e-006,0.000000e+000
1.659706e-001,-3.189136e-006,0.000000e+000
1.667647e-001,-4.196231e-006,0.000000e+000
1.675588e-001,-5.539025e-006,0.000000e+000
1.683529e-001,-8.560311e-006,0.000000e+000
1.691471e-001,-5.539025e-006,0.000000e+000
1.699412e-001,-6.210422e-006,0.000000e+000
1.707353e-001,-6.210422e-006,0.000000e+000
1.715294e-001,-7.888914e-006,0.000000e+000
1.723235e-001,-6.378271e-006,0.000000e+000
1.731176e-001,-8.896010e-006,0.000000e+000
1.739118e-001,-1.158160e-005,0.000000e+000
1.747059e-001,-6.881819e-006,0.000000e+000
1.755000e-001,-4.364080e-006,0.000000e+000
1.762941e-001,-8.560311e-006,0.000000e+000
1.770882e-001,-4.867628e-006,0.000000e+000
1.778824e-001,-1.510643e-006,0.000000e+000
1.786765e-001,-4.531929e-006,0.000000e+000
1.794706e-001,-4.867628e-006,0.000000e+000
1.802647e-001,-4.867628e-006,0.000000e+000
1.810588e-001,-2.853437e-006,0.000000e+000
1.818529e-001,-5.539025e-006,0.000000e+000
1.826471e-001,-4.196231e-006,0.000000e+000
1.834412e-001,-4.196231e-006,0.000000e+000
1.842353e-001,-3.021286e-006,0.000000e+000
1.850294e-001,-4.867628e-006,0.000000e+000
1.858235e-001,-7.217518e-006,0.000000e+000
1.866176e-001,-3.189136e-006,0.000000e+000
1.874118e-001,-2.853437e-006,0.000000e+000
1.882059e-001,-5.539025e-006,0.000000e+000
1.890000e-001,-3.524834e-006,0.000000e+000
1.897941e-001,-2.853437e-006,0.000000e+000
1.905882e-001,-1.510643e-006,0.000000e+000
1.913824e-001,-2.182040e-006,0.000000e+000
1.921765e-001,-2.349889e-006,0.000000e+000
1.929706e-001,-2.517739e-006,0.000000e+000
1.937647e-001,-6.210422e-006,0.000000e+000
1.945588e-001,-2.182040e-006,0.000000e+000
1.953529e-001,-3.692683e-006,0.000000e+000
1.961471e-001,-7.385367e-006,0.000000e+000
1.969412e-001,-8.560311e-006,0.000000e+000
1.977353e-001,-1.007095e-005,0.000000e+000
1.985294e-001,-8.224612e-006,0.000000e+000
1.993235e-001,-6.210422e-006,0.000000e+000
2.001176e-001,-7.553216e-006,0.000000e+000
2.009118e-001,-3.524834e-006,0.000000e+000
2.017059e-001,-4.531929e-006,0.000000e+000
2.025000e-001,-5.539025e-006,0.000000e+000
2.032941e-001,-5.539025e-006,0.000000e+000
2.040882e-001,-6.881819e-006,0.000000e+000
2.048824e-001,-3.021286e-006,0.000000e+000
2.056765e-001,-2.853437e-006,0.000000e+000
2.064706e-001,-5.539025e-006,0.000000e+000
2.072647e-001,-2.853437e-006,0.000000e+000
2.080588e-001,-5.874723e-006,0.000000e+000
2.088529e-001,-5.539025e-006,0.000000e+000
2.096471e-001,-6.881819e-006,0.000000e+000
2.104412e-001,-9.567407e-006,0.000000e+000
2.112353e-001,-6.881819e-006,0.000000e+000
2.120294e-001,-5.539025e-006,0.000000e+000
2.128235e-001,-6.881819e-006,0.000000e+000
2.136176e-001,-5.539025e-006,0.000000e+000
2.144118e-001,-3.524834e-006,0.000000e+000
2.152059e-001,-7.553216e-006,0.000000e+000
2.160000e-001,-8.560311e-006,0.000000e+000
2.167941e-001,-7.217518e-006,0.000000e+000
2.175882e-001,-4.867628e-006,0.000000e+000
2.183824e-001,-6.881819e-006,0.000000e+000
2.191765e-001,-4.196231e-006,0.000000e+000
2.199706e-001,-6.881819e-006,0.000000e+000
2.207647e-001,-7.385367e-006,0.000000e+000
2.215588e-001,-4.196231e-006,0.000000e+000
2.223529e-001,-5.539025e-006,0.000000e+000
2.231471e-001,-5.539025e-006,0.000000e+000
2.239412e-001,-3.021286e-006,0.000000e+000
2.247353e-001,-3.189136e-006,0.000000e+000
2.255294e-001,-2.853437e-006,0.000000e+000
2.263235e-001,-3.524834e-006,0.000000e+000
2.271176e-001,-5.874723e-006,0.000000e+000
2.279118e-001,-5.874723e-006,0.000000e+000
2.287059e-001,-5.874723e-006,0.000000e+000
2.295000e-001,-6.210422e-006,0.000000e+000
2.302941e-001,-4.196231e-006,0.000000e+000
2.310882e-001,-6.881819e-006,0.000000e+000
2.318824e-001,-7.553216e-006,0.000000e+000
2.326765e-001,-6.210422e-006,0.000000e+000
2.334706e-001,-5.203327e-006,0.000000e+000
2.342647e-001,-3.692683e-006,0.000000e+000
2.350588e-001,-2.517739e-006,0.000000e+000
2.358529e-001,-1.678492e-006,0.000000e+000
2.366471e-001,-5.874723e-006,0.000000e+000
2.374412e-001,-6.210422e-006,0.000000e+000
2.382353e-001,-4.196231e-006,0.000000e+000
2.390294e-001,-5.035477e-006,0.000000e+000
2.398235e-001,-5.539025e-006,0.000000e+000
2.406176e-001,-6.210422e-006,0.000000e+000
2.414118e-001,-4.196231e-006,0.000000e+000
2.422059e-001,-4.531929e-006,0.000000e+000
2.430000e-001,-4.531929e-006,0.000000e+000
2.437941e-001,-5.539025e-006,0.000000e+000
2.445882e-001,-5.539025e-006,0.000000e+000
2.453824e-001,-5.539025e-006,0.000000e+000
2.461765e-001,-4.867628e-006,0.000000e+000
2.469706e-001,-6.210422e-006,0.000000e+000
2.477647e-001,-6.881819e-006,0.000000e+000
2.485588e-001,-4.196231e-006,0.000000e+000
2.493529e-001,-6.546120e-006,4.553606e-006
2.501471e-001,-6.210422e-006,4.568567e-006
2.509412e-001,-6.881819e-006,4.581990e-006
2.517353e-001,-4.867628e-006,4.598419e-006
2.525294e-001,-3.860533e-006,4.606617e-006
2.533235e-001,-8.560311e-006,4.611765e-006
2.541176e-001,-8.224612e-006,4.636998e-006
2.549118e-001,-3.860533e-006,4.660169e-006
2.557059e-001,-5.539025e-006,4.665259e-006
2.565000e-001,-5.035477e-006,4.675720e-006
2.572941e-001,-4.867628e-006,4.684347e-006
2.580882e-001,-7.553216e-006,4.692394e-006
2.588824e-001,-7.721065e-006,4.711715e-006
2.596765e-001,-5.203327e-006,4.731819e-006
2.604706e-001,-5.539025e-006,4.740921e-006
2.612647e-001,-8.224612e-006,4.751215e-006
2.620588e-001,-7.553216e-006,4.773832e-006
2.628529e-001,-8.560311e-006,4.792824e-006
2.636471e-001,-1.091020e-005,4.817109e-006
2.644412e-001,-9.567407e-006,4.856297e-006
2.652353e-001,-6.881819e-006,4.886219e-006
2.660294e-001,-9.063859e-006,4.901628e-006
2.668235e-001,-8.224612e-006,4.928245e-006
2.676176e-001,-1.225299e-005,4.950053e-006
2.684118e-001,-1.091020e-005,4.998116e-006
2.692059e-001,-1.023880e-005,5.035896e-006
2.700000e-001,-1.124590e-005,5.068936e-006
2.707941e-001,-1.091020e-005,5.108511e-006
2.715882e-001,-1.057450e-005,5.145481e-006
2.723824e-001,-6.881819e-006,5.179970e-006
2.731765e-001,-6.881819e-006,5.194508e-006
2.739706e-001,-6.881819e-006,5.209006e-006
2.747647e-001,-7.217518e-006,5.223463e-006
2.755588e-001,-6.210422e-006,5.239319e-006
2.763529e-001,-6.378271e-006,5.251028e-006
2.771471e-001,-5.874723e-006,5.263350e-006
2.779412e-001,-3.860533e-006,5.273781e-006
2.787353e-001,-3.189136e-006,5.278279e-006
2.795294e-001,-6.210422e-006,5.281347e-006
2.803235e-001,-6.546120e-006,5.292963e-006
2.811176e-001,-2.182040e-006,5.305839e-006
2.819118e-001,-1.510643e-006,5.307268e-006
2.827059e-001,-1.510643e-006,5.307953e-006
2.835000e-001,8.392462e-007,5.308637e-006
2.842941e-001,2.182040e-006,5.308848e-006
2.850882e-001,-2.182040e-006,5.310276e-006
2.858824e-001,-2.853437e-006,5.311704e-006
2.866765e-001,-1.007095e-006,5.314144e-006
2.874706e-001,-1.678492e-006,5.314448e-006
2.882647e-001,-1.678492e-007,5.315292e-006
2.890588e-001,1.846342e-006,5.315300e-006
2.898529e-001,-2.182040e-006,5.316322e-006
2.906471e-001,-5.035477e-007,5.317747e-006
2.914412e-001,-1.510643e-006,5.317823e-006
2.922353e-001,-2.349889e-006,5.318507e-006
2.930294e-001,-8.392462e-007,5.320159e-006
2.938235e-001,-1.846342e-006,5.320370e-006
2.946176e-001,-1.510643e-006,5.321390e-006
2.954118e-001,1.007095e-006,5.322073e-006
2.962059e-001,-1.678492e-007,5.322377e-006
2.970000e-001,-4.196231e-006,5.322385e-006
2.977941e-001,-4.531929e-006,5.327651e-006
2.985882e-001,-5.539025e-006,5.333786e-006
2.993824e-001,-5.539025e-006,5.342937e-006
3.001765e-001,-5.539025e-006,5.352073e-006
3.009706e-001,-5.203327e-006,5.361194e-006
3.017647e-001,-7.553216e-006,5.369230e-006
3.025588e-001,-7.217518e-006,5.386123e-006
3.033529e-001,-7.217518e-006,5.401501e-006
3.041471e-001,-6.210422e-006,5.416836e-006
3.049412e-001,-6.546120e-006,5.428163e-006
3.057353e-001,-2.517739e-006,5.440719e-006
3.065294e-001,-3.692683e-006,5.442574e-006
3.073235e-001,-8.896010e-006,5.446562e-006
3.081176e-001,-9.231709e-006,5.469650e-006
3.089118e-001,-7.888914e-006,5.494405e-006
3.097059e-001,-8.224612e-006,5.512412e-006
3.105000e-001,-6.881819e-006,5.531918e-006
3.112941e-001,-8.224612e-006,5.545533e-006
3.120882e-001,-7.553216e-006,5.564923e-006
3.128824e-001,-4.531929e-006,5.581224e-006
3.136765e-001,-2.853437e-006,5.587081e-006
3.144706e-001,-5.539025e-006,5.589401e-006
3.152647e-001,-6.881819e-006,5.598135e-006
3.160588e-001,-8.560311e-006,5.611590e-006
3.168529e-001,-7.217518e-006,5.632345e-006
3.176471e-001,-5.874723e-006,5.647053e-006
3.184412e-001,-6.881819e-006,5.656776e-006
3.192353e-001,-7.049668e-006,5.670092e-006
3.200294e-001,-5.874723e-006,5.684032e-006
3.208235e-001,-7.553216e-006,5.693692e-006
3.216176e-001,-9.231709e-006,5.709625e-006
3.224118e-001,-7.888914e-006,5.733345e-006
3.232059e-001,-7.553216e-006,5.750603e-006
3.240000e-001,-8.896010e-006,5.766379e-006
3.247941e-001,-4.196231e-006,5.788192e-006
3.255882e-001,-5.539025e-006,5.793034e-006
3.263824e-001,-7.553216e-006,5.801461e-006
3.271765e-001,-7.721065e-006,5.817099e-006
3.279706e-001,-6.378271e-006,5.833395e-006
3.287647e-001,-4.867628e-006,5.844490e-006
3.295588e-001,-3.189136e-006,5.850942e-006
3.303529e-001,-4.531929e-006,5.853709e-006
3.311471e-001,-8.224612e-006,5.859293e-006
3.319412e-001,-9.735256e-006,5.877648e-006
3.327353e-001,-5.539025e-006,5.903269e-006
3.335294e-001,-4.531929e-006,5.911538e-006
3.343235e-001,-8.392462e-007,5.917068e-006
3.351176e-001,-3.524834e-006,5.917258e-006
3.359118e-001,-6.881819e-006,5.920600e-006
3.367059e-001,-4.867628e-006,5.933324e-006
3.375000e-001,-4.196231e-006,5.939679e-006
3.382941e-001,-3.692683e-006,5.944397e-006
3.390882e-001,-4.196231e-006,5.948049e-006
3.398824e-001,-3.189136e-006,5.952761e-006
3.406765e-001,-6.042573e-006,5.955481e-006
3.414706e-001,-6.378271e-006,5.965236e-006
3.422647e-001,-8.224612e-006,5.976086e-006
3.430588e-001,-9.063859e-006,5.994083e-006
3.438529e-001,-7.385367e-006,6.015868e-006
3.446471e-001,-8.224612e-006,6.006068e-006
3.454412e-001,-1.158160e-005,6.021287e-006
3.462353e-001,-7.888914e-006,6.047575e-006
3.470294e-001,-5.539025e-006,6.052676e-006
3.478235e-001,-6.210422e-006,6.048287e-006
3.486176e-001,-6.546120e-006,6.042053e-006
3.494118e-001,-8.224612e-006,6.044251e-006
3.502059e-001,-8.728161e-006,6.057418e-006
3.510000e-001,-8.224612e-006,6.076164e-006
3.517941e-001,-5.539025e-006,6.087670e-006
3.525882e-001,-4.867628e-006,6.082068e-006
3.533824e-001,-3.524834e-006,6.070550e-006
3.541765e-001,-8.392462e-007,6.061379e-006
3.549706e-001,-3.692683e-006,6.043768e-006
3.557647e-001,-4.531929e-006,6.038265e-006
3.565588e-001,-4.196231e-006,6.039038e-006
3.573529e-001,-5.203327e-006,6.036541e-006
3.581471e-001,-4.196231e-006,6.034579e-006
3.589412e-001,-8.224612e-006,6.035947e-006
3.597353e-001,-4.196231e-006,6.040680e-006
3.605294e-001,-6.881819e-006,6.032832e-006
3.613235e-001,-8.224612e-006,6.036222e-006
3.621176e-001,-3.021286e-006,6.043887e-006
3.629118e-001,-3.021286e-006,6.041652e-006
3.637059e-001,-8.224612e-006,6.035969e-006
3.645000e-001,-4.531929e-006,6.035969e-006
3.652941e-001,-2.517739e-006,6.033293e-006
3.660882e-001,-8.224612e-006,6.022457e-006
3.668824e-001,-9.735256e-006,6.027818e-006
3.676765e-001,-5.539025e-006,6.044726e-006
3.684706e-001,-4.867628e-006,6.046128e-006
3.692647e-001,-5.874723e-006,6.035969e-006
3.700588e-001,-3.860533e-006,6.036980e-006
3.708529e-001,-6.210422e-006,6.032817e-006
3.716471e-001,-7.217518e-006,6.034401e-006
3.724412e-001,-3.524834e-006,6.046878e-006
3.732353e-001,-4.196231e-006,6.041571e-006
3.740294e-001,-4.867628e-006,6.039967e-006
3.748235e-001,-5.539025e-006,6.041570e-006
3.756176e-001,-6.210422e-006,6.034616e-006
3.764118e-001,-4.867628e-006,6.042640e-006
3.772059e-001,-3.021286e-006,6.047627e-006
3.780000e-001,-5.203327e-006,6.045394e-006
3.787941e-001,-6.210422e-006,6.047115e-006
3.795882e-001,-7.553216e-006,6.051031e-006
3.803824e-001,-7.217518e-006,6.062112e-006
3.811765e-001,-4.867628e-006,6.073646e-006
3.819706e-001,-4.364080e-006,6.074473e-006
3.827647e-001,-4.867628e-006,6.064502e-006
3.835588e-001,-2.853437e-006,6.058285e-006
3.843529e-001,-3.524834e-006,6.057159e-006
3.851471e-001,-6.881819e-006,6.057159e-006
3.859412e-001,-4.196231e-006,6.054611e-006
3.867353e-001,-1.510643e-006,6.055974e-006
3.875294e-001,-1.846342e-006,6.056212e-006
3.883235e-001,-4.196231e-006,6.052477e-006
3.891176e-001,-5.539025e-006,6.055856e-006
3.899118e-001,-4.196231e-006,6.057256e-006
3.907059e-001,-3.524834e-006,6.058922e-006
3.915000e-001,-2.517739e-006,6.055071e-006
3.922941e-001,-3.524834e-006,6.043026e-006
3.930882e-001,-9.063859e-006,6.022144e-006
3.938824e-001,-4.364080e-006,6.035739e-006
3.946765e-001,-5.539025e-006,6.030586e-006
3.954706e-001,-6.210422e-006,6.025562e-006
3.962647e-001,-4.867628e-006,6.023239e-006
3.970588e-001,-5.539025e-006,6.022345e-006
3.978529e-001,-6.881819e-006,6.019126e-006
3.986471e-001,-2.182040e-006,6.022524e-006
3.994412e-001,-4.196231e-006,6.015168e-006
4.002353e-001,-5.539025e-006,6.004717e-006
4.010294e-001,-6.210422e-006,6.002064e-006
4.018235e-001,-6.210422e-006,6.004157e-006
4.026176e-001,-7.049668e-006,6.004702e-006
4.034118e-001,-8.560311e-006,6.005322e-006
4.042059e-001,-9.567407e-006,6.021116e-006
4.050000e-001,-4.196231e-006,6.042002e-006
4.057941e-001,-4.531929e-006,6.038058e-006
4.065882e-001,-8.896010e-006,6.041066e-006
4.073824e-001,-9.567407e-006,6.061291e-006
4.081765e-001,-4.531929e-006,6.083632e-006
4.089706e-001,-3.524834e-006,6.083631e-006
4.097647e-001,-8.224612e-006,6.071939e-006
4.105588e-001,-5.539025e-006,6.077257e-006
4.113529e-001,-6.378271e-006,6.067564e-006
4.121471e-001,-7.217518e-006,6.070188e-006
4.129412e-001,-4.867628e-006,6.073735e-006
4.137353e-001,-7.888914e-006,6.046730e-006
4.145294e-001,-7.721065e-006,6.037285e-006
4.153235e-001,-5.539025e-006,6.044912e-006
4.161176e-001,-5.539025e-006,6.050313e-006
4.169118e-001,-3.524834e-006,6.053752e-006
4.177059e-001,-4.867628e-006,6.048948e-006
4.185000e-001,-7.553216e-006,6.035881e-006
4.192941e-001,-8.224612e-006,6.042833e-006
4.200882e-001,-7.888914e-006,6.050490e-006
4.208824e-001,-9.567407e-006,6.056715e-006
4.216765e-001,-5.539025e-006,6.064413e-006
4.224706e-001,-5.874723e-006,6.061787e-006
4.232647e-001,-7.553216e-006,6.050052e-006
4.240588e-001,-6.210422e-006,6.029730e-006
4.248529e-001,-4.196231e-006,6.027409e-006
4.256471e-001,-4.196231e-006,6.027029e-006
4.264412e-001,-2.182040e-006,6.012302e-006
4.272353e-001,-8.392462e-007,6.007286e-006
4.280294e-001,-4.196231e-006,6.006868e-006
4.288235e-001,-4.531929e-006,6.006092e-006
4.296176e-001,-5.035477e-006,6.005255e-006
4.304118e-001,-8.392462e-006,6.005695e-006
4.312059e-001,-4.867628e-006,6.022189e-006
4.320000e-001,-3.860533e-006,6.020341e-006
4.327941e-001,-7.217518e-006,6.019626e-006
4.335882e-001,-8.224612e-006,6.028741e-006
4.343824e-001,-5.035477e-006,6.044177e-006
4.351765e-001,-3.189136e-006,6.044615e-006
4.359706e-001,-4.364080e-006,6.033561e-006
4.367647e-001,-5.874723e-006,6.035903e-006
4.375588e-001,-6.210422e-006,6.042856e-006
4.383529e-001,-6.210422e-006,6.044934e-006
4.391471e-001,-5.035477e-006,6.051817e-006
4.399412e-001,-5.035477e-006,6.056345e-006
4.407353e-001,-3.524834e-006,6.062408e-006
4.415294e-001,-2.853437e-006,6.064421e-006
4.423235e-001,-4.196231e-006,6.065109e-006
4.431176e-001,-6.881819e-006,6.068067e-006
4.439118e-001,-4.196231e-006,6.070373e-006
4.447059e-001,-7.217518e-006,6.073742e-006
4.455000e-001,-8.224612e-006,6.083816e-006
4.462941e-001,-9.567407e-006,6.087244e-006
4.470882e-001,-8.224612e-006,6.092018e-006
4.478824e-001,-1.091020e-005,6.083182e-006
4.486765e-001,-8.224612e-006,6.096619e-006
4.494706e-001,-8.224612e-006,6.104208e-006
4.502647e-001,-4.196231e-006,6.106970e-006
4.510588e-001,-3.189136e-006,6.108322e-006
4.518529e-001,-5.874723e-006,6.105619e-006
4.526471e-001,-3.524834e-006,6.106618e-006
4.534412e-001,-5.539025e-006,6.101856e-006
4.542353e-001,-1.174945e-006,6.097502e-006
4.550294e-001,5.035477e-007,6.095478e-006
4.558235e-001,5.035477e-007,6.093417e-006
4.566176e-001,-2.853437e-006,6.085460e-006
4.574118e-001,-1.846342e-006,6.085460e-006
4.582059e-001,-2.853437e-006,6.077316e-006
4.590000e-001,-6.881819e-006,6.071408e-006
4.597941e-001,-2.853437e-006,6.071408e-006
4.605882e-001,-4.867628e-006,6.049497e-006
4.613824e-001,-7.553216e-006,6.043264e-006
4.621765e-001,-5.874723e-006,6.050209e-006
4.629706e-001,-2.853437e-006,6.046826e-006
4.637647e-001,-2.853437e-006,6.040888e-006
4.645588e-001,-3.524834e-006,6.039759e-006
4.653529e-001,-8.224612e-006,6.027983e-006
4.661471e-001,-8.560311e-006,6.026494e-006
4.669412e-001,-3.524834e-006,6.032089e-006
4.677353e-001,-4.196231e-006,6.029114e-006
4.685294e-001,-6.881819e-006,6.021251e-006
4.693235e-001,-7.553216e-006,6.029114e-006
4.701176e-001,-6.546120e-006,6.031673e-006
4.709118e-001,-5.203327e-006,6.028586e-006
4.717059e-001,-2.853437e-006,6.031085e-006
4.725000e-001,-3.524834e-006,6.025131e-006
4.732941e-001,-6.210422e-006,6.020305e-006
4.740882e-001,-6.210422e-006,6.028087e-006
4.748824e-001,-4.867628e-006,6.035584e-006
4.756765e-001,-8.392462e-007,6.039686e-006
4.764706e-001,-1.510643e-006,6.036595e-006
4.772647e-001,-6.881819e-006,6.028087e-006
4.780588e-001,-6.210422e-006,6.031480e-006
4.788529e-001,-6.210422e-006,6.032551e-006
4.796471e-001,-3.021286e-006,6.032551e-006
4.804412e-001,-1.510643e-006,6.030312e-006
4.812353e-001,-8.392462e-007,6.018397e-006
4.820294e-001,-4.531929e-006,6.003470e-006
4.828235e-001,-4.867628e-006,5.998686e-006
4.836176e-001,-2.349889e-006,5.997788e-006
4.844118e-001,-4.867628e-006,5.995634e-006
4.852059e-001,-6.210422e-006,6.000241e-006
4.860000e-001,-4.531929e-006,6.009720e-006
4.867941e-001,-3.189136e-006,6.006016e-006
4.875882e-001,-1.158160e-005,5.998482e-006
4.883824e-001,-9.735256e-006,6.029336e-006
4.891765e-001,-7.888914e-006,6.047641e-006
4.899706e-001,-9.903105e-006,6.055944e-006
4.907647e-001,-1.158160e-005,6.071570e-006
4.915588e-001,-7.888914e-006,6.102053e-006
4.923529e-001,-7.217518e-006,6.112924e-006
4.931471e-001,-6.546120e-006,6.121139e-006
4.939412e-001,-8.560311e-006,6.124304e-006
4.947353e-001,-8.896010e-006,6.135370e-006
4.955294e-001,-7.553216e-006,6.147934e-006
4.963235e-001,-7.553216e-006,6.156567e-006
4.971176e-001,-1.091020e-005,6.161345e-006
4.979118e-001,-6.881819e-006,6.179841e-006
4.987059e-001,-3.189136e-006,6.187503e-006
4.995000e-001,-9.063859e-006,6.179087e-006
5.002941e-001,-3.692683e-006,6.190308e-006
5.010882e-001,-4.531929e-006,6.181627e-006
5.018824e-001,-4.531929e-006,6.180814e-006
5.026765e-001,-4.867628e-006,6.182265e-006
5.034706e-001,-2.853437e-006,6.169480e-006
5.042647e-001,-1.007095e-006,6.154104e-006
5.050588e-001,-1.510643e-006,6.150509e-006
5.058529e-001,-5.203327e-006,6.143152e-006
5.066471e-001,-4.196231e-006,6.143598e-006
5.074412e-001,-5.874723e-006,6.142020e-006
5.082353e-001,-5.539025e-006,6.136174e-006
5.090294e-001,-4.867628e-006,6.128661e-006
5.098235e-001,-2.517739e-006,6.127782e-006
5.106176e-001,-2.517739e-006,6.121454e-006
5.114118e-001,-6.210422e-006,6.105486e-006
5.122059e-001,-6.378271e-006,6.100664e-006
5.130000e-001,-3.189136e-006,6.092150e-006
5.137941e-001,-4.867628e-006,6.063629e-006
5.145882e-001,-5.203327e-006,6.045787e-006
5.153824e-001,-5.539025e-006,6.040442e-006
5.161765e-001,-6.210422e-006,6.026857e-006
5.169706e-001,-5.203327e-006,6.019171e-006
5.177647e-001,-6.546120e-006,5.986527e-006
5.185588e-001,-4.531929e-006,5.966229e-006
5.193529e-001,-7.217518e-006,5.943688e-006
5.201471e-001,-6.546120e-006,5.923729e-006
5.209412e-001,-5.203327e-006,5.903215e-006
5.217353e-001,-6.210422e-006,5.880311e-006
5.225294e-001,-7.553216e-006,5.877930e-006
5.233235e-001,-4.867628e-006,5.880555e-006
5.241176e-001,-1.510643e-006,5.874143e-006
5.249118e-001,-4.867628e-006,5.860625e-006
5.257059e-001,-5.874723e-006,5.856582e-006
5.265000e-001,-4.196231e-006,5.854904e-006
5.272941e-001,-4.531929e-006,5.850305e-006
5.280882e-001,-5.539025e-006,5.851839e-006
5.288824e-001,-5.203327e-006,5.857417e-006
5.296765e-001,-8.392462e-007,5.854291e-006
5.304706e-001,-8.392462e-007,5.842816e-006
5.312647e-001,-4.196231e-006,5.841710e-006
5.320588e-001,-3.524834e-006,5.845886e-006
5.328529e-001,-4.531929e-006,5.848648e-006
5.336471e-001,-5.874723e-006,5.854045e-006
5.344412e-001,-5.874723e-006,5.862133e-006
5.352353e-001,-5.706874e-006,5.870208e-006
5.360294e-001,-7.217518e-006,5.876831e-006
5.368235e-001,-7.553216e-006,5.890654e-006
5.376176e-001,-1.091020e-005,5.905297e-006
5.384118e-001,-1.091020e-005,5.937299e-006
5.392059e-001,-9.231709e-006,5.968228e-006
5.400000e-001,-1.023880e-005,5.989658e-006
5.407941e-001,-9.567407e-006,6.017396e-006
5.415882e-001,-7.553216e-006,6.040969e-006
5.423824e-001,-8.896010e-006,6.054536e-006
5.431765e-001,-9.903105e-006,6.075129e-006
5.439706e-001,-8.560311e-006,6.099891e-006
5.447647e-001,-6.210422e-006,6.118397e-006
5.455588e-001,-1.091020e-005,6.128163e-006
5.463529e-001,-7.553216e-006,6.159008e-006
5.471471e-001,-7.217518e-006,6.169197e-006
5.479412e-001,-8.224612e-006,6.177336e-006
5.487353e-001,-4.867628e-006,6.186857e-006
5.495294e-001,-4.364080e-006,6.185058e-006
5.503235e-001,-5.539025e-006,6.182062e-006
5.511176e-001,-1.510643e-006,6.182991e-006
5.519118e-001,-3.524834e-006,6.168869e-006
5.527059e-001,-4.531929e-006,6.158622e-006
5.535000e-001,-5.539025e-006,6.150458e-006
5.542941e-001,-4.196231e-006,6.148415e-006
5.550882e-001,-3.692683e-006,6.141874e-006
5.558824e-001,-3.524834e-006,6.143765e-006
5.566765e-001,-3.524834e-006,6.143452e-006
5.574706e-001,-4.196231e-006,6.126135e-006
5.582647e-001,-3.021286e-006,6.108534e-006
5.590588e-001,-5.874723e-006,6.094675e-006
5.598529e-001,-5.539025e-006,6.086012e-006
5.606471e-001,-1.678492e-006,6.081647e-006
5.614412e-001,-8.392462e-007,6.064650e-006
5.622353e-001,-3.524834e-006,6.049837e-006
5.630294e-001,-4.531929e-006,6.047701e-006
5.638235e-001,-3.524834e-006,6.050964e-006
5.646176e-001,-6.546120e-006,6.046158e-006
5.654118e-001,-5.539025e-006,6.044971e-006
5.662059e-001,-6.546120e-006,6.033739e-006
5.670000e-001,-7.553216e-006,6.031300e-006
5.677941e-001,-6.210422e-006,6.037248e-006
5.685882e-001,-6.210422e-006,6.034928e-006
5.693824e-001,-6.210422e-006,6.031991e-006
5.701765e-001,-4.364080e-006,6.033062e-006
5.709706e-001,-3.524834e-006,6.023023e-006
5.717647e-001,-6.210422e-006,6.003745e-006
5.725588e-001,-3.524834e-006,5.997465e-006
5.733529e-001,-3.524834e-006,5.985605e-006
5.741471e-001,-4.867628e-006,5.967830e-006
5.749412e-001,-5.539025e-006,5.969453e-006
5.757353e-001,-8.224612e-006,5.969453e-006
5.765294e-001,-1.158160e-005,5.972279e-006
5.773235e-001,-5.539025e-006,5.992114e-006
5.781176e-001,-4.196231e-006,5.989456e-006
5.789118e-001,-3.524834e-006,5.987838e-006
5.797059e-001,-5.874723e-006,5.988437e-006
5.805000e-001,-5.539025e-006,5.992152e-006
5.812941e-001,-1.091020e-005,5.982321e-006
5.820882e-001,-8.560311e-006,5.988774e-006
5.828824e-001,-6.881819e-006,6.000090e-006
5.836765e-001,-8.560311e-006,6.007203e-006
5.844706e-001,-6.210422e-006,6.026411e-006
5.852647e-001,-6.210422e-006,6.033315e-006
5.860588e-001,-3.860533e-006,6.030994e-006
5.868529e-001,-2.853437e-006,6.028673e-006
5.876471e-001,-4.867628e-006,6.026172e-006
5.884412e-001,-6.881819e-006,6.028829e-006
5.892353e-001,-3.524834e-006,6.036682e-006
5.900294e-001,-2.853437e-006,6.037277e-006
5.908235e-001,-6.210422e-006,6.029789e-006
5.916176e-001,-6.042573e-006,6.029231e-006
5.924118e-001,-7.553216e-006,6.021004e-006
5.932059e-001,-8.896010e-006,6.014362e-006
5.940000e-001,-9.567407e-006,6.020869e-006
5.947941e-001,-8.224612e-006,6.027185e-006
5.955882e-001,-7.553216e-006,6.009593e-006
5.963824e-001,-8.224612e-006,6.008219e-006
5.971765e-001,-2.182040e-006,6.018008e-006
5.979706e-001,-3.189136e-006,6.009056e-006
5.987647e-001,-4.531929e-006,6.000389e-006
5.995588e-001,-4.196231e-006,5.987875e-006
6.003529e-001,-3.524834e-006,5.972279e-006
6.011471e-001,-6.210422e-006,5.957538e-006
6.019412e-001,-4.867628e-006,5.959646e-006
6.027353e-001,-4.196231e-006,5.959646e-006
6.035294e-001,-1.846342e-006,5.961031e-006
6.043235e-001,-5.203327e-006,5.961753e-006
6.051176e-001,-8.896010e-006,5.965342e-006
6.059118e-001,-5.539025e-006,5.980964e-006
6.067059e-001,-5.035477e-006,5.984443e-006
6.075000e-001,-6.210422e-006,5.983986e-006
6.082941e-001,-6.881819e-006,5.989561e-006
6.090882e-001,-5.706874e-006,5.984165e-006
6.098824e-001,-5.203327e-006,5.988145e-006
6.106765e-001,-1.510643e-006,5.982748e-006
6.114706e-001,-3.524834e-006,5.965327e-006
6.122647e-001,-5.035477e-006,5.966206e-006
6.130588e-001,-3.692683e-006,5.970536e-006
6.138529e-001,-3.524834e-006,5.956114e-006
6.146471e-001,-2.182040e-006,5.953945e-006
6.154412e-001,-5.035477e-006,5.953523e-006
6.162353e-001,-8.224612e-006,5.942201e-006
6.170294e-001,-8.896010e-006,5.934927e-006
6.178235e-001,-8.560311e-006,5.947914e-006
6.186176e-001,-4.196231e-006,5.961174e-006
6.194118e-001,-2.182040e-006,5.956657e-006
6.202059e-001,-8.224612e-006,5.953945e-006
6.210000e-001,-1.124590e-005,5.961716e-006
6.217941e-001,-5.539025e-006,5.981549e-006
6.225882e-001,-3.524834e-006,5.986407e-006
6.233824e-001,-4.867628e-006,5.985028e-006
6.241765e-001,-7.553216e-006,5.985028e-006
6.249706e-001,-5.539025e-006,5.992040e-006
6.257647e-001,-8.224612e-006,5.989943e-006
6.265588e-001,-8.896010e-006,6.001615e-006
6.273529e-001,-8.560311e-006,6.020162e-006
6.281471e-001,-6.210422e-006,6.032371e-006
6.289412e-001,-6.210422e-006,6.032370e-006
6.297353e-001,-3.692683e-006,6.027490e-006
6.305294e-001,-1.510643e-006,6.017322e-006
6.313235e-001,-6.881819e-006,6.011653e-006
6.321176e-001,-7.888914e-006,6.019148e-006
6.329118e-001,-4.196231e-006,6.029336e-006
6.337059e-001,-6.210422e-006,6.031835e-006
6.345000e-001,-7.553216e-006,6.038733e-006
6.352941e-001,-8.224612e-006,6.041289e-006
6.360882e-001,-5.539025e-006,6.054463e-006
6.368824e-001,-1.846342e-006,6.061927e-006
6.376765e-001,-8.392462e-007,6.061927e-006
6.384706e-001,-3.021286e-006,6.057485e-006
6.392647e-001,-5.035477e-006,6.051816e-006
6.400588e-001,-3.524834e-006,6.053855e-006
6.408529e-001,-2.349889e-006,6.053855e-006
6.416471e-001,-3.860533e-006,6.053640e-006
6.424412e-001,-5.539025e-006,6.054292e-006
6.432353e-001,-8.560311e-006,6.040739e-006
6.440294e-001,-7.888914e-006,6.055018e-006
6.448235e-001,-5.539025e-006,6.063311e-006
6.456176e-001,-9.231709e-006,6.061239e-006
6.464118e-001,-6.881819e-006,6.077382e-006
6.472059e-001,-7.217518e-006,6.081750e-006
6.480000e-001,-8.896010e-006,6.082989e-006
6.487941e-001,-6.210422e-006,6.102428e-006
6.495882e-001,-4.867628e-006,6.107895e-006
6.503824e-001,-4.196231e-006,6.106073e-006
6.511765e-001,-6.210422e-006,6.100605e-006
6.519706e-001,-4.867628e-006,6.100604e-006
6.527647e-001,-3.524834e-006,6.093813e-006
6.535588e-001,-1.510643e-006,6.077891e-006
6.543529e-001,-4.196231e-006,6.054462e-006
6.551471e-001,-6.546120e-006,6.054462e-006
6.559412e-001,-4.196231e-006,6.060328e-006
6.567353e-001,-2.853437e-006,6.044139e-006
6.575294e-001,-4.531929e-006,6.022129e-006
6.583235e-001,-4.867628e-006,6.022129e-006
6.591176e-001,-4.531929e-006,6.025108e-006
6.599118e-001,-3.524834e-006,6.012645e-006
6.607059e-001,-1.678492e-007,6.007809e-006
6.615000e-001,-1.510643e-006,5.997023e-006
6.622941e-001,-4.867628e-006,5.983783e-006
6.630882e-001,-4.196231e-006,5.983783e-006
6.638824e-001,-7.553216e-006,5.971895e-006
6.646765e-001,-7.553216e-006,5.971212e-006
6.654706e-001,-3.189136e-006,5.978240e-006
6.662647e-001,-4.364080e-006,5.972774e-006
6.670588e-001,-3.860533e-006,5.974539e-006
6.678529e-001,-2.182040e-006,5.972196e-006
6.686471e-001,-5.874723e-006,5.958238e-006
6.694412e-001,-7.553216e-006,5.949376e-006
6.702353e-001,-6.881819e-006,5.947988e-006
6.710294e-001,-7.217518e-006,5.936151e-006
6.718235e-001,-8.224612e-006,5.941891e-006
6.726176e-001,-1.091020e-005,5.950763e-006
6.734118e-001,-8.896010e-006,5.967326e-006
6.742059e-001,-9.567407e-006,5.978142e-006
6.750000e-001,-1.225299e-005,5.997801e-006
6.757941e-001,-8.224612e-006,6.032883e-006
6.765882e-001,-7.721065e-006,6.049458e-006
6.773824e-001,-6.210422e-006,6.064945e-006
6.781765e-001,-8.224612e-006,6.070446e-006
6.789706e-001,-7.217518e-006,6.082789e-006
6.797647e-001,-9.567407e-006,6.089784e-006
6.805588e-001,-7.553216e-006,6.095300e-006
6.813529e-001,-4.531929e-006,6.104008e-006
6.821471e-001,-7.217518e-006,6.105477e-006
6.829412e-001,-8.560311e-006,6.105477e-006
6.837353e-001,-4.364080e-006,6.106947e-006
6.845294e-001,-3.524834e-006,6.105301e-006
6.853235e-001,-3.524834e-006,6.105889e-006
6.861176e-001,-3.189136e-006,6.104162e-006
6.869118e-001,-4.196231e-006,6.097809e-006
6.877059e-001,-4.196231e-006,6.092333e-006
6.885000e-001,-2.853437e-006,6.086852e-006
6.892941e-001,-2.182040e-006,6.082347e-006
6.900882e-001,-4.196231e-006,6.076953e-006
6.908824e-001,-6.210422e-006,6.078311e-006
6.916765e-001,-5.203327e-006,6.086277e-006
6.924706e-001,-3.524834e-006,6.088753e-006
6.932647e-001,-5.539025e-006,6.079610e-006
6.940588e-001,-5.539025e-006,6.083033e-006
6.948529e-001,-5.035477e-006,6.077425e-006
6.956471e-001,-3.860533e-006,6.066336e-006
6.964412e-001,-4.531929e-006,6.046187e-006
6.972353e-001,-3.189136e-006,6.033768e-006
6.980294e-001,-1.510643e-006,6.004970e-006
6.988235e-001,-4.196231e-006,5.987613e-006
6.996176e-001,-5.539025e-006,5.974292e-006
7.004118e-001,-2.182040e-006,5.977775e-006
7.012059e-001,-1.510643e-006,5.976334e-006
7.020000e-001,-5.203327e-006,5.967740e-006
7.027941e-001,-4.196231e-006,5.971648e-006
7.035882e-001,-6.210422e-006,5.968161e-006
7.043824e-001,-5.539025e-006,5.978075e-006
7.051765e-001,-3.189136e-006,5.986175e-006
7.059706e-001,-4.867628e-006,5.988812e-006
7.067647e-001,-9.567407e-006,5.992946e-006
7.075588e-001,-7.888914e-006,6.016316e-006
7.083529e-001,-7.553216e-006,6.030616e-006
7.091471e-001,-6.210422e-006,6.033174e-006
7.099412e-001,-7.217518e-006,6.041199e-006
7.107353e-001,-8.224612e-006,6.048680e-006
7.115294e-001,-8.896010e-006,6.051469e-006
7.123235e-001,-5.539025e-006,6.063200e-006
7.131176e-001,-6.881819e-006,6.069116e-006
7.139118e-001,-4.867628e-006,6.079397e-006
7.147059e-001,-6.881819e-006,6.082348e-006
7.155000e-001,-8.560311e-006,6.077035e-006
7.162941e-001,-9.567407e-006,6.077035e-006
7.170882e-001,-5.706874e-006,6.097729e-006
7.178824e-001,-2.853437e-006,6.101634e-006
7.186765e-001,-5.539025e-006,6.091391e-006
7.194706e-001,-5.539025e-006,6.084494e-006
7.202647e-001,-5.203327e-006,6.081308e-006
7.210588e-001,-7.553216e-006,6.081308e-006
7.218529e-001,-5.539025e-006,6.094101e-006
7.226471e-001,-5.539025e-006,6.098870e-006
7.234412e-001,-7.553216e-006,6.096810e-006
7.242353e-001,-8.392462e-006,6.101635e-006
7.250294e-001,-5.874723e-006,6.113820e-006
7.258235e-001,-2.853437e-006,6.122619e-006
7.266176e-001,-3.860533e-006,6.124143e-006
7.274118e-001,-2.853437e-006,6.115698e-006
7.282059e-001,-5.539025e-006,6.107771e-006
7.290000e-001,-4.196231e-006,6.105714e-006
7.297941e-001,-1.510643e-006,6.107925e-006
7.305882e-001,-3.524834e-006,6.107925e-006
7.313824e-001,-2.853437e-006,6.110980e-006
7.321765e-001,-2.182040e-006,6.107749e-006
7.329706e-001,-3.524834e-006,6.102811e-006
7.337647e-001,-4.196231e-006,6.104612e-006
7.345588e-001,-3.860533e-006,6.103024e-006
7.353529e-001,-7.721065e-006,6.096846e-006
7.361471e-001,-1.124590e-005,6.107044e-006
7.369412e-001,-8.224612e-006,6.137293e-006
7.377353e-001,-6.546120e-006,6.120018e-006
7.385294e-001,-9.231709e-006,6.106492e-006
7.393235e-001,-8.224612e-006,6.112485e-006
7.401176e-001,-6.881819e-006,6.104553e-006
7.409118e-001,-1.040665e-005,6.081876e-006
7.417059e-001,-1.091020e-005,6.093924e-006
7.425000e-001,-5.539025e-006,6.111391e-006
7.432941e-001,-7.553216e-006,6.108219e-006
7.440882e-001,-8.896010e-006,6.103987e-006
7.448824e-001,-7.217518e-006,6.103987e-006
7.456765e-001,-5.539025e-006,6.102694e-006
7.464706e-001,-4.867628e-006,6.095809e-006
7.472647e-001,-6.881819e-006,6.070853e-006
7.480588e-001,-5.539025e-006,6.070853e-006
7.488529e-001,-6.881819e-006,6.076230e-006
7.496471e-001,-6.881819e-006,6.067105e-006
7.504412e-001,-6.881819e-006,6.075950e-006
7.512353e-001,-6.210422e-006,6.082975e-006
7.520294e-001,-6.881819e-006,6.087693e-006
7.528235e-001,-4.364080e-006,6.093880e-006
7.536176e-001,-4.867628e-006,6.096728e-006
7.544118e-001,-3.524834e-006,6.102649e-006
7.552059e-001,-6.210422e-006,6.105295e-006
7.560000e-001,-6.881819e-006,6.108292e-006
7.567941e-001,-3.860533e-006,6.116043e-006
7.575882e-001,-2.182040e-006,6.110936e-006
7.583824e-001,-3.356985e-007,6.104178e-006
7.591765e-001,-5.035477e-007,6.098023e-006
7.599706e-001,-1.678492e-007,6.096434e-006
7.607647e-001,-2.182040e-006,6.094785e-006
7.615588e-001,-4.364080e-006,6.085946e-006
7.623529e-001,8.392462e-007,6.080283e-006
7.631471e-001,-4.867628e-006,6.077803e-006
7.639412e-001,-4.196231e-006,6.077803e-006
7.647353e-001,-3.524834e-006,6.075322e-006
7.655294e-001,-2.182040e-006,6.070536e-006
7.663235e-001,-4.867628e-006,6.061661e-006
7.671176e-001,-3.524834e-006,6.060773e-006
7.679118e-001,-1.510643e-006,6.052773e-006
7.687059e-001,-4.196231e-006,6.047968e-006
7.695000e-001,-3.524834e-006,6.038882e-006
7.702941e-001,-7.888914e-006,6.030854e-006
7.710882e-001,-7.721065e-006,6.040130e-006
7.718824e-001,-4.531929e-006,6.045676e-006
7.726765e-001,-5.539025e-006,6.036051e-006
7.734706e-001,-6.881819e-006,6.037894e-006
7.742647e-001,-7.217518e-006,6.049770e-006
7.750588e-001,-7.553216e-006,6.057241e-006
7.758529e-001,-5.539025e-006,6.063163e-006
7.766471e-001,-4.196231e-006,6.066595e-006
7.774412e-001,-8.560311e-006,6.065826e-006
7.782353e-001,-9.231709e-006,6.076998e-006
7.790294e-001,-1.023880e-005,6.092216e-006
7.798235e-001,-8.896010e-006,6.119372e-006
7.806176e-001,-1.124590e-005,6.139749e-006
7.814118e-001,-6.210422e-006,6.167917e-006
7.822059e-001,-1.174945e-006,6.174664e-006
7.830000e-001,-5.539025e-006,6.169721e-006
7.837941e-001,-7.217518e-006,6.168732e-006
7.845882e-001,-4.867628e-006,6.173269e-006
7.853824e-001,-8.896010e-006,6.170979e-006
7.861765e-001,-4.196231e-006,6.177954e-006
7.869706e-001,-4.196231e-006,6.167780e-006
7.877647e-001,-7.888914e-006,6.141539e-006
7.885588e-001,-2.182040e-006,6.126795e-006
7.893529e-001,2.517739e-006,6.105847e-006
7.901471e-001,-2.182040e-006,6.080106e-006
7.909412e-001,-2.853437e-006,6.057338e-006
7.917353e-001,-4.531929e-006,6.044467e-006
7.925294e-001,-8.896010e-006,6.029009e-006
7.933235e-001,-5.874723e-006,6.024007e-006
7.941176e-001,-6.881819e-006,6.013751e-006
7.949118e-001,-6.210422e-006,6.016078e-006
7.957059e-001,-4.196231e-006,5.994743e-006
7.965000e-001,-7.553216e-006,5.984257e-006
7.972941e-001,-7.888914e-006,5.985576e-006
7.980882e-001,-6.378271e-006,5.984137e-006
7.988824e-001,-6.210422e-006,5.988656e-006
7.996765e-001,-9.903105e-006,5.993845e-006
8.004706e-001,-3.524834e-006,6.011721e-006
8.012647e-001,-2.853437e-006,6.014408e-006
8.020588e-001,-4.196231e-006,6.013273e-006
8.028529e-001,-1.846342e-006,6.012498e-006
8.036471e-001,-5.539025e-006,6.005270e-006
8.044412e-001,-5.203327e-006,6.008736e-006
8.052353e-001,-2.853437e-006,6.012296e-006
8.060294e-001,-4.196231e-006,6.011162e-006
8.068235e-001,-1.678492e-006,6.012535e-006
8.076176e-001,-5.035477e-006,6.008617e-006
8.084118e-001,-6.881819e-006,6.012915e-006
8.092059e-001,-5.539025e-006,6.016317e-006
8.100000e-001,-5.539025e-006,6.016315e-006
8.107941e-001,-9.063859e-006,6.023685e-006
8.115882e-001,-8.896010e-006,6.045178e-006
8.123824e-001,-5.874723e-006,6.062726e-006
8.131765e-001,-3.021286e-006,6.066395e-006
8.139706e-001,-6.210422e-006,6.065530e-006
8.147647e-001,-4.196231e-006,6.064405e-006
8.155588e-001,-2.182040e-006,6.060972e-006
8.163529e-001,-2.853437e-006,6.050956e-006
8.171471e-001,-4.196231e-006,6.038072e-006
8.179412e-001,-6.881819e-006,6.032541e-006
8.187353e-001,-6.210422e-006,6.034861e-006
8.195294e-001,-6.546120e-006,6.034861e-006
8.203235e-001,-5.539025e-006,6.041139e-006
8.211176e-001,-6.881819e-006,6.045950e-006
8.219118e-001,-6.881819e-006,6.048264e-006
8.227059e-001,-8.896010e-006,6.057455e-006
8.235000e-001,-6.881819e-006,6.074967e-006
8.242941e-001,-4.867628e-006,6.081167e-006
8.250882e-001,-9.567407e-006,6.079337e-006
8.258824e-001,-6.881819e-006,6.085592e-006
8.266765e-001,-7.888914e-006,6.062844e-006
8.274706e-001,-7.553216e-006,6.071126e-006
8.282647e-001,-8.224612e-006,6.081462e-006
8.290588e-001,-9.231709e-006,6.095904e-006
8.298529e-001,-7.049668e-006,6.109136e-006
8.306471e-001,-5.874723e-006,6.114091e-006
8.314412e-001,-3.524834e-006,6.092039e-006
8.322353e-001,-4.867628e-006,6.076112e-006
8.330294e-001,-3.524834e-006,6.069907e-006
8.338235e-001,-1.678492e-006,6.053921e-006
8.346176e-001,-4.196231e-006,6.044510e-006
8.354118e-001,-5.539025e-006,6.038986e-006
8.362059e-001,-5.539025e-006,6.043144e-006
8.370000e-001,-4.531929e-006,6.049080e-006
8.377941e-001,-5.539025e-006,6.048250e-006
8.385882e-001,-6.378271e-006,6.043857e-006
8.393824e-001,-4.699779e-006,6.051298e-006
8.401765e-001,-5.874723e-006,6.054966e-006
8.409706e-001,-6.378271e-006,6.053899e-006
8.417647e-001,-4.867628e-006,6.054996e-006
8.425588e-001,-2.853437e-006,6.046217e-006
8.433529e-001,-3.860533e-006,6.027490e-006
8.441471e-001,-5.203327e-006,6.007212e-006
8.449412e-001,-6.378271e-006,5.996448e-006
8.457353e-001,-5.539025e-006,5.992100e-006
8.465294e-001,-5.539025e-006,5.982269e-006
8.473235e-001,-6.881819e-006,5.989164e-006
8.481176e-001,-5.874723e-006,5.999043e-006
8.489118e-001,-8.224612e-006,6.002751e-006
8.497059e-001,-7.553216e-006,6.016010e-006
8.505000e-001,-5.539025e-006,6.027810e-006
8.512941e-001,-5.539025e-006,6.025726e-006
8.520882e-001,-4.531929e-006,6.027572e-006
8.528824e-001,-2.853437e-006,6.028346e-006
8.536765e-001,-3.860533e-006,6.029596e-006
8.544706e-001,-3.524834e-006,6.026381e-006
8.552647e-001,-4.531929e-006,6.008727e-006
8.560588e-001,-5.874723e-006,6.006039e-006
8.568529e-001,-6.210422e-006,6.008466e-006
8.576471e-001,-3.524834e-006,6.008466e-006
8.584412e-001,-7.217518e-006,5.999200e-006
8.592353e-001,-5.706874e-006,6.004380e-006
8.600294e-001,-4.867628e-006,6.005837e-006
8.608235e-001,-7.217518e-006,6.011511e-006
8.616176e-001,-6.210422e-006,6.022010e-006
8.624118e-001,-5.539025e-006,6.025502e-006
8.632059e-001,-6.881819e-006,6.030005e-006
8.640000e-001,-6.881819e-006,6.039224e-006
8.647941e-001,-8.896010e-006,6.050445e-006
8.655882e-001,-6.881819e-006,6.064583e-006
8.663824e-001,-7.217518e-006,6.059254e-006
8.671765e-001,-5.203327e-006,6.052142e-006
8.679706e-001,-3.524834e-006,6.039973e-006
8.687647e-001,-4.867628e-006,6.038607e-006
8.695588e-001,-4.196231e-006,6.043597e-006
8.703529e-001,-4.364080e-006,6.030399e-006
8.711471e-001,-6.210422e-006,6.001966e-006
8.719412e-001,-8.560311e-006,6.004059e-006
8.727353e-001,-8.896010e-006,6.020176e-006
8.735294e-001,-5.874723e-006,6.034824e-006
8.743235e-001,-5.035477e-007,6.028874e-006
8.751176e-001,-3.524834e-006,6.020832e-006
8.759118e-001,-4.867628e-006,6.006210e-006
8.767059e-001,-5.874723e-006,5.991493e-006
8.775000e-001,-4.196231e-006,5.981181e-006
8.782941e-001,-6.546120e-006,5.975598e-006
8.790882e-001,-8.560311e-006,5.976739e-006
8.798824e-001,-5.874723e-006,5.992608e-006
8.806765e-001,-1.510643e-006,6.001167e-006
8.814706e-001,-2.853437e-006,5.989194e-006
8.822647e-001,-5.539025e-006,5.974794e-006
8.830588e-001,-4.867628e-006,5.978277e-006
8.838529e-001,-4.531929e-006,5.974314e-006
8.846471e-001,-5.203327e-006,5.964574e-006
8.854412e-001,-8.560311e-006,5.953733e-006
8.862353e-001,-6.546120e-006,5.965116e-006
8.870294e-001,-6.210422e-006,5.975635e-006
8.878235e-001,-6.881819e-006,5.985717e-006
8.886176e-001,-6.881819e-006,5.995879e-006
8.894118e-001,-5.035477e-006,6.001720e-006
8.902059e-001,-4.364080e-006,6.005150e-006
8.910000e-001,-4.867628e-006,6.008735e-006
8.917941e-001,-3.189136e-006,6.011064e-006
8.925882e-001,-7.553216e-006,6.005628e-006
8.933824e-001,-4.364080e-006,6.001324e-006
8.941765e-001,-3.189136e-006,5.989853e-006
8.949706e-001,-5.539025e-006,5.984398e-006
8.957647e-001,-5.874723e-006,5.969868e-006
8.965588e-001,-4.196231e-006,5.966440e-006
8.973529e-001,-3.021286e-006,5.957229e-006
8.981471e-001,-5.874723e-006,5.938486e-006
8.989412e-001,-7.721065e-006,5.937398e-006
8.997353e-001,-5.539025e-006,5.947024e-006
9.005294e-001,-6.881819e-006,5.950523e-006
9.013235e-001,-5.203327e-006,5.952875e-006
9.021176e-001,-6.210422e-006,5.953779e-006
9.029118e-001,-4.531929e-006,5.960768e-006
9.037059e-001,-4.196231e-006,5.965643e-006
9.045000e-001,-1.510643e-006,5.965643e-006
9.052941e-001,-2.853437e-006,5.954804e-006
9.060882e-001,-4.196231e-006,5.952272e-006
9.068824e-001,-7.553216e-006,5.954804e-006
9.076765e-001,-4.699779e-006,5.964560e-006
9.084706e-001,-3.021286e-006,5.964131e-006
9.092647e-001,-5.874723e-006,5.961084e-006
9.100588e-001,-6.210422e-006,5.966981e-006
9.108529e-001,-9.063859e-006,5.977258e-006
9.116471e-001,-7.553216e-006,5.998498e-006
9.124412e-001,-8.224612e-006,6.007346e-006
9.132353e-001,-6.378271e-006,6.020594e-006
9.140294e-001,-6.881819e-006,6.016263e-006
9.148235e-001,-7.049668e-006,6.013698e-006
9.156176e-001,-7.049668e-006,6.024155e-006
9.164118e-001,-6.881819e-006,6.032252e-006
9.172059e-001,-8.392462e-006,6.040813e-006
9.180000e-001,-3.189136e-006,6.058100e-006
9.187941e-001,-4.196231e-006,6.051698e-006
9.195882e-001,-6.881819e-006,6.041311e-006
9.203824e-001,-3.860533e-006,6.041311e-006
9.211765e-001,-4.531929e-006,6.031501e-006
9.219706e-001,-4.196231e-006,6.019052e-006
9.227647e-001,-5.874723e-006,5.992159e-006
9.235588e-001,-2.349889e-006,5.980289e-006
9.243529e-001,-3.189136e-006,5.957342e-006
9.251471e-001,-5.874723e-006,5.919812e-006
9.259412e-001,-6.210422e-006,5.910894e-006
9.267353e-001,-4.867628e-006,5.905221e-006
9.275294e-001,-2.853437e-006,5.901209e-006
9.283235e-001,-2.182040e-006,5.885131e-006
9.291176e-001,-3.524834e-006,5.872311e-006
9.299118e-001,-5.539025e-006,5.850820e-006
9.307059e-001,-7.553216e-006,5.843639e-006
9.315000e-001,-5.539025e-006,5.853579e-006
9.322941e-001,-4.867628e-006,5.847752e-006
9.330882e-001,-4.196231e-006,5.834234e-006
9.338824e-001,-3.860533e-006,5.833842e-006
9.346765e-001,-3.524834e-006,5.834519e-006
9.354706e-001,-7.217518e-006,5.834519e-006
9.362647e-001,-7.553216e-006,5.845949e-006
9.370588e-001,-7.049668e-006,5.856682e-006
9.378529e-001,-7.385367e-006,5.865401e-006
9.386471e-001,-6.378271e-006,5.877985e-006
9.394412e-001,-6.210422e-006,5.887708e-006
9.402353e-001,-6.210422e-006,5.893374e-006
9.410294e-001,-7.553216e-006,5.893374e-006
9.418235e-001,-7.217518e-006,5.901468e-006
9.426176e-001,-1.510643e-006,5.912162e-006
9.434118e-001,-4.196231e-006,5.904508e-006
9.442059e-001,-5.539025e-006,5.900981e-006
9.450000e-001,-5.539025e-006,5.902418e-006
9.457941e-001,-5.874723e-006,5.906673e-006
9.465882e-001,-6.881819e-006,5.910439e-006
9.473824e-001,-6.881819e-006,5.920449e-006
9.481765e-001,-5.203327e-006,5.932561e-006
9.489706e-001,-5.874723e-006,5.935101e-006
9.497647e-001,-6.881819e-006,5.936129e-006
9.505588e-001,-4.531929e-006,5.947545e-006
9.513529e-001,-9.903105e-006,5.952431e-006
9.521471e-001,-8.224612e-006,5.971393e-006
9.529412e-001,-7.553216e-006,5.984721e-006
9.537353e-001,-9.903105e-006,5.989637e-006
9.545294e-001,-1.023880e-005,6.007526e-006
9.553235e-001,-6.881819e-006,6.032565e-006
9.561176e-001,-7.217518e-006,6.038808e-006
9.569118e-001,-7.553216e-006,6.028399e-006
9.577059e-001,-8.896010e-006,6.027029e-006
9.585000e-001,-4.531929e-006,6.032862e-006
9.592941e-001,-2.182040e-006,6.028101e-006
9.600882e-001,-7.888914e-006,6.015585e-006
9.608824e-001,-9.567407e-006,6.014153e-006
9.616765e-001,-7.553216e-006,6.017435e-006
9.624706e-001,-8.224612e-006,6.024409e-006
9.632647e-001,-9.567407e-006,6.029768e-006
9.640588e-001,-5.539025e-006,6.047657e-006
9.648529e-001,-1.510643e-006,6.043264e-006
9.656471e-001,-4.196231e-006,6.024528e-006
9.664412e-001,-5.539025e-006,6.004957e-006
9.672353e-001,-3.189136e-006,6.004456e-006
9.680294e-001,-1.678492e-007,6.004994e-006
9.688235e-001,-3.021286e-006,5.996861e-006
9.696176e-001,-5.539025e-006,5.991135e-006
9.704118e-001,-3.189136e-006,5.992093e-006
9.712059e-001,-4.196231e-006,5.979622e-006
9.720000e-001,-5.035477e-006,5.976138e-006
9.727941e-001,-5.874723e-006,5.974719e-006
9.735882e-001,-4.196231e-006,5.968710e-006
9.743824e-001,-4.196231e-006,5.954600e-006
9.751765e-001,-6.881819e-006,5.950078e-006
9.759706e-001,-5.539025e-006,5.960564e-006
9.767647e-001,-6.881819e-006,5.964777e-006
9.775588e-001,-6.210422e-006,5.975237e-006
9.783529e-001,-4.531929e-006,5.977339e-006
9.791471e-001,-1.846342e-006,5.978120e-006
9.799412e-001,1.678492e-007,5.978420e-006
9.807353e-001,-3.189136e-006,5.975117e-006
9.815294e-001,-5.539025e-006,5.975658e-006
9.823235e-001,-6.210422e-006,5.982561e-006
9.831176e-001,-9.567407e-006,5.989516e-006
9.839118e-001,-5.539025e-006,6.009138e-006
9.847059e-001,-4.196231e-006,6.013317e-006
9.855000e-001,-7.553216e-006,6.002183e-006
9.862941e-001,-7.553216e-006,5.983738e-006
9.870882e-001,-6.210422e-006,5.980919e-006
9.878824e-001,-6.881819e-006,5.979778e-006
9.886765e-001,-6.546120e-006,5.969686e-006
9.894706e-001,-6.881819e-006,5.963070e-006
9.902647e-001,-6.546120e-006,5.963070e-006
9.910588e-001,-5.539025e-006,5.945567e-006
9.918529e-001,-6.881819e-006,5.921858e-006
9.926471e-001,-4.867628e-006,5.926341e-006
9.934412e-001,-6.378271e-006,5.917371e-006
9.942353e-001,-4.531929e-006,5.907013e-006
9.950294e-001,-8.224612e-006,5.898501e-006
9.958235e-001,-5.874723e-006,5.908471e-006
9.966176e-001,-6.378271e-006,5.911386e-006
9.974118e-001,-7.217518e-006,5.909587e-006
9.982059e-001,-6.881819e-006,5.915354e-006
9.990000e-001,-9.903105e-006,5.915354e-006
9.997941e-001,-8.896010e-006,5.928990e-006
1.000588e+000,-6.881819e-006,5.937518e-006
1.001382e+000,-8.224612e-006,5.939875e-006
1.002176e+000,-8.224612e-006,5.945311e-006
1.002971e+000,-7.049668e-006,5.958314e-006
1.003765e+000,-6.210422e-006,5.965259e-006
1.004559e+000,-5.874723e-006,5.972234e-006
1.005353e+000,-4.867628e-006,5.971152e-006
1.006147e+000,-2.853437e-006,5.964838e-006
1.006941e+000,-5.035477e-007,5.963032e-006
1.007735e+000,-3.356985e-007,5.961829e-006
1.008529e+000,-5.874723e-006,5.961829e-006
1.009324e+000,-4.531929e-006,5.970972e-006
1.010118e+000,-2.853437e-006,5.976439e-006
1.010912e+000,-5.539025e-006,5.977340e-006
1.011706e+000,-6.881819e-006,5.980438e-006
1.012500e+000,-7.721065e-006,5.992848e-006
1.013294e+000,-4.531929e-006,6.002385e-006
1.014088e+000,-5.203327e-006,6.003163e-006
1.014882e+000,-1.023880e-005,6.007047e-006
1.015676e+000,-7.721065e-006,6.033516e-006
1.016471e+000,-4.867628e-006,6.042989e-006
1.017265e+000,-6.881819e-006,6.045958e-006
1.018059e+000,-8.224612e-006,6.057819e-006
1.018853e+000,-8.896010e-006,6.070957e-006
1.019647e+000,-8.224612e-006,6.088430e-006
1.020441e+000,-8.224612e-006,6.089845e-006
1.021235e+000,-9.231709e-006,6.091944e-006
1.022029e+000,-8.896010e-006,6.108829e-006
1.022824e+000,-3.860533e-006,6.121447e-006
1.023618e+000,-1.846342e-006,6.112999e-006
1.024412e+000,-1.678492e-007,6.100304e-006
1.025206e+000,8.392462e-007,6.085401e-006
1.026000e+000,-1.510643e-006,6.077552e-006
1.026794e+000,-2.517739e-006,6.073535e-006
1.027588e+000,-1.846342e-006,6.055960e-006
1.028382e+000,-3.524834e-006,6.034408e-006
1.029176e+000,-4.531929e-006,6.009974e-006
1.029971e+000,-5.539025e-006,5.994428e-006
1.030765e+000,-4.364080e-006,5.968928e-006
1.031559e+000,-4.196231e-006,5.963717e-006
1.032353e+000,-5.874723e-006,5.968049e-006
1.033147e+000,-4.531929e-006,5.969071e-006
1.033941e+000,-4.867628e-006,5.960647e-006
1.034735e+000,-2.517739e-006,5.960647e-006
1.035529e+000,-5.706874e-006,5.941167e-006
1.036324e+000,-9.231709e-006,5.945176e-006
1.037118e+000,-7.553216e-006,5.963259e-006
1.037912e+000,-6.210422e-006,5.961874e-006
1.038706e+000,-4.867628e-006,5.970897e-006
1.039500e+000,-5.539025e-006,5.975523e-006
1.040294e+000,-7.553216e-006,5.982427e-006
1.041088e+000,-7.888914e-006,5.995431e-006
1.041882e+000,-5.539025e-006,6.006495e-006
1.042676e+000,-2.182040e-006,5.993635e-006
1.043471e+000,-2.853437e-006,5.985725e-006
1.044265e+000,-9.567407e-006,5.975283e-006
1.045059e+000,-5.203327e-006,5.989382e-006
1.045853e+000,-4.531929e-006,5.991898e-006
1.046647e+000,-2.182040e-006,5.982186e-006
1.047441e+000,-4.867628e-006,5.966868e-006
1.048235e+000,-5.874723e-006,5.962333e-006
1.049029e+000,-2.853437e-006,5.961249e-006
1.049824e+000,-4.196231e-006,5.937179e-006
1.050618e+000,-2.853437e-006,5.938569e-006
1.051412e+000,-4.196231e-006,5.938569e-006
1.052206e+000,-7.049668e-006,5.938569e-006
1.053000e+000,-7.553216e-006,5.950968e-006
1.053794e+000,-6.546120e-006,5.958020e-006
1.054588e+000,-9.903105e-006,5.962235e-006
1.055382e+000,-1.023880e-005,5.986205e-006
1.056176e+000,-5.706874e-006,6.009362e-006
1.056971e+000,-4.867628e-006,6.017240e-006
1.057765e+000,-7.553216e-006,6.016800e-006
1.058559e+000,-6.378271e-006,6.019365e-006
1.059353e+000,-8.560311e-006,6.022010e-006
1.060147e+000,-8.224612e-006,6.033264e-006
1.060941e+000,-6.881819e-006,6.029433e-006
1.061735e+000,-5.874723e-006,6.021034e-006
1.062529e+000,-4.867628e-006,6.021034e-006
1.063324e+000,-5.706874e-006,6.024885e-006
1.064118e+000,-3.524834e-006,6.023298e-006
1.064912e+000,-3.021286e-006,6.021928e-006
1.065706e+000,-2.853437e-006,6.023082e-006
1.066500e+000,-3.524834e-006,6.023083e-006
1.067294e+000,-6.042573e-006,6.021712e-006
1.068088e+000,-4.867628e-006,6.018843e-006
1.068882e+000,-2.853437e-006,6.014906e-006
1.069676e+000,-4.196231e-006,6.005710e-006
1.070471e+000,-8.224612e-006,6.002243e-006
1.071265e+000,-8.896010e-006,6.007622e-006
1.072059e+000,-6.881819e-006,6.016040e-006
1.072853e+000,-3.524834e-006,6.007622e-006
1.073647e+000,-1.510643e-006,5.998355e-006
1.074441e+000,-2.853437e-006,5.992669e-006
1.075235e+000,-6.210422e-006,5.970469e-006
1.076029e+000,-5.874723e-006,5.968124e-006
1.076824e+000,-4.196231e-006,5.960723e-006
1.077618e+000,-2.853437e-006,5.950177e-006
1.078412e+000,-4.867628e-006,5.934231e-006
1.079206e+000,-5.706874e-006,5.917698e-006
1.080000e+000,-4.531929e-006,5.913087e-006
1.080794e+000,-5.035477e-006,5.909322e-006
1.081588e+000,-7.721065e-006,5.912806e-006
1.082382e+000,-6.881819e-006,5.922472e-006
1.083176e+000,-8.560311e-006,5.931858e-006
1.083971e+000,-6.881819e-006,5.950742e-006
1.084765e+000,-6.881819e-006,5.958698e-006
1.085559e+000,-5.539025e-006,5.963153e-006
1.086353e+000,-7.217518e-006,5.963153e-006
1.087147e+000,-6.881819e-006,5.971574e-006
1.087941e+000,-7.217518e-006,5.976019e-006
1.088735e+000,-6.210422e-006,5.979059e-006
1.089529e+000,-5.539025e-006,5.983446e-006
1.090324e+000,-5.539025e-006,5.982427e-006
1.091118e+000,-6.881819e-006,5.979764e-006
1.091912e+000,-7.553216e-006,5.986063e-006
1.092706e+000,-3.524834e-006,5.999059e-006
1.093500e+000,-1.510643e-006,5.998401e-006
1.094294e+000,-3.524834e-006,5.991816e-006
1.095088e+000,-6.210422e-006,5.984301e-006
1.095882e+000,-4.867628e-006,5.986400e-006
1.096676e+000,-3.189136e-006,5.984541e-006
1.097471e+000,-4.867628e-006,5.974638e-006
1.098265e+000,-7.553216e-006,5.971754e-006
1.099059e+000,-6.210422e-006,5.968928e-006
1.099853e+000,-3.524834e-006,5.963996e-006
1.100647e+000,-4.867628e-006,5.959119e-006
1.101441e+000,-4.196231e-006,5.957252e-006
1.102235e+000,-1.678492e-007,5.956469e-006
1.103029e+000,-4.867628e-006,5.954299e-006
1.103824e+000,-1.678492e-006,5.956650e-006
1.104618e+000,-4.867628e-006,5.954081e-006
1.105412e+000,-2.853437e-006,5.954924e-006
1.106206e+000,-4.196231e-006,5.947869e-006
1.107000e+000,-6.881819e-006,5.942255e-006
1.107794e+000,-4.867628e-006,5.951609e-006
1.108588e+000,-6.210422e-006,5.944006e-006
1.109382e+000,-6.210422e-006,5.945613e-006
1.110176e+000,-8.896010e-006,5.949596e-006
1.110971e+000,-7.888914e-006,5.956830e-006
1.111765e+000,-4.196231e-006,5.963153e-006
1.112559e+000,-2.853437e-006,5.959661e-006
1.113353e+000,-1.678492e-007,5.949174e-006
1.114147e+000,-3.524834e-006,5.936491e-006
1.114941e+000,-4.196231e-006,5.918570e-006
1.115735e+000,-4.196231e-006,5.910560e-006
1.116529e+000,-5.874723e-006,5.901262e-006
1.117324e+000,-7.553216e-006,5.903268e-006
1.118118e+000,-5.539025e-006,5.915294e-006
1.118912e+000,-4.196231e-006,5.917174e-006
1.119706e+000,-7.553216e-006,5.917174e-006
1.120500e+000,-8.224612e-006,5.927393e-006
1.121294e+000,-4.531929e-006,5.935199e-006
1.122088e+000,-6.378271e-006,5.921032e-006
1.122882e+000,-7.217518e-006,5.910681e-006
1.123676e+000,-5.539025e-006,5.915415e-006
1.124471e+000,-6.210422e-006,5.923600e-006
1.125265e+000,-9.063859e-006,5.930624e-006
1.126059e+000,-8.560311e-006,5.946300e-006
1.126853e+000,-9.567407e-006,5.956672e-006
1.127647e+000,-1.091020e-005,5.976402e-006
1.128441e+000,-7.888914e-006,5.996665e-006
1.129235e+000,-7.553216e-006,5.993732e-006
1.130029e+000,-6.881819e-006,5.999716e-006
1.130824e+000,-6.881819e-006,6.011669e-006
1.131618e+000,-7.217518e-006,6.022047e-006
1.132412e+000,-7.721065e-006,6.027707e-006
1.133206e+000,-8.224612e-006,6.037188e-006
1.134000e+000,-1.225299e-005,6.049600e-006
1.134794e+000,-1.242084e-005,6.081905e-006
1.135588e+000,-9.903105e-006,6.103075e-006
1.136382e+000,-1.091020e-005,6.117466e-006
1.137176e+000,-8.224612e-006,6.138374e-006
1.137971e+000,-5.874723e-006,6.143634e-006
1.138765e+000,-9.903105e-006,6.140303e-006
1.139559e+000,-1.225299e-005,6.159131e-006
1.140353e+000,-1.023880e-005,6.192930e-006
1.141147e+000,-7.049668e-006,6.213758e-006
1.141941e+000,-5.539025e-006,6.223879e-006
1.142735e+000,-4.867628e-006,6.217129e-006
1.143529e+000,-3.524834e-006,6.218319e-006
1.144324e+000,-1.023880e-005,6.218896e-006
1.145118e+000,-8.896010e-006,6.237854e-006
1.145912e+000,-4.196231e-006,6.249236e-006
1.146706e+000,-2.853437e-006,6.249236e-006
1.147500e+000,-1.510643e-006,6.248985e-006
1.148294e+000,1.678492e-007,6.240767e-006
1.149088e+000,5.035477e-007,6.225544e-006
1.149882e+000,1.678492e-007,6.217757e-006
1.150676e+000,-2.182040e-006,6.205624e-006
1.151471e+000,-2.349889e-006,6.199895e-006
1.152265e+000,-1.510643e-006,6.191402e-006
1.153059e+000,-1.510643e-006,6.186704e-006
1.153853e+000,-1.846342e-006,6.182759e-006
1.154647e+000,-2.853437e-006,6.183049e-006
1.155441e+000,-3.021286e-006,6.183049e-006
1.156235e+000,-3.356985e-007,6.180865e-006
1.157029e+000,-8.392462e-007,6.166178e-006
1.157824e+000,5.035477e-007,6.160653e-006
1.158618e+000,1.846342e-006,6.158359e-006
1.159412e+000,5.035477e-007,6.150311e-006
1.160206e+000,-8.392462e-007,6.140383e-006
1.161000e+000,-1.174945e-006,6.119225e-006
1.161794e+000,-1.007095e-006,6.104721e-006
1.162588e+000,-2.853437e-006,6.087317e-006
1.163382e+000,5.035477e-007,6.078798e-006
1.164176e+000,-3.524834e-006,6.066447e-006
1.164971e+000,-7.888914e-006,6.056655e-006
1.165765e+000,-7.553216e-006,6.059950e-006
1.166559e+000,-5.874723e-006,6.062497e-006
1.167353e+000,-6.881819e-006,6.053054e-006
1.168147e+000,-3.189136e-006,6.062829e-006
1.168941e+000,-8.392462e-007,6.060875e-006
1.169735e+000,-3.189136e-006,6.048606e-006
1.170529e+000,-2.182040e-006,6.047359e-006
1.171324e+000,-3.189136e-006,6.043204e-006
1.172118e+000,-7.553216e-006,6.041244e-006
1.172912e+000,-4.531929e-006,6.047182e-006
1.173706e+000,-9.735256e-006,6.051134e-006
1.174500e+000,-8.392462e-006,6.073357e-006
1.175294e+000,-8.224612e-006,6.082768e-006
1.176088e+000,-8.224612e-006,6.090374e-006
1.176882e+000,-6.210422e-006,6.101855e-006
1.177676e+000,-8.392462e-006,6.109790e-006
1.178471e+000,-6.881819e-006,6.126882e-006
1.179265e+000,-9.231709e-006,6.135955e-006
1.180059e+000,-7.217518e-006,6.150093e-006
1.180853e+000,-7.217518e-006,6.148809e-006
1.181647e+000,-4.867628e-006,6.154351e-006
1.182441e+000,-6.546120e-006,6.154351e-006
1.183235e+000,-1.158160e-005,6.160879e-006
1.184029e+000,-7.049668e-006,6.191619e-006
1.184824e+000,-5.035477e-006,6.201197e-006
1.185618e+000,-7.888914e-006,6.194328e-006
1.186412e+000,-8.224612e-006,6.195661e-006
1.187206e+000,-9.903105e-006,6.200271e-006
1.188000e+000,-7.888914e-006,6.211440e-006
1.188794e+000,-3.524834e-006,6.216963e-006
1.189588e+000,-3.189136e-006,6.210263e-006
1.190382e+000,-3.524834e-006,6.202977e-006
1.191176e+000,-5.539025e-006,6.191510e-006
1.191971e+000,-4.196231e-006,6.186001e-006
1.192765e+000,-4.364080e-006,6.189945e-006
1.193559e+000,-4.867628e-006,6.190315e-006
1.194353e+000,-6.378271e-006,6.188517e-006
1.195147e+000,-7.553216e-006,6.191090e-006
1.195941e+000,-8.224612e-006,6.196884e-006
1.196735e+000,-5.035477e-006,6.202094e-006
1.197529e+000,-3.189136e-006,6.196443e-006
1.198324e+000,-1.174945e-006,6.192097e-006
1.199118e+000,-7.217518e-006,6.183571e-006
1.199912e+000,-8.224612e-006,6.184790e-006
1.200706e+000,-5.706874e-006,6.196906e-006
1.201500e+000,-4.867628e-006,6.180052e-006
1.202294e+000,-6.881819e-006,6.168717e-006
1.203088e+000,-7.553216e-006,6.166214e-006
1.203882e+000,-8.896010e-006,6.155612e-006
1.204676e+000,-9.567407e-006,6.148962e-006
1.205471e+000,-1.023880e-005,6.160391e-006
1.206265e+000,-1.023880e-005,6.174009e-006
1.207059e+000,-9.903105e-006,6.186320e-006
1.207853e+000,-9.231709e-006,6.191191e-006
1.208647e+000,-9.567407e-006,6.207807e-006
1.209441e+000,-1.225299e-005,6.230025e-006
1.210235e+000,-9.903105e-006,6.252451e-006
1.211029e+000,-1.225299e-005,6.254116e-006
1.211824e+000,-6.881819e-006,6.277771e-006
1.212618e+000,-4.196231e-006,6.272624e-006
1.213412e+000,-2.349889e-006,6.253829e-006
1.214206e+000,5.035477e-007,6.247420e-006
1.215000e+000,-1.678492e-007,6.246903e-006
1.215794e+000,-3.524834e-006,6.242420e-006
1.216588e+000,-3.860533e-006,6.237761e-006
1.217382e+000,1.510643e-006,6.238969e-006
1.218176e+000,-1.174945e-006,6.239544e-006
1.218971e+000,-2.182040e-006,6.237567e-006
1.219765e+000,-4.364080e-006,6.230946e-006
1.220559e+000,-3.860533e-006,6.233214e-006
1.221353e+000,-3.524834e-006,6.232523e-006
1.222147e+000,-5.539025e-006,6.229218e-006
1.222941e+000,-7.553216e-006,6.228239e-006
1.223735e+000,-3.524834e-006,6.238315e-006
1.224529e+000,-3.189136e-006,6.236991e-006
1.225324e+000,-6.378271e-006,6.227489e-006
1.226118e+000,-8.224612e-006,6.230046e-006
1.226912e+000,-6.378271e-006,6.235229e-006
1.227706e+000,-6.378271e-006,6.235769e-006
1.228500e+000,-6.210422e-006,6.240910e-006
1.229294e+000,-7.217518e-006,6.249875e-006
1.230088e+000,-8.560311e-006,6.263126e-006
1.230882e+000,-4.867628e-006,6.279151e-006
1.231676e+000,-5.539025e-006,6.277378e-006
1.232471e+000,-6.881819e-006,6.275377e-006
1.233265e+000,-9.567407e-006,6.264157e-006
1.234059e+000,-6.881819e-006,6.279608e-006
1.234853e+000,-7.721065e-006,6.287147e-006
1.235647e+000,-6.881819e-006,6.287797e-006
1.236441e+000,-4.531929e-006,6.285342e-006
1.237235e+000,-7.888914e-006,6.280772e-006
1.238029e+000,-6.881819e-006,6.284542e-006
1.238824e+000,-2.349889e-006,6.285684e-006
1.239618e+000,-3.524834e-006,6.275076e-006
1.240412e+000,-4.867628e-006,6.267350e-006
1.241206e+000,-5.539025e-006,6.265575e-006
1.242000e+000,-7.553216e-006,6.261335e-006
1.242794e+000,-4.867628e-006,6.269812e-006
1.243588e+000,-4.867628e-006,6.265496e-006
1.244382e+000,-5.539025e-006,6.266298e-006
1.245176e+000,-4.196231e-006,6.256898e-006
1.245971e+000,-5.035477e-006,6.252595e-006
1.246765e+000,-5.035477e-006,6.248691e-006
1.247559e+000,-5.539025e-006,6.241874e-006
1.248353e+000,-5.539025e-006,6.237617e-006
1.249147e+000,-1.510643e-006,6.220390e-006
1.249941e+000,-1.510643e-006,6.200684e-006
1.250735e+000,-4.531929e-006,6.189097e-006
1.251529e+000,-5.035477e-006,6.176966e-006
1.252324e+000,-6.881819e-006,6.166055e-006
1.253118e+000,-4.531929e-006,6.165451e-006
1.253912e+000,-4.867628e-006,6.160792e-006
1.254706e+000,-1.174945e-006,6.157995e-006
1.255500e+000,-1.510643e-006,6.152223e-006
1.256294e+000,-5.874723e-006,6.150706e-006
1.257088e+000,-4.196231e-006,6.159568e-006
1.257882e+000,-3.189136e-006,6.164090e-006
1.258676e+000,-1.678492e-007,6.157798e-006
1.259471e+000,-8.392462e-007,6.152492e-006
1.260265e+000,-3.189136e-006,6.150567e-006
1.261059e+000,-4.196231e-006,6.145255e-006
1.261853e+000,-4.531929e-006,6.137541e-006
1.262647e+000,-6.210422e-006,6.127394e-006
1.263441e+000,-6.881819e-006,6.132078e-006
1.264235e+000,-7.049668e-006,6.137343e-006
1.265029e+000,-6.210422e-006,6.123022e-006
1.265824e+000,-6.210422e-006,6.117546e-006
1.266618e+000,-6.881819e-006,6.121417e-006
1.267412e+000,-4.867628e-006,6.121417e-006
1.268206e+000,-2.853437e-006,6.109974e-006
1.269000e+000,-4.867628e-006,6.091443e-006
1.269794e+000,-5.539025e-006,6.079943e-006
1.270588e+000,-6.881819e-006,6.070254e-006
1.271382e+000,-7.553216e-006,6.060313e-006
1.272176e+000,-7.553216e-006,6.054507e-006
1.272971e+000,-9.567407e-006,6.065582e-006
1.273765e+000,-9.567407e-006,6.088673e-006
1.274559e+000,-2.182040e-006,6.112557e-006
1.275353e+000,-3.524834e-006,6.113614e-006
1.276147e+000,-2.853437e-006,6.116255e-006
1.276941e+000,-2.182040e-006,6.116725e-006
1.277735e+000,-6.881819e-006,6.117077e-006
1.278529e+000,-5.539025e-006,6.126164e-006
1.279324e+000,-6.881819e-006,6.128800e-006
1.280118e+000,-9.567407e-006,6.133132e-006
1.280912e+000,-7.553216e-006,6.151924e-006
1.281706e+000,-5.539025e-006,6.162124e-006
1.282500e+000,-4.867628e-006,6.161134e-006
1.283294e+000,-5.539025e-006,6.161950e-006
1.284088e+000,-6.210422e-006,6.163755e-006
1.284882e+000,-8.560311e-006,6.172076e-006
1.285676e+000,-7.888914e-006,6.182570e-006
1.286471e+000,-4.867628e-006,6.176646e-006
1.287265e+000,-3.189136e-006,6.168041e-006
1.288059e+000,-2.853437e-006,6.160705e-006
1.288853e+000,-4.867628e-006,6.156684e-006
1.289647e+000,-6.546120e-006,6.154876e-006
1.290441e+000,-7.888914e-006,6.151201e-006
1.291235e+000,-5.203327e-006,6.151201e-006
1.292029e+000,-4.364080e-006,6.150268e-006
1.292824e+000,-4.867628e-006,6.153965e-006
1.293618e+000,-3.524834e-006,6.157988e-006
1.294412e+000,-1.510643e-006,6.137497e-006
1.295206e+000,-4.867628e-006,6.131061e-006
1.296000e+000,-6.210422e-006,6.131881e-006
1.296794e+000,-8.896010e-006,6.140654e-006
1.297588e+000,-1.158160e-005,6.155014e-006
1.298382e+000,-8.560311e-006,6.180734e-006
1.299176e+000,-9.063859e-006,6.197492e-006
1.299971e+000,-6.210422e-006,6.214054e-006
1.300765e+000,-5.539025e-006,6.221846e-006
1.301559e+000,-8.560311e-006,6.225191e-006
1.302353e+000,-5.874723e-006,6.231220e-006
1.303147e+000,-3.860533e-006,6.225458e-006
1.303941e+000,-4.867628e-006,6.218305e-006
1.304735e+000,-4.196231e-006,6.199230e-006
1.305529e+000,-4.196231e-006,6.176784e-006
1.306324e+000,-8.224612e-006,6.172926e-006
1.307118e+000,-4.867628e-006,6.184253e-006
1.307912e+000,-4.364080e-006,6.175658e-006
1.308706e+000,-3.021286e-006,6.170077e-006
1.309500e+000,-2.182040e-006,6.153498e-006
1.310294e+000,-5.539025e-006,6.137204e-006
1.311088e+000,-6.210422e-006,6.132876e-006
1.311882e+000,-4.531929e-006,6.133929e-006
1.312676e+000,-3.524834e-006,6.133110e-006
1.313471e+000,-5.539025e-006,6.127877e-006
1.314265e+000,-5.706874e-006,6.132620e-006
1.315059e+000,-5.874723e-006,6.138703e-006
1.315853e+000,-2.853437e-006,6.145539e-006
1.316647e+000,-2.853437e-006,6.144430e-006
1.317441e+000,-4.196231e-006,6.137073e-006
1.318235e+000,-3.021286e-006,6.135494e-006
1.319029e+000,-8.392462e-007,6.135750e-006
1.319824e+000,-5.706874e-006,6.131361e-006
1.320618e+000,-5.874723e-006,6.122245e-006
1.321412e+000,-5.539025e-006,6.110627e-006
1.322206e+000,-5.203327e-006,6.106279e-006
1.323000e+000,-4.364080e-006,6.110099e-006
1.323794e+000,-6.210422e-006,6.114466e-006
1.324588e+000,-8.896010e-006,6.122385e-006
1.325382e+000,-6.210422e-006,6.132927e-006
1.326176e+000,-9.567407e-006,6.133980e-006
1.326971e+000,-6.881819e-006,6.153142e-006
1.327765e+000,-4.364080e-006,6.163282e-006
1.328559e+000,-6.881819e-006,6.162081e-006
1.329353e+000,-8.560311e-006,6.165902e-006
1.330147e+000,-4.867628e-006,6.179507e-006
1.330941e+000,-6.210422e-006,6.179079e-006
1.331735e+000,-1.846342e-006,6.173653e-006
1.332529e+000,-2.853437e-006,6.162307e-006
1.333324e+000,-1.678492e-006,6.145452e-006
1.334118e+000,-3.860533e-006,6.133900e-006
1.334912e+000,-5.539025e-006,6.125469e-006
1.335706e+000,-6.881819e-006,6.125468e-006
1.336500e+000,-5.539025e-006,6.124238e-006
1.337294e+000,-7.217518e-006,6.119900e-006
1.338088e+000,-9.735256e-006,6.119900e-006
1.338882e+000,-7.217518e-006,6.134507e-006
1.339676e+000,-6.210422e-006,6.140062e-006
1.340471e+000,-3.189136e-006,6.142107e-006
1.341265e+000,-5.539025e-006,6.132459e-006
1.342059e+000,-7.553216e-006,6.125607e-006
1.342853e+000,-8.224612e-006,6.137197e-006
1.343647e+000,-7.049668e-006,6.154133e-006
1.344441e+000,-9.567407e-006,6.163770e-006
1.345235e+000,-4.867628e-006,6.177438e-006
1.346029e+000,-4.867628e-006,6.177438e-006
1.346824e+000,-2.853437e-006,6.180922e-006
1.347618e+000,-2.182040e-006,6.176915e-006
1.348412e+000,-4.531929e-006,6.163420e-006
1.349206e+000,-2.853437e-006,6.158760e-006
1.350000e+000,-2.853437e-006,6.157652e-006
1.350794e+000,-4.867628e-006,6.153630e-006
1.351588e+000,-5.539025e-006,6.155204e-006
1.352382e+000,-4.196231e-006,6.163129e-006
1.353176e+000,-4.196231e-006,6.161556e-006
1.353971e+000,-5.203327e-006,6.165378e-006
1.354765e+000,-8.560311e-006,6.166251e-006
1.355559e+000,-6.881819e-006,6.183049e-006
1.356353e+000,-8.560311e-006,6.190706e-006
1.357147e+000,-9.567407e-006,6.197370e-006
1.357941e+000,-4.867628e-006,6.214776e-006
1.358735e+000,-5.874723e-006,6.210964e-006
1.359529e+000,-9.567407e-006,6.209924e-006
1.360324e+000,-4.867628e-006,6.213102e-006
1.361118e+000,-5.035477e-006,6.203216e-006
1.361912e+000,-2.349889e-006,6.205204e-006
1.362706e+000,-4.196231e-006,6.204532e-006
1.363500e+000,-3.860533e-006,6.209042e-006
1.364294e+000,-3.524834e-006,6.209678e-006
1.365088e+000,-6.210422e-006,6.208349e-006
1.365882e+000,-6.881819e-006,6.213722e-006
1.366676e+000,-6.881819e-006,6.217014e-006
1.367471e+000,-7.217518e-006,6.214531e-006
1.368265e+000,-7.217518e-006,6.220015e-006
1.369059e+000,-7.553216e-006,6.228837e-006
1.369853e+000,-5.706874e-006,6.228837e-006
1.370647e+000,-6.881819e-006,6.219863e-006
1.371441e+000,-8.560311e-006,6.226726e-006
1.372235e+000,-4.196231e-006,6.235056e-006
1.373029e+000,-6.881819e-006,6.226243e-006
1.373824e+000,-6.881819e-006,6.230508e-006
1.374618e+000,-4.196231e-006,6.232754e-006
1.375412e+000,-4.867628e-006,6.216242e-006
1.376206e+000,-2.853437e-006,6.203527e-006
1.377000e+000,-4.867628e-006,6.182084e-006
1.377794e+000,-8.560311e-006,6.157478e-006
1.378588e+000,-7.553216e-006,6.160333e-006
1.379382e+000,-6.210422e-006,6.160333e-006
1.380176e+000,-5.035477e-007,6.158061e-006
1.380971e+000,-4.196231e-006,6.145868e-006
1.381765e+000,-9.903105e-006,6.136927e-006
1.382559e+000,-6.210422e-006,6.146897e-006
1.383353e+000,-8.560311e-006,6.139361e-006
1.384147e+000,-5.706874e-006,6.119394e-006
1.384941e+000,-1.678492e-006,6.087641e-006
1.385735e+000,5.035477e-007,6.062674e-006
1.386529e+000,1.174945e-006,6.031396e-006
1.387324e+000,-4.196231e-006,6.013876e-006
1.388118e+000,-5.203327e-006,6.009399e-006
1.388912e+000,-8.896010e-006,5.990557e-006
1.389706e+000,-8.224612e-006,5.971655e-006
1.390500e+000,-9.567407e-006,5.961730e-006
1.391294e+000,-9.567407e-006,5.972895e-006
1.392088e+000,-7.217518e-006,5.989097e-006
1.392882e+000,-7.888914e-006,5.996642e-006
1.393676e+000,-8.224612e-006,6.009855e-006
1.394471e+000,-7.888914e-006,5.999993e-006
1.395265e+000,-4.531929e-006,5.995505e-006
1.396059e+000,-3.524834e-006,5.996284e-006
1.396853e+000,-6.881819e-006,5.997420e-006
1.397647e+000,-1.510643e-006,6.009377e-006
1.398441e+000,3.189136e-006,6.009974e-006
1.399235e+000,1.174945e-006,6.012601e-006
1.400029e+000,-5.539025e-006,6.012959e-006
1.400824e+000,-6.881819e-006,6.019819e-006
1.401618e+000,-3.524834e-006,6.030876e-006
1.402412e+000,-3.524834e-006,6.033554e-006
1.403206e+000,-7.217518e-006,6.036230e-006
1.404000e+000,-8.224612e-006,6.049059e-006
1.404794e+000,-7.553216e-006,6.064702e-006
1.405588e+000,-5.874723e-006,6.077271e-006
1.406382e+000,-6.210422e-006,6.086278e-006
1.407176e+000,-5.874723e-006,6.096177e-006
1.407971e+000,-5.203327e-006,6.105119e-006
1.408765e+000,-6.881819e-006,6.111288e-006
1.409559e+000,-5.539025e-006,6.123550e-006
1.410353e+000,-4.196231e-006,6.131340e-006
1.411147e+000,-6.210422e-006,6.135553e-006
1.411941e+000,-6.210422e-006,6.145292e-006
1.412735e+000,-3.524834e-006,6.153171e-006
1.413529e+000,-5.539025e-006,6.156320e-006
1.414324e+000,-5.539025e-006,6.161040e-006
1.415118e+000,-4.699779e-006,6.152879e-006
1.415912e+000,-5.539025e-006,6.143824e-006
1.416706e+000,-5.203327e-006,6.142831e-006
1.417500e+000,-6.881819e-006,6.137570e-006
1.418294e+000,-5.539025e-006,6.147211e-006
1.419088e+000,-2.349889e-006,6.154971e-006
1.419882e+000,-6.042573e-006,6.153768e-006
1.420676e+000,-6.210422e-006,6.161979e-006
1.421471e+000,-4.531929e-006,6.169313e-006
1.422265e+000,-2.853437e-006,6.159882e-006
1.423059e+000,-1.678492e-007,6.156676e-006
1.423853e+000,-5.203327e-006,6.132122e-006
1.424647e+000,-7.553216e-006,6.120853e-006
1.425441e+000,-7.553216e-006,6.118096e-006
1.426235e+000,-6.881819e-006,6.115338e-006
1.427029e+000,-5.539025e-006,6.117627e-006
1.427824e+000,-1.510643e-006,6.107271e-006
1.428618e+000,-4.196231e-006,6.095506e-006
1.429412e+000,-1.510643e-006,6.077817e-006
1.430206e+000,-1.510643e-006,6.064753e-006
1.431000e+000,-2.182040e-006,6.051660e-006
1.431794e+000,-1.174945e-006,6.046676e-006
1.432588e+000,-6.546120e-006,6.035746e-006
1.433382e+000,-6.210422e-006,6.011615e-006
1.434176e+000,-4.196231e-006,6.008667e-006
1.434971e+000,-4.867628e-006,6.006613e-006
1.435765e+000,-5.874723e-006,5.996387e-006
1.436559e+000,-9.567407e-006,5.987583e-006
1.437353e+000,-5.539025e-006,5.985844e-006
1.438147e+000,-2.182040e-006,5.977444e-006
1.438941e+000,-3.524834e-006,5.975402e-006
1.439735e+000,-6.210422e-006,5.976003e-006
1.440529e+000,-1.124590e-005,5.982965e-006
1.441324e+000,-8.224612e-006,6.008406e-006
1.442118e+000,-9.567407e-006,6.021652e-006
1.442912e+000,-8.896010e-006,6.040791e-006
1.443706e+000,-5.874723e-006,6.055388e-006
1.444500e+000,-4.867628e-006,6.053765e-006
1.445294e+000,-4.531929e-006,6.044985e-006
1.446088e+000,-3.524834e-006,6.032564e-006
1.446882e+000,-4.867628e-006,6.029150e-006
1.447676e+000,-3.189136e-006,6.032720e-006
1.448471e+000,-2.853437e-006,6.035040e-006
1.449265e+000,-4.364080e-006,6.023432e-006
1.450059e+000,-6.881819e-006,6.010571e-006
1.450853e+000,-4.196231e-006,6.014488e-006
1.451647e+000,-6.881819e-006,6.012876e-006
1.452441e+000,-7.217518e-006,6.012876e-006
1.453235e+000,-4.867628e-006,6.011563e-006
1.454029e+000,-5.539025e-006,5.996859e-006
1.454824e+000,-2.182040e-006,5.980678e-006
1.455618e+000,-4.196231e-006,5.953974e-006
1.456412e+000,-7.553216e-006,5.930601e-006
1.457206e+000,-8.560311e-006,5.919576e-006
1.458000e+000,-3.524834e-006,5.916362e-006
1.458794e+000,-5.539025e-006,5.895032e-006
1.459588e+000,-8.224612e-006,5.862676e-006
1.460382e+000,-5.539025e-006,5.854406e-006
1.461176e+000,-7.888914e-006,5.821824e-006
1.461971e+000,-4.196231e-006,5.825892e-006
1.462765e+000,-4.196231e-006,5.825892e-006
1.463559e+000,-4.867628e-006,5.829194e-006
1.464353e+000,-7.888914e-006,5.835594e-006
1.465147e+000,-7.888914e-006,5.852543e-006
1.465941e+000,-6.881819e-006,5.866080e-006
1.466735e+000,-2.853437e-006,5.874884e-006
1.467529e+000,-1.510643e-006,5.876472e-006
1.468324e+000,-2.853437e-006,5.876716e-006
1.469118e+000,-2.853437e-006,5.877632e-006
1.469912e+000,-1.510643e-006,5.874678e-006
1.470706e+000,-5.203327e-006,5.871255e-006
1.471500e+000,-1.124590e-005,5.875227e-006
1.472294e+000,-6.881819e-006,5.901132e-006
1.473088e+000,-4.364080e-006,5.898516e-006
1.473882e+000,-6.546120e-006,5.900303e-006
1.474676e+000,-7.217518e-006,5.909116e-006
1.475471e+000,-7.217518e-006,5.912190e-006
1.476265e+000,-5.539025e-006,5.908000e-006
1.477059e+000,-4.196231e-006,5.905304e-006
1.477853e+000,-3.524834e-006,5.899079e-006
1.478647e+000,-2.853437e-006,5.892017e-006
1.479441e+000,-7.553216e-006,5.880127e-006
1.480235e+000,-4.196231e-006,5.875731e-006
1.481029e+000,-2.853437e-006,5.874082e-006
1.481824e+000,-3.524834e-006,5.867968e-006
1.482618e+000,-6.210422e-006,5.858481e-006
1.483412e+000,-9.231709e-006,5.844067e-006
1.484206e+000,-8.560311e-006,5.854375e-006
1.485000e+000,-7.888914e-006,5.858090e-006
1.485794e+000,-7.553216e-006,5.862132e-006
1.486588e+000,-8.560311e-006,5.872042e-006
1.487382e+000,-9.903105e-006,5.875036e-006
1.488176e+000,-6.881819e-006,5.888765e-006
1.488971e+000,-5.539025e-006,5.900067e-006
1.489765e+000,-2.853437e-006,5.904992e-006
1.490559e+000,-2.182040e-006,5.900797e-006
1.491353e+000,-5.539025e-006,5.893799e-006
1.492147e+000,-6.881819e-006,5.886669e-006
1.492941e+000,-6.881819e-006,5.893068e-006
1.493735e+000,-5.539025e-006,5.899459e-006
1.494529e+000,-5.539025e-006,5.899459e-006
1.495324e+000,-8.224612e-006,5.902986e-006
1.496118e+000,-1.091020e-005,5.914383e-006
1.496912e+000,-1.225299e-005,5.939550e-006
1.497706e+000,-8.224612e-006,5.971489e-006
1.498500e+000,-3.189136e-006,5.981337e-006
1.499294e+000,-5.539025e-006,5.983437e-006
1.500088e+000,-8.560311e-006,5.990990e-006
1.500882e+000,-8.392462e-006,6.004992e-006
1.501676e+000,-3.860533e-006,6.016933e-006
1.502471e+000,-5.035477e-006,6.008338e-006
1.503265e+000,-5.874723e-006,6.009614e-006
1.504059e+000,-4.196231e-006,6.012480e-006
1.504853e+000,-5.539025e-006,6.016777e-006
1.505647e+000,-2.182040e-006,6.024288e-006
1.506441e+000,-8.392462e-007,6.016419e-006
1.507235e+000,-5.874723e-006,6.011943e-006
1.508029e+000,-4.196231e-006,6.018387e-006
1.508824e+000,-4.196231e-006,6.023037e-006
1.509618e+000,-6.210422e-006,6.027504e-006
1.510412e+000,-3.524834e-006,6.035002e-006
1.511206e+000,-4.867628e-006,6.033634e-006
1.512000e+000,-4.867628e-006,6.034466e-006
1.512794e+000,-6.042573e-006,6.030540e-006
1.513588e+000,-3.692683e-006,6.027675e-006
1.514382e+000,-3.189136e-006,6.018141e-006
1.515176e+000,-1.510643e-006,6.010622e-006
1.515971e+000,-2.853437e-006,6.001002e-006
1.516765e+000,-4.196231e-006,5.990586e-006
1.517559e+000,-6.546120e-006,5.988968e-006
1.518353e+000,-5.874723e-006,5.998190e-006
1.519147e+000,-5.539025e-006,6.001061e-006
1.519941e+000,-5.874723e-006,6.001061e-006
1.520735e+000,-5.539025e-006,5.997651e-006
1.521529e+000,-4.867628e-006,5.990646e-006
1.522324e+000,-4.196231e-006,5.981773e-006
1.523118e+000,-6.881819e-006,5.962061e-006
1.523912e+000,-5.874723e-006,5.950251e-006
1.524706e+000,-2.853437e-006,5.958207e-006
1.525500e+000,-2.853437e-006,5.957063e-006
1.526294e+000,-7.553216e-006,5.957063e-006
1.527088e+000,-1.141375e-005,5.971024e-006
1.527882e+000,-1.292439e-005,5.993094e-006
1.528676e+000,-6.881819e-006,6.029216e-006
1.529471e+000,-5.874723e-006,6.029216e-006
1.530265e+000,-6.881819e-006,6.014137e-006
1.531059e+000,-4.867628e-006,6.011570e-006
1.531853e+000,-3.524834e-006,6.009720e-006
1.532647e+000,-5.203327e-006,6.006733e-006
1.533441e+000,-6.546120e-006,6.005776e-006
1.534235e+000,-1.510643e-006,6.006912e-006
1.535029e+000,-1.846342e-006,5.988062e-006
1.535824e+000,-1.846342e-006,5.972398e-006
1.536618e+000,-8.392462e-007,5.966988e-006
1.537412e+000,-3.021286e-006,5.964461e-006
1.538206e+000,-3.860533e-006,5.964724e-006
1.539000e+000,-2.853437e-006,5.962377e-006
1.539794e+000,-4.196231e-006,5.953100e-006
1.540588e+000,-3.860533e-006,5.941151e-006
1.541382e+000,-2.853437e-006,5.937888e-006
1.542176e+000,-1.510643e-006,5.934964e-006
1.542971e+000,-4.867628e-006,5.929216e-006
1.543765e+000,-2.853437e-006,5.932242e-006
1.544559e+000,-8.224612e-006,5.933814e-006
1.545353e+000,-8.392462e-006,5.945597e-006
1.546147e+000,-6.210422e-006,5.954125e-006
1.546941e+000,-6.546120e-006,5.943265e-006
1.547735e+000,-3.524834e-006,5.918758e-006
1.548529e+000,-5.539025e-006,5.902363e-006
1.549324e+000,-8.896010e-006,5.888461e-006
1.550118e+000,-8.224612e-006,5.899421e-006
1.550912e+000,-6.881819e-006,5.909390e-006
1.551706e+000,-8.224612e-006,5.902401e-006
1.552500e+000,-9.231709e-006,5.911333e-006
1.553294e+000,-1.091020e-005,5.930245e-006
1.554088e+000,-9.231709e-006,5.955790e-006
1.554882e+000,-4.867628e-006,5.973840e-006
1.555676e+000,-4.196231e-006,5.975462e-006
1.556471e+000,-5.539025e-006,5.962114e-006
1.557265e+000,-5.035477e-006,5.963980e-006
1.558059e+000,-6.210422e-006,5.965665e-006
1.558853e+000,-6.210422e-006,5.973518e-006
1.559647e+000,-6.881819e-006,5.982523e-006
1.560441e+000,-6.546120e-006,5.986961e-006
1.561235e+000,-7.553216e-006,5.988099e-006
1.562029e+000,-8.224612e-006,5.997802e-006
1.562824e+000,-9.567407e-006,6.012444e-006
1.563618e+000,-4.196231e-006,6.028539e-006
1.564412e+000,-2.853437e-006,6.024587e-006
1.565206e+000,-1.678492e-006,6.017613e-006
1.566000e+000,-4.867628e-006,6.016203e-006
1.566794e+000,-4.196231e-006,6.020318e-006
1.567588e+000,-7.049668e-006,6.020318e-006
1.568382e+000,-7.049668e-006,6.031039e-006
1.569176e+000,-8.224612e-006,6.043961e-006
1.569971e+000,-4.867628e-006,6.053195e-006
1.570765e+000,-4.531929e-006,6.050348e-006
1.571559e+000,-4.196231e-006,6.047678e-006
1.572353e+000,-3.524834e-006,6.045186e-006
1.573147e+000,-3.692683e-006,6.043441e-006
1.573941e+000,-5.539025e-006,6.036868e-006
1.574735e+000,-5.539025e-006,6.024073e-006
1.575529e+000,-2.182040e-006,6.021987e-006
1.576324e+000,-4.196231e-006,5.998998e-006
1.577118e+000,-7.217518e-006,5.991096e-006
1.577912e+000,-8.392462e-007,5.999873e-006
1.578706e+000,-1.510643e-006,5.987478e-006
1.579500e+000,-2.853437e-006,5.968567e-006
1.580294e+000,-2.853437e-006,5.964416e-006
1.581088e+000,-5.706874e-006,5.956287e-006
1.581882e+000,-5.539025e-006,5.964077e-006
1.582676e+000,-4.531929e-006,5.970092e-006
1.583471e+000,-3.524834e-006,5.974817e-006
1.584265e+000,-5.539025e-006,5.974156e-006
1.585059e+000,-6.210422e-006,5.974156e-006
1.585853e+000,-6.881819e-006,5.971813e-006
1.586647e+000,-7.721065e-006,5.976258e-006
1.587441e+000,-9.231709e-006,5.978262e-006
1.588235e+000,-4.531929e-006,5.975718e-006
1.589029e+000,-7.553216e-006,5.967303e-006
1.589824e+000,-8.560311e-006,5.972233e-006
1.590618e+000,-8.224612e-006,5.989036e-006
1.591412e+000,-6.546120e-006,5.998856e-006
1.592206e+000,-4.196231e-006,5.995085e-006
1.593000e+000,-5.203327e-006,5.981781e-006
1.593794e+000,-6.378271e-006,5.975755e-006
1.594588e+000,-5.874723e-006,5.962189e-006
1.595382e+000,-6.881819e-006,5.965078e-006
1.596176e+000,-3.189136e-006,5.971393e-006
1.596971e+000,-3.021286e-006,5.971933e-006
1.597765e+000,-2.853437e-006,5.973097e-006
1.598559e+000,-3.524834e-006,5.969792e-006
1.599353e+000,-5.203327e-006,5.970934e-006
1.600147e+000,-9.903105e-006,5.975981e-006
1.600941e+000,-1.023880e-005,5.995767e-006
1.601735e+000,-4.531929e-006,6.015428e-006
1.602529e+000,-5.539025e-006,6.016203e-006
1.603324e+000,-1.846342e-006,6.019663e-006
1.604118e+000,-7.888914e-006,6.013399e-006
1.604912e+000,-7.553216e-006,6.010474e-006
1.605706e+000,-7.217518e-006,6.013041e-006
1.606500e+000,-4.531929e-006,6.007428e-006
1.607294e+000,-4.867628e-006,5.988579e-006
1.608088e+000,-4.196231e-006,5.988579e-006
1.608882e+000,-7.217518e-006,5.984083e-006
1.609676e+000,-6.881819e-006,5.973578e-006
1.610471e+000,-4.531929e-006,5.979883e-006
1.611265e+000,-8.224612e-006,5.978600e-006
1.612059e+000,-4.364080e-006,5.995123e-006
1.612853e+000,-6.378271e-006,5.995505e-006
1.613647e+000,-1.174945e-006,6.002348e-006
1.614441e+000,-3.524834e-006,5.999417e-006
1.615235e+000,-6.881819e-006,5.992474e-006
1.616029e+000,-4.196231e-006,5.992473e-006
1.616824e+000,-4.867628e-006,5.984562e-006
1.617618e+000,-4.531929e-006,5.977001e-006
1.618412e+000,-2.853437e-006,5.968589e-006
1.619206e+000,-7.217518e-006,5.955526e-006
1.620000e+000,-3.189136e-006,5.960744e-006
1.620794e+000,-5.539025e-006,5.950801e-006
1.621588e+000,-7.049668e-006,5.939391e-006
1.622382e+000,-6.378271e-006,5.947988e-006
1.623176e+000,-6.546120e-006,5.946201e-006
1.623971e+000,-9.567407e-006,5.944994e-006
1.624765e+000,-1.124590e-005,5.964762e-006
1.625559e+000,-8.224612e-006,5.992136e-006
1.626353e+000,-6.881819e-006,6.007928e-006
1.627147e+000,-5.874723e-006,6.014197e-006
1.627941e+000,-4.531929e-006,6.003924e-006
1.628735e+000,-5.539025e-006,5.994232e-006
1.629529e+000,-8.224612e-006,5.992136e-006
1.630324e+000,-7.217518e-006,6.010018e-006
1.631118e+000,-3.021286e-006,6.019148e-006
1.631912e+000,-5.874723e-006,5.995572e-006
1.632706e+000,-5.874723e-006,5.994494e-006
1.633500e+000,-5.035477e-007,5.984187e-006
1.634294e+000,-3.524834e-006,5.975583e-006
1.635088e+000,-6.881819e-006,5.978142e-006
1.635882e+000,-7.217518e-006,5.990676e-006
1.636676e+000,-1.510643e-006,6.004141e-006
1.637471e+000,-3.860533e-006,6.000075e-006
1.638265e+000,-3.524834e-006,5.996844e-006
1.639059e+000,-1.510643e-006,5.979103e-006
1.639853e+000,-1.174945e-006,5.961670e-006
1.640647e+000,-7.553216e-006,5.937541e-006
1.641441e+000,-7.553216e-006,5.928286e-006
1.642235e+000,-9.567407e-006,5.929617e-006
1.643029e+000,-9.567407e-006,5.937481e-006
1.643824e+000,-6.210422e-006,5.943884e-006
1.644618e+000,-3.524834e-006,5.937541e-006
1.645412e+000,-4.531929e-006,5.935365e-006
1.646206e+000,-6.210422e-006,5.937541e-006
1.647000e+000,-8.896010e-006,5.935183e-006
1.647794e+000,-8.224612e-006,5.955767e-006
1.648588e+000,-7.217518e-006,5.971114e-006
1.649382e+000,-3.524834e-006,5.984622e-006
1.650176e+000,-5.706874e-006,5.979763e-006
1.650971e+000,-5.203327e-006,5.975823e-006
1.651765e+000,-5.874723e-006,5.979725e-006
1.652559e+000,-6.210422e-006,5.985605e-006
1.653353e+000,-4.196231e-006,5.982006e-006
1.654147e+000,-5.874723e-006,5.968672e-006
1.654941e+000,-9.567407e-006,5.962656e-006
1.655735e+000,-6.210422e-006,5.977865e-006
1.656529e+000,-6.210422e-006,5.977865e-006
1.657324e+000,-7.553216e-006,5.978945e-006
1.658118e+000,-5.539025e-006,5.986924e-006
1.658912e+000,-3.524834e-006,5.982486e-006
1.659706e+000,-5.203327e-006,5.977625e-006
1.660500e+000,-2.853437e-006,5.980146e-006
1.661294e+000,-2.182040e-006,5.972038e-006
1.662088e+000,-8.392462e-007,5.963017e-006
1.662882e+000,-2.853437e-006,5.959887e-006
1.663676e+000,-3.692683e-006,5.953862e-006
1.664471e+000,1.007095e-006,5.949301e-006
1.665265e+000,-5.539025e-006,5.943658e-006
1.666059e+000,-8.392462e-007,5.943658e-006
1.666853e+000,-1.510643e-006,5.936589e-006
1.667647e+000,-6.881819e-006,5.924486e-006
1.668441e+000,-6.210422e-006,5.928967e-006
1.669235e+000,-3.524834e-006,5.937836e-006
1.670029e+000,-4.196231e-006,5.931372e-006
1.670824e+000,-6.210422e-006,5.925743e-006
1.671618e+000,-6.881819e-006,5.930586e-006
1.672412e+000,-9.567407e-006,5.941106e-006
1.673206e+000,-8.560311e-006,5.965582e-006
1.674000e+000,-7.553216e-006,5.977902e-006
1.674794e+000,-3.860533e-006,5.977902e-006
1.675588e+000,-4.196231e-006,5.966665e-006
1.676382e+000,-1.007095e-006,5.958720e-006
1.677176e+000,-1.174945e-006,5.950787e-006
1.677971e+000,-1.510643e-006,5.950545e-006
1.678765e+000,-4.867628e-006,5.946442e-006
1.679559e+000,-5.539025e-006,5.952173e-006
1.680353e+000,-5.203327e-006,5.959766e-006
1.681147e+000,-3.860533e-006,5.965725e-006
1.681941e+000,-8.224612e-006,5.969333e-006
1.682735e+000,-5.539025e-006,5.975943e-006
1.683529e+000,-5.203327e-006,5.973841e-006
1.684324e+000,-3.524834e-006,5.976363e-006
1.685118e+000,-2.853437e-006,5.973360e-006
1.685912e+000,-3.189136e-006,5.966326e-006
1.686706e+000,-4.867628e-006,5.944571e-006
1.687500e+000,-8.224612e-006,5.942699e-006
1.688294e+000,-8.896010e-006,5.959525e-006
1.689088e+000,-7.553216e-006,5.977324e-006
1.689882e+000,-6.210422e-006,5.982246e-006
1.690676e+000,-6.881819e-006,5.958802e-006
1.691471e+000,-5.874723e-006,5.953379e-006
1.692265e+000,-7.553216e-006,5.938108e-006
1.693059e+000,-3.524834e-006,5.932181e-006
1.693853e+000,-3.189136e-006,5.926250e-006
1.694647e+000,-5.539025e-006,5.922615e-006
1.695441e+000,-7.888914e-006,5.925341e-006
1.696235e+000,-6.210422e-006,5.938712e-006
1.697029e+000,-9.231709e-006,5.942699e-006
1.697824e+000,-9.231709e-006,5.962776e-006
1.698618e+000,-7.721065e-006,5.983325e-006
1.699412e+000,-4.196231e-006,5.994113e-006
1.700206e+000,-6.546120e-006,5.986204e-006
1.701000e+000,-8.560311e-006,5.992915e-006
1.701794e+000,-7.553216e-006,5.999797e-006
1.702588e+000,-9.231709e-006,6.001113e-006
1.703382e+000,-6.881819e-006,6.017418e-006
1.704176e+000,-4.196231e-006,6.021830e-006
1.704971e+000,-8.224612e-006,6.025226e-006
1.705765e+000,-5.539025e-006,6.038435e-006
1.706559e+000,-4.196231e-006,6.031477e-006
1.707353e+000,-4.196231e-006,6.016762e-006
1.708147e+000,-5.874723e-006,6.018134e-006
1.708941e+000,-6.210422e-006,6.019148e-006
1.709735e+000,-5.539025e-006,6.011451e-006
1.710529e+000,-6.881819e-006,6.011451e-006
1.711324e+000,-7.553216e-006,6.007509e-006
1.712118e+000,-8.224612e-006,6.017955e-006
1.712912e+000,-6.210422e-006,6.031180e-006
1.713706e+000,-6.210422e-006,6.035106e-006
1.714500e+000,-4.364080e-006,6.028859e-006
1.715294e+000,-6.210422e-006,6.017441e-006
1.716088e+000,-5.539025e-006,6.015114e-006
1.716882e+000,-3.524834e-006,6.021078e-006
1.717676e+000,-1.510643e-006,6.023759e-006
1.718471e+000,-5.203327e-006,6.022210e-006
1.719265e+000,-7.888914e-006,6.027214e-006
1.720059e+000,-4.867628e-006,6.043032e-006
1.720853e+000,-1.846342e-006,6.042142e-006
1.721647e+000,-3.860533e-006,6.009622e-006
1.722441e+000,-5.539025e-006,6.001017e-006
1.723235e+000,-6.210422e-006,6.004103e-006
1.724029e+000,-4.531929e-006,6.002967e-006
1.724824e+000,-4.196231e-006,5.994591e-006
1.725618e+000,-6.881819e-006,5.985424e-006
1.726412e+000,-6.881819e-006,5.989860e-006
1.727206e+000,-6.210422e-006,5.997763e-006
1.728000e+000,-6.210422e-006,6.004700e-006
1.728794e+000,-5.539025e-006,6.012764e-006
1.729588e+000,-6.546120e-006,6.005776e-006
1.730382e+000,-5.203327e-006,6.012466e-006
1.731176e+000,-8.392462e-007,6.017478e-006
1.731971e+000,-1.846342e-006,6.014376e-006
1.732765e+000,-5.539025e-006,6.005059e-006
1.733559e+000,-6.881819e-006,5.990578e-006
1.734353e+000,-6.546120e-006,5.983685e-006
1.735147e+000,-4.196231e-006,5.978524e-006
1.735941e+000,-3.021286e-006,5.968010e-006
1.736735e+000,-6.713969e-007,5.950868e-006
1.737529e+000,-2.853437e-006,5.924689e-006
1.738324e+000,-4.196231e-006,5.914139e-006
1.739118e+000,-6.210422e-006,5.910619e-006
1.739912e+000,-6.881819e-006,5.918811e-006
1.740706e+000,-9.903105e-006,5.930260e-006
1.741500e+000,-7.217518e-006,5.948327e-006
1.742294e+000,-6.042573e-006,5.949594e-006
1.743088e+000,-5.539025e-006,5.946691e-006
1.743882e+000,-4.867628e-006,5.946691e-006
1.744676e+000,-3.860533e-006,5.944819e-006
1.745471e+000,-4.196231e-006,5.930676e-006
1.746265e+000,-8.224612e-006,5.903381e-006
1.747059e+000,-8.224612e-006,5.881088e-006
1.747853e+000,-7.049668e-006,5.881088e-006
1.748647e+000,-7.217518e-006,5.891780e-006
1.749441e+000,-1.007095e-005,5.897565e-006
1.750235e+000,-9.567407e-006,5.905159e-006
1.751029e+000,-7.553216e-006,5.910847e-006
1.751824e+000,-5.203327e-006,5.922190e-006
1.752618e+000,-8.224612e-006,5.922652e-006
1.753412e+000,-3.692683e-006,5.931553e-006
1.754206e+000,-5.706874e-006,5.930487e-006
1.755000e+000,-4.531929e-006,5.930994e-006
1.755794e+000,-3.860533e-006,5.935228e-006
1.756588e+000,-2.853437e-006,5.939036e-006
1.757382e+000,-2.853437e-006,5.931961e-006
1.758176e+000,-6.546120e-006,5.929420e-006
1.758971e+000,-6.881819e-006,5.936195e-006
1.759765e+000,-6.210422e-006,5.938552e-006
1.760559e+000,-3.189136e-006,5.945559e-006
1.761353e+000,-1.174945e-006,5.941936e-006
1.762147e+000,1.678492e-007,5.935953e-006
1.762941e+000,-2.182040e-006,5.926158e-006
1.763735e+000,-1.510643e-006,5.923773e-006
1.764529e+000,-3.692683e-006,5.921652e-006
1.765324e+000,-6.042573e-006,5.924704e-006
1.766118e+000,-6.210422e-006,5.932324e-006
1.766912e+000,-1.107805e-005,5.937948e-006
1.767706e+000,-1.040665e-005,5.959328e-006
1.768500e+000,-9.903105e-006,5.979013e-006
1.769294e+000,-8.896010e-006,5.996934e-006
1.770088e+000,-9.567407e-006,6.008771e-006
1.770882e+000,-2.853437e-006,6.024877e-006
1.771676e+000,-1.510643e-006,6.020765e-006
1.772471e+000,-2.517739e-006,6.016710e-006
1.773265e+000,-5.539025e-006,6.005844e-006
1.774059e+000,-5.706874e-006,6.004828e-006
1.774853e+000,-5.203327e-006,6.011302e-006
1.775647e+000,-4.196231e-006,6.016315e-006
1.776441e+000,-4.531929e-006,6.005866e-006
1.777235e+000,-4.196231e-006,5.976701e-006
1.778029e+000,-2.853437e-006,5.936755e-006
1.778824e+000,-3.189136e-006,5.926227e-006
1.779618e+000,-2.182040e-006,5.919682e-006
1.780412e+000,-2.853437e-006,5.908213e-006
1.781206e+000,-3.356985e-006,5.904020e-006
1.782000e+000,-2.853437e-006,5.903708e-006
1.782794e+000,-5.874723e-006,5.898599e-006
1.783588e+000,-8.896010e-006,5.896348e-006
1.784382e+000,-5.874723e-006,5.917067e-006
1.785176e+000,-7.217518e-006,5.925432e-006
1.785971e+000,-4.531929e-006,5.938500e-006
1.786765e+000,-3.189136e-006,5.943816e-006
1.787559e+000,-1.678492e-007,5.944095e-006
1.788353e+000,1.678492e-007,5.940109e-006
1.789147e+000,-3.692683e-006,5.937934e-006
1.789941e+000,-3.860533e-006,5.936869e-006
1.790735e+000,-7.888914e-006,5.936868e-006
1.791529e+000,-6.881819e-006,5.951359e-006
1.792324e+000,-5.874723e-006,5.963408e-006
1.793118e+000,-7.217518e-006,5.966296e-006
1.793912e+000,-6.210422e-006,5.978015e-006
1.794706e+000,-4.867628e-006,5.970265e-006
1.795500e+000,-6.210422e-006,5.957786e-006
1.796294e+000,-8.560311e-006,5.957786e-006
1.797088e+000,-6.881819e-006,5.965913e-006
1.797882e+000,-4.531929e-006,5.975230e-006
1.798676e+000,-4.196231e-006,5.972526e-006
1.799471e+000,-3.524834e-006,5.956099e-006
1.800265e+000,-8.224612e-006,5.941318e-006
1.801059e+000,-7.721065e-006,5.946752e-006
1.801853e+000,-6.881819e-006,5.944602e-006
1.802647e+000,-9.567407e-006,5.934450e-006
1.803441e+000,-5.874723e-006,5.927067e-006
1.804235e+000,-8.392462e-006,5.913428e-006
1.805029e+000,-7.888914e-006,5.926000e-006
1.805824e+000,-2.349889e-006,5.937979e-006
1.806618e+000,-6.881819e-006,5.931229e-006
1.807412e+000,-5.539025e-006,5.937133e-006
1.808206e+000,-4.867628e-006,5.935017e-006
1.809000e+000,-6.881819e-006,5.931025e-006
1.809794e+000,-9.231709e-006,5.931025e-006
1.810588e+000,-9.903105e-006,5.942390e-006
1.811382e+000,-9.903105e-006,5.953372e-006
1.812176e+000,-7.553216e-006,5.961505e-006
1.812971e+000,-8.896010e-006,5.952287e-006
1.813765e+000,-9.063859e-006,5.968725e-006
1.814559e+000,-4.867628e-006,5.988437e-006
1.815353e+000,-2.517739e-006,5.993986e-006
1.816147e+000,-4.867628e-006,5.989373e-006
1.816941e+000,-5.539025e-006,5.990991e-006
1.817735e+000,-3.524834e-006,5.985934e-006
1.818529e+000,-4.196231e-006,5.976011e-006
1.819324e+000,-4.196231e-006,5.962664e-006
1.820118e+000,-5.203327e-006,5.961038e-006
1.820912e+000,-5.203327e-006,5.962784e-006
1.821706e+000,-6.881819e-006,5.965311e-006
1.822500e+000,-7.217518e-006,5.974629e-006
1.823294e+000,-2.853437e-006,5.984870e-006
1.824088e+000,-2.349889e-006,5.978870e-006
1.824882e+000,1.678492e-007,5.972166e-006
1.825676e+000,-2.182040e-006,5.970904e-006
1.826471e+000,-3.189136e-006,5.967477e-006
1.827265e+000,-4.867628e-006,5.956280e-006
1.828059e+000,-3.189136e-006,5.962423e-006
1.828853e+000,-3.860533e-006,5.964529e-006
1.829647e+000,-4.196231e-006,5.966334e-006
1.830441e+000,-5.539025e-006,5.968860e-006
1.831235e+000,-4.867628e-006,5.968356e-006
1.832029e+000,-5.539025e-006,5.966492e-006
1.832824e+000,-6.378271e-006,5.969198e-006
1.833618e+000,-5.203327e-006,5.976731e-006
1.834412e+000,-1.678492e-007,5.975771e-006
1.835206e+000,-4.196231e-006,5.965492e-006
1.836000e+000,-5.539025e-006,5.957545e-006
1.836794e+000,-4.867628e-006,5.949807e-006
1.837588e+000,-6.210422e-006,5.933316e-006
1.838382e+000,-3.860533e-006,5.938153e-006
1.839176e+000,-4.867628e-006,5.926840e-006
1.839971e+000,-4.531929e-006,5.913503e-006
1.840765e+000,-1.057450e-005,5.900805e-006
1.841559e+000,-8.224612e-006,5.919388e-006
1.842353e+000,-6.042573e-006,5.932832e-006
1.843147e+000,-1.023880e-005,5.935365e-006
1.843941e+000,-1.023880e-005,5.952551e-006
1.844735e+000,-6.546120e-006,5.971332e-006
1.845529e+000,-8.224612e-006,5.970130e-006
1.846324e+000,-4.867628e-006,5.985440e-006
1.847118e+000,-7.553216e-006,5.989314e-006
1.847912e+000,-7.217518e-006,6.002303e-006
1.848706e+000,-4.867628e-006,6.012817e-006
1.849500e+000,-4.531929e-006,6.011922e-006
1.850294e+000,-2.182040e-006,5.991351e-006
1.851088e+000,-4.531929e-006,5.964695e-006
1.851882e+000,-4.196231e-006,5.964695e-006
1.852676e+000,-3.524834e-006,5.961204e-006
1.853471e+000,-4.531929e-006,5.963611e-006
1.854265e+000,-4.867628e-006,5.952468e-006
1.855059e+000,-5.203327e-006,5.943537e-006
1.855853e+000,-5.874723e-006,5.936831e-006
1.856647e+000,-6.546120e-006,5.940578e-006
1.857441e+000,-4.531929e-006,5.945711e-006
1.858235e+000,-6.210422e-006,5.946496e-006
1.859029e+000,-7.553216e-006,5.942873e-006
1.859824e+000,-5.874723e-006,5.945470e-006
1.860618e+000,-4.867628e-006,5.949211e-006
1.861412e+000,-4.196231e-006,5.937436e-006
1.862206e+000,-5.539025e-006,5.937050e-006
1.863000e+000,-8.896010e-006,5.934367e-006
1.863794e+000,-9.903105e-006,5.955195e-006
1.864588e+000,-8.560311e-006,5.978052e-006
1.865382e+000,-7.553216e-006,5.984952e-006
1.866176e+000,-3.524834e-006,5.995437e-006
1.866971e+000,-4.196231e-006,5.992444e-006
1.867765e+000,-4.196231e-006,5.991665e-006
1.868559e+000,-4.867628e-006,5.994180e-006
1.869353e+000,-2.853437e-006,5.986632e-006
1.870147e+000,-5.539025e-006,5.986092e-006
1.870941e+000,-5.539025e-006,5.986092e-006
1.871735e+000,-2.853437e-006,5.981031e-006
1.872529e+000,-3.524834e-006,5.972362e-006
1.873324e+000,-1.510643e-006,5.964243e-006
1.874118e+000,-2.517739e-006,5.940366e-006
1.874912e+000,-4.867628e-006,5.908077e-006
1.875706e+000,-6.210422e-006,5.896219e-006
1.876500e+000,-2.853437e-006,5.893845e-006
1.877294e+000,-5.539025e-006,5.886716e-006
1.878088e+000,-1.191730e-005,5.889459e-006
1.878882e+000,-4.867628e-006,5.919486e-006
1.879676e+000,-4.531929e-006,5.907651e-006
1.880471e+000,-5.874723e-006,5.899140e-006
1.881265e+000,-5.539025e-006,5.905988e-006
1.882059e+000,-6.881819e-006,5.904955e-006
1.882853e+000,-6.210422e-006,5.908418e-006
1.883647e+000,-4.867628e-006,5.918735e-006
1.884441e+000,-4.196231e-006,5.921767e-006
1.885235e+000,-5.035477e-007,5.913761e-006
1.886029e+000,-8.392462e-007,5.899786e-006
1.886824e+000,-3.524834e-006,5.899361e-006
1.887618e+000,-4.196231e-006,5.898691e-006
1.888412e+000,-4.531929e-006,5.900090e-006
1.889206e+000,-6.546120e-006,5.905016e-006
1.890000e+000,-8.224612e-006,5.916188e-006
1.890794e+000,-9.567407e-006,5.919039e-006
1.891588e+000,-1.158160e-005,5.928309e-006
1.892382e+000,-1.292439e-005,5.939740e-006
1.893176e+000,-1.258869e-005,5.959947e-006
1.893971e+000,-9.231709e-006,5.991898e-006
1.894765e+000,-1.091020e-005,6.011213e-006
1.895559e+000,-8.392462e-006,6.037248e-006
1.896353e+000,-3.524834e-006,6.045646e-006
1.897147e+000,-4.196231e-006,6.028049e-006
1.897941e+000,-6.881819e-006,6.014816e-006
1.898735e+000,-6.881819e-006,6.013564e-006
1.899529e+000,-4.196231e-006,6.022807e-006
1.900324e+000,-4.196231e-006,6.018850e-006
1.901118e+000,-1.678492e-007,6.016345e-006
1.901912e+000,2.517739e-006,6.007211e-006
1.902706e+000,-1.846342e-006,5.998662e-006
1.903500e+000,-1.510643e-006,5.994892e-006
1.904294e+000,5.203327e-006,5.986324e-006
1.905088e+000,3.189136e-006,5.969153e-006
1.905882e+000,-1.023880e-005,5.961573e-006
1.906676e+000,-9.567407e-006,5.979246e-006
1.907471e+000,-8.392462e-006,5.988422e-006
1.908265e+000,-1.040665e-005,5.998983e-006
1.909059e+000,-1.292439e-005,6.024378e-006
1.909853e+000,-1.091020e-005,6.061261e-006
1.910647e+000,-2.853437e-006,6.090323e-006
1.911441e+000,-1.124590e-005,6.091207e-006
1.912235e+000,-1.963836e-005,6.123996e-006
1.913029e+000,-2.232395e-005,6.221385e-006
1.913824e+000,-1.846342e-005,6.344236e-006
1.914618e+000,-8.560311e-006,6.428978e-006
1.915412e+000,4.867628e-006,6.439521e-006
1.916206e+000,2.400244e-005,6.445203e-006
1.917000e+000,3.340200e-005,6.585449e-006
1.917794e+000,1.426719e-005,6.838895e-006
1.918588e+000,-3.189136e-006,6.877202e-006
1.919382e+000,-9.063859e-006,6.876680e-006
1.920176e+000,-1.460288e-005,6.891610e-006
1.920971e+000,-1.661708e-005,6.931852e-006
1.921765e+000,-2.030976e-005,6.984206e-006
1.922559e+000,-2.433814e-005,7.057001e-006
1.923353e+000,-1.896696e-005,7.173168e-006
1.924147e+000,-1.124590e-005,7.240051e-006
1.924941e+000,-1.493858e-005,7.264547e-006
1.925735e+000,-9.567407e-006,7.309464e-006
1.926529e+000,3.189136e-006,7.329158e-006
1.927324e+000,5.203327e-006,7.331068e-006
1.928118e+000,-5.539025e-006,7.336450e-006
1.928912e+000,8.392462e-007,7.337967e-006
1.929706e+000,7.553216e-006,7.331459e-006
1.930500e+000,3.189136e-006,7.337967e-006
1.931294e+000,-1.846342e-006,7.336940e-006
1.932088e+000,-5.539025e-006,7.322986e-006
1.932882e+000,-5.035477e-006,7.322986e-006
1.933676e+000,-8.896010e-006,7.322612e-006
1.934471e+000,-1.023880e-005,7.337105e-006
1.935265e+000,-1.426719e-005,7.358060e-006
1.936059e+000,-1.560998e-005,7.399792e-006
1.936853e+000,-1.225299e-005,7.446978e-006
1.937647e+000,-1.493858e-005,7.464595e-006
1.938441e+000,-1.527428e-005,7.495256e-006
1.939235e+000,-1.426719e-005,7.532607e-006
1.940029e+000,-1.762417e-005,7.567403e-006
1.940824e+000,-1.628138e-005,7.622596e-006
1.941618e+000,-1.628138e-005,7.670611e-006
1.942412e+000,-9.567407e-006,7.713676e-006
1.943206e+000,-5.539025e-006,7.729990e-006
1.944000e+000,-5.035477e-007,7.734214e-006
1.944794e+000,2.131685e-005,7.727946e-006
1.945588e+000,3.810178e-005,7.808337e-006
1.946382e+000,3.273060e-005,8.091396e-006
1.947176e+000,2.165255e-005,8.283178e-006
1.947971e+000,1.527428e-005,8.356596e-006
1.948765e+000,2.853437e-006,8.389628e-006
1.949559e+000,-5.539025e-006,8.387831e-006
1.950353e+000,-8.896010e-006,8.385520e-006
1.951147e+000,-1.225299e-005,8.386633e-006
1.951941e+000,-2.601663e-005,8.404288e-006
1.952735e+000,-4.850843e-005,8.515648e-006
1.953529e+000,-3.608759e-005,8.936402e-006
1.954324e+000,-9.567407e-006,9.162462e-006
1.955118e+000,-3.860533e-006,9.166612e-006
1.955912e+000,1.393149e-005,9.163871e-006
1.956706e+000,2.937362e-005,9.194486e-006
1.957500e+000,2.098116e-005,9.339716e-006
1.958294e+000,4.867628e-006,9.408630e-006
1.959088e+000,-1.510643e-006,9.406112e-006
1.959882e+000,-2.182040e-006,9.401303e-006
1.960676e+000,-1.023880e-005,9.394085e-006
1.961471e+000,-2.131685e-005,9.402181e-006
1.962265e+000,-3.910887e-005,9.467457e-006
1.963059e+000,-3.205920e-005,9.714985e-006
1.963853e+000,-1.359579e-005,9.875796e-006
1.964647e+000,-3.524834e-006,9.902493e-006
1.965441e+000,1.057450e-005,9.898288e-006
1.966235e+000,2.467384e-005,9.911332e-006
1.967029e+000,4.213016e-005,1.000669e-005
1.967824e+000,4.179446e-005,1.028490e-005
1.968618e+000,3.910887e-005,1.054780e-005
1.969412e+000,6.160067e-005,1.076702e-005
1.970206e+000,8.039978e-005,1.131098e-005
1.971000e+000,5.690089e-005,1.218662e-005
1.971794e+000,4.515145e-005,1.260069e-005
1.972588e+000,4.397650e-005,1.285194e-005
1.973382e+000,-1.376364e-005,1.308467e-005
1.974176e+000,-4.850843e-005,1.310520e-005
1.974971e+000,-3.172351e-005,1.338597e-005
1.975765e+000,-4.347295e-005,1.349957e-005
1.976559e+000,-7.603571e-005,1.371518e-005
1.977353e+000,-7.469291e-005,1.436648e-005
1.978147e+000,-6.059357e-005,1.496798e-005
1.978941e+000,-5.320821e-005,1.535043e-005
1.979735e+000,-3.138781e-005,1.563699e-005
1.980529e+000,-1.510643e-006,1.573426e-005
1.981324e+000,2.400244e-005,1.573441e-005
1.982118e+000,3.978027e-005,1.579227e-005
1.982912e+000,4.196231e-006,1.594797e-005
1.983706e+000,-1.863127e-005,1.594500e-005
1.984500e+000,-3.508049e-005,1.597536e-005
1.985294e+000,-4.985122e-005,1.609581e-005
1.986088e+000,-6.059357e-005,1.633893e-005
1.986882e+000,-6.327916e-005,1.669287e-005
1.987676e+000,-9.617762e-005,1.706981e-005
1.988471e+000,-6.092927e-005,1.791038e-005
1.989265e+000,-1.863127e-005,1.823408e-005
1.990059e+000,3.474479e-005,1.826023e-005
1.990853e+000,1.072557e-004,1.835670e-005
1.991647e+000,9.919890e-005,1.932456e-005
1.992441e+000,5.119402e-005,2.011620e-005
1.993235e+000,7.469291e-005,2.032019e-005
1.994029e+000,5.488670e-005,2.075096e-005
1.994824e+000,3.306630e-005,2.097973e-005
1.995618e+000,2.299535e-005,2.106122e-005
1.996412e+000,6.965744e-005,2.109606e-005
1.997206e+000,9.852750e-005,2.145416e-005
1.998000e+000,7.368582e-005,2.215940e-005
1.998794e+000,2.098116e-005,2.254251e-005
1.999588e+000,-1.225299e-005,2.256643e-005
2.000382e+000,-6.663615e-005,2.257056e-005
2.001176e+000,-8.274968e-005,2.287772e-005
2.001971e+000,-4.380865e-005,2.334761e-005
2.002765e+000,-3.776608e-005,2.347355e-005
2.003559e+000,-8.039978e-005,2.356919e-005
2.004353e+000,-4.313725e-005,2.399978e-005
2.005147e+000,-5.018692e-005,2.412157e-005
2.005941e+000,-1.119554e-004,2.428629e-005
2.006735e+000,-1.327687e-004,2.509413e-005
2.007529e+000,-1.196765e-004,2.618832e-005
2.008324e+000,-3.843748e-005,2.704264e-005
2.009118e+000,3.978027e-005,2.712672e-005
2.009912e+000,1.136339e-004,2.721720e-005
2.010706e+000,1.146410e-004,2.796188e-005
2.011500e+000,3.474479e-005,2.870048e-005
2.012294e+000,-3.054856e-005,2.876738e-005
2.013088e+000,-6.999313e-005,2.881872e-005
2.013882e+000,-6.529335e-005,2.908803e-005
2.014676e+000,-6.898604e-005,2.931974e-005
2.015471e+000,-7.872129e-005,2.957511e-005
2.016265e+000,-7.737850e-005,2.990485e-005
2.017059e+000,-4.582284e-005,3.021552e-005
2.017853e+000,-2.702373e-005,3.032029e-005
2.018647e+000,-6.126497e-005,3.035347e-005
2.019441e+000,-8.946365e-005,3.054562e-005
2.020235e+000,-1.203479e-004,3.095533e-005
2.021029e+000,-7.402152e-005,3.169121e-005
2.021824e+000,-1.359579e-005,3.196522e-005
2.022618e+000,-4.313725e-005,3.197411e-005
2.023412e+000,-4.078737e-005,3.206513e-005
2.024206e+000,6.881819e-005,3.214602e-005
2.025000e+000,1.547570e-004,3.237843e-005
2.025794e+000,1.065843e-004,3.353476e-005
2.026588e+000,8.560311e-006,3.406895e-005
2.027382e+000,2.182040e-006,3.407156e-005
2.028176e+000,3.189136e-006,3.407140e-005
2.028971e+000,4.548714e-005,3.407140e-005
2.029765e+000,1.085985e-004,3.416774e-005
2.030559e+000,1.200122e-004,3.471265e-005
2.031353e+000,7.032883e-005,3.536667e-005
2.032147e+000,2.668803e-005,3.558830e-005
2.032941e+000,-1.023880e-005,3.561862e-005
2.033735e+000,-4.481575e-005,3.561976e-005
2.034529e+000,-4.045167e-005,3.570790e-005
2.035324e+000,-1.242084e-005,3.577848e-005
2.036118e+000,-3.541619e-005,3.578443e-005
2.036912e+000,-6.730755e-005,3.583975e-005
2.037706e+000,-9.752041e-005,3.604047e-005
2.038500e+000,-1.294118e-004,3.645823e-005
2.039294e+000,-1.159838e-004,3.718192e-005
2.040088e+000,-1.002060e-004,3.775300e-005
2.040882e+000,-1.109483e-004,3.817158e-005
2.041676e+000,-6.663615e-005,3.867972e-005
2.042471e+000,6.025788e-005,3.886067e-005
2.043265e+000,9.919890e-005,3.900705e-005
2.044059e+000,8.509956e-005,3.940515e-005
2.044853e+000,6.378271e-006,3.969577e-005
2.045647e+000,-5.857939e-005,3.969586e-005
2.046441e+000,1.326009e-005,3.983034e-005
2.047235e+000,1.287404e-004,3.983548e-005
2.048029e+000,1.777523e-004,4.049177e-005
2.048824e+000,9.651331e-005,4.171512e-005
2.049618e+000,-2.803082e-005,4.206871e-005
2.050412e+000,-7.133593e-005,4.209589e-005
2.051206e+000,-1.022202e-004,4.228570e-005
2.052000e+000,-5.152972e-005,4.267559e-005
2.052794e+000,9.231709e-006,4.277115e-005
2.053588e+000,3.709468e-005,4.277304e-005
2.054382e+000,-3.004501e-005,4.282161e-005
2.055176e+000,-1.092699e-004,4.285285e-005
2.055971e+000,-1.075914e-004,4.329405e-005
2.056765e+000,-9.282063e-005,4.371602e-005
2.057559e+000,-5.018692e-005,4.402761e-005
2.058353e+000,3.860533e-005,4.411776e-005
2.059147e+000,2.719158e-005,4.416981e-005
2.059941e+000,-3.172351e-005,4.419339e-005
2.060735e+000,-7.100023e-005,4.422610e-005
2.061529e+000,-9.953460e-005,4.440372e-005
2.062324e+000,-3.407340e-005,4.475555e-005
2.063118e+000,4.380865e-005,4.479403e-005
2.063912e+000,1.084306e-004,4.485929e-005
2.064706e+000,1.878233e-004,4.527387e-005
2.065500e+000,1.683528e-004,4.649788e-005
2.066294e+000,1.132982e-004,4.745777e-005
2.067088e+000,4.682994e-005,4.788552e-005
2.067882e+000,-3.407340e-005,4.795798e-005
2.068676e+000,-3.743038e-005,4.799593e-005
2.069471e+000,2.131685e-005,4.804180e-005
2.070265e+000,6.546120e-006,4.805596e-005
2.071059e+000,-1.863127e-005,4.805649e-005
2.071853e+000,3.340200e-005,4.806642e-005
2.072647e+000,1.668421e-004,4.810164e-005
2.073441e+000,1.918517e-004,4.901421e-005
2.074235e+000,1.629816e-004,5.019557e-005
2.075029e+000,6.898604e-005,5.103127e-005
2.075824e+000,4.213016e-005,5.117941e-005
2.076618e+000,-1.644922e-005,5.123429e-005
2.077412e+000,-8.476387e-005,5.124196e-005
2.078206e+000,-1.438468e-004,5.146443e-005
2.079000e+000,-1.320974e-004,5.210027e-005
2.079794e+000,-7.603571e-005,5.263035e-005
2.080588e+000,5.203327e-006,5.280406e-005
2.081382e+000,2.333104e-005,5.280416e-005
2.082176e+000,5.035477e-007,5.281965e-005
2.082971e+000,-8.392462e-007,5.281843e-005
2.083765e+000,-3.709468e-005,5.281763e-005
2.084559e+000,-6.932174e-005,5.285910e-005
2.085353e+000,-1.242084e-005,5.300314e-005
2.086147e+000,7.888914e-006,5.300685e-005
2.086941e+000,-4.582284e-005,5.300801e-005
2.087735e+000,-7.335011e-005,5.306989e-005
2.088529e+000,-8.274968e-005,5.323063e-005
2.089324e+000,-8.778516e-005,5.343437e-005
2.090118e+000,-7.939269e-005,5.366292e-005
2.090912e+000,-5.152972e-005,5.384632e-005
2.091706e+000,-3.978027e-005,5.392279e-005
2.092500e+000,2.467384e-005,5.396843e-005
2.093294e+000,1.285725e-004,5.398329e-005
2.094088e+000,1.324331e-004,5.446566e-005
2.094882e+000,6.898604e-005,5.497479e-005
2.095676e+000,2.803082e-005,5.511051e-005
2.096471e+000,1.326009e-005,5.513252e-005
2.097265e+000,2.601663e-005,5.513595e-005
2.098059e+000,4.481575e-005,5.515399e-005
2.098853e+000,3.524834e-006,5.521127e-005
2.099647e+000,-5.488670e-005,5.521103e-005
2.100441e+000,-7.335011e-005,5.529771e-005
2.101235e+000,-9.500267e-005,5.545184e-005
2.102029e+000,-8.375677e-005,5.570990e-005
2.102824e+000,-5.958648e-005,5.590971e-005
2.103618e+000,-7.939269e-005,5.601015e-005
2.104412e+000,-9.886320e-005,5.618839e-005
2.105206e+000,-8.140688e-005,5.646394e-005
2.106000e+000,-5.186542e-005,5.664955e-005
2.106794e+000,-6.596475e-005,5.672391e-005
2.107588e+000,-4.213016e-005,5.684536e-005
2.108382e+000,4.515145e-005,5.689398e-005
2.109176e+000,7.771420e-005,5.694941e-005
2.109971e+000,2.517739e-006,5.711707e-005
2.110765e+000,-6.999313e-005,5.711658e-005
2.111559e+000,-7.469291e-005,5.725251e-005
2.112353e+000,-3.038071e-005,5.740662e-005
2.113147e+000,4.884413e-005,5.743002e-005
2.113941e+000,9.097429e-005,5.749342e-005
2.114735e+000,4.347295e-005,5.772017e-005
2.115529e+000,3.407340e-005,5.777071e-005
2.116324e+000,7.553216e-005,5.780236e-005
2.117118e+000,7.553216e-005,5.795883e-005
2.117912e+000,4.515145e-005,5.811488e-005
2.118706e+000,2.333104e-005,5.817006e-005
2.119500e+000,-8.392462e-007,5.818474e-005
2.120294e+000,-3.591974e-005,5.818392e-005
2.121088e+000,-1.371328e-004,5.821838e-005
2.121882e+000,-1.226978e-004,5.873026e-005
2.122676e+000,-3.071641e-005,5.913670e-005
2.123471e+000,1.455253e-004,5.916204e-005
2.124265e+000,2.177005e-004,5.972915e-005
2.125059e+000,5.622950e-005,6.097893e-005
2.125853e+000,-4.783703e-005,6.106043e-005
2.126647e+000,8.560311e-006,6.111987e-005
2.127441e+000,1.297475e-004,6.112098e-005
2.128235e+000,1.559319e-004,6.155432e-005
2.129029e+000,4.615854e-005,6.217953e-005
2.129824e+000,-4.078737e-005,6.223355e-005
2.130618e+000,-6.227207e-005,6.227522e-005
2.131412e+000,-4.884413e-005,6.237351e-005
2.132206e+000,-4.582284e-005,6.243318e-005
2.133000e+000,-5.421531e-005,6.248573e-005
2.133794e+000,-5.757229e-005,6.255999e-005
2.134588e+000,-6.092927e-005,6.264385e-005
2.135382e+000,-7.972839e-005,6.273814e-005
2.136176e+000,-9.987030e-005,6.289925e-005
2.136971e+000,-1.049058e-004,6.315093e-005
2.137765e+000,-1.032273e-004,6.342738e-005
2.138559e+000,-8.560311e-005,6.369383e-005
2.139353e+000,-5.539025e-005,6.387569e-005
2.140147e+000,-3.172351e-005,6.395044e-005
2.140941e+000,-1.846342e-006,6.397322e-005
2.141735e+000,5.622950e-005,6.396996e-005
2.142529e+000,6.025788e-005,6.404447e-005
2.143324e+000,7.234302e-005,6.413075e-005
2.144118e+000,1.384756e-004,6.425846e-005
2.144912e+000,1.112840e-004,6.472896e-005
2.145706e+000,3.810178e-005,6.503118e-005
2.146500e+000,1.795987e-005,6.506641e-005
2.147294e+000,1.460288e-005,6.507387e-005
2.148088e+000,-2.836652e-005,6.507793e-005
2.148882e+000,-5.992218e-005,6.509646e-005
2.149676e+000,-5.253681e-005,6.518380e-005
2.150471e+000,-4.515145e-005,6.525076e-005
2.151265e+000,-5.119402e-005,6.530049e-005
2.152059e+000,-5.925078e-005,6.536421e-005
2.152853e+000,-6.596475e-005,6.544960e-005
2.153647e+000,-6.596475e-005,6.555532e-005
2.154441e+000,-4.179446e-005,6.566028e-005
2.155235e+000,-1.628138e-005,6.570238e-005
2.156029e+000,-3.843748e-005,6.570626e-005
2.156824e+000,-4.817273e-005,6.573984e-005
2.157618e+000,-5.052262e-005,6.579432e-005
2.158412e+000,-4.414435e-005,6.585346e-005
2.159206e+000,-2.064546e-005,6.589652e-005
2.160000e+000,-2.265965e-005,6.590395e-005
2.160794e+000,-2.702373e-005,6.591615e-005
2.161588e+000,-6.881819e-006,6.593074e-005
2.162382e+000,-1.510643e-006,6.592257e-005
2.163176e+000,-6.881819e-006,6.591059e-005
2.163971e+000,5.035477e-007,6.590349e-005
2.164765e+000,-8.392462e-007,6.590172e-005
2.165559e+000,-6.881819e-006,6.590117e-005
2.166353e+000,-5.539025e-006,6.588839e-005
2.167147e+000,-1.040665e-005,6.586217e-005
2.167941e+000,-1.007095e-005,6.585987e-005
