X [s],L BICEPS BRACHII: EMG 4 [V],L BICEPS BRACHII: EMG 4->filter (FilterSlidingRMS33) [V]
0.000000e+000,0.000000e+000,0.000000e+000
7.941176e-004,0.000000e+000,0.000000e+000
1.588235e-003,0.000000e+000,0.000000e+000
2.382353e-003,0.000000e+000,0.000000e+000
3.176471e-003,0.000000e+000,0.000000e+000
3.970588e-003,0.000000e+000,0.000000e+000
4.764706e-003,0.000000e+000,0.000000e+000
5.558824e-003,0.000000e+000,0.000000e+000
6.352941e-003,0.000000e+000,0.000000e+000
7.147059e-003,0.000000e+000,0.000000e+000
7.941176e-003,0.000000e+000,0.000000e+000
8.735294e-003,0.000000e+000,0.000000e+000
9.529412e-003,0.000000e+000,0.000000e+000
1.032353e-002,0.000000e+000,0.000000e+000
1.111765e-002,0.000000e+000,0.000000e+000
1.191176e-002,0.000000e+000,0.000000e+000
1.270588e-002,0.000000e+000,0.000000e+000
1.350000e-002,0.000000e+000,0.000000e+000
1.429412e-002,0.000000e+000,0.000000e+000
1.508824e-002,0.000000e+000,0.000000e+000
1.588235e-002,0.000000e+000,0.000000e+000
1.667647e-002,0.000000e+000,0.000000e+000
1.747059e-002,0.000000e+000,0.000000e+000
1.826471e-002,0.000000e+000,0.000000e+000
1.905882e-002,0.000000e+000,0.000000e+000
1.985294e-002,0.000000e+000,0.000000e+000
2.064706e-002,0.000000e+000,0.000000e+000
2.144118e-002,0.000000e+000,0.000000e+000
2.223529e-002,0.000000e+000,0.000000e+000
2.302941e-002,0.000000e+000,0.000000e+000
2.382353e-002,0.000000e+000,0.000000e+000
2.461765e-002,0.000000e+000,0.000000e+000
2.541176e-002,0.000000e+000,0.000000e+000
2.620588e-002,0.000000e+000,0.000000e+000
2.700000e-002,0.000000e+000,0.000000e+000
2.779412e-002,0.000000e+000,0.000000e+000
2.858824e-002,0.000000e+000,0.000000e+000
2.938235e-002,0.000000e+000,0.000000e+000
3.017647e-002,0.000000e+000,0.000000e+000
3.097059e-002,0.000000e+000,0.000000e+000
3.176471e-002,0.000000e+000,0.000000e+000
3.255882e-002,0.000000e+000,0.000000e+000
3.335294e-002,0.000000e+000,0.000000e+000
3.414706e-002,0.000000e+000,0.000000e+000
3.494118e-002,0.000000e+000,0.000000e+000
3.573529e-002,0.000000e+000,0.000000e+000
3.652941e-002,0.000000e+000,0.000000e+000
3.732353e-002,0.000000e+000,0.000000e+000
3.811765e-002,0.000000e+000,0.000000e+000
3.891176e-002,0.000000e+000,0.000000e+000
3.970588e-002,0.000000e+000,0.000000e+000
4.050000e-002,0.000000e+000,0.000000e+000
4.129412e-002,0.000000e+000,0.000000e+000
4.208824e-002,0.000000e+000,0.000000e+000
4.288235e-002,0.000000e+000,0.000000e+000
4.367647e-002,0.000000e+000,0.000000e+000
4.447059e-002,0.000000e+000,0.000000e+000
4.526471e-002,0.000000e+000,0.000000e+000
4.605882e-002,0.000000e+000,0.000000e+000
4.685294e-002,0.000000e+000,0.000000e+000
4.764706e-002,0.000000e+000,0.000000e+000
4.844118e-002,0.000000e+000,0.000000e+000
4.923529e-002,0.000000e+000,0.000000e+000
5.002941e-002,0.000000e+000,0.000000e+000
5.082353e-002,0.000000e+000,0.000000e+000
5.161765e-002,0.000000e+000,0.000000e+000
5.241176e-002,0.000000e+000,0.000000e+000
5.320588e-002,0.000000e+000,0.000000e+000
5.400000e-002,0.000000e+000,0.000000e+000
5.479412e-002,0.000000e+000,0.000000e+000
5.558824e-002,0.000000e+000,0.000000e+000
5.638235e-002,0.000000e+000,0.000000e+000
5.717647e-002,0.000000e+000,0.000000e+000
5.797059e-002,0.000000e+000,0.000000e+000
5.876471e-002,0.000000e+000,0.000000e+000
5.955882e-002,0.000000e+000,0.000000e+000
6.035294e-002,0.000000e+000,0.000000e+000
6.114706e-002,0.000000e+000,0.000000e+000
6.194118e-002,0.000000e+000,0.000000e+000
6.273529e-002,0.000000e+000,0.000000e+000
6.352941e-002,0.000000e+000,0.000000e+000
6.432353e-002,0.000000e+000,0.000000e+000
6.511765e-002,0.000000e+000,0.000000e+000
6.591176e-002,0.000000e+000,0.000000e+000
6.670588e-002,0.000000e+000,0.000000e+000
6.750000e-002,0.000000e+000,0.000000e+000
6.829412e-002,0.000000e+000,0.000000e+000
6.908824e-002,0.000000e+000,0.000000e+000
6.988235e-002,0.000000e+000,0.000000e+000
7.067647e-002,0.000000e+000,0.000000e+000
7.147059e-002,0.000000e+000,0.000000e+000
7.226471e-002,0.000000e+000,0.000000e+000
7.305882e-002,0.000000e+000,0.000000e+000
7.385294e-002,0.000000e+000,0.000000e+000
7.464706e-002,0.000000e+000,0.000000e+000
7.544118e-002,0.000000e+000,0.000000e+000
7.623529e-002,0.000000e+000,0.000000e+000
7.702941e-002,0.000000e+000,0.000000e+000
7.782353e-002,0.000000e+000,0.000000e+000
7.861765e-002,0.000000e+000,0.000000e+000
7.941176e-002,0.000000e+000,0.000000e+000
8.020588e-002,0.000000e+000,0.000000e+000
8.100000e-002,0.000000e+000,0.000000e+000
8.179412e-002,0.000000e+000,0.000000e+000
8.258824e-002,0.000000e+000,0.000000e+000
8.338235e-002,0.000000e+000,0.000000e+000
8.417647e-002,0.000000e+000,0.000000e+000
8.497059e-002,0.000000e+000,0.000000e+000
8.576471e-002,0.000000e+000,0.000000e+000
8.655882e-002,0.000000e+000,0.000000e+000
8.735294e-002,0.000000e+000,0.000000e+000
8.814706e-002,0.000000e+000,0.000000e+000
8.894118e-002,0.000000e+000,0.000000e+000
8.973529e-002,0.000000e+000,0.000000e+000
9.052941e-002,0.000000e+000,0.000000e+000
9.132353e-002,0.000000e+000,0.000000e+000
9.211765e-002,0.000000e+000,0.000000e+000
9.291176e-002,0.000000e+000,0.000000e+000
9.370588e-002,0.000000e+000,0.000000e+000
9.450000e-002,7.217518e-006,0.000000e+000
9.529412e-002,1.158160e-005,0.000000e+000
9.608824e-002,1.225299e-005,0.000000e+000
9.688235e-002,1.023880e-005,0.000000e+000
9.767647e-002,3.860533e-006,0.000000e+000
9.847059e-002,-2.182040e-006,0.000000e+000
9.926471e-002,-6.210422e-006,0.000000e+000
1.000588e-001,-7.553216e-006,0.000000e+000
1.008529e-001,-1.091020e-005,0.000000e+000
1.016471e-001,-1.628138e-005,0.000000e+000
1.024412e-001,-1.594568e-005,0.000000e+000
1.032353e-001,-1.493858e-005,0.000000e+000
1.040294e-001,-1.930266e-005,0.000000e+000
1.048235e-001,-2.299535e-005,0.000000e+000
1.056176e-001,-2.333104e-005,0.000000e+000
1.064118e-001,-2.366674e-005,0.000000e+000
1.072059e-001,-2.333104e-005,0.000000e+000
1.080000e-001,-2.165255e-005,0.000000e+000
1.087941e-001,-2.098116e-005,0.000000e+000
1.095882e-001,-2.165255e-005,0.000000e+000
1.103824e-001,-1.493858e-005,0.000000e+000
1.111765e-001,-1.091020e-005,0.000000e+000
1.119706e-001,-1.158160e-005,0.000000e+000
1.127647e-001,-7.553216e-006,0.000000e+000
1.135588e-001,-6.881819e-006,0.000000e+000
1.143529e-001,-7.553216e-006,0.000000e+000
1.151471e-001,-6.378271e-006,0.000000e+000
1.159412e-001,-7.217518e-006,0.000000e+000
1.167353e-001,-1.577783e-005,0.000000e+000
1.175294e-001,-2.131685e-005,0.000000e+000
1.183235e-001,-2.668803e-005,0.000000e+000
1.191176e-001,-2.433814e-005,0.000000e+000
1.199118e-001,-3.004501e-005,0.000000e+000
1.207059e-001,-4.179446e-005,0.000000e+000
1.215000e-001,-5.253681e-005,0.000000e+000
1.222941e-001,-6.160067e-005,0.000000e+000
1.230882e-001,-5.992218e-005,0.000000e+000
1.238824e-001,-5.488670e-005,0.000000e+000
1.246765e-001,-4.515145e-005,0.000000e+000
1.254706e-001,-2.618448e-005,0.000000e+000
1.262647e-001,8.392462e-007,0.000000e+000
1.270588e-001,1.863127e-005,0.000000e+000
1.278529e-001,2.534523e-005,0.000000e+000
1.286471e-001,3.038071e-005,0.000000e+000
1.294412e-001,3.407340e-005,0.000000e+000
1.302353e-001,3.575189e-005,0.000000e+000
1.310294e-001,3.591974e-005,0.000000e+000
1.318235e-001,4.045167e-005,0.000000e+000
1.326176e-001,4.481575e-005,0.000000e+000
1.334118e-001,4.649424e-005,0.000000e+000
1.342059e-001,4.917983e-005,0.000000e+000
1.350000e-001,4.347295e-005,0.000000e+000
1.357941e-001,2.903792e-005,0.000000e+000
1.365882e-001,1.258869e-005,0.000000e+000
1.373824e-001,2.517739e-006,0.000000e+000
1.381765e-001,-9.231709e-006,0.000000e+000
1.389706e-001,-1.930266e-005,0.000000e+000
1.397647e-001,-2.500954e-005,0.000000e+000
1.405588e-001,-3.038071e-005,0.000000e+000
1.413529e-001,-3.239490e-005,0.000000e+000
1.421471e-001,-3.776608e-005,0.000000e+000
1.429412e-001,-3.843748e-005,0.000000e+000
1.437353e-001,-3.642328e-005,0.000000e+000
1.445294e-001,-3.810178e-005,0.000000e+000
1.453235e-001,-3.843748e-005,0.000000e+000
1.461176e-001,-3.843748e-005,0.000000e+000
1.469118e-001,-3.910887e-005,0.000000e+000
1.477059e-001,-3.910887e-005,0.000000e+000
1.485000e-001,-3.994812e-005,0.000000e+000
1.492941e-001,-3.457694e-005,0.000000e+000
1.500882e-001,-3.054856e-005,0.000000e+000
1.508824e-001,-2.769513e-005,0.000000e+000
1.516765e-001,-2.568093e-005,0.000000e+000
1.524706e-001,-2.198825e-005,0.000000e+000
1.532647e-001,-1.863127e-005,0.000000e+000
1.540588e-001,-1.577783e-005,0.000000e+000
1.548529e-001,-1.426719e-005,0.000000e+000
1.556471e-001,-1.023880e-005,0.000000e+000
1.564412e-001,-1.158160e-005,0.000000e+000
1.572353e-001,-1.275654e-005,0.000000e+000
1.580294e-001,-1.359579e-005,0.000000e+000
1.588235e-001,-1.040665e-005,0.000000e+000
1.596176e-001,-1.174945e-005,0.000000e+000
1.604118e-001,-1.225299e-005,0.000000e+000
1.612059e-001,-1.393149e-005,0.000000e+000
1.620000e-001,-1.292439e-005,0.000000e+000
1.627941e-001,-1.225299e-005,0.000000e+000
1.635882e-001,-1.292439e-005,0.000000e+000
1.643824e-001,-1.225299e-005,0.000000e+000
1.651765e-001,-9.567407e-006,0.000000e+000
1.659706e-001,-4.867628e-006,0.000000e+000
1.667647e-001,-3.189136e-006,0.000000e+000
1.675588e-001,-7.217518e-006,0.000000e+000
1.683529e-001,-8.224612e-006,0.000000e+000
1.691471e-001,-8.560311e-006,0.000000e+000
1.699412e-001,-1.460288e-005,0.000000e+000
1.707353e-001,-1.225299e-005,0.000000e+000
1.715294e-001,-1.258869e-005,0.000000e+000
1.723235e-001,-1.225299e-005,0.000000e+000
1.731176e-001,-9.567407e-006,0.000000e+000
1.739118e-001,-1.158160e-005,0.000000e+000
1.747059e-001,-1.158160e-005,0.000000e+000
1.755000e-001,-8.224612e-006,0.000000e+000
1.762941e-001,-6.881819e-006,0.000000e+000
1.770882e-001,-4.867628e-006,0.000000e+000
1.778824e-001,-5.539025e-006,0.000000e+000
1.786765e-001,-5.874723e-006,0.000000e+000
1.794706e-001,-6.881819e-006,0.000000e+000
1.802647e-001,-5.539025e-006,0.000000e+000
1.810588e-001,-4.364080e-006,0.000000e+000
1.818529e-001,-4.867628e-006,0.000000e+000
1.826471e-001,-8.560311e-006,0.000000e+000
1.834412e-001,-1.091020e-005,0.000000e+000
1.842353e-001,-1.191730e-005,0.000000e+000
1.850294e-001,-8.224612e-006,0.000000e+000
1.858235e-001,-1.225299e-005,0.000000e+000
1.866176e-001,-1.292439e-005,0.000000e+000
1.874118e-001,-1.292439e-005,0.000000e+000
1.882059e-001,-1.158160e-005,0.000000e+000
1.890000e-001,-1.359579e-005,0.000000e+000
1.897941e-001,-1.393149e-005,0.000000e+000
1.905882e-001,-1.493858e-005,0.000000e+000
1.913824e-001,-1.762417e-005,0.000000e+000
1.921765e-001,-1.560998e-005,0.000000e+000
1.929706e-001,-1.560998e-005,0.000000e+000
1.937647e-001,-1.292439e-005,0.000000e+000
1.945588e-001,-1.292439e-005,0.000000e+000
1.953529e-001,-1.661708e-005,0.000000e+000
1.961471e-001,-1.779202e-005,0.000000e+000
1.969412e-001,-1.292439e-005,0.000000e+000
1.977353e-001,-1.426719e-005,0.000000e+000
1.985294e-001,-1.628138e-005,0.000000e+000
1.993235e-001,-1.930266e-005,0.000000e+000
2.001176e-001,-1.628138e-005,0.000000e+000
2.009118e-001,-1.594568e-005,0.000000e+000
2.017059e-001,-1.359579e-005,0.000000e+000
2.025000e-001,-1.309224e-005,0.000000e+000
2.032941e-001,-1.426719e-005,0.000000e+000
2.040882e-001,-1.359579e-005,0.000000e+000
2.048824e-001,-1.091020e-005,0.000000e+000
2.056765e-001,-7.217518e-006,0.000000e+000
2.064706e-001,-8.392462e-006,0.000000e+000
2.072647e-001,-8.224612e-006,0.000000e+000
2.080588e-001,-8.224612e-006,0.000000e+000
2.088529e-001,-1.057450e-005,0.000000e+000
2.096471e-001,-1.158160e-005,0.000000e+000
2.104412e-001,-9.903105e-006,0.000000e+000
2.112353e-001,-7.217518e-006,0.000000e+000
2.120294e-001,-1.091020e-005,0.000000e+000
2.128235e-001,-1.225299e-005,0.000000e+000
2.136176e-001,-7.888914e-006,0.000000e+000
2.144118e-001,-7.553216e-006,0.000000e+000
2.152059e-001,-8.224612e-006,0.000000e+000
2.160000e-001,-1.023880e-005,0.000000e+000
2.167941e-001,-1.023880e-005,0.000000e+000
2.175882e-001,-8.560311e-006,0.000000e+000
2.183824e-001,-8.560311e-006,0.000000e+000
2.191765e-001,-7.721065e-006,0.000000e+000
2.199706e-001,-9.903105e-006,0.000000e+000
2.207647e-001,-6.881819e-006,0.000000e+000
2.215588e-001,-2.853437e-006,0.000000e+000
2.223529e-001,-4.196231e-006,0.000000e+000
2.231471e-001,-1.174945e-005,0.000000e+000
2.239412e-001,-1.225299e-005,0.000000e+000
2.247353e-001,-1.426719e-005,0.000000e+000
2.255294e-001,-1.829557e-005,0.000000e+000
2.263235e-001,-1.527428e-005,0.000000e+000
2.271176e-001,-1.326009e-005,0.000000e+000
2.279118e-001,-1.829557e-005,0.000000e+000
2.287059e-001,-2.165255e-005,0.000000e+000
2.295000e-001,-2.433814e-005,0.000000e+000
2.302941e-001,-2.165255e-005,0.000000e+000
2.310882e-001,-1.762417e-005,0.000000e+000
2.318824e-001,-1.225299e-005,0.000000e+000
2.326765e-001,-9.567407e-006,0.000000e+000
2.334706e-001,-8.896010e-006,0.000000e+000
2.342647e-001,-9.567407e-006,0.000000e+000
2.350588e-001,-9.567407e-006,0.000000e+000
2.358529e-001,-9.567407e-006,0.000000e+000
2.366471e-001,-1.258869e-005,0.000000e+000
2.374412e-001,-1.225299e-005,0.000000e+000
2.382353e-001,-8.560311e-006,0.000000e+000
2.390294e-001,-1.091020e-005,0.000000e+000
2.398235e-001,-1.158160e-005,0.000000e+000
2.406176e-001,-8.896010e-006,0.000000e+000
2.414118e-001,-1.091020e-005,0.000000e+000
2.422059e-001,-1.242084e-005,0.000000e+000
2.430000e-001,-1.091020e-005,0.000000e+000
2.437941e-001,-7.217518e-006,0.000000e+000
2.445882e-001,-1.510643e-006,0.000000e+000
2.453824e-001,-2.182040e-006,0.000000e+000
2.461765e-001,-7.721065e-006,0.000000e+000
2.469706e-001,-9.735256e-006,0.000000e+000
2.477647e-001,-7.721065e-006,0.000000e+000
2.485588e-001,-4.364080e-006,0.000000e+000
2.493529e-001,-6.881819e-006,1.605076e-005
2.501471e-001,-1.023880e-005,1.605546e-005
2.509412e-001,-1.493858e-005,1.606586e-005
2.517353e-001,-1.695277e-005,1.608796e-005
2.525294e-001,-1.628138e-005,1.611638e-005
2.533235e-001,-1.695277e-005,1.614255e-005
2.541176e-001,-1.896696e-005,1.617087e-005
2.549118e-001,-1.762417e-005,1.620626e-005
2.557059e-001,-1.628138e-005,1.623675e-005
2.565000e-001,-1.292439e-005,1.626273e-005
2.572941e-001,-1.158160e-005,1.627907e-005
2.580882e-001,-1.225299e-005,1.629219e-005
2.588824e-001,-1.359579e-005,1.630686e-005
2.596765e-001,-1.762417e-005,1.632490e-005
2.604706e-001,-2.232395e-005,1.635517e-005
2.612647e-001,-1.896696e-005,1.640362e-005
2.620588e-001,-1.158160e-005,1.643850e-005
2.628529e-001,-1.141375e-005,1.645149e-005
2.636471e-001,-1.057450e-005,1.646410e-005
2.644412e-001,-9.063859e-006,1.647491e-005
2.652353e-001,-5.539025e-006,1.648284e-005
2.660294e-001,-4.196231e-006,1.648581e-005
2.668235e-001,-9.903105e-006,1.648751e-005
2.676176e-001,-7.217518e-006,1.649698e-005
2.684118e-001,-2.182040e-006,1.650200e-005
2.692059e-001,-3.524834e-006,1.650246e-005
2.700000e-001,-1.191730e-005,1.650366e-005
2.707941e-001,-1.712062e-005,1.651736e-005
2.715882e-001,-1.359579e-005,1.654559e-005
2.723824e-001,-1.258869e-005,1.656337e-005
2.731765e-001,-1.963836e-005,1.657860e-005
2.739706e-001,-2.568093e-005,1.661560e-005
2.747647e-001,-2.232395e-005,1.667869e-005
2.755588e-001,-1.896696e-005,1.672620e-005
2.763529e-001,-1.695277e-005,1.676041e-005
2.771471e-001,-1.359579e-005,1.678770e-005
2.779412e-001,-1.393149e-005,1.680522e-005
2.787353e-001,-1.594568e-005,1.682360e-005
2.795294e-001,-1.493858e-005,1.684765e-005
2.803235e-001,-1.359579e-005,1.686873e-005
2.811176e-001,-8.896010e-006,1.688617e-005
2.819118e-001,-3.524834e-006,1.689363e-005
2.827059e-001,-3.524834e-006,1.689480e-005
2.835000e-001,-7.217518e-006,1.689597e-005
2.842941e-001,-9.567407e-006,1.690088e-005
2.850882e-001,-9.063859e-006,1.690950e-005
2.858824e-001,-1.158160e-005,1.691724e-005
2.866765e-001,-1.712062e-005,1.692986e-005
2.874706e-001,-1.577783e-005,1.695741e-005
2.882647e-001,-1.376364e-005,1.698076e-005
2.890588e-001,-9.231709e-006,1.699852e-005
2.898529e-001,-9.567407e-006,1.700650e-005
2.906471e-001,-1.091020e-005,1.701507e-005
2.914412e-001,-1.107805e-005,1.702620e-005
2.922353e-001,-7.217518e-006,1.703768e-005
2.930294e-001,-6.378271e-006,1.704255e-005
2.938235e-001,-9.903105e-006,1.704635e-005
2.946176e-001,-1.124590e-005,1.705551e-005
2.954118e-001,-1.191730e-005,1.706731e-005
2.962059e-001,-1.292439e-005,1.708055e-005
2.970000e-001,-1.225299e-005,1.709612e-005
2.977941e-001,-1.091020e-005,1.711010e-005
2.985882e-001,-7.888914e-006,1.712117e-005
2.993824e-001,-6.210422e-006,1.712696e-005
3.001765e-001,-3.189136e-006,1.713055e-005
3.009706e-001,-4.867628e-006,1.713149e-005
3.017647e-001,-6.881819e-006,1.713369e-005
3.025588e-001,-8.224612e-006,1.713809e-005
3.033529e-001,-8.224612e-006,1.714438e-005
3.041471e-001,-1.057450e-005,1.715066e-005
3.049412e-001,-8.224612e-006,1.716104e-005
3.057353e-001,-4.196231e-006,1.716731e-005
3.065294e-001,-3.021286e-006,1.716895e-005
3.073235e-001,-5.203327e-006,1.716979e-005
3.081176e-001,-6.881819e-006,1.717230e-005
3.089118e-001,-1.493858e-005,1.717670e-005
3.097059e-001,-2.165255e-005,1.719737e-005
3.105000e-001,-2.903792e-005,1.724073e-005
3.112941e-001,-2.702373e-005,1.731843e-005
3.120882e-001,-2.198825e-005,1.738545e-005
3.128824e-001,-1.997406e-005,1.742967e-005
3.136765e-001,-1.829557e-005,1.746608e-005
3.144706e-001,-1.359579e-005,1.749657e-005
3.152647e-001,-1.225299e-005,1.751339e-005
3.160588e-001,-1.191730e-005,1.752703e-005
3.168529e-001,-1.359579e-005,1.753993e-005
3.176471e-001,-1.661708e-005,1.755671e-005
3.184412e-001,-1.359579e-005,1.758173e-005
3.192353e-001,-1.292439e-005,1.759846e-005
3.200294e-001,-1.393149e-005,1.761357e-005
3.208235e-001,-1.560998e-005,1.763111e-005
3.216176e-001,-1.628138e-005,1.765310e-005
3.224118e-001,-1.628138e-005,1.767700e-005
3.232059e-001,-1.863127e-005,1.770086e-005
3.240000e-001,-1.829557e-005,1.773206e-005
3.247941e-001,-1.762417e-005,1.776210e-005
3.255882e-001,-1.493858e-005,1.778992e-005
3.263824e-001,-1.510643e-005,1.780988e-005
3.271765e-001,-1.057450e-005,1.783027e-005
3.279706e-001,-1.091020e-005,1.784026e-005
3.287647e-001,-9.903105e-006,1.785088e-005
3.295588e-001,-6.210422e-006,1.785963e-005
3.303529e-001,-2.349889e-006,1.786306e-005
3.311471e-001,-3.524834e-006,1.786356e-005
3.319412e-001,-7.217518e-006,1.786466e-005
3.327353e-001,-6.881819e-006,1.786931e-005
3.335294e-001,-7.217518e-006,1.787353e-005
3.343235e-001,-4.196231e-006,1.787817e-005
3.351176e-001,-5.203327e-006,1.787973e-005
3.359118e-001,-9.567407e-006,1.788214e-005
3.367059e-001,-1.191730e-005,1.789029e-005
3.375000e-001,-9.903105e-006,1.790293e-005
3.382941e-001,-9.567407e-006,1.791165e-005
3.390882e-001,-1.292439e-005,1.791979e-005
3.398824e-001,-1.225299e-005,1.793462e-005
3.406765e-001,-5.539025e-006,1.794795e-005
3.414706e-001,-1.678492e-007,1.795067e-005
3.422647e-001,-8.896010e-006,1.795067e-005
3.430588e-001,-2.316319e-005,1.795769e-005
3.438529e-001,-2.937362e-005,1.800520e-005
3.446471e-001,-2.450599e-005,1.807676e-005
3.454412e-001,-1.913481e-005,1.811780e-005
3.462353e-001,-1.913481e-005,1.813677e-005
3.470294e-001,-1.493858e-005,1.815970e-005
3.478235e-001,-1.359579e-005,1.817795e-005
3.486176e-001,-1.258869e-005,1.819372e-005
3.494118e-001,-1.107805e-005,1.820421e-005
3.502059e-001,-9.567407e-006,1.820996e-005
3.510000e-001,-1.057450e-005,1.820755e-005
3.517941e-001,-6.881819e-006,1.819415e-005
3.525882e-001,-5.874723e-006,1.817603e-005
3.533824e-001,-4.531929e-006,1.815949e-005
3.541765e-001,-5.874723e-006,1.812860e-005
3.549706e-001,-1.124590e-005,1.808513e-005
3.557647e-001,-1.258869e-005,1.804830e-005
3.565588e-001,-1.393149e-005,1.801283e-005
3.573529e-001,-1.560998e-005,1.798184e-005
3.581471e-001,-1.577783e-005,1.796189e-005
3.589412e-001,-1.560998e-005,1.794492e-005
3.597353e-001,-1.661708e-005,1.792493e-005
3.605294e-001,-1.930266e-005,1.792964e-005
3.613235e-001,-1.661708e-005,1.795214e-005
3.621176e-001,-1.762417e-005,1.796473e-005
3.629118e-001,-1.762417e-005,1.798719e-005
3.637059e-001,-1.863127e-005,1.801048e-005
3.645000e-001,-1.661708e-005,1.803611e-005
3.652941e-001,-1.258869e-005,1.805688e-005
3.660882e-001,-1.292439e-005,1.806626e-005
3.668824e-001,-1.560998e-005,1.805904e-005
3.676765e-001,-1.661708e-005,1.804045e-005
3.684706e-001,-1.225299e-005,1.800192e-005
3.692647e-001,-8.896010e-006,1.796276e-005
3.700588e-001,-3.189136e-006,1.788960e-005
3.708529e-001,-8.392462e-007,1.773435e-005
3.716471e-001,-1.510643e-006,1.748483e-005
3.724412e-001,-4.364080e-006,1.713598e-005
3.732353e-001,-4.196231e-006,1.680081e-005
3.740294e-001,-3.524834e-006,1.651451e-005
3.748235e-001,5.035477e-007,1.631797e-005
3.756176e-001,-1.678492e-007,1.625095e-005
3.764118e-001,-2.853437e-006,1.625089e-005
3.772059e-001,-6.210422e-006,1.621764e-005
3.780000e-001,-8.560311e-006,1.615824e-005
3.787941e-001,-8.224612e-006,1.607429e-005
3.795882e-001,-1.023880e-005,1.596561e-005
3.803824e-001,-1.426719e-005,1.584815e-005
3.811765e-001,-1.560998e-005,1.573859e-005
3.819706e-001,-1.661708e-005,1.559705e-005
3.827647e-001,-1.644922e-005,1.541917e-005
3.835588e-001,-1.426719e-005,1.522262e-005
3.843529e-001,-1.359579e-005,1.498912e-005
3.851471e-001,-1.225299e-005,1.480688e-005
3.859412e-001,-1.426719e-005,1.473216e-005
3.867353e-001,-1.309224e-005,1.473703e-005
3.875294e-001,-1.829557e-005,1.475485e-005
3.883235e-001,-2.299535e-005,1.478175e-005
3.891176e-001,-2.433814e-005,1.479857e-005
3.899118e-001,-2.366674e-005,1.479500e-005
3.907059e-001,-2.299535e-005,1.475590e-005
3.915000e-001,-2.249180e-005,1.469961e-005
3.922941e-001,-1.795987e-005,1.459956e-005
3.930882e-001,-1.292439e-005,1.447305e-005
3.938824e-001,-1.158160e-005,1.434490e-005
3.946765e-001,-7.553216e-006,1.419789e-005
3.954706e-001,-1.023880e-005,1.403768e-005
3.962647e-001,-1.225299e-005,1.388111e-005
3.970588e-001,-1.091020e-005,1.372196e-005
3.978529e-001,-1.023880e-005,1.355730e-005
3.986471e-001,-9.063859e-006,1.338102e-005
3.994412e-001,-5.035477e-006,1.324786e-005
4.002353e-001,-1.510643e-006,1.313829e-005
4.010294e-001,-1.510643e-006,1.304527e-005
4.018235e-001,-5.035477e-007,1.296480e-005
4.026176e-001,-2.853437e-006,1.290531e-005
4.034118e-001,-3.356985e-006,1.286342e-005
4.042059e-001,-1.510643e-006,1.283397e-005
4.050000e-001,-3.021286e-006,1.280897e-005
4.057941e-001,-6.546120e-006,1.279707e-005
4.065882e-001,-1.292439e-005,1.278570e-005
4.073824e-001,-1.930266e-005,1.278624e-005
4.081765e-001,-2.366674e-005,1.280960e-005
4.089706e-001,-2.568093e-005,1.286564e-005
4.097647e-001,-2.400244e-005,1.293002e-005
4.105588e-001,-1.762417e-005,1.298237e-005
4.113529e-001,-1.577783e-005,1.299666e-005
4.121471e-001,-1.560998e-005,1.300669e-005
4.129412e-001,-2.047761e-005,1.301814e-005
4.137353e-001,-1.896696e-005,1.304896e-005
4.145294e-001,-1.510643e-005,1.307451e-005
4.153235e-001,-1.091020e-005,1.309115e-005
4.161176e-001,-6.546120e-006,1.310274e-005
4.169118e-001,-8.896010e-006,1.310671e-005
4.177059e-001,-1.225299e-005,1.311000e-005
4.185000e-001,-1.359579e-005,1.312001e-005
4.192941e-001,-1.628138e-005,1.313354e-005
4.200882e-001,-1.527428e-005,1.313983e-005
4.208824e-001,-1.057450e-005,1.314990e-005
4.216765e-001,-1.057450e-005,1.314425e-005
4.224706e-001,-1.023880e-005,1.313961e-005
4.232647e-001,-5.539025e-006,1.314122e-005
4.240588e-001,-6.881819e-006,1.312868e-005
4.248529e-001,-7.888914e-006,1.311815e-005
4.256471e-001,-1.107805e-005,1.311749e-005
4.264412e-001,-1.023880e-005,1.312664e-005
4.272353e-001,-1.023880e-005,1.313648e-005
4.280294e-001,-1.023880e-005,1.314546e-005
4.288235e-001,-1.057450e-005,1.315398e-005
4.296176e-001,-1.292439e-005,1.316178e-005
4.304118e-001,-9.567407e-006,1.317827e-005
4.312059e-001,-1.225299e-005,1.318702e-005
4.320000e-001,-1.426719e-005,1.320228e-005
4.327941e-001,-1.292439e-005,1.321799e-005
4.335882e-001,-1.225299e-005,1.322377e-005
4.343824e-001,-1.258869e-005,1.322475e-005
4.351765e-001,-1.628138e-005,1.323568e-005
4.359706e-001,-1.762417e-005,1.324950e-005
4.367647e-001,-1.829557e-005,1.326674e-005
4.375588e-001,-1.426719e-005,1.328686e-005
4.383529e-001,-1.124590e-005,1.329517e-005
4.391471e-001,-1.225299e-005,1.328818e-005
4.399412e-001,-1.091020e-005,1.328291e-005
4.407353e-001,-8.224612e-006,1.327042e-005
4.415294e-001,-9.063859e-006,1.324124e-005
4.423235e-001,-1.258869e-005,1.322180e-005
4.431176e-001,-8.896010e-006,1.321153e-005
4.439118e-001,-6.881819e-006,1.320093e-005
4.447059e-001,-7.553216e-006,1.318649e-005
4.455000e-001,-8.224612e-006,1.316001e-005
4.462941e-001,-8.896010e-006,1.312986e-005
4.470882e-001,-8.896010e-006,1.311919e-005
4.478824e-001,-6.378271e-006,1.310408e-005
4.486765e-001,-8.896010e-006,1.307678e-005
4.494706e-001,-8.224612e-006,1.304100e-005
4.502647e-001,-6.881819e-006,1.301687e-005
4.510588e-001,-7.553216e-006,1.299154e-005
4.518529e-001,-9.231709e-006,1.297586e-005
4.526471e-001,-1.225299e-005,1.296528e-005
4.534412e-001,-1.023880e-005,1.295872e-005
4.542353e-001,-9.567407e-006,1.294889e-005
4.550294e-001,-1.493858e-005,1.294550e-005
4.558235e-001,-1.225299e-005,1.296653e-005
4.566176e-001,-9.903105e-006,1.297631e-005
4.574118e-001,-1.023880e-005,1.298005e-005
4.582059e-001,-1.594568e-005,1.298461e-005
4.590000e-001,-1.141375e-005,1.300207e-005
4.597941e-001,-1.292439e-005,1.300159e-005
4.605882e-001,-1.712062e-005,1.301004e-005
4.613824e-001,-1.628138e-005,1.303950e-005
4.621765e-001,-1.527428e-005,1.305733e-005
4.629706e-001,-1.493858e-005,1.306747e-005
4.637647e-001,-1.560998e-005,1.308706e-005
4.645588e-001,-1.326009e-005,1.310975e-005
4.653529e-001,-1.124590e-005,1.312288e-005
4.661471e-001,-1.091020e-005,1.312551e-005
4.669412e-001,-9.735256e-006,1.312723e-005
4.677353e-001,-8.224612e-006,1.312984e-005
4.685294e-001,-8.728161e-006,1.312915e-005
4.693235e-001,-8.896010e-006,1.313116e-005
4.701176e-001,-1.242084e-005,1.312887e-005
4.709118e-001,-1.393149e-005,1.314183e-005
4.717059e-001,-8.896010e-006,1.316434e-005
4.725000e-001,-8.560311e-006,1.317178e-005
4.732941e-001,-1.493858e-005,1.316395e-005
4.740882e-001,-1.829557e-005,1.317278e-005
4.748824e-001,-1.795987e-005,1.318863e-005
4.756765e-001,-1.829557e-005,1.318716e-005
4.764706e-001,-1.527428e-005,1.319940e-005
4.772647e-001,-1.493858e-005,1.320633e-005
4.780588e-001,-1.359579e-005,1.319287e-005
4.788529e-001,-1.292439e-005,1.315855e-005
4.796471e-001,-1.896696e-005,1.310698e-005
4.804412e-001,-2.165255e-005,1.309372e-005
4.812353e-001,-1.762417e-005,1.311295e-005
4.820294e-001,-1.292439e-005,1.313242e-005
4.828235e-001,-1.091020e-005,1.314157e-005
4.836176e-001,-4.867628e-006,1.314641e-005
4.844118e-001,1.846342e-006,1.313819e-005
4.852059e-001,-8.392462e-007,1.312750e-005
4.860000e-001,-3.524834e-006,1.311648e-005
4.867941e-001,-4.531929e-006,1.309874e-005
4.875882e-001,-1.225299e-005,1.308297e-005
4.883824e-001,-1.695277e-005,1.309232e-005
4.891765e-001,-1.560998e-005,1.311278e-005
4.899706e-001,-1.695277e-005,1.312608e-005
4.907647e-001,-2.131685e-005,1.315132e-005
4.915588e-001,-1.930266e-005,1.319186e-005
4.923529e-001,-1.426719e-005,1.321819e-005
4.931471e-001,-9.903105e-006,1.322837e-005
4.939412e-001,-1.091020e-005,1.323390e-005
4.947353e-001,-9.567407e-006,1.324794e-005
4.955294e-001,-9.567407e-006,1.325837e-005
4.963235e-001,-1.225299e-005,1.326220e-005
4.971176e-001,-1.023880e-005,1.326885e-005
4.979118e-001,-1.091020e-005,1.327427e-005
4.987059e-001,-1.309224e-005,1.328626e-005
4.995000e-001,-1.661708e-005,1.330112e-005
5.002941e-001,-1.493858e-005,1.332161e-005
5.010882e-001,-1.225299e-005,1.332161e-005
5.018824e-001,-1.460288e-005,1.330519e-005
5.026765e-001,-1.292439e-005,1.329899e-005
5.034706e-001,-1.242084e-005,1.328457e-005
5.042647e-001,-1.628138e-005,1.325992e-005
5.050588e-001,-1.393149e-005,1.325445e-005
5.058529e-001,-1.359579e-005,1.324592e-005
5.066471e-001,-1.158160e-005,1.324806e-005
5.074412e-001,-1.225299e-005,1.324806e-005
5.082353e-001,-1.225299e-005,1.324806e-005
5.090294e-001,-1.326009e-005,1.324388e-005
5.098235e-001,-1.023880e-005,1.322767e-005
5.106176e-001,-8.560311e-006,1.318021e-005
5.114118e-001,-1.292439e-005,1.314556e-005
5.122059e-001,-1.376364e-005,1.314954e-005
5.130000e-001,-1.359579e-005,1.315670e-005
5.137941e-001,-8.896010e-006,1.316554e-005
5.145882e-001,-6.881819e-006,1.316518e-005
5.153824e-001,-4.531929e-006,1.316719e-005
5.161765e-001,-6.881819e-006,1.316755e-005
5.169706e-001,-1.057450e-005,1.316141e-005
5.177647e-001,-1.695277e-005,1.316864e-005
5.185588e-001,-2.182040e-005,1.320277e-005
5.193529e-001,-2.433814e-005,1.325858e-005
5.201471e-001,-2.769513e-005,1.331255e-005
5.209412e-001,-2.568093e-005,1.336912e-005
5.217353e-001,-1.762417e-005,1.342553e-005
5.225294e-001,-1.695277e-005,1.344357e-005
5.233235e-001,-2.366674e-005,1.343192e-005
5.241176e-001,-2.534523e-005,1.342013e-005
5.249118e-001,-1.628138e-005,1.343721e-005
5.257059e-001,-1.359579e-005,1.342599e-005
5.265000e-001,-6.378271e-006,1.341382e-005
5.272941e-001,1.174945e-006,1.339670e-005
5.280882e-001,6.546120e-006,1.337377e-005
5.288824e-001,7.888914e-006,1.334857e-005
5.296765e-001,8.560311e-006,1.332936e-005
5.304706e-001,7.888914e-006,1.331603e-005
5.312647e-001,1.057450e-005,1.331401e-005
5.320588e-001,1.426719e-005,1.332589e-005
5.328529e-001,2.114900e-005,1.334871e-005
5.336471e-001,2.601663e-005,1.339577e-005
5.344412e-001,2.299535e-005,1.346517e-005
5.352353e-001,1.695277e-005,1.351788e-005
5.360294e-001,2.517739e-006,1.353592e-005
5.368235e-001,-1.040665e-005,1.350214e-005
5.376176e-001,-1.762417e-005,1.348555e-005
5.384118e-001,-2.131685e-005,1.349985e-005
5.392059e-001,-2.568093e-005,1.354332e-005
5.400000e-001,-2.635233e-005,1.360994e-005
5.407941e-001,-2.568093e-005,1.367710e-005
5.415882e-001,-2.635233e-005,1.373945e-005
5.423824e-001,-2.400244e-005,1.381370e-005
5.431765e-001,-2.702373e-005,1.387528e-005
5.439706e-001,-2.769513e-005,1.394765e-005
5.447647e-001,-2.803082e-005,1.402059e-005
5.455588e-001,-2.500954e-005,1.409350e-005
5.463529e-001,-2.433814e-005,1.414520e-005
5.471471e-001,-2.299535e-005,1.419490e-005
5.479412e-001,-2.735943e-005,1.424079e-005
5.487353e-001,-2.635233e-005,1.431732e-005
5.495294e-001,-2.064546e-005,1.439009e-005
5.503235e-001,-1.628138e-005,1.443605e-005
5.511176e-001,-1.795987e-005,1.446265e-005
5.519118e-001,-2.232395e-005,1.449292e-005
5.527059e-001,-2.568093e-005,1.454017e-005
5.535000e-001,-3.172351e-005,1.460484e-005
5.542941e-001,-3.054856e-005,1.470205e-005
5.550882e-001,-2.433814e-005,1.479550e-005
5.558824e-001,-2.064546e-005,1.485723e-005
5.566765e-001,-1.728847e-005,1.490187e-005
5.574706e-001,-1.174945e-005,1.493089e-005
5.582647e-001,-1.376364e-005,1.494055e-005
5.590588e-001,-1.762417e-005,1.493696e-005
5.598529e-001,-1.896696e-005,1.492008e-005
5.606471e-001,-2.366674e-005,1.486840e-005
5.614412e-001,-2.098116e-005,1.485016e-005
5.622353e-001,-1.426719e-005,1.484552e-005
5.630294e-001,-1.191730e-005,1.482454e-005
5.638235e-001,-6.210422e-006,1.480383e-005
5.646176e-001,3.860533e-006,1.478809e-005
5.654118e-001,9.735256e-006,1.477352e-005
5.662059e-001,1.091020e-005,1.476843e-005
5.670000e-001,1.124590e-005,1.476133e-005
5.677941e-001,1.191730e-005,1.474518e-005
5.685882e-001,1.594568e-005,1.474055e-005
5.693824e-001,2.064546e-005,1.474997e-005
5.701765e-001,1.728847e-005,1.477501e-005
5.709706e-001,1.527428e-005,1.478096e-005
5.717647e-001,1.292439e-005,1.477754e-005
5.725588e-001,6.881819e-006,1.476697e-005
5.733529e-001,4.196231e-006,1.473461e-005
5.741471e-001,2.517739e-006,1.470030e-005
5.749412e-001,-1.510643e-006,1.466730e-005
5.757353e-001,-4.531929e-006,1.464330e-005
5.765294e-001,-9.903105e-006,1.462070e-005
5.773235e-001,-1.930266e-005,1.461920e-005
5.781176e-001,-2.333104e-005,1.464680e-005
5.789118e-001,-2.450599e-005,1.469523e-005
5.797059e-001,-2.702373e-005,1.475600e-005
5.805000e-001,-2.467384e-005,1.483401e-005
5.812941e-001,-2.500954e-005,1.489789e-005
5.820882e-001,-2.366674e-005,1.495905e-005
5.828824e-001,-2.752728e-005,1.501353e-005
5.836765e-001,-2.970932e-005,1.508819e-005
5.844706e-001,-2.668803e-005,1.517921e-005
5.852647e-001,-2.601663e-005,1.525091e-005
5.860588e-001,-2.450599e-005,1.531191e-005
5.868529e-001,-2.450599e-005,1.535952e-005
5.876471e-001,-2.299535e-005,1.541152e-005
5.884412e-001,-2.165255e-005,1.545663e-005
5.892353e-001,-1.896696e-005,1.548769e-005
5.900294e-001,-1.762417e-005,1.550923e-005
5.908235e-001,-1.963836e-005,1.553794e-005
5.916176e-001,-1.896696e-005,1.557741e-005
5.924118e-001,-1.359579e-005,1.560607e-005
5.932059e-001,-1.091020e-005,1.557015e-005
5.940000e-001,-1.107805e-005,1.549390e-005
5.947941e-001,-1.174945e-005,1.544471e-005
5.955882e-001,-1.426719e-005,1.542118e-005
5.963824e-001,-1.242084e-005,1.540438e-005
5.971765e-001,-1.426719e-005,1.539726e-005
5.979706e-001,-1.493858e-005,1.539919e-005
5.987647e-001,-1.510643e-005,1.540588e-005
5.995588e-001,-1.225299e-005,1.541678e-005
6.003529e-001,-1.107805e-005,1.542283e-005
6.011471e-001,-1.393149e-005,1.542395e-005
6.019412e-001,-1.040665e-005,1.543909e-005
6.027353e-001,-4.699779e-006,1.544670e-005
6.035294e-001,-9.735256e-006,1.544686e-005
6.043235e-001,-1.493858e-005,1.545307e-005
6.051176e-001,-1.426719e-005,1.546303e-005
6.059118e-001,-9.903105e-006,1.546767e-005
6.067059e-001,-8.896010e-006,1.545779e-005
6.075000e-001,-8.224612e-006,1.544083e-005
6.082941e-001,-9.903105e-006,1.542212e-005
6.090882e-001,-5.539025e-006,1.540708e-005
6.098824e-001,-2.182040e-006,1.538169e-005
6.106765e-001,-2.853437e-006,1.534356e-005
6.114706e-001,-3.524834e-006,1.531573e-005
6.122647e-001,-4.531929e-006,1.528469e-005
6.130588e-001,-7.553216e-006,1.525444e-005
6.138529e-001,-1.023880e-005,1.522413e-005
6.146471e-001,-1.326009e-005,1.520621e-005
6.154412e-001,-1.107805e-005,1.520802e-005
6.162353e-001,-9.903105e-006,1.520338e-005
6.170294e-001,-1.376364e-005,1.518813e-005
6.178235e-001,-1.661708e-005,1.517903e-005
6.186176e-001,-1.695277e-005,1.519225e-005
6.194118e-001,-1.712062e-005,1.521406e-005
6.202059e-001,-1.091020e-005,1.524364e-005
6.210000e-001,-9.231709e-006,1.525600e-005
6.217941e-001,-6.378271e-006,1.526466e-005
6.225882e-001,-5.035477e-007,1.526691e-005
6.233824e-001,-2.853437e-006,1.526510e-005
6.241765e-001,-7.553216e-006,1.526466e-005
6.249706e-001,-1.225299e-005,1.527058e-005
6.257647e-001,-1.426719e-005,1.528622e-005
6.265588e-001,-1.678492e-005,1.530657e-005
6.273529e-001,-1.930266e-005,1.533184e-005
6.281471e-001,-2.064546e-005,1.536290e-005
6.289412e-001,-1.829557e-005,1.540002e-005
6.297353e-001,-9.903105e-006,1.542377e-005
6.305294e-001,-5.539025e-006,1.541288e-005
6.313235e-001,-7.553216e-006,1.539086e-005
6.321176e-001,-1.242084e-005,1.536818e-005
6.329118e-001,-1.023880e-005,1.535612e-005
6.337059e-001,-8.224612e-006,1.534588e-005
6.345000e-001,-1.158160e-005,1.533371e-005
6.352941e-001,-1.091020e-005,1.533205e-005
6.360882e-001,-1.107805e-005,1.532327e-005
6.368824e-001,-1.242084e-005,1.531821e-005
6.376765e-001,-1.057450e-005,1.529944e-005
6.384706e-001,-1.023880e-005,1.525598e-005
6.392647e-001,-1.124590e-005,1.520501e-005
6.400588e-001,-1.225299e-005,1.515953e-005
6.408529e-001,-1.023880e-005,1.511970e-005
6.416471e-001,-9.567407e-006,1.507741e-005
6.424412e-001,-1.007095e-005,1.505299e-005
6.432353e-001,-8.392462e-006,1.504605e-005
6.440294e-001,-9.567407e-006,1.503930e-005
6.448235e-001,-9.735256e-006,1.504296e-005
6.456176e-001,-9.903105e-006,1.504189e-005
6.464118e-001,-8.560311e-006,1.503638e-005
6.472059e-001,-9.567407e-006,1.503153e-005
6.480000e-001,-9.567407e-006,1.503012e-005
6.487941e-001,-6.881819e-006,1.503112e-005
6.495882e-001,-8.896010e-006,1.503345e-005
6.503824e-001,-8.224612e-006,1.504159e-005
6.511765e-001,-8.896010e-006,1.504850e-005
6.519706e-001,-1.326009e-005,1.505685e-005
6.527647e-001,-1.628138e-005,1.507457e-005
6.535588e-001,-2.098116e-005,1.510136e-005
6.543529e-001,-2.232395e-005,1.514747e-005
6.551471e-001,-2.165255e-005,1.519881e-005
6.559412e-001,-1.628138e-005,1.524337e-005
6.567353e-001,-1.292439e-005,1.525361e-005
6.575294e-001,-1.493858e-005,1.523214e-005
6.583235e-001,-1.712062e-005,1.519687e-005
6.591176e-001,-1.560998e-005,1.515843e-005
6.599118e-001,-1.359579e-005,1.512347e-005
6.607059e-001,-1.225299e-005,1.511022e-005
6.615000e-001,-1.057450e-005,1.509981e-005
6.622941e-001,-8.224612e-006,1.508590e-005
6.630882e-001,-1.225299e-005,1.504873e-005
6.638824e-001,-1.292439e-005,1.502653e-005
6.646765e-001,-1.242084e-005,1.502005e-005
6.654706e-001,-1.426719e-005,1.502378e-005
6.662647e-001,-1.527428e-005,1.504081e-005
6.670588e-001,-1.426719e-005,1.505712e-005
6.678529e-001,-1.258869e-005,1.506277e-005
6.686471e-001,-1.560998e-005,1.505998e-005
6.694412e-001,-1.258869e-005,1.505772e-005
6.702353e-001,-8.896010e-006,1.504980e-005
6.710294e-001,-8.560311e-006,1.504634e-005
6.718235e-001,-7.049668e-006,1.504226e-005
6.726176e-001,-7.721065e-006,1.503643e-005
6.734118e-001,-9.231709e-006,1.503949e-005
6.742059e-001,-1.762417e-005,1.504350e-005
6.750000e-001,-1.644922e-005,1.506977e-005
6.757941e-001,-1.493858e-005,1.508538e-005
6.765882e-001,-1.426719e-005,1.509787e-005
6.773824e-001,-1.359579e-005,1.510828e-005
6.781765e-001,-1.158160e-005,1.511671e-005
6.789706e-001,-1.258869e-005,1.511906e-005
6.797647e-001,-1.258869e-005,1.511815e-005
6.805588e-001,-6.210422e-006,1.512520e-005
6.813529e-001,-6.881819e-006,1.511345e-005
6.821471e-001,-1.057450e-005,1.509699e-005
6.829412e-001,-1.493858e-005,1.509116e-005
6.837353e-001,-1.577783e-005,1.509887e-005
6.845294e-001,-1.762417e-005,1.510840e-005
6.853235e-001,-1.678492e-005,1.511320e-005
6.861176e-001,-1.359579e-005,1.511016e-005
6.869118e-001,-1.510643e-005,1.509436e-005
6.877059e-001,-1.393149e-005,1.509696e-005
6.885000e-001,-1.292439e-005,1.510409e-005
6.892941e-001,-1.057450e-005,1.510587e-005
6.900882e-001,-9.567407e-006,1.510511e-005
6.908824e-001,-1.359579e-005,1.510763e-005
6.916765e-001,-1.158160e-005,1.511845e-005
6.924706e-001,-1.091020e-005,1.511588e-005
6.932647e-001,-1.258869e-005,1.512008e-005
6.940588e-001,-9.567407e-006,1.513178e-005
6.948529e-001,-8.560311e-006,1.513541e-005
6.956471e-001,-1.158160e-005,1.513600e-005
6.964412e-001,-1.091020e-005,1.514179e-005
6.972353e-001,-9.231709e-006,1.514598e-005
6.980294e-001,-1.023880e-005,1.515066e-005
6.988235e-001,-6.881819e-006,1.515336e-005
6.996176e-001,-1.158160e-005,1.515123e-005
7.004118e-001,-1.460288e-005,1.516035e-005
7.012059e-001,-1.124590e-005,1.517675e-005
7.020000e-001,-1.225299e-005,1.518107e-005
7.027941e-001,-1.091020e-005,1.518107e-005
7.035882e-001,-5.035477e-006,1.518256e-005
7.043824e-001,-1.091020e-005,1.517562e-005
7.051765e-001,-1.930266e-005,1.516469e-005
7.059706e-001,-2.366674e-005,1.518803e-005
7.067647e-001,-2.098116e-005,1.523640e-005
7.075588e-001,-1.795987e-005,1.527141e-005
7.083529e-001,-7.553216e-006,1.527853e-005
7.091471e-001,-1.510643e-006,1.527089e-005
7.099412e-001,-5.035477e-007,1.525370e-005
7.107353e-001,-8.392462e-007,1.522310e-005
7.115294e-001,-7.888914e-006,1.519542e-005
7.123235e-001,-1.426719e-005,1.517748e-005
7.131176e-001,-1.628138e-005,1.517542e-005
7.139118e-001,-1.510643e-005,1.517767e-005
7.147059e-001,-1.091020e-005,1.518316e-005
7.155000e-001,-5.539025e-006,1.518238e-005
7.162941e-001,-6.210422e-006,1.517311e-005
7.170882e-001,-4.867628e-006,1.516721e-005
7.178824e-001,-8.224612e-006,1.516260e-005
7.186765e-001,-8.392462e-006,1.516170e-005
7.194706e-001,-6.881819e-006,1.516079e-005
7.202647e-001,-6.210422e-006,1.514956e-005
7.210588e-001,-2.853437e-006,1.513320e-005
7.218529e-001,-3.524834e-006,1.512573e-005
7.226471e-001,-8.896010e-006,1.511932e-005
7.234412e-001,-1.493858e-005,1.510414e-005
7.242353e-001,-1.695277e-005,1.509238e-005
7.250294e-001,-1.628138e-005,1.508867e-005
7.258235e-001,-1.560998e-005,1.508132e-005
7.266176e-001,-1.493858e-005,1.508241e-005
7.274118e-001,-1.309224e-005,1.508241e-005
7.282059e-001,-1.225299e-005,1.508099e-005
7.290000e-001,-1.174945e-005,1.507921e-005
7.297941e-001,-9.903105e-006,1.505578e-005
7.305882e-001,-1.661708e-005,1.501651e-005
7.313824e-001,-1.493858e-005,1.501286e-005
7.321765e-001,-1.393149e-005,1.501881e-005
7.329706e-001,-1.493858e-005,1.502676e-005
7.337647e-001,-1.426719e-005,1.504789e-005
7.345588e-001,-1.359579e-005,1.506905e-005
7.353529e-001,-1.762417e-005,1.508850e-005
7.361471e-001,-1.896696e-005,1.511993e-005
7.369412e-001,-1.560998e-005,1.515561e-005
7.377353e-001,-1.628138e-005,1.516544e-005
7.385294e-001,-1.493858e-005,1.516310e-005
7.393235e-001,-1.158160e-005,1.516094e-005
7.401176e-001,-1.023880e-005,1.514484e-005
7.409118e-001,-1.661708e-005,1.510804e-005
7.417059e-001,-1.728847e-005,1.509787e-005
7.425000e-001,-1.225299e-005,1.510792e-005
7.432941e-001,-9.063859e-006,1.511340e-005
7.440882e-001,-1.158160e-005,1.510952e-005
7.448824e-001,-1.057450e-005,1.511401e-005
7.456765e-001,-9.567407e-006,1.511614e-005
7.464706e-001,-8.896010e-006,1.510997e-005
7.472647e-001,-8.560311e-006,1.510726e-005
7.480588e-001,-9.567407e-006,1.510244e-005
7.488529e-001,-1.376364e-005,1.509401e-005
7.496471e-001,-1.158160e-005,1.508487e-005
7.504412e-001,-1.225299e-005,1.507547e-005
7.512353e-001,-1.728847e-005,1.507547e-005
7.520294e-001,-1.628138e-005,1.508451e-005
7.528235e-001,-2.064546e-005,1.509486e-005
7.536176e-001,-2.098116e-005,1.512352e-005
7.544118e-001,-1.560998e-005,1.514195e-005
7.552059e-001,-1.426719e-005,1.514716e-005
7.560000e-001,-1.107805e-005,1.514912e-005
7.567941e-001,-8.224612e-006,1.514793e-005
7.575882e-001,-8.896010e-006,1.513925e-005
7.583824e-001,-1.091020e-005,1.513178e-005
7.591765e-001,-1.225299e-005,1.512580e-005
7.599706e-001,-1.292439e-005,1.513057e-005
7.607647e-001,-1.023880e-005,1.514044e-005
7.615588e-001,-9.903105e-006,1.513389e-005
7.623529e-001,-8.224612e-006,1.512428e-005
7.631471e-001,-5.539025e-006,1.511193e-005
7.639412e-001,-6.546120e-006,1.510682e-005
7.647353e-001,-7.049668e-006,1.510635e-005
7.655294e-001,-8.896010e-006,1.510942e-005
7.663235e-001,-1.057450e-005,1.511277e-005
7.671176e-001,-1.158160e-005,1.511277e-005
7.679118e-001,-1.191730e-005,1.509662e-005
7.687059e-001,-1.326009e-005,1.506133e-005
7.695000e-001,-1.560998e-005,1.501723e-005
7.702941e-001,-1.359579e-005,1.496164e-005
7.710882e-001,-1.242084e-005,1.491103e-005
7.718824e-001,-1.359579e-005,1.489433e-005
7.726765e-001,-1.091020e-005,1.488336e-005
7.734706e-001,-8.224612e-006,1.483609e-005
7.742647e-001,-1.057450e-005,1.477428e-005
7.750588e-001,-1.091020e-005,1.475775e-005
7.758529e-001,-9.231709e-006,1.475065e-005
7.766471e-001,-7.049668e-006,1.475546e-005
7.774412e-001,-8.224612e-006,1.476067e-005
7.782353e-001,-8.560311e-006,1.476334e-005
7.790294e-001,-1.560998e-005,1.476453e-005
7.798235e-001,-2.198825e-005,1.478290e-005
7.806176e-001,-2.030976e-005,1.482821e-005
7.814118e-001,-2.030976e-005,1.486046e-005
7.822059e-001,-1.728847e-005,1.488283e-005
7.830000e-001,-9.903105e-006,1.486694e-005
7.837941e-001,-1.158160e-005,1.480482e-005
7.845882e-001,-1.493858e-005,1.476231e-005
7.853824e-001,-1.493858e-005,1.475538e-005
7.861765e-001,-8.896010e-006,1.477876e-005
7.869706e-001,-5.874723e-006,1.477562e-005
7.877647e-001,-6.881819e-006,1.474584e-005
7.885588e-001,-6.546120e-006,1.470181e-005
7.893529e-001,-7.888914e-006,1.463487e-005
7.901471e-001,-4.196231e-006,1.456592e-005
7.909412e-001,-2.517739e-006,1.449558e-005
7.917353e-001,-4.196231e-006,1.441979e-005
7.925294e-001,-1.174945e-005,1.435798e-005
7.933235e-001,-1.594568e-005,1.429215e-005
7.941176e-001,-1.292439e-005,1.423491e-005
7.949118e-001,-9.735256e-006,1.416553e-005
7.957059e-001,-7.721065e-006,1.410575e-005
7.965000e-001,-5.539025e-006,1.404548e-005
7.972941e-001,-2.853437e-006,1.398889e-005
7.980882e-001,-4.196231e-006,1.390436e-005
7.988824e-001,-7.721065e-006,1.382663e-005
7.996765e-001,-8.224612e-006,1.378434e-005
8.004706e-001,-6.881819e-006,1.376151e-005
8.012647e-001,-6.881819e-006,1.372963e-005
8.020588e-001,-9.231709e-006,1.367723e-005
8.028529e-001,-9.567407e-006,1.361020e-005
8.036471e-001,-1.091020e-005,1.350274e-005
8.044412e-001,-1.124590e-005,1.340638e-005
8.052353e-001,-1.057450e-005,1.335093e-005
8.060294e-001,-1.762417e-005,1.331338e-005
8.068235e-001,-1.762417e-005,1.331478e-005
8.076176e-001,-1.477073e-005,1.333541e-005
8.084118e-001,-1.628138e-005,1.333884e-005
8.092059e-001,-1.359579e-005,1.333340e-005
8.100000e-001,-1.493858e-005,1.331250e-005
8.107941e-001,-1.091020e-005,1.327213e-005
8.115882e-001,-1.023880e-005,1.323354e-005
8.123824e-001,-1.023880e-005,1.322166e-005
8.131765e-001,-1.594568e-005,1.321718e-005
8.139706e-001,-2.299535e-005,1.324314e-005
8.147647e-001,-2.098116e-005,1.330478e-005
8.155588e-001,-2.316319e-005,1.334606e-005
8.163529e-001,-2.366674e-005,1.339578e-005
8.171471e-001,-1.930266e-005,1.344723e-005
8.179412e-001,-2.030976e-005,1.347451e-005
8.187353e-001,-2.299535e-005,1.349319e-005
8.195294e-001,-2.030976e-005,1.350529e-005
8.203235e-001,-1.829557e-005,1.351868e-005
8.211176e-001,-1.560998e-005,1.353062e-005
8.219118e-001,-1.258869e-005,1.353963e-005
8.227059e-001,-1.191730e-005,1.355269e-005
8.235000e-001,-7.553216e-006,1.356730e-005
8.242941e-001,-7.217518e-006,1.357325e-005
8.250882e-001,-6.881819e-006,1.357910e-005
8.258824e-001,-4.867628e-006,1.358224e-005
8.266765e-001,-5.706874e-006,1.357352e-005
8.274706e-001,-5.203327e-006,1.353357e-005
8.282647e-001,-8.560311e-006,1.347257e-005
8.290588e-001,-9.567407e-006,1.341011e-005
8.298529e-001,-9.567407e-006,1.333405e-005
8.306471e-001,-1.292439e-005,1.327213e-005
8.314412e-001,-1.007095e-005,1.321701e-005
8.322353e-001,-7.049668e-006,1.316164e-005
8.330294e-001,-4.196231e-006,1.307569e-005
8.338235e-001,-1.846342e-006,1.296992e-005
8.346176e-001,-8.224612e-006,1.288260e-005
8.354118e-001,-1.930266e-005,1.280707e-005
8.362059e-001,-2.098116e-005,1.277870e-005
8.370000e-001,-1.577783e-005,1.275871e-005
8.377941e-001,-1.493858e-005,1.272373e-005
8.385882e-001,-1.124590e-005,1.269295e-005
8.393824e-001,-8.392462e-006,1.266365e-005
8.401765e-001,-1.426719e-005,1.263341e-005
8.409706e-001,-1.628138e-005,1.261044e-005
8.417647e-001,-1.225299e-005,1.259848e-005
8.425588e-001,-1.376364e-005,1.259409e-005
8.433529e-001,-1.493858e-005,1.260299e-005
8.441471e-001,-1.695277e-005,1.261567e-005
8.449412e-001,-1.829557e-005,1.263451e-005
8.457353e-001,-1.191730e-005,1.265103e-005
8.465294e-001,-5.539025e-006,1.264949e-005
8.473235e-001,-6.881819e-006,1.262771e-005
8.481176e-001,-6.210422e-006,1.260552e-005
8.489118e-001,-8.224612e-006,1.258154e-005
8.497059e-001,-9.567407e-006,1.257110e-005
8.505000e-001,-1.242084e-005,1.256715e-005
8.512941e-001,-1.594568e-005,1.256210e-005
8.520882e-001,-2.366674e-005,1.258059e-005
8.528824e-001,-2.568093e-005,1.264851e-005
8.536765e-001,-1.560998e-005,1.271941e-005
8.544706e-001,-9.903105e-006,1.272197e-005
8.552647e-001,-1.158160e-005,1.270876e-005
8.560588e-001,-1.258869e-005,1.271328e-005
8.568529e-001,-1.426719e-005,1.272321e-005
8.576471e-001,-1.493858e-005,1.274021e-005
8.584412e-001,-1.225299e-005,1.275584e-005
8.592353e-001,-1.376364e-005,1.277074e-005
8.600294e-001,-1.359579e-005,1.279375e-005
8.608235e-001,-1.158160e-005,1.281572e-005
8.616176e-001,-1.225299e-005,1.283083e-005
8.624118e-001,-6.210422e-006,1.284691e-005
8.632059e-001,-7.553216e-006,1.284462e-005
8.640000e-001,-1.091020e-005,1.283869e-005
8.647941e-001,-7.553216e-006,1.283165e-005
8.655882e-001,-5.539025e-006,1.282349e-005
8.663824e-001,-1.174945e-005,1.281512e-005
8.671765e-001,-1.510643e-005,1.280874e-005
8.679706e-001,-1.577783e-005,1.280278e-005
8.687647e-001,-1.661708e-005,1.279799e-005
8.695588e-001,-1.695277e-005,1.279588e-005
8.703529e-001,-1.527428e-005,1.281681e-005
8.711471e-001,-1.158160e-005,1.283520e-005
8.719412e-001,-1.158160e-005,1.284679e-005
8.727353e-001,-1.091020e-005,1.286337e-005
8.735294e-001,-5.539025e-006,1.287709e-005
8.743235e-001,-6.881819e-006,1.287383e-005
8.751176e-001,-1.091020e-005,1.286111e-005
8.759118e-001,-8.392462e-006,1.285064e-005
8.767059e-001,-7.888914e-006,1.282443e-005
8.775000e-001,-1.560998e-005,1.278584e-005
8.782941e-001,-1.393149e-005,1.276308e-005
8.790882e-001,-1.258869e-005,1.274552e-005
8.798824e-001,-1.359579e-005,1.275307e-005
8.806765e-001,-1.174945e-005,1.277230e-005
8.814706e-001,-1.023880e-005,1.278239e-005
8.822647e-001,-1.023880e-005,1.277623e-005
8.830588e-001,-7.217518e-006,1.277623e-005
8.838529e-001,-7.553216e-006,1.277430e-005
8.846471e-001,-1.023880e-005,1.276468e-005
8.854412e-001,-1.091020e-005,1.276291e-005
8.862353e-001,-1.326009e-005,1.276245e-005
8.870294e-001,-1.426719e-005,1.276514e-005
8.878235e-001,-1.443504e-005,1.277658e-005
8.886176e-001,-1.560998e-005,1.278948e-005
8.894118e-001,-1.158160e-005,1.280406e-005
8.902059e-001,-1.258869e-005,1.280207e-005
8.910000e-001,-1.661708e-005,1.280874e-005
8.917941e-001,-1.712062e-005,1.283167e-005
8.925882e-001,-1.258869e-005,1.285543e-005
8.933824e-001,-9.063859e-006,1.286633e-005
8.941765e-001,-7.553216e-006,1.286517e-005
8.949706e-001,-1.493858e-005,1.286050e-005
8.957647e-001,-1.493858e-005,1.287598e-005
8.965588e-001,-5.539025e-006,1.289450e-005
8.973529e-001,-1.007095e-006,1.288699e-005
8.981471e-001,5.035477e-007,1.287580e-005
8.989412e-001,2.182040e-006,1.286997e-005
8.997353e-001,3.860533e-006,1.286076e-005
9.005294e-001,2.517739e-006,1.285423e-005
9.013235e-001,-1.678492e-007,1.284521e-005
9.021176e-001,-1.678492e-007,1.282340e-005
9.029118e-001,-1.510643e-006,1.279044e-005
9.037059e-001,-6.881819e-006,1.273581e-005
9.045000e-001,-8.896010e-006,1.267929e-005
9.052941e-001,-1.158160e-005,1.263026e-005
9.060882e-001,-1.359579e-005,1.261374e-005
9.068824e-001,-1.896696e-005,1.261599e-005
9.076765e-001,-2.064546e-005,1.263321e-005
9.084706e-001,-2.601663e-005,1.264998e-005
9.092647e-001,-2.635233e-005,1.270439e-005
9.100588e-001,-2.232395e-005,1.276811e-005
9.108529e-001,-2.198825e-005,1.281146e-005
9.116471e-001,-2.098116e-005,1.285757e-005
9.124412e-001,-2.601663e-005,1.290363e-005
9.132353e-001,-3.205920e-005,1.296847e-005
9.140294e-001,-3.038071e-005,1.307373e-005
9.148235e-001,-2.601663e-005,1.316703e-005
9.156176e-001,-2.836652e-005,1.322414e-005
9.164118e-001,-2.433814e-005,1.329276e-005
9.172059e-001,-1.762417e-005,1.333926e-005
9.180000e-001,-1.426719e-005,1.335740e-005
9.187941e-001,-1.493858e-005,1.335262e-005
9.195882e-001,-1.493858e-005,1.336033e-005
9.203824e-001,-7.049668e-006,1.337749e-005
9.211765e-001,8.392462e-007,1.337468e-005
9.219706e-001,3.860533e-006,1.336885e-005
9.227647e-001,5.539025e-006,1.336352e-005
9.235588e-001,6.881819e-006,1.335702e-005
9.243529e-001,9.231709e-006,1.332560e-005
9.251471e-001,8.896010e-006,1.330343e-005
9.259412e-001,5.874723e-006,1.328618e-005
9.267353e-001,3.524834e-006,1.326591e-005
9.275294e-001,-8.392462e-007,1.324519e-005
9.283235e-001,-9.903105e-006,1.322914e-005
9.291176e-001,-1.695277e-005,1.322187e-005
9.299118e-001,-1.661708e-005,1.323739e-005
9.307059e-001,-1.225299e-005,1.326593e-005
9.315000e-001,-1.242084e-005,1.327826e-005
9.322941e-001,-9.903105e-006,1.328335e-005
9.330882e-001,-6.210422e-006,1.326835e-005
9.338824e-001,-4.867628e-006,1.324308e-005
9.346765e-001,-5.539025e-006,1.320854e-005
9.354706e-001,-1.426719e-005,1.317823e-005
9.362647e-001,-2.652018e-005,1.318049e-005
9.370588e-001,-2.635233e-005,1.323777e-005
9.378529e-001,-1.930266e-005,1.329782e-005
9.386471e-001,-1.795987e-005,1.332241e-005
9.394412e-001,-1.695277e-005,1.334758e-005
9.402353e-001,-1.393149e-005,1.337092e-005
9.410294e-001,-1.829557e-005,1.337202e-005
9.418235e-001,-2.064546e-005,1.339589e-005
9.426176e-001,-1.863127e-005,1.343236e-005
9.434118e-001,-1.963836e-005,1.345470e-005
9.442059e-001,-1.695277e-005,1.348947e-005
9.450000e-001,-1.560998e-005,1.351471e-005
9.457941e-001,-1.493858e-005,1.352761e-005
9.465882e-001,-1.292439e-005,1.353987e-005
9.473824e-001,-1.426719e-005,1.354948e-005
9.481765e-001,-1.326009e-005,1.356108e-005
9.489706e-001,-1.443504e-005,1.357616e-005
9.497647e-001,-1.426719e-005,1.358486e-005
9.505588e-001,-1.426719e-005,1.358373e-005
9.513529e-001,-1.846342e-005,1.359276e-005
9.521471e-001,-1.544213e-005,1.361509e-005
9.529412e-001,-1.527428e-005,1.362905e-005
9.537353e-001,-1.292439e-005,1.365332e-005
9.545294e-001,-9.567407e-006,1.365892e-005
9.553235e-001,-8.224612e-006,1.362612e-005
9.561176e-001,-7.553216e-006,1.356844e-005
9.569118e-001,-8.392462e-006,1.352340e-005
9.577059e-001,-1.242084e-005,1.349368e-005
9.585000e-001,-1.124590e-005,1.350515e-005
9.592941e-001,-9.903105e-006,1.351979e-005
9.600882e-001,-8.896010e-006,1.353130e-005
9.608824e-001,-7.217518e-006,1.354053e-005
9.616765e-001,-6.881819e-006,1.353934e-005
9.624706e-001,-5.706874e-006,1.352095e-005
9.632647e-001,-6.210422e-006,1.349354e-005
9.640588e-001,-1.158160e-005,1.347115e-005
9.648529e-001,-1.644922e-005,1.347293e-005
9.656471e-001,-1.695277e-005,1.350125e-005
9.664412e-001,-1.225299e-005,1.353057e-005
9.672353e-001,-6.378271e-006,1.354544e-005
9.680294e-001,-5.539025e-006,1.354227e-005
9.688235e-001,-4.867628e-006,1.353760e-005
9.696176e-001,-3.189136e-006,1.353481e-005
9.704118e-001,-4.196231e-006,1.353147e-005
9.712059e-001,-8.224612e-006,1.353259e-005
9.720000e-001,-2.182040e-006,1.353908e-005
9.727941e-001,-2.182040e-006,1.353033e-005
9.735882e-001,-7.721065e-006,1.350460e-005
9.743824e-001,-1.023880e-005,1.347772e-005
9.751765e-001,-1.225299e-005,1.345877e-005
9.759706e-001,-1.225299e-005,1.344770e-005
9.767647e-001,-2.030976e-005,1.343905e-005
9.775588e-001,-2.165255e-005,1.346759e-005
9.783529e-001,-1.728847e-005,1.350522e-005
9.791471e-001,-1.292439e-005,1.352417e-005
9.799412e-001,-9.567407e-006,1.353228e-005
9.807353e-001,-1.292439e-005,1.351055e-005
9.815294e-001,-1.896696e-005,1.350393e-005
9.823235e-001,-2.165255e-005,1.352345e-005
9.831176e-001,-2.131685e-005,1.355235e-005
9.839118e-001,-2.198825e-005,1.358179e-005
9.847059e-001,-1.930266e-005,1.361676e-005
9.855000e-001,-1.594568e-005,1.362400e-005
9.862941e-001,-1.493858e-005,1.361167e-005
9.870882e-001,-1.359579e-005,1.360927e-005
9.878824e-001,-1.174945e-005,1.359988e-005
9.886765e-001,-1.359579e-005,1.358991e-005
9.894706e-001,-1.359579e-005,1.359585e-005
9.902647e-001,-1.510643e-005,1.360522e-005
9.910588e-001,-1.560998e-005,1.359961e-005
9.918529e-001,-1.712062e-005,1.359314e-005
9.926471e-001,-1.091020e-005,1.360988e-005
9.934412e-001,-9.231709e-006,1.361419e-005
9.942353e-001,-1.191730e-005,1.360847e-005
9.950294e-001,-9.063859e-006,1.361200e-005
9.958235e-001,-7.385367e-006,1.361091e-005
9.966176e-001,-3.189136e-006,1.360803e-005
9.974118e-001,-5.874723e-006,1.360064e-005
9.982059e-001,-6.881819e-006,1.359396e-005
9.990000e-001,-4.196231e-006,1.357731e-005
9.997941e-001,-3.524834e-006,1.356364e-005
1.000588e+000,-5.539025e-006,1.354746e-005
1.001382e+000,-6.546120e-006,1.351590e-005
1.002176e+000,-1.124590e-005,1.348969e-005
1.002971e+000,-1.225299e-005,1.345426e-005
1.003765e+000,-1.258869e-005,1.341989e-005
1.004559e+000,-9.567407e-006,1.340977e-005
1.005353e+000,-1.040665e-005,1.339646e-005
1.006147e+000,-1.091020e-005,1.339475e-005
1.006941e+000,-1.359579e-005,1.340086e-005
1.007735e+000,-1.359579e-005,1.341341e-005
1.008529e+000,-1.309224e-005,1.342122e-005
1.009324e+000,-1.426719e-005,1.342375e-005
1.010118e+000,-1.695277e-005,1.342808e-005
1.010912e+000,-1.560998e-005,1.344971e-005
1.011706e+000,-1.460288e-005,1.346694e-005
1.012500e+000,-1.628138e-005,1.348414e-005
1.013294e+000,-1.762417e-005,1.351179e-005
1.014088e+000,-1.980621e-005,1.354331e-005
1.014882e+000,-1.762417e-005,1.358353e-005
1.015676e+000,-1.728847e-005,1.361064e-005
1.016471e+000,-1.560998e-005,1.363251e-005
1.017265e+000,-1.762417e-005,1.364530e-005
1.018059e+000,-1.225299e-005,1.366496e-005
1.018853e+000,-8.224612e-006,1.366196e-005
1.019647e+000,-8.896010e-006,1.364143e-005
1.020441e+000,-1.091020e-005,1.362909e-005
1.021235e+000,-1.091020e-005,1.362497e-005
1.022029e+000,-8.896010e-006,1.361727e-005
1.022824e+000,-7.721065e-006,1.361261e-005
1.023618e+000,-7.217518e-006,1.361167e-005
1.024412e+000,-6.881819e-006,1.360468e-005
1.025206e+000,-8.224612e-006,1.359629e-005
1.026000e+000,-7.888914e-006,1.359423e-005
1.026794e+000,-9.567407e-006,1.359570e-005
1.027588e+000,-1.023880e-005,1.359850e-005
1.028382e+000,-1.225299e-005,1.360219e-005
1.029176e+000,-1.393149e-005,1.359124e-005
1.029971e+000,-1.527428e-005,1.355729e-005
1.030765e+000,-1.493858e-005,1.353623e-005
1.031559e+000,-1.326009e-005,1.351394e-005
1.032353e+000,-1.174945e-005,1.349943e-005
1.033147e+000,-1.426719e-005,1.350414e-005
1.033941e+000,-1.292439e-005,1.351233e-005
1.034735e+000,-1.326009e-005,1.350571e-005
1.035529e+000,-1.443504e-005,1.350013e-005
1.036324e+000,-1.560998e-005,1.351536e-005
1.037118e+000,-1.258869e-005,1.353998e-005
1.037912e+000,-1.057450e-005,1.355304e-005
1.038706e+000,-1.040665e-005,1.356114e-005
1.039500e+000,-8.896010e-006,1.356655e-005
1.040294e+000,-7.553216e-006,1.357377e-005
1.041088e+000,-8.224612e-006,1.357972e-005
1.041882e+000,-1.158160e-005,1.358559e-005
1.042676e+000,-1.292439e-005,1.358513e-005
1.043471e+000,-1.225299e-005,1.357490e-005
1.044265e+000,-1.577783e-005,1.357292e-005
1.045059e+000,-1.963836e-005,1.359099e-005
1.045853e+000,-2.030976e-005,1.362914e-005
1.046647e+000,-1.762417e-005,1.367367e-005
1.047441e+000,-1.493858e-005,1.370885e-005
1.048235e+000,-1.091020e-005,1.373271e-005
1.049029e+000,-7.217518e-006,1.373960e-005
1.049824e+000,-1.107805e-005,1.373779e-005
1.050618e+000,-1.728847e-005,1.374653e-005
1.051412e+000,-1.527428e-005,1.377563e-005
1.052206e+000,-1.527428e-005,1.379274e-005
1.053000e+000,-1.493858e-005,1.380910e-005
1.053794e+000,-1.292439e-005,1.382110e-005
1.054588e+000,-6.378271e-006,1.382577e-005
1.055382e+000,-6.881819e-006,1.381758e-005
1.056176e+000,-6.546120e-006,1.378720e-005
1.056971e+000,-2.517739e-006,1.375624e-005
1.057765e+000,-4.196231e-006,1.373170e-005
1.058559e+000,-5.539025e-006,1.370297e-005
1.059353e+000,-3.189136e-006,1.368505e-005
1.060147e+000,-2.182040e-006,1.366024e-005
1.060941e+000,-2.853437e-006,1.364692e-005
1.061735e+000,-5.203327e-006,1.363563e-005
1.062529e+000,-1.275654e-005,1.362655e-005
1.063324e+000,-1.158160e-005,1.361585e-005
1.064118e+000,-1.091020e-005,1.356961e-005
1.064912e+000,-1.292439e-005,1.353187e-005
1.065706e+000,-1.091020e-005,1.348832e-005
1.066500e+000,-8.560311e-006,1.343615e-005
1.067294e+000,-1.158160e-005,1.340063e-005
1.068088e+000,-1.560998e-005,1.336751e-005
1.068882e+000,-1.963836e-005,1.333351e-005
1.069676e+000,-1.896696e-005,1.333030e-005
1.070471e+000,-1.795987e-005,1.333329e-005
1.071265e+000,-1.695277e-005,1.334271e-005
1.072059e+000,-1.695277e-005,1.335808e-005
1.072853e+000,-1.443504e-005,1.337540e-005
1.073647e+000,-1.309224e-005,1.339341e-005
1.074441e+000,-1.393149e-005,1.340758e-005
1.075235e+000,-1.426719e-005,1.342500e-005
1.076029e+000,-1.460288e-005,1.344631e-005
1.076824e+000,-1.493858e-005,1.346769e-005
1.077618e+000,-1.527428e-005,1.349086e-005
1.078412e+000,-1.258869e-005,1.350973e-005
1.079206e+000,-1.124590e-005,1.351762e-005
1.080000e+000,-1.023880e-005,1.352174e-005
1.080794e+000,-1.158160e-005,1.351441e-005
1.081588e+000,-1.376364e-005,1.351826e-005
1.082382e+000,-1.292439e-005,1.353471e-005
1.083176e+000,-1.023880e-005,1.355228e-005
1.083971e+000,-6.210422e-006,1.356419e-005
1.084765e+000,-9.063859e-006,1.356078e-005
1.085559e+000,-8.896010e-006,1.352663e-005
1.086353e+000,-1.225299e-005,1.348406e-005
1.087147e+000,-1.594568e-005,1.347239e-005
1.087941e+000,-1.594568e-005,1.347606e-005
1.088735e+000,-1.846342e-005,1.349115e-005
1.089529e+000,-1.695277e-005,1.352304e-005
1.090324e+000,-1.829557e-005,1.353291e-005
1.091118e+000,-1.829557e-005,1.354110e-005
1.091912e+000,-1.863127e-005,1.356279e-005
1.092706e+000,-1.896696e-005,1.358129e-005
1.093500e+000,-1.426719e-005,1.359730e-005
1.094294e+000,-1.376364e-005,1.358747e-005
1.095088e+000,-1.091020e-005,1.357043e-005
1.095882e+000,-7.553216e-006,1.356774e-005
1.096676e+000,-1.678492e-007,1.357083e-005
1.097471e+000,1.007095e-006,1.356528e-005
1.098265e+000,4.196231e-006,1.356087e-005
1.099059e+000,7.049668e-006,1.355499e-005
1.099853e+000,5.035477e-007,1.355007e-005
1.100647e+000,4.867628e-006,1.353196e-005
1.101441e+000,1.678492e-006,1.350480e-005
1.102235e+000,-8.392462e-007,1.343893e-005
1.103029e+000,1.174945e-006,1.336064e-005
1.103824e+000,-1.510643e-006,1.333173e-005
1.104618e+000,-9.063859e-006,1.332029e-005
1.105412e+000,-8.560311e-006,1.331407e-005
1.106206e+000,-1.091020e-005,1.330388e-005
1.107000e+000,-1.560998e-005,1.329376e-005
1.107794e+000,-1.846342e-005,1.329621e-005
1.108588e+000,-2.366674e-005,1.331904e-005
1.109382e+000,-2.635233e-005,1.336328e-005
1.110176e+000,-2.366674e-005,1.342387e-005
1.110971e+000,-2.333104e-005,1.347430e-005
1.111765e+000,-2.299535e-005,1.352081e-005
1.112559e+000,-2.299535e-005,1.357842e-005
1.113353e+000,-1.510643e-005,1.363363e-005
1.114147e+000,-1.309224e-005,1.364638e-005
1.114941e+000,-1.493858e-005,1.365971e-005
1.115735e+000,-1.158160e-005,1.368213e-005
1.116529e+000,-8.896010e-006,1.368168e-005
1.117324e+000,-7.553216e-006,1.366432e-005
1.118118e+000,-7.553216e-006,1.364194e-005
1.118912e+000,-9.567407e-006,1.361634e-005
1.119706e+000,-1.040665e-005,1.359342e-005
1.120500e+000,-1.493858e-005,1.357876e-005
1.121294e+000,-1.829557e-005,1.358920e-005
1.122088e+000,-2.131685e-005,1.361269e-005
1.122882e+000,-2.299535e-005,1.365186e-005
1.123676e+000,-2.098116e-005,1.370984e-005
1.124471e+000,-2.165255e-005,1.375539e-005
1.125265e+000,-2.500954e-005,1.379582e-005
1.126059e+000,-2.366674e-005,1.385974e-005
1.126853e+000,-1.963836e-005,1.391682e-005
1.127647e+000,-1.493858e-005,1.393306e-005
1.128441e+000,-1.560998e-005,1.393638e-005
1.129235e+000,-1.795987e-005,1.394611e-005
1.130029e+000,-1.359579e-005,1.396183e-005
1.130824e+000,-1.242084e-005,1.396716e-005
1.131618e+000,-1.158160e-005,1.397280e-005
1.132412e+000,-7.721065e-006,1.397614e-005
1.133206e+000,-4.867628e-006,1.397700e-005
1.134000e+000,-4.531929e-006,1.397320e-005
1.134794e+000,-9.567407e-006,1.396359e-005
1.135588e+000,-1.376364e-005,1.396045e-005
1.136382e+000,-1.225299e-005,1.396200e-005
1.137176e+000,-8.560311e-006,1.395591e-005
1.137971e+000,-7.553216e-006,1.394049e-005
1.138765e+000,-5.706874e-006,1.391915e-005
1.139559e+000,-6.881819e-006,1.390753e-005
1.140353e+000,-4.531929e-006,1.389480e-005
1.141147e+000,-3.524834e-006,1.386548e-005
1.141941e+000,-7.217518e-006,1.383321e-005
1.142735e+000,-8.224612e-006,1.382096e-005
1.143529e+000,-6.210422e-006,1.381929e-005
1.144324e+000,-5.539025e-006,1.381716e-005
1.145118e+000,-7.721065e-006,1.379496e-005
1.145912e+000,-6.210422e-006,1.377606e-005
1.146706e+000,-1.023880e-005,1.377698e-005
1.147500e+000,-8.224612e-006,1.378897e-005
1.148294e+000,-1.023880e-005,1.379675e-005
1.149088e+000,-1.057450e-005,1.380830e-005
1.149882e+000,-1.091020e-005,1.381947e-005
1.150676e+000,-1.493858e-005,1.383245e-005
1.151471e+000,-1.426719e-005,1.385811e-005
1.152265e+000,-1.493858e-005,1.388147e-005
1.153059e+000,-1.527428e-005,1.390679e-005
1.153853e+000,-1.628138e-005,1.392806e-005
1.154647e+000,-1.695277e-005,1.394931e-005
1.155441e+000,-1.628138e-005,1.396679e-005
1.156235e+000,-1.292439e-005,1.397593e-005
1.157029e+000,-1.309224e-005,1.395396e-005
1.157824e+000,-9.567407e-006,1.392485e-005
1.158618e+000,-7.049668e-006,1.385776e-005
1.159412e+000,-6.881819e-006,1.378347e-005
1.160206e+000,-7.721065e-006,1.373127e-005
1.161000e+000,-4.364080e-006,1.368203e-005
1.161794e+000,-2.853437e-006,1.363292e-005
1.162588e+000,-4.531929e-006,1.355459e-005
1.163382e+000,-1.359579e-005,1.343574e-005
1.164176e+000,-2.299535e-005,1.334797e-005
1.164971e+000,-2.165255e-005,1.333029e-005
1.165765e+000,-1.762417e-005,1.329012e-005
1.166559e+000,-1.560998e-005,1.325632e-005
1.167353e+000,-1.359579e-005,1.324827e-005
1.168147e+000,-1.124590e-005,1.324602e-005
1.168941e+000,-1.359579e-005,1.323439e-005
1.169735e+000,-1.158160e-005,1.322978e-005
1.170529e+000,-1.258869e-005,1.323994e-005
1.171324e+000,-8.560311e-006,1.325890e-005
1.172118e+000,-6.210422e-006,1.326591e-005
1.172912e+000,-1.225299e-005,1.326686e-005
1.173706e+000,-1.258869e-005,1.327919e-005
1.174500e+000,-4.531929e-006,1.328797e-005
1.175294e+000,-4.196231e-006,1.328095e-005
1.176088e+000,-9.903105e-006,1.327892e-005
1.176882e+000,-1.493858e-005,1.328919e-005
1.177676e+000,-1.762417e-005,1.331581e-005
1.178471e+000,-2.064546e-005,1.334121e-005
1.179265e+000,-1.963836e-005,1.335777e-005
1.180059e+000,-1.493858e-005,1.337082e-005
1.180853e+000,-1.124590e-005,1.337951e-005
1.181647e+000,-8.224612e-006,1.337620e-005
1.182441e+000,-8.224612e-006,1.337258e-005
1.183235e+000,-5.539025e-006,1.337604e-005
1.184029e+000,-9.063859e-006,1.337687e-005
1.184824e+000,-1.124590e-005,1.338300e-005
1.185618e+000,-1.493858e-005,1.337383e-005
1.186412e+000,-1.896696e-005,1.331653e-005
1.187206e+000,-2.299535e-005,1.327645e-005
1.188000e+000,-1.493858e-005,1.329517e-005
1.188794e+000,-1.158160e-005,1.328326e-005
1.189588e+000,-1.426719e-005,1.326487e-005
1.190382e+000,-1.426719e-005,1.326601e-005
1.191176e+000,-1.225299e-005,1.325026e-005
1.191971e+000,-1.661708e-005,1.321703e-005
1.192765e+000,-2.098116e-005,1.320848e-005
1.193559e+000,-1.560998e-005,1.321505e-005
1.194353e+000,-1.225299e-005,1.320978e-005
1.195147e+000,-9.903105e-006,1.319850e-005
1.195941e+000,-9.903105e-006,1.318340e-005
1.196735e+000,-3.189136e-006,1.317507e-005
1.197529e+000,-3.356985e-007,1.315168e-005
1.198324e+000,-9.567407e-006,1.313038e-005
1.199118e+000,-8.896010e-006,1.311621e-005
1.199912e+000,-3.524834e-006,1.310109e-005
1.200706e+000,-3.524834e-006,1.307784e-005
1.201500e+000,-8.560311e-006,1.303779e-005
1.202294e+000,-1.426719e-005,1.301760e-005
1.203088e+000,-1.124590e-005,1.301396e-005
1.203882e+000,-1.107805e-005,1.300899e-005
1.204676e+000,-1.225299e-005,1.301281e-005
1.205471e+000,-1.426719e-005,1.302290e-005
1.206265e+000,-1.863127e-005,1.304080e-005
1.207059e+000,-1.762417e-005,1.307454e-005
1.207853e+000,-1.695277e-005,1.309357e-005
1.208647e+000,-1.493858e-005,1.311312e-005
1.209441e+000,-1.359579e-005,1.312831e-005
1.210235e+000,-1.460288e-005,1.314112e-005
1.211029e+000,-1.695277e-005,1.316063e-005
1.211824e+000,-1.963836e-005,1.318964e-005
1.212618e+000,-1.728847e-005,1.323220e-005
1.213412e+000,-1.023880e-005,1.326350e-005
1.214206e+000,-5.539025e-006,1.325998e-005
1.215000e+000,-9.567407e-006,1.323114e-005
1.215794e+000,-8.896010e-006,1.320754e-005
1.216588e+000,-6.881819e-006,1.319898e-005
1.217382e+000,-5.203327e-006,1.319979e-005
1.218176e+000,-5.203327e-006,1.319935e-005
1.218971e+000,-7.721065e-006,1.319976e-005
1.219765e+000,-1.275654e-005,1.320572e-005
1.220559e+000,-1.393149e-005,1.322321e-005
1.221353e+000,-1.359579e-005,1.323843e-005
1.222147e+000,-1.628138e-005,1.326007e-005
1.222941e+000,-1.359579e-005,1.329130e-005
1.223735e+000,-6.881819e-006,1.330629e-005
1.224529e+000,-8.392462e-007,1.329941e-005
1.225324e+000,-4.196231e-006,1.328151e-005
1.226118e+000,-7.217518e-006,1.326561e-005
1.226912e+000,-9.567407e-006,1.322228e-005
1.227706e+000,-7.553216e-006,1.317676e-005
1.228500e+000,-5.539025e-006,1.314750e-005
1.229294e+000,-5.035477e-006,1.313098e-005
1.230088e+000,-1.023880e-005,1.312295e-005
1.230882e+000,-1.560998e-005,1.311540e-005
1.231676e+000,-1.712062e-005,1.310130e-005
1.232471e+000,-1.829557e-005,1.307992e-005
1.233265e+000,-2.299535e-005,1.306535e-005
1.234059e+000,-2.165255e-005,1.307087e-005
1.234853e+000,-1.225299e-005,1.308259e-005
1.235647e+000,-7.553216e-006,1.306991e-005
1.236441e+000,-4.867628e-006,1.304965e-005
1.237235e+000,-5.539025e-006,1.302997e-005
1.238029e+000,-8.896010e-006,1.301684e-005
1.238824e+000,-1.493858e-005,1.300391e-005
1.239618e+000,-1.493858e-005,1.300860e-005
1.240412e+000,-1.158160e-005,1.300798e-005
1.241206e+000,-1.124590e-005,1.299456e-005
1.242000e+000,-6.881819e-006,1.297413e-005
1.242794e+000,-9.903105e-006,1.296533e-005
1.243588e+000,-1.091020e-005,1.296691e-005
1.244382e+000,-8.224612e-006,1.296408e-005
1.245176e+000,-5.539025e-006,1.296230e-005
1.245971e+000,-6.881819e-006,1.295937e-005
1.246765e+000,-4.867628e-006,1.296394e-005
1.247559e+000,-5.035477e-006,1.296261e-005
1.248353e+000,-1.225299e-005,1.295990e-005
1.249147e+000,-1.762417e-005,1.297618e-005
1.249941e+000,-2.803082e-005,1.301272e-005
1.250735e+000,-4.246586e-005,1.310479e-005
1.251529e+000,-4.347295e-005,1.331699e-005
1.252324e+000,-3.608759e-005,1.352620e-005
1.253118e+000,-2.232395e-005,1.366117e-005
1.253912e+000,-8.224612e-006,1.370073e-005
1.254706e+000,-2.853437e-006,1.369795e-005
1.255500e+000,1.678492e-007,1.368630e-005
1.256294e+000,-2.853437e-006,1.367245e-005
1.257088e+000,-1.023880e-005,1.365185e-005
1.257882e+000,-1.124590e-005,1.364252e-005
1.258676e+000,-1.191730e-005,1.363727e-005
1.259471e+000,-1.779202e-005,1.363009e-005
1.260265e+000,-2.400244e-005,1.363349e-005
1.261059e+000,-2.064546e-005,1.367227e-005
1.261853e+000,-1.560998e-005,1.369705e-005
1.262647e+000,-1.292439e-005,1.369456e-005
1.263441e+000,-2.433814e-005,1.367786e-005
1.264235e+000,-4.649424e-005,1.370113e-005
1.265029e+000,-5.757229e-005,1.391460e-005
1.265824e+000,-6.596475e-005,1.425553e-005
1.266618e+000,-7.234302e-005,1.470721e-005
1.267412e+000,-8.677805e-005,1.523089e-005
1.268206e+000,-1.008774e-004,1.598387e-005
1.269000e+000,-1.243763e-004,1.696105e-005
1.269794e+000,-1.317617e-004,1.834914e-005
1.270588e+000,-1.205158e-004,1.978894e-005
1.271382e+000,-1.008774e-004,2.091597e-005
1.272176e+000,-6.025788e-005,2.167105e-005
1.272971e+000,-9.903105e-006,2.193190e-005
1.273765e+000,4.280156e-005,2.193524e-005
1.274559e+000,9.987030e-005,2.206441e-005
1.275353e+000,1.482109e-004,2.276812e-005
1.276147e+000,1.958801e-004,2.425172e-005
1.276941e+000,2.348211e-004,2.664674e-005
1.277735e+000,2.552987e-004,2.975438e-005
1.278529e+000,2.516060e-004,3.305172e-005
1.279324e+000,2.348211e-004,3.596399e-005
1.280118e+000,2.059510e-004,3.831806e-005
1.280912e+000,1.670100e-004,4.003305e-005
1.281706e+000,1.193408e-004,4.112073e-005
1.282500e+000,6.764325e-005,4.166332e-005
1.283294e+000,5.035477e-007,4.183008e-005
1.284088e+000,-5.790799e-005,4.182373e-005
1.284882e+000,-9.819181e-005,4.194454e-005
1.285676e+000,-1.210193e-004,4.230114e-005
1.286471e+000,-1.361257e-004,4.283985e-005
1.287265e+000,-1.468681e-004,4.351736e-005
1.288059e+000,-1.505608e-004,4.429560e-005
1.288853e+000,-1.414969e-004,4.509931e-005
1.289647e+000,-1.420005e-004,4.579801e-005
1.290441e+000,-1.341115e-004,4.649187e-005
1.291235e+000,-1.146410e-004,4.710157e-005
1.292029e+000,-9.869535e-005,4.753931e-005
1.292824e+000,-8.610666e-005,4.785891e-005
1.293618e+000,-6.730755e-005,4.810000e-005
1.294412e+000,-4.615854e-005,4.824153e-005
1.295206e+000,-2.601663e-005,4.829909e-005
1.296000e+000,-1.258869e-005,4.830781e-005
1.296794e+000,-1.678492e-007,4.830279e-005
1.297588e+000,8.224612e-006,4.829544e-005
1.298382e+000,7.888914e-006,4.829374e-005
1.299176e+000,3.524834e-006,4.829408e-005
1.299971e+000,-2.853437e-006,4.829044e-005
1.300765e+000,-1.393149e-005,4.828085e-005
1.301559e+000,-2.433814e-005,4.827956e-005
1.302353e+000,-2.970932e-005,4.829140e-005
1.303147e+000,-2.500954e-005,4.831314e-005
1.303941e+000,-2.316319e-005,4.832825e-005
1.304735e+000,-2.534523e-005,4.834458e-005
1.305529e+000,-3.038071e-005,4.836418e-005
1.306324e+000,-2.870222e-005,4.839315e-005
1.307118e+000,-2.165255e-005,4.842004e-005
1.307912e+000,-1.712062e-005,4.843487e-005
1.308706e+000,-1.762417e-005,4.844350e-005
1.309500e+000,-1.695277e-005,4.845338e-005
1.310294e+000,-1.963836e-005,4.846267e-005
1.311088e+000,-1.628138e-005,4.847507e-005
1.311882e+000,-1.326009e-005,4.848288e-005
1.312676e+000,-1.443504e-005,4.848331e-005
1.313471e+000,-1.359579e-005,4.848575e-005
1.314265e+000,-8.224612e-006,4.848791e-005
1.315059e+000,-2.853437e-006,4.848465e-005
1.315853e+000,-3.524834e-006,4.848100e-005
1.316647e+000,-8.392462e-007,4.847901e-005
1.317441e+000,3.189136e-006,4.847462e-005
1.318235e+000,7.553216e-006,4.846695e-005
1.319029e+000,3.524834e-006,4.845615e-005
1.319824e+000,2.517739e-006,4.844474e-005
1.320618e+000,1.174945e-006,4.843434e-005
1.321412e+000,-2.182040e-006,4.842494e-005
1.322206e+000,-6.881819e-006,4.841564e-005
1.323000e+000,-1.326009e-005,4.841035e-005
1.323794e+000,-1.426719e-005,4.841049e-005
1.324588e+000,-1.930266e-005,4.841081e-005
1.325382e+000,-1.913481e-005,4.841636e-005
1.326176e+000,-2.299535e-005,4.842140e-005
1.326971e+000,-2.064546e-005,4.843144e-005
1.327765e+000,-1.493858e-005,4.843779e-005
1.328559e+000,-1.023880e-005,4.843991e-005
1.329353e+000,-9.903105e-006,4.843920e-005
1.330147e+000,-6.881819e-006,4.843898e-005
1.330941e+000,-2.853437e-006,4.843613e-005
1.331735e+000,-8.392462e-007,4.843017e-005
1.332529e+000,-1.510643e-006,4.842470e-005
1.333324e+000,-4.531929e-006,4.842133e-005
1.334118e+000,-8.224612e-006,4.842073e-005
1.334912e+000,-1.493858e-005,4.842026e-005
1.335706e+000,-1.963836e-005,4.842499e-005
1.336500e+000,-1.359579e-005,4.843274e-005
1.337294e+000,-4.867628e-006,4.843045e-005
1.338088e+000,-5.539025e-006,4.842287e-005
1.338882e+000,-4.531929e-006,4.841267e-005
1.339676e+000,-8.392462e-006,4.840389e-005
1.340471e+000,-1.326009e-005,4.839520e-005
1.341265e+000,-1.409934e-005,4.838997e-005
1.342059e+000,-7.217518e-006,4.838509e-005
1.342853e+000,-5.539025e-006,4.837496e-005
1.343647e+000,-8.224612e-006,4.836927e-005
1.344441e+000,-8.896010e-006,4.836526e-005
1.345235e+000,-2.182040e-006,4.836395e-005
1.346029e+000,-1.678492e-007,4.836223e-005
1.346824e+000,-1.225299e-005,4.836223e-005
1.347618e+000,-2.098116e-005,4.836714e-005
1.348412e+000,-9.903105e-006,4.838105e-005
1.349206e+000,1.174945e-006,4.838264e-005
1.350000e+000,-8.392462e-007,4.838268e-005
1.350794e+000,1.678492e-007,4.838192e-005
1.351588e+000,8.392462e-007,4.838183e-005
1.352382e+000,-1.493858e-005,4.838183e-005
1.353176e+000,-2.702373e-005,4.838913e-005
1.353971e+000,-3.038071e-005,4.841308e-005
1.354765e+000,-3.004501e-005,4.844072e-005
1.355559e+000,-2.232395e-005,4.846798e-005
1.356353e+000,-2.098116e-005,4.848044e-005
1.357147e+000,-2.064546e-005,4.848690e-005
1.357941e+000,-1.426719e-005,4.848970e-005
1.358735e+000,-1.091020e-005,4.847799e-005
1.359529e+000,-1.527428e-005,4.845909e-005
1.360324e+000,-1.560998e-005,4.844835e-005
1.361118e+000,-4.364080e-006,4.843846e-005
1.361912e+000,1.678492e-006,4.842170e-005
1.362706e+000,1.174945e-006,4.840440e-005
1.363500e+000,5.203327e-006,4.839694e-005
1.364294e+000,5.203327e-006,4.839219e-005
1.365088e+000,3.860533e-006,4.838574e-005
1.365882e+000,7.217518e-006,4.838181e-005
1.366676e+000,1.846342e-006,4.838092e-005
1.367471e+000,-4.867628e-006,4.837916e-005
1.368265e+000,-1.292439e-005,4.837806e-005
1.369059e+000,-9.567407e-006,4.838055e-005
1.369853e+000,-9.567407e-006,4.837999e-005
1.370647e+000,-1.443504e-005,4.837566e-005
1.371441e+000,-1.158160e-005,4.837150e-005
1.372235e+000,-1.023880e-005,4.836095e-005
1.373029e+000,-1.426719e-005,4.834700e-005
1.373824e+000,-1.359579e-005,4.833920e-005
1.374618e+000,-1.678492e-005,4.832985e-005
1.375412e+000,-1.628138e-005,4.831852e-005
1.376206e+000,-1.762417e-005,4.830879e-005
1.377000e+000,-2.131685e-005,4.830632e-005
1.377794e+000,-1.863127e-005,4.831394e-005
1.378588e+000,-1.359579e-005,4.831735e-005
1.379382e+000,-6.881819e-006,4.831281e-005
1.380176e+000,-7.721065e-006,4.830828e-005
1.380971e+000,-2.098116e-005,4.830516e-005
1.381765e+000,-3.474479e-005,4.831525e-005
1.382559e+000,-3.172351e-005,4.835306e-005
1.383353e+000,-1.997406e-005,4.838541e-005
1.384147e+000,-1.359579e-005,4.839786e-005
1.384941e+000,-9.903105e-006,4.840093e-005
1.385735e+000,-6.881819e-006,4.839793e-005
1.386529e+000,-4.867628e-006,4.839455e-005
1.387324e+000,1.007095e-006,4.839291e-005
1.388118e+000,-1.678492e-007,4.839107e-005
1.388912e+000,-8.896010e-006,4.839000e-005
1.389706e+000,-1.829557e-005,4.839105e-005
1.390500e+000,-1.695277e-005,4.840138e-005
1.391294e+000,-2.030976e-005,4.841043e-005
1.392088e+000,-3.054856e-005,4.842228e-005
1.392882e+000,-3.172351e-005,4.845074e-005
1.393676e+000,-2.182040e-005,4.848253e-005
1.394471e+000,-1.896696e-005,4.849716e-005
1.395265e+000,-1.695277e-005,4.850702e-005
1.396059e+000,-8.896010e-006,4.851518e-005
1.396853e+000,-5.539025e-006,4.851434e-005
1.397647e+000,-1.023880e-005,4.851312e-005
1.398441e+000,-1.023880e-005,4.851312e-005
1.399235e+000,-4.867628e-006,4.851289e-005
1.400029e+000,-8.392462e-007,4.850977e-005
1.400824e+000,1.678492e-007,4.850246e-005
1.401618e+000,-1.510643e-006,4.849578e-005
1.402412e+000,-3.356985e-007,4.848853e-005
1.403206e+000,-4.867628e-006,4.848087e-005
1.404000e+000,-6.881819e-006,4.847294e-005
1.404794e+000,-1.628138e-005,4.846506e-005
1.405588e+000,-2.165255e-005,4.846506e-005
1.406382e+000,-2.400244e-005,4.847497e-005
1.407176e+000,-2.030976e-005,4.848826e-005
1.407971e+000,-1.795987e-005,4.849880e-005
1.408765e+000,-1.963836e-005,4.850776e-005
1.409559e+000,-2.299535e-005,4.851886e-005
1.410353e+000,-2.719158e-005,4.853426e-005
1.411147e+000,-2.635233e-005,4.855789e-005
1.411941e+000,-2.836652e-005,4.858039e-005
1.412735e+000,-2.198825e-005,4.860608e-005
1.413529e+000,-1.795987e-005,4.861586e-005
1.414324e+000,-1.426719e-005,4.860911e-005
1.415118e+000,-1.091020e-005,4.860042e-005
1.415912e+000,-1.023880e-005,4.859414e-005
1.416706e+000,-5.035477e-007,4.858959e-005
1.417500e+000,1.124590e-005,4.858354e-005
1.418294e+000,2.265965e-005,4.858354e-005
1.419088e+000,2.870222e-005,4.859431e-005
1.419882e+000,2.668803e-005,4.861691e-005
1.420676e+000,3.121996e-005,4.863504e-005
1.421471e+000,2.803082e-005,4.866454e-005
1.422265e+000,1.795987e-005,4.868899e-005
1.423059e+000,2.517739e-006,4.869463e-005
1.423853e+000,-8.896010e-006,4.868965e-005
1.424647e+000,-1.644922e-005,4.869157e-005
1.425441e+000,-2.366674e-005,4.869984e-005
1.426235e+000,-2.568093e-005,4.871494e-005
1.427029e+000,-3.105211e-005,4.872921e-005
1.427824e+000,-2.500954e-005,4.875056e-005
1.428618e+000,-2.265965e-005,4.875707e-005
1.429412e+000,-2.500954e-005,4.876124e-005
1.430206e+000,-2.702373e-005,4.877437e-005
1.431000e+000,-2.568093e-005,4.879408e-005
1.431794e+000,-3.105211e-005,4.881339e-005
1.432588e+000,-3.575189e-005,4.884263e-005
1.433382e+000,-3.004501e-005,4.888328e-005
1.434176e+000,-2.568093e-005,4.891001e-005
1.434971e+000,-3.038071e-005,4.892736e-005
1.435765e+000,-3.189136e-005,4.895013e-005
1.436559e+000,-2.836652e-005,4.897151e-005
1.437353e+000,-2.299535e-005,4.898048e-005
1.438147e+000,-2.030976e-005,4.899041e-005
1.438941e+000,-1.359579e-005,4.899946e-005
1.439735e+000,-6.546120e-006,4.899885e-005
1.440529e+000,-8.224612e-006,4.899363e-005
1.441324e+000,-4.196231e-006,4.899095e-005
1.442118e+000,-4.867628e-006,4.898254e-005
1.442912e+000,-6.881819e-006,4.896900e-005
1.443706e+000,-8.224612e-006,4.896262e-005
1.444500e+000,-6.881819e-006,4.895993e-005
1.445294e+000,-1.158160e-005,4.895829e-005
1.446088e+000,-1.560998e-005,4.895946e-005
1.446882e+000,-1.712062e-005,4.896705e-005
1.447676e+000,-1.359579e-005,4.897658e-005
1.448471e+000,-8.896010e-006,4.897961e-005
1.449265e+000,-6.881819e-006,4.897961e-005
1.450059e+000,-8.224612e-006,4.898075e-005
1.450853e+000,-3.189136e-006,4.898255e-005
1.451647e+000,-4.364080e-006,4.898050e-005
1.452441e+000,-6.378271e-006,4.897450e-005
1.453235e+000,-9.231709e-006,4.897171e-005
1.454029e+000,-1.124590e-005,4.897049e-005
1.454824e+000,-7.553216e-006,4.896972e-005
1.455618e+000,-5.706874e-006,4.896495e-005
1.456412e+000,-4.867628e-006,4.895472e-005
1.457206e+000,-8.392462e-006,4.894539e-005
1.458000e+000,-8.224612e-006,4.893833e-005
1.458794e+000,-1.258869e-005,4.893327e-005
1.459588e+000,-1.762417e-005,4.893241e-005
1.460382e+000,-1.544213e-005,4.893558e-005
1.461176e+000,-1.527428e-005,4.893399e-005
1.461971e+000,-1.359579e-005,4.892903e-005
1.462765e+000,-8.896010e-006,4.892532e-005
1.463559e+000,-8.896010e-006,4.892448e-005
1.464353e+000,-1.359579e-005,4.892606e-005
1.465147e+000,-1.258869e-005,4.892909e-005
1.465941e+000,-1.309224e-005,4.893168e-005
1.466735e+000,-1.460288e-005,4.893572e-005
1.467529e+000,-1.158160e-005,4.894177e-005
1.468324e+000,-9.567407e-006,4.894525e-005
1.469118e+000,-1.057450e-005,4.894629e-005
1.469912e+000,-1.426719e-005,4.894464e-005
1.470706e+000,-1.426719e-005,4.894494e-005
1.471500e+000,-1.258869e-005,4.894555e-005
1.472294e+000,-1.023880e-005,4.894209e-005
1.473088e+000,-1.359579e-005,4.893948e-005
1.473882e+000,-1.275654e-005,4.894396e-005
1.474676e+000,-7.553216e-006,4.894923e-005
1.475471e+000,-6.546120e-006,4.895051e-005
1.476265e+000,-6.881819e-006,4.895021e-005
1.477059e+000,-7.888914e-006,4.894877e-005
1.477853e+000,-8.728161e-006,4.894894e-005
1.478647e+000,-1.107805e-005,4.895042e-005
1.479441e+000,-9.567407e-006,4.895359e-005
1.480235e+000,-6.881819e-006,4.895315e-005
1.481029e+000,-9.735256e-006,4.894677e-005
1.481824e+000,-7.888914e-006,4.894031e-005
1.482618e+000,-7.049668e-006,4.893145e-005
1.483412e+000,-1.057450e-005,4.891585e-005
1.484206e+000,-1.225299e-005,4.890423e-005
1.485000e+000,-1.007095e-005,4.890423e-005
1.485794e+000,-8.896010e-006,4.890567e-005
1.486588e+000,-1.040665e-005,4.890748e-005
1.487382e+000,-1.023880e-005,4.891001e-005
1.488176e+000,-8.560311e-006,4.891084e-005
1.488971e+000,-5.539025e-006,4.890596e-005
1.489765e+000,-9.903105e-006,4.889970e-005
1.490559e+000,-1.292439e-005,4.889852e-005
1.491353e+000,-1.292439e-005,4.889984e-005
1.492147e+000,-1.443504e-005,4.890374e-005
1.492941e+000,-1.258869e-005,4.890733e-005
1.493735e+000,-9.567407e-006,4.890861e-005
1.494529e+000,-1.158160e-005,4.890939e-005
1.495324e+000,-9.567407e-006,4.891276e-005
1.496118e+000,-9.735256e-006,4.891420e-005
1.496912e+000,-1.359579e-005,4.891651e-005
1.497706e+000,-1.577783e-005,4.892170e-005
1.498500e+000,-1.846342e-005,4.892492e-005
1.499294e+000,-2.030976e-005,4.892590e-005
1.500088e+000,-2.047761e-005,4.891376e-005
1.500882e+000,-2.568093e-005,4.886868e-005
1.501676e+000,-2.702373e-005,4.882857e-005
1.502471e+000,-2.165255e-005,4.880991e-005
1.503265e+000,-1.225299e-005,4.880895e-005
1.504059e+000,-6.378271e-006,4.881164e-005
1.504853e+000,-8.224612e-006,4.881270e-005
1.505647e+000,-1.091020e-005,4.881491e-005
1.506441e+000,-1.560998e-005,4.881853e-005
1.507235e+000,-1.292439e-005,4.882305e-005
1.508029e+000,-9.903105e-006,4.882438e-005
1.508824e+000,-1.258869e-005,4.882295e-005
1.509618e+000,-1.426719e-005,4.881779e-005
1.510412e+000,-1.023880e-005,4.880564e-005
1.511206e+000,-6.881819e-006,4.879515e-005
1.512000e+000,-8.560311e-006,4.878874e-005
1.512794e+000,-8.560311e-006,4.878568e-005
1.513588e+000,-8.560311e-006,4.876874e-005
1.514382e+000,-6.546120e-006,4.870050e-005
1.515176e+000,-6.210422e-006,4.859340e-005
1.515971e+000,-1.091020e-005,4.845187e-005
1.516765e+000,-1.376364e-005,4.828349e-005
1.517559e+000,-1.460288e-005,4.804078e-005
1.518353e+000,-1.376364e-005,4.770941e-005
1.519147e+000,-1.426719e-005,4.719666e-005
1.519941e+000,-1.191730e-005,4.661419e-005
1.520735e+000,-1.258869e-005,4.612028e-005
1.521529e+000,-1.242084e-005,4.577310e-005
1.522324e+000,-1.225299e-005,4.565199e-005
1.523118e+000,-1.426719e-005,4.565381e-005
1.523912e+000,-1.762417e-005,4.559697e-005
1.524706e+000,-1.728847e-005,4.525825e-005
1.525500e+000,-1.661708e-005,4.448937e-005
1.526294e+000,-1.695277e-005,4.310440e-005
1.527088e+000,-1.359579e-005,4.102799e-005
1.527882e+000,-1.292439e-005,3.842283e-005
1.528676e+000,-1.359579e-005,3.571044e-005
1.529471e+000,-1.695277e-005,3.316950e-005
1.530265e+000,-1.023880e-005,3.108133e-005
1.531059e+000,-8.224612e-006,2.962353e-005
1.531853e+000,-7.888914e-006,2.885155e-005
1.532647e+000,-1.023880e-005,2.860136e-005
1.533441e+000,-9.903105e-006,2.860718e-005
1.534235e+000,-1.174945e-005,2.842541e-005
1.535029e+000,-1.057450e-005,2.788795e-005
1.535824e+000,-6.881819e-006,2.704536e-005
1.536618e+000,-7.049668e-006,2.593432e-005
1.537412e+000,-8.896010e-006,2.457747e-005
1.538206e+000,-1.124590e-005,2.306754e-005
1.539000e+000,-1.258869e-005,2.165068e-005
1.539794e+000,-1.158160e-005,2.012560e-005
1.540588e+000,-8.896010e-006,1.865976e-005
1.541382e+000,-9.903105e-006,1.750953e-005
1.542176e+000,-1.023880e-005,1.660946e-005
1.542971e+000,-1.023880e-005,1.589325e-005
1.543765e+000,-1.359579e-005,1.544350e-005
1.544559e+000,-1.225299e-005,1.524155e-005
1.545353e+000,-9.735256e-006,1.518643e-005
1.546147e+000,-1.158160e-005,1.517974e-005
1.546941e+000,-1.242084e-005,1.519380e-005
1.547735e+000,-1.023880e-005,1.520288e-005
1.548529e+000,-9.231709e-006,1.520734e-005
1.549324e+000,-9.567407e-006,1.521496e-005
1.550118e+000,-1.191730e-005,1.522369e-005
1.550912e+000,-1.091020e-005,1.521824e-005
1.551706e+000,-7.553216e-006,1.516864e-005
1.552500e+000,-1.124590e-005,1.508172e-005
1.553294e+000,-1.426719e-005,1.502894e-005
1.554088e+000,-1.376364e-005,1.499362e-005
1.554882e+000,-1.426719e-005,1.494544e-005
1.555676e+000,-1.695277e-005,1.486859e-005
1.556471e+000,-1.225299e-005,1.481103e-005
1.557265e+000,-8.224612e-006,1.477673e-005
1.558059e+000,-4.364080e-006,1.475241e-005
1.558853e+000,-5.203327e-006,1.472090e-005
1.559647e+000,-8.224612e-006,1.469272e-005
1.560441e+000,-6.881819e-006,1.465821e-005
1.561235e+000,-1.678492e-007,1.463454e-005
1.562029e+000,-3.021286e-006,1.461540e-005
1.562824e+000,-8.224612e-006,1.459368e-005
1.563618e+000,-6.881819e-006,1.458088e-005
1.564412e+000,-3.524834e-006,1.457867e-005
1.565206e+000,-1.493858e-005,1.457913e-005
1.566000e+000,-2.366674e-005,1.460213e-005
1.566794e+000,-2.500954e-005,1.466301e-005
1.567588e+000,-2.198825e-005,1.472968e-005
1.568382e+000,-1.963836e-005,1.477571e-005
1.569176e+000,-1.762417e-005,1.481588e-005
1.569971e+000,-1.762417e-005,1.484854e-005
1.570765e+000,-1.762417e-005,1.488167e-005
1.571559e+000,-1.628138e-005,1.491436e-005
1.572353e+000,-2.030976e-005,1.493759e-005
1.573147e+000,-2.232395e-005,1.496279e-005
1.573941e+000,-2.265965e-005,1.499413e-005
1.574735e+000,-1.560998e-005,1.500908e-005
1.575529e+000,-1.158160e-005,1.499609e-005
1.576324e+000,-1.426719e-005,1.495412e-005
1.577118e+000,-1.728847e-005,1.493039e-005
1.577912e+000,-1.762417e-005,1.493847e-005
1.578706e+000,-2.098116e-005,1.496038e-005
1.579500e+000,-1.963836e-005,1.499676e-005
1.580294e+000,-1.174945e-005,1.503264e-005
1.581088e+000,-8.224612e-006,1.504639e-005
1.581882e+000,-8.560311e-006,1.505347e-005
1.582676e+000,-6.881819e-006,1.506098e-005
1.583471e+000,-2.853437e-006,1.506382e-005
1.584265e+000,-4.196231e-006,1.505752e-005
1.585059e+000,-8.392462e-006,1.503577e-005
1.585853e+000,-1.091020e-005,1.500235e-005
1.586647e+000,-8.392462e-006,1.499536e-005
1.587441e+000,-4.867628e-006,1.500033e-005
1.588235e+000,-2.517739e-006,1.499958e-005
1.589029e+000,-1.510643e-006,1.499808e-005
1.589824e+000,-3.524834e-006,1.499084e-005
1.590618e+000,-7.553216e-006,1.497347e-005
1.591412e+000,-5.539025e-006,1.495839e-005
1.592206e+000,-9.567407e-006,1.495611e-005
1.593000e+000,-1.292439e-005,1.496258e-005
1.593794e+000,-1.107805e-005,1.497316e-005
1.594588e+000,-1.225299e-005,1.497779e-005
1.595382e+000,-1.628138e-005,1.499324e-005
1.596176e+000,-1.560998e-005,1.502136e-005
1.596971e+000,-1.997406e-005,1.503127e-005
1.597765e+000,-2.299535e-005,1.502690e-005
1.598559e+000,-1.829557e-005,1.507248e-005
1.599353e+000,-1.661708e-005,1.510765e-005
1.600147e+000,-1.628138e-005,1.513665e-005
1.600941e+000,-1.829557e-005,1.516451e-005
1.601735e+000,-1.359579e-005,1.519955e-005
1.602529e+000,-1.191730e-005,1.519553e-005
1.603324e+000,-9.567407e-006,1.513376e-005
1.604118e+000,-5.874723e-006,1.504602e-005
1.604912e+000,-5.539025e-006,1.495386e-005
1.605706e+000,-8.896010e-006,1.490397e-005
1.606500e+000,-9.567407e-006,1.486535e-005
1.607294e+000,-6.881819e-006,1.482945e-005
1.608088e+000,-6.881819e-006,1.481267e-005
1.608882e+000,-3.189136e-006,1.480496e-005
1.609676e+000,-3.189136e-006,1.478094e-005
1.610471e+000,-8.392462e-006,1.475577e-005
1.611265e+000,-1.057450e-005,1.476131e-005
1.612059e+000,-1.292439e-005,1.477307e-005
1.612853e+000,-1.376364e-005,1.479091e-005
1.613647e+000,-1.426719e-005,1.480838e-005
1.614441e+000,-1.225299e-005,1.482735e-005
1.615235e+000,-1.158160e-005,1.484186e-005
1.616029e+000,-1.292439e-005,1.485066e-005
1.616824e+000,-1.426719e-005,1.486820e-005
1.617618e+000,-1.560998e-005,1.488745e-005
1.618412e+000,-1.594568e-005,1.489564e-005
1.619206e+000,-1.628138e-005,1.491303e-005
1.620000e+000,-1.544213e-005,1.493154e-005
1.620794e+000,-1.963836e-005,1.493475e-005
1.621588e+000,-2.433814e-005,1.496155e-005
1.622382e+000,-1.762417e-005,1.501334e-005
1.623176e+000,-1.292439e-005,1.502470e-005
1.623971e+000,-1.493858e-005,1.502281e-005
1.624765e+000,-1.258869e-005,1.501660e-005
1.625559e+000,-1.158160e-005,1.500529e-005
1.626353e+000,-1.795987e-005,1.498655e-005
1.627147e+000,-2.433814e-005,1.497253e-005
1.627941e+000,-3.340200e-005,1.499859e-005
1.628735e+000,-4.582284e-005,1.509709e-005
1.629529e+000,-4.917983e-005,1.531204e-005
1.630324e+000,-4.716563e-005,1.555543e-005
1.631118e+000,-4.884413e-005,1.573703e-005
1.631912e+000,-4.716563e-005,1.585583e-005
1.632706e+000,-3.776608e-005,1.597770e-005
1.633500e+000,-3.273060e-005,1.607976e-005
1.634294e+000,-3.273060e-005,1.616731e-005
1.635088e+000,-2.970932e-005,1.626288e-005
1.635882e+000,-1.795987e-005,1.634446e-005
1.636676e+000,-1.678492e-007,1.637355e-005
1.637471e+000,2.668803e-005,1.637346e-005
1.638265e+000,5.690089e-005,1.644258e-005
1.639059e+000,8.442817e-005,1.674567e-005
1.639853e+000,1.005417e-004,1.737966e-005
1.640647e+000,1.059129e-004,1.825733e-005
1.641441e+000,9.953460e-005,1.917658e-005
1.642235e+000,8.426032e-005,1.990780e-005
1.643029e+000,6.562905e-005,2.038937e-005
1.643824e+000,4.481575e-005,2.068640e-005
1.644618e+000,2.635233e-005,2.081293e-005
1.645412e+000,4.531929e-006,2.084405e-005
1.646206e+000,-1.846342e-005,2.083957e-005
1.647000e+000,-3.038071e-005,2.086326e-005
1.647794e+000,-3.978027e-005,2.092561e-005
1.648588e+000,-5.018692e-005,2.103775e-005
1.649382e+000,-5.740444e-005,2.122576e-005
1.650176e+000,-6.076142e-005,2.147150e-005
1.650971e+000,-6.193637e-005,2.174357e-005
1.651765e+000,-5.958648e-005,2.202255e-005
1.652559e+000,-5.656519e-005,2.227778e-005
1.653353e+000,-5.488670e-005,2.250365e-005
1.654147e+000,-5.287251e-005,2.271249e-005
1.654941e+000,-4.750134e-005,2.288921e-005
1.655735e+000,-4.582284e-005,2.301323e-005
1.656529e+000,-4.481575e-005,2.311841e-005
1.657324e+000,-3.776608e-005,2.322808e-005
1.658118e+000,-3.407340e-005,2.330362e-005
1.658912e+000,-3.172351e-005,2.335654e-005
1.659706e+000,-3.105211e-005,2.338908e-005
1.660500e+000,-2.735943e-005,2.340438e-005
1.661294e+000,-2.853437e-005,2.340806e-005
1.662088e+000,-2.635233e-005,2.340871e-005
1.662882e+000,-1.628138e-005,2.342306e-005
1.663676e+000,-1.158160e-005,2.341915e-005
1.664471e+000,-1.091020e-005,2.341443e-005
1.665265e+000,-1.292439e-005,2.341443e-005
1.666059e+000,-8.896010e-006,2.341866e-005
1.666853e+000,-6.210422e-006,2.342402e-005
1.667647e+000,-4.867628e-006,2.341805e-005
1.668441e+000,-9.903105e-006,2.338472e-005
1.669235e+000,-5.539025e-006,2.333525e-005
1.670029e+000,-4.867628e-006,2.328869e-005
1.670824e+000,-6.881819e-006,2.322358e-005
1.671618e+000,-5.874723e-006,2.317290e-005
1.672412e+000,-8.896010e-006,2.315310e-005
1.673206e+000,-7.553216e-006,2.315810e-005
1.674000e+000,-4.531929e-006,2.315658e-005
1.674794e+000,-5.539025e-006,2.313938e-005
1.675588e+000,-9.567407e-006,2.310292e-005
1.676382e+000,-7.553216e-006,2.306374e-005
1.677176e+000,-6.881819e-006,2.300102e-005
1.677971e+000,-7.049668e-006,2.296096e-005
1.678765e+000,-6.881819e-006,2.292878e-005
1.679559e+000,-5.874723e-006,2.288859e-005
1.680353e+000,-7.888914e-006,2.284014e-005
1.681147e+000,-7.049668e-006,2.279846e-005
1.681941e+000,-4.196231e-006,2.273450e-005
1.682735e+000,-5.035477e-006,2.264603e-005
1.683529e+000,-3.692683e-006,2.258426e-005
1.684324e+000,-2.853437e-006,2.253867e-005
1.685118e+000,-2.853437e-006,2.247394e-005
1.685912e+000,-6.378271e-006,2.240234e-005
1.686706e+000,-1.124590e-005,2.234797e-005
1.687500e+000,-1.023880e-005,2.231929e-005
1.688294e+000,-1.225299e-005,2.229733e-005
1.689088e+000,-8.560311e-006,2.229485e-005
1.689882e+000,-5.203327e-006,2.229702e-005
1.690676e+000,-5.874723e-006,2.229413e-005
1.691471e+000,-9.231709e-006,2.229533e-005
1.692265e+000,-1.158160e-005,2.229973e-005
1.693059e+000,-8.896010e-006,2.230593e-005
1.693853e+000,-1.023880e-005,2.230675e-005
1.694647e+000,-1.091020e-005,2.231085e-005
1.695441e+000,-9.735256e-006,2.230977e-005
1.696235e+000,-1.426719e-005,2.229914e-005
1.697029e+000,-1.359579e-005,2.229274e-005
1.697824e+000,-1.091020e-005,2.229274e-005
1.698618e+000,-1.628138e-005,2.229559e-005
1.699412e+000,-1.594568e-005,2.231114e-005
1.700206e+000,-2.098116e-005,2.232445e-005
1.701000e+000,-2.030976e-005,2.235511e-005
1.701794e+000,-1.527428e-005,2.238311e-005
1.702588e+000,-1.258869e-005,2.239681e-005
1.703382e+000,-1.158160e-005,2.240202e-005
1.704176e+000,-9.567407e-006,2.240256e-005
1.704971e+000,-1.091020e-005,2.240501e-005
1.705765e+000,-1.091020e-005,2.241116e-005
1.706559e+000,-1.191730e-005,2.241793e-005
1.707353e+000,-1.023880e-005,2.242302e-005
1.708147e+000,-7.721065e-006,2.242566e-005
1.708941e+000,-8.896010e-006,2.241864e-005
1.709735e+000,-6.881819e-006,2.240219e-005
1.710529e+000,-6.881819e-006,2.238860e-005
1.711324e+000,-8.392462e-006,2.237537e-005
1.712118e+000,-9.567407e-006,2.236723e-005
1.712912e+000,-1.309224e-005,2.236811e-005
1.713706e+000,-1.577783e-005,2.237468e-005
1.714500e+000,-1.560998e-005,2.237924e-005
1.715294e+000,-1.493858e-005,2.238530e-005
1.716088e+000,-1.762417e-005,2.238898e-005
1.716882e+000,-1.376364e-005,2.239591e-005
1.717676e+000,-1.124590e-005,2.239984e-005
1.718471e+000,-1.174945e-005,2.240232e-005
1.719265e+000,-1.510643e-005,2.240419e-005
1.720059e+000,-1.493858e-005,2.240594e-005
1.720853e+000,-1.846342e-005,2.240733e-005
1.721647e+000,-2.265965e-005,2.242029e-005
1.722441e+000,-2.182040e-005,2.244930e-005
1.723235e+000,-1.628138e-005,2.246995e-005
1.724029e+000,-1.493858e-005,2.247720e-005
1.724824e+000,-1.225299e-005,2.248896e-005
1.725618e+000,-8.728161e-006,2.249656e-005
1.726412e+000,-6.881819e-006,2.249860e-005
1.727206e+000,-5.539025e-006,2.249755e-005
1.728000e+000,-2.182040e-006,2.249433e-005
1.728794e+000,-5.874723e-006,2.248597e-005
1.729588e+000,-7.217518e-006,2.248193e-005
1.730382e+000,-5.874723e-006,2.248227e-005
1.731176e+000,-5.539025e-006,2.247800e-005
1.731971e+000,-4.196231e-006,2.247577e-005
1.732765e+000,-4.196231e-006,2.247349e-005
1.733559e+000,-7.553216e-006,2.246682e-005
1.734353e+000,-1.091020e-005,2.246022e-005
1.735147e+000,-9.903105e-006,2.246147e-005
1.735941e+000,-8.560311e-006,2.246281e-005
1.736735e+000,-1.091020e-005,2.246032e-005
1.737529e+000,-1.829557e-005,2.246133e-005
1.738324e+000,-1.762417e-005,2.247986e-005
1.739118e+000,-1.560998e-005,2.249968e-005
1.739912e+000,-1.426719e-005,2.250998e-005
1.740706e+000,-1.510643e-005,2.251256e-005
1.741500e+000,-1.225299e-005,2.251689e-005
1.742294e+000,-1.695277e-005,2.251277e-005
1.743088e+000,-1.980621e-005,2.252188e-005
1.743882e+000,-1.930266e-005,2.254314e-005
1.744676e+000,-2.064546e-005,2.255998e-005
1.745471e+000,-2.232395e-005,2.258359e-005
1.746265e+000,-1.896696e-005,2.261202e-005
1.747059e+000,-1.628138e-005,2.262434e-005
1.747853e+000,-1.762417e-005,2.262548e-005
1.748647e+000,-1.628138e-005,2.262334e-005
1.749441e+000,-1.795987e-005,2.261297e-005
1.750235e+000,-1.225299e-005,2.260615e-005
1.751029e+000,-1.057450e-005,2.257024e-005
1.751824e+000,-1.896696e-005,2.252657e-005
1.752618e+000,-1.728847e-005,2.251885e-005
1.753412e+000,-1.359579e-005,2.252937e-005
1.754206e+000,-1.091020e-005,2.253956e-005
1.755000e+000,-8.896010e-006,2.254319e-005
1.755794e+000,-7.553216e-006,2.254037e-005
1.756588e+000,-9.903105e-006,2.252718e-005
1.757382e+000,-7.217518e-006,2.252231e-005
1.758176e+000,-6.210422e-006,2.251906e-005
1.758971e+000,-7.553216e-006,2.251058e-005
1.759765e+000,-9.567407e-006,2.250021e-005
1.760559e+000,-8.224612e-006,2.249927e-005
1.761353e+000,-7.049668e-006,2.250071e-005
1.762147e+000,-6.210422e-006,2.249904e-005
1.762941e+000,-6.881819e-006,2.249658e-005
1.763735e+000,-9.903105e-006,2.249475e-005
1.764529e+000,-1.258869e-005,2.249865e-005
1.765324e+000,-9.903105e-006,2.250714e-005
1.766118e+000,-8.224612e-006,2.250566e-005
1.766912e+000,-4.531929e-006,2.249704e-005
1.767706e+000,1.174945e-006,2.248339e-005
1.768500e+000,-4.531929e-006,2.247007e-005
1.769294e+000,-1.292439e-005,2.245710e-005
1.770088e+000,-1.242084e-005,2.245887e-005
1.770882e+000,-1.292439e-005,2.245857e-005
1.771676e+000,-1.174945e-005,2.245948e-005
1.772471e+000,-1.225299e-005,2.245862e-005
1.773265e+000,-9.567407e-006,2.245483e-005
1.774059e+000,-7.553216e-006,2.243930e-005
1.774853e+000,-9.903105e-006,2.242213e-005
1.775647e+000,-9.063859e-006,2.240948e-005
1.776441e+000,-4.867628e-006,2.239489e-005
1.777235e+000,-6.210422e-006,2.238343e-005
1.778029e+000,-1.225299e-005,2.237429e-005
1.778824e+000,-1.426719e-005,2.237182e-005
1.779618e+000,-1.191730e-005,2.236585e-005
1.780412e+000,-1.426719e-005,2.236849e-005
1.781206e+000,-1.695277e-005,2.237817e-005
1.782000e+000,-1.560998e-005,2.239418e-005
1.782794e+000,-1.628138e-005,2.240405e-005
1.783588e+000,-1.829557e-005,2.241592e-005
1.784382e+000,-1.728847e-005,2.242989e-005
1.785176e+000,-1.527428e-005,2.244316e-005
1.785971e+000,-1.762417e-005,2.245635e-005
1.786765e+000,-1.795987e-005,2.247485e-005
1.787559e+000,-1.728847e-005,2.249209e-005
1.788353e+000,-1.493858e-005,2.250429e-005
1.789147e+000,-1.359579e-005,2.250887e-005
1.789941e+000,-1.426719e-005,2.251245e-005
1.790735e+000,-8.896010e-006,2.252125e-005
1.791529e+000,-1.023880e-005,2.251991e-005
1.792324e+000,-1.242084e-005,2.251991e-005
1.793118e+000,-9.903105e-006,2.252341e-005
1.793912e+000,-1.309224e-005,2.251728e-005
1.794706e+000,-1.628138e-005,2.251878e-005
1.795500e+000,-1.359579e-005,2.253082e-005
1.796294e+000,-1.258869e-005,2.253440e-005
1.797088e+000,-1.292439e-005,2.253470e-005
1.797882e+000,-1.091020e-005,2.253909e-005
1.798676e+000,-9.903105e-006,2.254148e-005
1.799471e+000,-1.493858e-005,2.254194e-005
1.800265e+000,-1.376364e-005,2.254768e-005
1.801059e+000,-1.493858e-005,2.255265e-005
1.801853e+000,-1.292439e-005,2.256437e-005
1.802647e+000,-1.158160e-005,2.256724e-005
1.803441e+000,-1.560998e-005,2.256234e-005
1.804235e+000,-1.527428e-005,2.256616e-005
1.805029e+000,-1.292439e-005,2.256826e-005
1.805824e+000,-1.393149e-005,2.255977e-005
1.806618e+000,-1.560998e-005,2.256287e-005
1.807412e+000,-1.124590e-005,2.257529e-005
1.808206e+000,-3.524834e-006,2.258287e-005
1.809000e+000,-1.510643e-006,2.258183e-005
1.809794e+000,-8.224612e-006,2.257723e-005
1.810588e+000,-1.493858e-005,2.257866e-005
1.811382e+000,-2.568093e-005,2.259439e-005
1.812176e+000,-3.038071e-005,2.264018e-005
1.812971e+000,-3.373770e-005,2.270026e-005
1.813765e+000,-3.239490e-005,2.277665e-005
1.814559e+000,-2.534523e-005,2.284903e-005
1.815353e+000,-1.762417e-005,2.287823e-005
1.816147e+000,-8.896010e-006,2.286086e-005
1.816941e+000,-2.853437e-006,2.282277e-005
1.817735e+000,-5.539025e-006,2.278958e-005
1.818529e+000,-3.692683e-006,2.276477e-005
1.819324e+000,1.393149e-005,2.274398e-005
1.820118e+000,3.239490e-005,2.273582e-005
1.820912e+000,4.213016e-005,2.278751e-005
1.821706e+000,4.666209e-005,2.289277e-005
1.822500e+000,4.649424e-005,2.301520e-005
1.823294e+000,3.608759e-005,2.313000e-005
1.824088e+000,2.450599e-005,2.318424e-005
1.824882e+000,1.560998e-005,2.320874e-005
1.825676e+000,-1.678492e-007,2.321626e-005
1.826471e+000,-2.517739e-005,2.320229e-005
1.827265e+000,-4.582284e-005,2.322527e-005
1.828059e+000,-5.790799e-005,2.334761e-005
1.828853e+000,-5.925078e-005,2.354546e-005
1.829647e+000,-6.361486e-005,2.375586e-005
1.830441e+000,-6.596475e-005,2.401644e-005
1.831235e+000,-6.227207e-005,2.429880e-005
1.832029e+000,-5.857939e-005,2.454685e-005
1.832824e+000,-5.052262e-005,2.476541e-005
1.833618e+000,-3.793393e-005,2.492847e-005
1.834412e+000,-2.803082e-005,2.501910e-005
1.835206e+000,-1.527428e-005,2.506458e-005
1.836000e+000,2.517739e-006,2.507184e-005
1.836794e+000,1.930266e-005,2.506777e-005
1.837588e+000,2.803082e-005,2.508992e-005
1.838382e+000,2.803082e-005,2.513934e-005
1.839176e+000,2.030976e-005,2.518892e-005
1.839971e+000,1.376364e-005,2.521420e-005
1.840765e+000,7.888914e-006,2.522255e-005
1.841559e+000,3.860533e-006,2.522455e-005
1.842353e+000,3.524834e-006,2.521971e-005
1.843147e+000,-3.860533e-006,2.520995e-005
1.843941e+000,-1.326009e-005,2.520313e-005
1.844735e+000,-1.930266e-005,2.520476e-005
1.845529e+000,-1.628138e-005,2.521155e-005
1.846324e+000,-1.158160e-005,2.521290e-005
1.847118e+000,-5.539025e-006,2.519617e-005
1.847912e+000,1.846342e-006,2.516467e-005
1.848706e+000,6.546120e-006,2.514370e-005
1.849500e+000,1.023880e-005,2.512892e-005
1.850294e+000,1.124590e-005,2.511876e-005
1.851088e+000,1.510643e-006,2.510556e-005
1.851882e+000,-8.224612e-006,2.509397e-005
1.852676e+000,-1.728847e-005,2.508925e-005
1.853471e+000,-3.105211e-005,2.510241e-005
1.854265e+000,-3.591974e-005,2.516132e-005
1.855059e+000,-3.877317e-005,2.524090e-005
1.855853e+000,-3.642328e-005,2.533059e-005
1.856647e+000,-3.726253e-005,2.540812e-005
1.857441e+000,-4.414435e-005,2.549203e-005
1.858235e+000,-5.757229e-005,2.561052e-005
1.859029e+000,-7.872129e-005,2.581516e-005
1.859824e+000,-1.038987e-004,2.619400e-005
1.860618e+000,-1.203479e-004,2.683804e-005
1.861412e+000,-1.337758e-004,2.767762e-005
1.862206e+000,-1.404898e-004,2.867947e-005
1.863000e+000,-1.401541e-004,2.974503e-005
1.863794e+000,-1.307546e-004,3.076810e-005
1.864588e+000,-1.055772e-004,3.163299e-005
1.865382e+000,-8.342107e-005,3.218257e-005
1.866176e+000,-5.925078e-005,3.251689e-005
1.866971e+000,-2.970932e-005,3.267844e-005
1.867765e+000,6.881819e-006,3.270956e-005
1.868559e+000,5.253681e-005,3.269949e-005
1.869353e+000,9.785611e-005,3.282076e-005
1.870147e+000,1.413291e-004,3.327070e-005
1.870941e+000,1.790951e-004,3.419535e-005
1.871735e+000,2.046082e-004,3.563124e-005
1.872529e+000,2.287785e-004,3.744226e-005
1.873324e+000,2.492561e-004,3.959896e-005
1.874118e+000,2.596628e-004,4.201462e-005
1.874912e+000,2.425422e-004,4.449104e-005
1.875706e+000,2.049439e-004,4.654430e-005
1.876500e+000,1.529107e-004,4.794902e-005
1.877294e+000,8.979935e-005,4.869996e-005
1.878088e+000,3.407340e-005,4.892662e-005
1.878882e+000,-1.628138e-005,4.889606e-005
1.879676e+000,-4.985122e-005,4.882588e-005
1.880471e+000,-7.301442e-005,4.883438e-005
1.881265e+000,-9.013504e-005,4.893032e-005
1.882059e+000,-1.065843e-004,4.912194e-005
1.882853e+000,-1.188373e-004,4.944292e-005
1.883647e+000,-1.250477e-004,4.986146e-005
1.884441e+000,-1.332723e-004,5.032448e-005
1.885235e+000,-1.317617e-004,5.085575e-005
1.886029e+000,-1.210193e-004,5.138648e-005
1.886824e+000,-1.136339e-004,5.183833e-005
1.887618e+000,-1.055772e-004,5.221176e-005
1.888412e+000,-9.617762e-005,5.245241e-005
1.889206e+000,-9.282063e-005,5.251679e-005
1.890000e+000,-8.274968e-005,5.247150e-005
1.890794e+000,-7.402152e-005,5.233872e-005
1.891588e+000,-6.831464e-005,5.220382e-005
1.892382e+000,-5.925078e-005,5.212956e-005
1.893176e+000,-4.850843e-005,5.210523e-005
1.893971e+000,-4.380865e-005,5.211576e-005
1.894765e+000,-3.776608e-005,5.215317e-005
1.895559e+000,-3.172351e-005,5.219607e-005
1.896353e+000,-2.433814e-005,5.221637e-005
1.897147e+000,-1.762417e-005,5.220628e-005
1.897941e+000,-1.762417e-005,5.216748e-005
1.898735e+000,-1.762417e-005,5.210003e-005
1.899529e+000,-1.393149e-005,5.200873e-005
1.900324e+000,-9.903105e-006,5.190152e-005
1.901118e+000,-1.023880e-005,5.178671e-005
1.901912e+000,-1.225299e-005,5.168065e-005
1.902706e+000,-1.225299e-005,5.158661e-005
1.903500e+000,-1.292439e-005,5.149817e-005
1.904294e+000,-1.292439e-005,5.141683e-005
1.905088e+000,-1.158160e-005,5.135209e-005
1.905882e+000,-8.560311e-006,5.129110e-005
1.906676e+000,-1.678492e-006,5.123099e-005
1.907471e+000,-8.392462e-007,5.118672e-005
1.908265e+000,-2.853437e-006,5.115062e-005
1.909059e+000,1.174945e-006,5.111953e-005
1.909853e+000,3.524834e-006,5.108953e-005
1.910647e+000,6.546120e-006,5.106658e-005
1.911441e+000,3.860533e-006,5.104252e-005
1.912235e+000,3.692683e-006,5.102131e-005
1.913029e+000,3.524834e-006,5.101347e-005
1.913824e+000,2.517739e-006,5.100967e-005
1.914618e+000,3.692683e-006,5.100615e-005
1.915412e+000,1.846342e-006,5.100136e-005
1.916206e+000,1.678492e-007,5.099899e-005
1.917000e+000,-1.678492e-007,5.099779e-005
1.917794e+000,-2.517739e-006,5.099705e-005
1.918588e+000,-3.692683e-006,5.099419e-005
1.919382e+000,-1.846342e-006,5.099365e-005
1.920176e+000,-6.210422e-006,5.099302e-005
1.920971e+000,-7.217518e-006,5.099275e-005
1.921765e+000,-1.057450e-005,5.099329e-005
1.922559e+000,-7.888914e-006,5.099432e-005
1.923353e+000,-6.210422e-006,5.099448e-005
1.924147e+000,-5.874723e-006,5.099504e-005
1.924941e+000,-8.896010e-006,5.099516e-005
1.925735e+000,-7.553216e-006,5.099477e-005
1.926529e+000,-4.867628e-006,5.099477e-005
1.927324e+000,-6.881819e-006,5.099403e-005
1.928118e+000,-8.224612e-006,5.099396e-005
1.928912e+000,-8.392462e-006,5.099459e-005
1.929706e+000,-6.881819e-006,5.099572e-005
1.930500e+000,-6.546120e-006,5.099525e-005
1.931294e+000,-6.210422e-006,5.099504e-005
1.932088e+000,-8.896010e-006,5.099569e-005
1.932882e+000,-8.392462e-006,5.099737e-005
1.933676e+000,-7.553216e-006,5.099914e-005
1.934471e+000,-6.881819e-006,5.100067e-005
1.935265e+000,-1.057450e-005,5.100189e-005
1.936059e+000,-1.158160e-005,5.100412e-005
1.936853e+000,-9.903105e-006,5.100435e-005
1.937647e+000,-1.141375e-005,5.100415e-005
1.938441e+000,-1.493858e-005,5.100352e-005
1.939235e+000,-1.628138e-005,5.100820e-005
1.940029e+000,-1.359579e-005,5.101564e-005
1.940824e+000,-1.225299e-005,5.102033e-005
1.941618e+000,-1.091020e-005,5.102235e-005
1.942412e+000,-6.210422e-006,5.102188e-005
1.943206e+000,-2.349889e-006,5.102062e-005
1.944000e+000,-1.493858e-005,5.101752e-005
1.944794e+000,-1.712062e-005,5.102076e-005
1.945588e+000,-1.896696e-005,5.102696e-005
1.946382e+000,-2.030976e-005,5.103183e-005
1.947176e+000,-1.863127e-005,5.103893e-005
1.947971e+000,-1.795987e-005,5.104605e-005
1.948765e+000,-1.359579e-005,5.104784e-005
1.949559e+000,-9.903105e-006,5.104567e-005
1.950353e+000,-1.225299e-005,5.103500e-005
1.951147e+000,-1.191730e-005,5.102681e-005
1.951941e+000,-1.225299e-005,5.102397e-005
1.952735e+000,-8.392462e-006,5.102371e-005
1.953529e+000,-1.158160e-005,5.102172e-005
1.954324e+000,-1.493858e-005,5.102305e-005
1.955118e+000,-1.107805e-005,5.102629e-005
1.955912e+000,-1.158160e-005,5.102641e-005
1.956706e+000,-9.567407e-006,5.102617e-005
1.957500e+000,-8.224612e-006,5.102575e-005
1.958294e+000,-3.524834e-006,5.102600e-005
1.959088e+000,-7.721065e-006,5.102392e-005
1.959882e+000,-6.881819e-006,5.102430e-005
1.960676e+000,-4.531929e-006,5.102430e-005
1.961471e+000,-1.158160e-005,5.102274e-005
1.962265e+000,-1.057450e-005,5.102407e-005
1.963059e+000,-1.426719e-005,5.102221e-005
1.963853e+000,-1.376364e-005,5.102080e-005
1.964647e+000,-9.567407e-006,5.101911e-005
1.965441e+000,-1.242084e-005,5.101499e-005
1.966235e+000,-1.326009e-005,5.101012e-005
1.967029e+000,-1.023880e-005,5.100969e-005
1.967824e+000,-9.735256e-006,5.100902e-005
1.968618e+000,-1.359579e-005,5.100766e-005
1.969412e+000,-1.628138e-005,5.100631e-005
1.970206e+000,-1.309224e-005,5.100762e-005
1.971000e+000,-1.225299e-005,5.100233e-005
1.971794e+000,-1.560998e-005,5.099098e-005
1.972588e+000,-1.560998e-005,5.098372e-005
1.973382e+000,-1.460288e-005,5.098305e-005
1.974176e+000,-1.191730e-005,5.098274e-005
1.974971e+000,-1.460288e-005,5.098249e-005
1.975765e+000,-1.493858e-005,5.098677e-005
1.976559e+000,-1.359579e-005,5.099226e-005
1.977353e+000,-1.292439e-005,5.099707e-005
1.978147e+000,-1.023880e-005,5.100214e-005
1.978941e+000,-7.217518e-006,5.100434e-005
1.979735e+000,-1.057450e-005,5.100434e-005
1.980529e+000,-1.292439e-005,5.100675e-005
1.981324e+000,-8.896010e-006,5.101101e-005
1.982118e+000,-9.903105e-006,5.101293e-005
1.982912e+000,-1.091020e-005,5.101544e-005
1.983706e+000,-1.292439e-005,5.101737e-005
1.984500e+000,-1.225299e-005,5.101887e-005
1.985294e+000,-1.242084e-005,5.102050e-005
1.986088e+000,-1.174945e-005,5.102303e-005
1.986882e+000,-9.567407e-006,5.102362e-005
1.987676e+000,-1.376364e-005,5.101603e-005
1.988471e+000,-1.493858e-005,5.101225e-005
1.989265e+000,-1.225299e-005,5.101161e-005
1.990059e+000,-6.881819e-006,5.100994e-005
1.990853e+000,-6.881819e-006,5.100430e-005
1.991647e+000,-5.203327e-006,5.100109e-005
1.992441e+000,-6.881819e-006,5.099296e-005
1.993235e+000,-1.158160e-005,5.098218e-005
1.994029e+000,-1.292439e-005,5.097474e-005
1.994824e+000,-1.124590e-005,5.096664e-005
1.995618e+000,-1.326009e-005,5.095502e-005
1.996412e+000,-9.903105e-006,5.094927e-005
1.997206e+000,-1.091020e-005,5.094405e-005
1.998000e+000,-1.359579e-005,5.093807e-005
1.998794e+000,-1.326009e-005,5.093556e-005
1.999588e+000,-1.577783e-005,5.093097e-005
2.000382e+000,-1.426719e-005,5.093406e-005
2.001176e+000,-1.124590e-005,5.093692e-005
2.001971e+000,-9.567407e-006,5.092963e-005
2.002765e+000,-1.124590e-005,5.092315e-005
2.003559e+000,-1.326009e-005,5.092132e-005
2.004353e+000,-1.292439e-005,5.092310e-005
2.005147e+000,-1.091020e-005,5.092585e-005
2.005941e+000,-1.091020e-005,5.092779e-005
2.006735e+000,-7.553216e-006,5.092844e-005
2.007529e+000,-1.124590e-005,5.092860e-005
2.008324e+000,-1.812772e-005,5.093134e-005
2.009118e+000,-1.963836e-005,5.093983e-005
2.009912e+000,-1.628138e-005,5.094902e-005
2.010706e+000,-9.567407e-006,5.095519e-005
2.011500e+000,-7.217518e-006,5.095650e-005
2.012294e+000,-8.224612e-006,5.095693e-005
2.013088e+000,-9.567407e-006,5.095756e-005
2.013882e+000,-1.225299e-005,5.095735e-005
2.014676e+000,-1.661708e-005,5.095709e-005
2.015471e+000,-1.695277e-005,5.096266e-005
2.016265e+000,-1.829557e-005,5.096952e-005
2.017059e+000,-1.292439e-005,5.097934e-005
2.017853e+000,-1.023880e-005,5.098451e-005
2.018647e+000,-1.577783e-005,5.098714e-005
2.019441e+000,-1.829557e-005,5.098970e-005
2.020235e+000,-1.493858e-005,5.099534e-005
2.021029e+000,-1.091020e-005,5.099709e-005
2.021824e+000,-8.224612e-006,5.099650e-005
2.022618e+000,-1.359579e-005,5.099392e-005
2.023412e+000,-1.695277e-005,5.099683e-005
2.024206e+000,-1.560998e-005,5.100402e-005
2.025000e+000,-2.165255e-005,5.100857e-005
2.025794e+000,-2.601663e-005,5.102064e-005
2.026588e+000,-2.903792e-005,5.104102e-005
2.027382e+000,-3.306630e-005,5.106612e-005
2.028176e+000,-3.004501e-005,5.109552e-005
2.028971e+000,-3.105211e-005,5.111731e-005
2.029765e+000,-4.011597e-005,5.114291e-005
2.030559e+000,-3.810178e-005,5.118666e-005
2.031353e+000,-3.105211e-005,5.122287e-005
2.032147e+000,-2.232395e-005,5.124526e-005
2.032941e+000,-5.035477e-006,5.125251e-005
2.033735e+000,1.460288e-005,5.124290e-005
2.034529e+000,2.668803e-005,5.124024e-005
2.035324e+000,3.340200e-005,5.125512e-005
2.036118e+000,3.105211e-005,5.128012e-005
2.036912e+000,3.205920e-005,5.130005e-005
2.037706e+000,3.004501e-005,5.132267e-005
2.038500e+000,2.232395e-005,5.134374e-005
2.039294e+000,2.131685e-005,5.135347e-005
2.040088e+000,6.546120e-006,5.136124e-005
2.040882e+000,-1.930266e-005,5.136012e-005
2.041676e+000,-4.347295e-005,5.136842e-005
2.042471e+000,-5.522240e-005,5.142219e-005
2.043265e+000,-5.992218e-005,5.151351e-005
2.044059e+000,-6.126497e-005,5.161909e-005
2.044853e+000,-5.723659e-005,5.172659e-005
2.045647e+000,-5.287251e-005,5.182166e-005
2.046441e+000,-3.910887e-005,5.190263e-005
2.047235e+000,-1.863127e-005,5.194441e-005
2.048029e+000,-1.846342e-006,5.195140e-005
2.048824e+000,1.326009e-005,5.194850e-005
2.049618e+000,2.803082e-005,5.194705e-005
2.050412e+000,4.414435e-005,5.196533e-005
2.051206e+000,5.622950e-005,5.201817e-005
2.052000e+000,5.958648e-005,5.210977e-005
2.052794e+000,5.857939e-005,5.221406e-005
2.053588e+000,5.152972e-005,5.231119e-005
2.054382e+000,4.414435e-005,5.238486e-005
2.055176e+000,3.273060e-005,5.243899e-005
2.055971e+000,1.577783e-005,5.246562e-005
2.056765e+000,-3.860533e-006,5.246578e-005
2.057559e+000,-2.165255e-005,5.246240e-005
2.058353e+000,-3.575189e-005,5.247625e-005
2.059147e+000,-3.994812e-005,5.251495e-005
2.059941e+000,-4.414435e-005,5.256127e-005
2.060735e+000,-4.515145e-005,5.261352e-005
2.061529e+000,-3.978027e-005,5.265524e-005
2.062324e+000,-3.843748e-005,5.267518e-005
2.063118e+000,-3.440909e-005,5.268544e-005
2.063912e+000,-3.306630e-005,5.268950e-005
2.064706e+000,-3.323415e-005,5.270313e-005
2.065500e+000,-3.457694e-005,5.272713e-005
2.066294e+000,-3.289845e-005,5.276083e-005
2.067088e+000,-2.903792e-005,5.279324e-005
2.067882e+000,-3.105211e-005,5.281774e-005
2.068676e+000,-3.105211e-005,5.284639e-005
2.069471e+000,-3.407340e-005,5.286959e-005
2.070265e+000,-3.776608e-005,5.287295e-005
2.071059e+000,-3.575189e-005,5.286245e-005
2.071853e+000,-2.970932e-005,5.283536e-005
2.072647e+000,-2.232395e-005,5.279680e-005
2.073441e+000,-2.030976e-005,5.277254e-005
2.074235e+000,-1.896696e-005,5.276687e-005
2.075029e+000,-1.829557e-005,5.277037e-005
2.075824e+000,-1.896696e-005,5.278047e-005
2.076618e+000,-2.030976e-005,5.277220e-005
2.077412e+000,-1.695277e-005,5.272127e-005
2.078206e+000,-1.426719e-005,5.262858e-005
2.079000e+000,-1.225299e-005,5.252842e-005
2.079794e+000,-7.553216e-006,5.241016e-005
2.080588e+000,-9.567407e-006,5.227953e-005
2.081382e+000,-1.158160e-005,5.216408e-005
2.082176e+000,-1.023880e-005,5.206333e-005
2.082971e+000,-9.567407e-006,5.198841e-005
2.083765e+000,-8.560311e-006,5.194712e-005
2.084559e+000,-5.874723e-006,5.192528e-005
2.085353e+000,-7.217518e-006,5.191918e-005
2.086147e+000,-4.867628e-006,5.192058e-005
2.086941e+000,-2.349889e-006,5.190988e-005
2.087735e+000,-6.881819e-006,5.188594e-005
2.088529e+000,-1.174945e-005,5.186328e-005
2.089324e+000,-1.426719e-005,5.185485e-005
2.090118e+000,-2.030976e-005,5.185528e-005
2.090912e+000,-2.500954e-005,5.186603e-005
2.091706e+000,-3.508049e-005,5.188478e-005
2.092500e+000,-4.246586e-005,5.192215e-005
2.093294e+000,-4.649424e-005,5.197697e-005
2.094088e+000,-4.213016e-005,5.203778e-005
2.094882e+000,-3.810178e-005,5.208067e-005
2.095676e+000,-3.373770e-005,5.211694e-005
2.096471e+000,-3.323415e-005,5.214761e-005
2.097265e+000,-2.450599e-005,5.218039e-005
2.098059e+000,-1.326009e-005,5.219861e-005
2.098853e+000,-8.224612e-006,5.220266e-005
2.099647e+000,-8.392462e-007,5.220153e-005
2.100441e+000,1.309224e-005,5.219769e-005
2.101235e+000,2.937362e-005,5.220285e-005
2.102029e+000,5.052262e-005,5.222710e-005
2.102824e+000,6.361486e-005,5.229577e-005
2.103618e+000,6.898604e-005,5.238955e-005
2.104412e+000,7.083238e-005,5.249488e-005
2.105206e+000,6.193637e-005,5.260136e-005
2.106000e+000,5.253681e-005,5.267727e-005
2.106794e+000,3.608759e-005,5.271871e-005
2.107588e+000,1.460288e-005,5.269919e-005
2.108382e+000,3.860533e-006,5.260540e-005
2.109176e+000,-1.023880e-005,5.241793e-005
2.109971e+000,-2.114900e-005,5.209217e-005
2.110765e+000,-2.836652e-005,5.166133e-005
2.111559e+000,-3.273060e-005,5.113181e-005
2.112353e+000,-3.793393e-005,5.054716e-005
2.113147e+000,-4.716563e-005,4.997040e-005
2.113941e+000,-5.857939e-005,4.949421e-005
2.114735e+000,-7.335011e-005,4.924537e-005
2.115529e+000,-8.409247e-005,4.919429e-005
2.116324e+000,-8.039978e-005,4.930942e-005
2.117118e+000,-7.200732e-005,4.948934e-005
2.117912e+000,-7.301442e-005,4.965437e-005
2.118706e+000,-6.462196e-005,4.973675e-005
2.119500e+000,-4.649424e-005,4.956357e-005
2.120294e+000,-3.944457e-005,4.898796e-005
2.121088e+000,-3.709468e-005,4.798568e-005
2.121882e+000,-3.306630e-005,4.662276e-005
2.122676e+000,-2.299535e-005,4.483834e-005
2.123471e+000,-1.292439e-005,4.259459e-005
2.124265e+000,-1.846342e-006,4.000128e-005
2.125059e+000,1.359579e-005,3.758680e-005
2.125853e+000,2.131685e-005,3.577138e-005
2.126647e+000,3.038071e-005,3.473579e-005
2.127441e+000,4.347295e-005,3.440688e-005
2.128235e+000,6.361486e-005,3.444059e-005
2.129029e+000,8.140688e-005,3.461500e-005
2.129824e+000,9.114214e-005,3.480502e-005
2.130618e+000,9.181353e-005,3.494089e-005
2.131412e+000,8.644236e-005,3.495481e-005
2.132206e+000,7.267872e-005,3.477724e-005
2.133000e+000,5.018692e-005,3.437010e-005
2.133794e+000,3.205920e-005,3.375686e-005
2.134588e+000,1.191730e-005,3.295806e-005
2.135382e+000,-7.049668e-006,3.211535e-005
2.136176e+000,-2.299535e-005,3.138331e-005
2.136971e+000,-3.675899e-005,3.074854e-005
2.137765e+000,-4.716563e-005,3.023702e-005
2.138559e+000,-5.320821e-005,2.986475e-005
2.139353e+000,-5.891508e-005,2.955471e-005
2.140147e+000,-6.193637e-005,2.937223e-005
2.140941e+000,-6.193637e-005,2.928302e-005
2.141735e+000,-5.757229e-005,2.923781e-005
2.142529e+000,-5.622950e-005,2.922713e-005
2.143324e+000,-5.622950e-005,2.927115e-005
2.144118e+000,-5.757229e-005,2.933867e-005
2.144912e+000,-5.287251e-005,2.944098e-005
2.145706e+000,-5.589380e-005,2.953759e-005
2.146500e+000,-5.807584e-005,2.967376e-005
2.147294e+000,-5.220111e-005,2.983763e-005
2.148088e+000,-4.716563e-005,2.996620e-005
2.148882e+000,-4.649424e-005,3.006773e-005
2.149676e+000,-4.179446e-005,3.017176e-005
2.150471e+000,-3.642328e-005,3.025865e-005
2.151265e+000,-3.306630e-005,3.032288e-005
2.152059e+000,-3.205920e-005,3.037237e-005
2.152853e+000,-3.407340e-005,3.041835e-005
2.153647e+000,-3.105211e-005,3.047034e-005
2.154441e+000,-2.568093e-005,3.051197e-005
2.155235e+000,-2.064546e-005,3.053937e-005
2.156029e+000,-1.158160e-005,3.055777e-005
2.156824e+000,2.517739e-006,3.056462e-005
2.157618e+000,8.224612e-006,3.056491e-005
2.158412e+000,1.560998e-005,3.056801e-005
2.159206e+000,2.165255e-005,3.058063e-005
2.160000e+000,2.433814e-005,3.060438e-005
2.160794e+000,2.265965e-005,3.063296e-005
2.161588e+000,1.728847e-005,3.065887e-005
2.162382e+000,1.963836e-005,3.067368e-005
2.163176e+000,2.131685e-005,3.069305e-005
2.163971e+000,2.098116e-005,3.071628e-005
2.164765e+000,1.930266e-005,3.073839e-005
2.165559e+000,1.896696e-005,3.075751e-005
2.166353e+000,1.795987e-005,3.077613e-005
2.167147e+000,1.560998e-005,3.079281e-005
2.167941e+000,9.903105e-006,3.080508e-005
2.168735e+000,1.510643e-006,3.080945e-005
2.169529e+000,-4.867628e-006,3.080939e-005
