X [s],R BICEPS BRACHII: EMG 1 [V],X [s].1,R DELTOID ANTERIOR: EMG 2 [V],X [s].5,R DELTOID MEDIUS: EMG 6 [V],X [s].6,R DELTOID POSTERIOR: EMG 7 [V]
0.0,-4.53193e-06,0.0,-1.42672e-05,0.0,2.53452e-05,0.0,0.000262684
0.000794117179931,1.6291255230369342e-06,0.000794117179931,-2.248192599917912e-05,0.000794117179931,1.0752231746034727e-05,0.000794117179931,9.855718842785612e-05
0.0015882343598621,3.663059162239476e-06,0.0015882343598621,-2.8445491904209856e-05,0.0015882343598621,-3.821032246716841e-06,0.0015882343598621,-3.310577533417095e-05
0.0023823515397932,6.032664972667546e-06,0.0023823515397932,-2.931435607184261e-05,0.0023823515397932,-1.8729935845172596e-05,0.0023823515397932,-9.558490402116516e-05
0.0031764687197242,1.3190980820707646e-05,0.0031764687197242,-2.927487114873401e-05,0.0031764687197242,-3.061765821822637e-05,0.0031764687197242,-0.0001454069565824
0.0039705858996553,1.713051929995339e-05,0.0039705858996553,-3.192095389915299e-05,0.0039705858996553,-2.6470875401025424e-05,0.0039705858996553,-0.0001851179920971
0.0047647030795864,1.8976830428264168e-05,0.0047647030795864,-3.296754985125792e-05,0.0047647030795864,-1.290466502557932e-05,0.0047647030795864,-0.0002120531536386
0.0055588202595174,2.06455e-05,0.0055588202595174,-3.454732290168142e-05,0.0055588202595174,-9.883349050561582e-06,0.0055588202595174,-0.000228887107649
0.0063529374394485,1.616290748560824e-05,0.0063529374394485,-3.484354368339917e-05,0.0063529374394485,-1.3773516542705324e-05,0.0063529374394485,-0.0002578462392206
0.0071470546193796,1.069306506762436e-05,0.0071470546193796,-3.3559981146213654e-05,0.0071470546193796,-2.015174095161432e-05,0.0071470546193796,-0.0002834973098161
0.0079411717993107,3.5840786266125428e-06,0.0079411717993107,-3.456706707459704e-05,0.0079411717993107,-2.6135111321371358e-05,0.0079411717993107,-0.0002991364581119
0.0087352889792417,8.195189708411566e-07,0.0087352889792417,-3.326378337348924e-05,0.0087352889792417,-3.251334750670273e-05,0.0087352889792417,-0.0002989588882423
0.0095294061591728,-2.5572141841711558e-06,0.0095294061591728,-2.8327011654168768e-05,0.0095294061591728,-2.7616161494043813e-05,0.0095294061591728,-0.0002776917338909
0.0103235233391039,-9.21177301412599e-06,0.0103235233391039,-2.70237e-05,0.0103235233391039,-2.3153036990592044e-05,0.0103235233391039,-0.0002325519746431
0.0111176405190349,-1.5511306153900104e-05,0.0111176405190349,-2.572034385580528e-05,0.0111176405190349,-3.413273160850932e-05,0.0111176405190349,-0.000158340567521
0.011911757698966,-1.93027e-05,0.011911757698966,-1.9282958692379425e-05,0.011911757698966,-3.2078404941044184e-05,0.011911757698966,-5.225497996387365e-05
0.0127058748788971,-1.6320973919361336e-05,0.0127058748788971,-1.4662115074851669e-05,0.0127058748788971,-1.166166401968744e-05,0.0127058748788971,8.213286565783866e-05
0.0134999920588282,-1.7959859912009426e-05,0.0134999920588282,-1.6617076893820806e-05,0.0134999920588282,-1.6788336098124397e-07,0.0134999920588282,0.0001277329255525
0.0142941092387592,-1.946060073628908e-05,0.0142941092387592,-1.7308228582520653e-05,0.0142941092387592,-4.245590073628907e-06,0.0142941092387592,0.000106604070438
0.0150882264186903,-1.2332497687869649e-05,0.0150882264186903,-1.727862830181412e-05,0.0150882264186903,7.74950297279639e-06,0.0150882264186903,0.000125599771483
0.0158823435986214,-5.677326696347897e-06,0.0158823435986214,-1.7614262261357502e-05,0.0158823435986214,2.3222412463815e-05,0.0158823435986214,0.0001301025807649
0.0166764607785524,-3.090380333335144e-06,0.0166764607785524,-2.0546669249003383e-05,0.0166764607785524,1.896688627058364e-05,0.0166764607785524,0.0001483692895106
0.0174705779584835,-5.617919734802083e-06,0.0174705779584835,-2.341006911270155e-05,0.0174705779584835,8.323550000828696e-06,0.0174705779584835,8.873491718252991e-05
0.0182646951384146,-7.3458882406382494e-06,0.0182646951384146,-2.117881744274593e-05,0.0182646951384146,7.493677520272191e-06,0.0182646951384146,3.0953068704295725e-05
0.0190588123183456,-1.0061043061592865e-05,0.0190588123183456,-1.8967e-05,0.0190588123183456,1.2470194589928886e-05,0.0190588123183456,6.02872026515925e-05
0.0198529294982767,-1.35958e-05,0.0198529294982767,-2.121809641316358e-05,0.0198529294982767,9.310490336062e-06,0.0198529294982767,7.508723596725631e-05
0.0206470466782078,-7.296967146357806e-06,0.0206470466782078,-1.993454699731325e-05,0.0206470466782078,6.368159933806727e-06,0.0206470466782078,9.483691053600686e-06
0.0214411638581389,-2.8731737211111296e-06,0.0214411638581389,-1.7722908122452295e-05,0.0214411638581389,1.1907269768889036e-05,0.0214411638581389,-5.322770698000033e-05
0.0222352810380699,-4.216009555553131e-06,0.0222352810380699,-1.9065747106934448e-05,0.0222352810380699,1.4563397886771104e-05,0.0222352810380699,-5.275383678298136e-05
0.023029398218001,-7.000270017037329e-06,0.023029398218001,-1.90461461307497e-05,0.023029398218001,5.993364254322206e-06,0.023029398218001,-4.412459483192462e-05
0.0238235153979321,-9.843883420124956e-06,0.0238235153979321,-1.5294060146817587e-05,0.0238235153979321,-2.5381234268811544e-06,0.0238235153979321,-3.295918859890522e-05
0.0246176325778631,-8.975002153002482e-06,0.0246176325778631,-1.1996294375440048e-05,0.0246176325778631,1.7347664393035923e-05,0.0246176325778631,2.300415796027134e-06
0.0254117497577942,-7.296447373626164e-06,0.0254117497577942,-1.55901501975764e-05,0.0254117497577942,2.4160262981419555e-05,0.0254117497577942,1.3892195030967408e-05
0.0262058669377253,-4.670224066619148e-06,0.0262058669377253,-1.874975154048136e-05,0.0262058669377253,1.47417436328819e-05,0.0262058669377253,1.578843473281062e-05
0.0269999841176564,-5.8746627317832245e-06,0.0269999841176564,-2.0309779461853828e-05,0.0269999841176564,5.203501804650328e-06,0.0269999841176564,-6.881224409726677e-06
0.0277941012975874,-5.025556429672199e-06,0.0277941012975874,-1.6281498627891227e-05,0.0277941012975874,4.413525947986965e-06,0.0277941012975874,-2.619456017845916e-05
0.0285882184775185,-3.248458937441091e-06,0.0285882184775185,-1.5827056205571497e-05,0.0285882184775185,1.235140071584058e-05,0.0285882184775185,-2.560278937441091e-05
0.0293823356574496,-5.064994669543715e-06,0.0293823356574496,-2.088228405863023e-05,0.0293823356574496,7.820461053274062e-06,0.0293823356574496,-6.211845085311283e-06
0.0301764528373806,-7.928405508088292e-06,0.0301764528373806,-2.19291614217966e-05,0.0301764528373806,-1.146312201116975e-05,0.0301764528373806,3.908908142368153e-05
0.0309705700173117,-7.84949068181691e-06,0.0309705700173117,-1.7229170495969872e-05,0.0309705700173117,-2.288663691767468e-05,0.0309705700173117,5.86785523293013e-05
0.0317646871972428,-6.368335583735408e-06,0.0317646871972428,-1.938126529933279e-05,0.0317646871972428,-2.3706461185401493e-05,0.0317646871972428,2.015440974005876e-05
0.0325588043771738,-9.093414188780135e-06,0.0325588043771738,-2.4140642678803068e-05,0.0325588043771738,-1.8177222913877497e-05,0.0325588043771738,-1.9558887784693963e-05
0.0333529215571049,-8.698494195745326e-06,0.0333529215571049,-2.034951730785612e-05,0.0333529215571049,-1.075211696028828e-05,0.0333529215571049,-2.3962781538299645e-05
0.034147038737036,-7.790101301092636e-06,0.034147038737036,-1.80388860092007e-05,0.034147038737036,-6.882156531856653e-06,0.034147038737036,-1.0990073933982427e-05
0.0349411559169671,-9.488498022978667e-06,0.0349411559169671,-2.1020212428679355e-05,0.0349411559169671,-5.235995023164057e-07,0.0349411559169671,-1.1264649824603425e-05
0.0357352730968981,-6.299265843212881e-06,0.0357352730968981,-2.4891013284394133e-05,0.0357352730968981,8.125904739720927e-06,0.0357352730968981,-4.4894832977044695e-05
0.0365293902768292,-6.644777121382129e-06,0.0365293902768292,-2.50095e-05,0.0365293902768292,1.0564689091343996e-05,0.0365293902768292,-7.303378700560683e-05
0.0373235074567603,-9.054072148865063e-06,0.0373235074567603,-2.441710141281033e-05,0.0373235074567603,2.476063952061276e-07,0.0373235074567603,-9.084466274551764e-05
0.0381176246366913,-5.855042073457236e-06,0.0381176246366913,-2.544391059945772e-05,0.0381176246366913,-1.2252871696329425e-05,0.0381176246366913,-0.0001260738864788
0.0389117418166224,-1.273575084543691e-06,0.0389117418166224,-2.8287467779970407e-05,0.0389117418166224,-1.8996725288017893e-05,0.0389117418166224,-0.0001744359890807
0.0397058589965535,3.0615440234360734e-07,0.0397058589965535,-2.670776965090305e-05,0.0397058589965535,-2.0902630361819072e-05,0.0397058589965535,-0.0002106674399897
0.0404999761764846,8.39194458553716e-07,0.0404999761764846,-2.836640757834221e-05,0.0404999761764846,-1.5610137444539136e-05,0.0404999761764846,-0.0002697318867953
0.0412940933564156,8.283905069530601e-06,0.0412940933564156,-3.184193761689346e-05,0.0412940933564156,-1.861157879321414e-05,0.0412940933564156,-0.0003430740052953
0.0420882105363467,1.4483793863956656e-05,0.0420882105363467,-3.2000018256635595e-05,0.0420882105363467,-1.4505357550623746e-05,0.0420882105363467,-0.0003050232977177
0.0428823277162778,1.823662557777741e-05,0.0428823277162778,-3.026232850487609e-05,0.0428823277162778,5.142991604084718e-06,0.0428823277162778,-0.0001295169911248
0.0436764448962088,1.140395769451668e-05,0.0436764448962088,-2.7379340806512768e-05,0.0436764448962088,2.558200830339418e-05,0.0436764448962088,-2.1436057201098685e-05
0.0444705620761399,4.650724818039223e-06,0.0444705620761399,-2.240288206603511e-05,0.0444705620761399,4.260336031262465e-05,0.0444705620761399,7.11823577859543e-05
0.045264679256071,-4.116665984599325e-06,0.045264679256071,-1.4129403498488404e-05,0.045264679256071,5.271491507669359e-05,0.045264679256071,0.0002391541401536
0.046058796436002,-1.3595540547059051e-05,0.046058796436002,-6.0129310447615165e-06,0.046058796436002,4.322648769743263e-05,0.046058796436002,0.0003838289665634
0.0468529136159331,-2.4022260431366425e-05,0.0468529136159331,-1.668550403962872e-06,0.0468529136159331,4.1241606535330845e-05,0.0468529136159331,0.0004690312394419
0.0476470307958642,-2.587855324879377e-05,0.0476470307958642,-5.904303121865633e-06,0.0476470307958642,4.400706483668201e-05,0.0476470307958642,0.0005247605174258
0.0484411479757953,-2.107036872002185e-05,0.0484411479757953,-1.4622031427683516e-05,0.0484411479757953,1.4644457680806622e-05,0.0484411479757953,0.0003632272985275
0.0492352651557263,-1.4168497994239156e-05,0.0492352651557263,-2.1336566584265772e-05,0.0492352651557263,-2.8524241432414927e-05,0.0492352651557263,0.0001416564419412
0.0500293823356574,-1.1087940506700591e-05,0.0500293823356574,-2.260039738843737e-05,0.0500293823356574,-4.910067594639526e-05,0.0500293823356574,4.090781187140015e-05
0.0508234995155885,-1.09102e-05,0.0508234995155885,-2.3232241281744768e-05,0.0508234995155885,-3.8103548600351566e-05,0.0508234995155885,-2.556237702537456e-06
0.0516176166955195,-1.1502584939574336e-05,0.0516176166955195,-2.2738563574153248e-05,0.0516176166955195,-7.415736392606916e-06,0.0516176166955195,-2.923453736529288e-05
0.0524117338754506,-1.3023109611816584e-05,0.0524117338754506,-2.554255767319243e-05,0.0524117338754506,2.0882719248424166e-05,0.0524117338754506,-7.267912169289048e-05
0.0532058510553817,-1.3891874538936507e-05,0.0532058510553817,-2.7774103547465035e-05,0.0532058510553817,3.660009071542762e-05,0.0532058510553817,-7.469441795744254e-05
0.0539999682353128,-1.5274254185153628e-05,0.0539999682353128,-2.7023751348424438e-05,0.0539999682353128,4.867580749381339e-05,0.0539999682353128,-5.421614757465788e-05
0.0547940854152438,-1.5373037327825204e-05,0.0547940854152438,-2.666830221876615e-05,0.0547940854152438,5.553833870522358e-05,0.0547940854152438,-2.3943359568442465e-05
0.0555882025951749,-1.541247613576848e-05,0.0555882025951749,-2.185024520723885e-05,0.0555882025951749,5.224187274155644e-05,0.0555882025951749,-6.1798422117125805e-06
0.056382319775106,-1.643924686146586e-05,0.056382319775106,-2.0428150960932717e-05,0.056382319775106,2.6868348370074783e-05,0.056382319775106,-3.296598731774669e-05
0.057176436955037,-1.76242e-05,0.057176436955037,-1.857235235350637e-05,0.057176436955037,-1.9509032780390936e-05,0.057176436955037,-4.774812976769317e-05
0.0579705541349681,-1.561e-05,0.0579705541349681,-1.7564965770376133e-05,0.0579705541349681,-4.816219372521285e-05,0.0579705541349681,-6.064108179298005e-05
0.0587646713148992,-1.7051660985531666e-05,0.0587646713148992,-2.0586292583952877e-05,0.0587646713148992,-4.799597281179701e-05,0.0587646713148992,-0.000110274209893
0.0595587884948302,-1.3753944657967246e-05,0.0595587884948302,-1.888803357802932e-05,0.0595587884948302,-3.6275525480426304e-05,0.0595587884948302,-0.0001267852983581
0.0603529056747613,-9.72538398911927e-06,0.0603529056747613,-1.9105000404669368e-05,0.0603529056747613,-3.6818239978816575e-05,0.0603529056747613,-9.222829766681944e-05
0.0611470228546924,-8.89601e-06,0.0611470228546924,-2.192894214043872e-05,0.0611470228546924,-3.613742351041963e-05,0.0611470228546924,-9.956951744606432e-05
0.0619411400346235,-6.8820799927044095e-06,0.0619411400346235,-2.212654396139685e-05,0.0619411400346235,-2.860414198129972e-05,0.0619411400346235,-0.0001552199058043
0.0627352572145545,-8.90190180471489e-08,0.0627352572145545,-2.1929046373123972e-05,0.0627352572145545,-1.3951536395748567e-05,0.0627352572145545,-0.0001442817320192
0.0635293743944856,6.111650651510419e-06,0.0635293743944856,-2.3331e-05,0.0635293743944856,3.8479580167121497e-07,0.0635293743944856,-6.580949493122718e-05
0.0643234915744167,6.624826379819757e-06,0.0643234915744167,-2.3331e-05,0.0643234915744167,-3.0794725918487034e-06,0.0643234915744167,-3.614612094000096e-05
0.0651176087543477,9.745048148766182e-06,0.0651176087543477,-2.1958700152471735e-05,0.0651176087543477,-1.4701363657708403e-05,0.0651176087543477,-3.2237497712059056e-05
0.0659117259342788,9.034237677470656e-06,0.0659117259342788,-1.905595451401841e-05,0.0659117259342788,-2.4584358009666182e-06,0.0659117259342788,1.7476822518048445e-06
0.0667058431142099,6.507317813382567e-06,0.0667058431142099,-2.1928882392317015e-05,0.0667058431142099,1.1067928930615192e-05,0.0667058431142099,2.1626418489000924e-06
0.067499960294141,-3.5242573169792197e-06,0.067499960294141,-2.1652702683083367e-05,0.067499960294141,1.0574643171394924e-05,0.067499960294141,1.930109648447112e-05
0.068294077474072,-1.1265572394597593e-05,0.068294077474072,-1.8729967101757542e-05,0.068294077474072,7.948189277316374e-06,0.068294077474072,4.3749427781275976e-05
0.0690881946540031,-1.408959455716556e-05,0.0690881946540031,-2.1731462041467663e-05,0.0690881946540031,1.045578163565072e-05,0.0690881946540031,5.900211494364569e-06
0.0698823118339342,-1.1305409255760113e-05,0.0698823118339342,-2.2600434786629243e-05,0.0698823118339342,1.1483285301717443e-05,0.0698823118339342,-2.617475392837589e-05
0.0706764290138652,-6.743744121802299e-06,0.0706764290138652,-2.03098e-05,0.0706764290138652,3.939790398656315e-06,0.0706764290138652,-2.8573619995566184e-05
0.0714705461937963,-3.169457340951603e-06,0.0714705461937963,-2.1178653137576527e-05,0.0714705461937963,7.591982618170827e-06,0.0714705461937963,-5.86369359429909e-05
0.0722646633737274,-4.511992445201233e-06,0.0722646633737274,-2.457490912604232e-05,0.0722646633737274,1.4978475109597536e-05,0.0722646633737274,-5.721747205309599e-05
0.0730587805536585,-4.907177618203409e-06,0.0730587805536585,-2.5206988128416187e-05,0.0730587805536585,6.289968813071506e-06,0.0730587805536585,-7.473063448960895e-05
0.0738528977335895,-8.787752003942127e-07,0.0738528977335895,-2.4752744932908357e-05,0.0738528977335895,1.806813446647105e-06,0.0738528977335895,-0.0001015882117439
0.0746470149135206,1.4313700538236308e-06,0.0746470149135206,-2.526619858718967e-05,0.0746470149135206,1.2252028979529314e-05,0.0746470149135206,-4.300899040568345e-05
0.0754411320934517,2.87376815530423e-06,0.0754411320934517,-2.1949403217267022e-05,0.0754411320934517,1.6636810813687937e-05,0.0754411320934517,6.786382149169453e-05
0.0762352492733827,-7.829337712487562e-06,0.0762352492733827,-1.724909380706281e-05,0.0762352492733827,2.028985311271703e-05,0.0762352492733827,0.0001483179107356
0.0770293664533138,-1.6518080420478084e-05,0.0770293664533138,-1.671593952859223e-05,0.0770293664533138,2.544421957952192e-05,0.0770293664533138,0.0001662193520683
0.0778234836332449,-1.588728214340342e-05,0.0778234836332449,-1.62814e-05,0.0778234836332449,2.935212481613989e-06,0.0778234836332449,0.0001700153387145
0.078617600813176,-3.801890905340912e-06,0.078617600813176,-1.825597647002172e-05,0.078617600813176,-2.7851919527665235e-05,0.078617600813176,9.243013661039676e-05
0.079411717993107,2.0438065956735552e-06,0.079411717993107,-2.090210616553192e-05,0.079411717993107,-2.8188868299508224e-05,0.079411717993107,2.202259781159305e-06
0.0802058351730381,6.617200865177728e-07,0.0802058351730381,-2.09812e-05,0.0802058351730381,-1.3833761872720798e-05,0.0802058351730381,-5.691553605727496e-05
0.0809999523529692,-2.853165111842938e-06,0.0809999523529692,-2.04776462154174e-05,0.0809999523529692,-4.196779776109408e-06,0.0809999523529692,-7.670730616680871e-05
0.0817940695329002,-4.53193e-06,0.0817940695329002,-1.9322377247042645e-05,0.0817940695329002,3.5444451262102987e-06,0.0817940695329002,2.1827922062625827e-05
0.0825881867128313,-4.19623e-06,0.0825881867128313,-2.109946519320804e-05,0.0825881867128313,7.572639294565597e-06,0.0825881867128313,2.3082963137935224e-05
0.0833823038927624,-5.795820651854449e-06,0.0833823038927624,-2.37850098925503e-05,0.0833823038927624,5.658118687160221e-06,0.0833823038927624,-4.874361046619471e-05
0.0841764210726934,-4.926894158747154e-06,0.0841764210726934,-2.3923491008847463e-05,0.0841764210726934,-4.243993603166088e-07,0.0841764210726934,-5.534131901619592e-05
0.0849705382526245,-8.48095866814764e-06,0.0849705382526245,-2.441704074928797e-05,0.0849705382526245,-7.355184920360549e-06,0.0849705382526245,-7.782876943457447e-05
0.0857646554325556,-1.0436593044684818e-05,0.0857646554325556,-2.44666188025624e-05,0.0857646554325556,-1.194674896787097e-05,0.0857646554325556,-0.0001406626477375
0.0865587726124866,-7.632337554627275e-06,0.0865587726124866,-2.3617340108581022e-05,0.0865587726124866,-1.0377256751702524e-05,0.0865587726124866,-0.0001842170554409
0.0873528897924177,-5.776014382961635e-06,0.0873528897924177,-2.6983818386974463e-05,0.0873528897924177,-4.27536041679946e-06,0.0873528897924177,-0.0002115783486026
0.0881470069723488,-5.53903e-06,0.0881470069723488,-2.90379e-05,0.0881470069723488,1.3324817286074469e-06,0.0881470069723488,-0.0002329255253334
0.0889411241522799,-5.420084781183599e-06,0.0889411241522799,-2.599722285161298e-05,0.0889411241522799,4.808514739503558e-06,0.0889411241522799,-0.0002021064557564
0.0897352413322109,-1.0692837018580549e-05,0.0897352413322109,-2.171199818460321e-05,0.0897352413322109,3.86053e-06,0.0897352413322109,-0.0001150194178955
0.090529358512142,-9.804608489910956e-06,0.090529358512142,-1.82956e-05,0.090529358512142,1.7109534026120466e-05,0.090529358512142,1.0930381088182013e-05
0.0913234756920731,-5.6971526343073656e-06,0.0913234756920731,-1.7110884978205332e-05,0.0913234756920731,2.737971319416021e-05,0.0913234756920731,0.0001644529052176
0.0921175928720041,-3.97910413234067e-06,0.0921175928720041,-1.6123335061569654e-05,0.0921175928720041,2.0487909466323783e-05,0.0921175928720041,0.0002376229526683
0.0929117100519352,-4.11721260645327e-06,0.0929117100519352,-1.835462068352861e-05,0.0929117100519352,2.0763943475271024e-05,0.0929117100519352,0.0002268043913118
0.0937058272318663,-3.1301356097147508e-06,0.0937058272318663,-1.7644010719285484e-05,0.0937058272318663,1.685516201659407e-05,0.0937058272318663,0.0002548796654496
0.0944999444117974,-2.5176999120094268e-06,0.0944999444117974,-1.79598281164884e-05,0.0944999444117974,6.211181669432562e-06,0.0944999444117974,0.0002462381267916
0.0952940615917284,-5.104575491607407e-06,0.0952940615917284,-2.117855046992056e-05,0.0952940615917284,-3.722017963433889e-06,0.0952940615917284,6.609003950313411e-05
0.0960881787716595,-2.143248267530822e-06,0.0960881787716595,-2.0991050419654223e-05,0.0960881787716595,-1.2981991331677303e-05,0.0960881787716595,-5.904603123022942e-05
0.0968822959515906,5.123595671998851e-06,0.0968822959515906,-2.1050318234783547e-05,0.0968822959515906,-2.601618442076003e-05,0.0968822959515906,-9.280129918680838e-05
0.0976764131315216,1.0258518223748306e-05,0.0976764131315216,-1.9263250638960268e-05,0.0976764131315216,-2.701399319862161e-05,0.0976764131315216,-7.921613399789997e-05
0.0984705303114527,5.351911282171132e-06,0.0984705303114527,-2.0487421107247348e-05,0.0984705303114527,-1.217595983593729e-05,0.0984705303114527,-6.977652695123738e-05
0.0992646474913838,-1.114994423820068e-06,0.0992646474913838,-2.225503195025001e-05,0.0992646474913838,1.3021303885250254e-05,0.0992646474913838,-2.920383285319459e-05
0.1000587646713148,-7.356725854195957e-06,0.1000587646713148,-2.008380559459636e-05,0.1000587646713148,2.09812e-05,0.1000587646713148,3.3963805555963826e-05
0.1008528818512459,-1.2410972848672515e-05,0.1008528818512459,-1.6599335670476842e-05,0.1008528818512459,1.355630986646023e-05,0.1008528818512459,4.315702741965712e-05
0.101646999031177,-1.62814e-05,0.101646999031177,-1.0949014888448604e-05,0.101646999031177,7.574162974741508e-06,0.101646999031177,5.814259216369252e-05
0.1024411162111081,-1.59457e-05,0.1024411162111081,-1.2096379509284366e-05,0.1024411162111081,1.9667034614308627e-06,0.1024411162111081,4.791210313642499e-05
0.1032352333910391,-1.6202325642428867e-05,0.1032352333910391,-1.7287478146418498e-05,0.1032352333910391,-1.023588126460801e-05,0.1032352333910391,-5.984274606340278e-05
0.1040293505709702,-1.922403711029552e-05,0.1040293505709702,-1.8058410070617676e-05,0.1040293505709702,-2.5483551416360818e-05,0.1040293505709702,-0.0001617815642179
0.1048234677509013,-2.287648272970999e-05,0.1048234677509013,-1.8808104799827464e-05,0.1048234677509013,-2.26417772896528e-05,0.1048234677509013,-0.0002107659400625
0.1056175849308323,-1.876699832930734e-05,0.1056175849308323,-2.3172221802681427e-05,0.1056175849308323,-3.664828573629235e-05,0.1056175849308323,-0.000269855262908
0.1064117021107634,-1.136276743105005e-05,0.1064117021107634,-2.945453503195156e-05,0.1064117021107634,-5.461152086025604e-05,0.1064117021107634,-0.0003149619440984
0.1072058192906945,-6.921195897508681e-06,0.1072058192906945,-3.23949e-05,0.1072058192906945,-4.118041848447271e-05,0.1072058192906945,-0.00033512541042
0.1079999364706256,-4.196504592769577e-06,0.1079999364706256,-3.1891461632061675e-05,0.1079999364706256,-1.5276313676674788e-05,0.1079999364706256,-0.0003090133181146
0.1087940536505566,3.4536236143863226e-06,0.1087940536505566,-3.395585212419916e-05,0.1087940536505566,9.68025886529176e-06,0.1087940536505566,-0.0002608879293787
0.1095881708304877,8.185440490984719e-06,0.1095881708304877,-3.3206848790082165e-05,0.1095881708304877,2.2991679990166643e-05,0.1095881708304877,-9.963190086280682e-05
0.1103822880104188,6.0706822053505055e-06,0.1103822880104188,-2.70830004307053e-05,0.1103822880104188,3.7699606910841474e-05,0.1103822880104188,0.0001706959454346
0.1111764051903498,1.003900204613797e-05,0.1111764051903498,-1.781989871383569e-05,0.1111764051903498,4.564429950043212e-05,0.1111764051903498,0.0002759449816825
0.1119705223702809,1.0890717340329124e-05,0.1119705223702809,-1.3182085744669428e-05,0.1119705223702809,3.932770404197475e-05,0.1119705223702809,0.000352292997054
0.112764639550212,6.250008073367143e-06,0.112764639550212,-1.2885071840136602e-05,0.112764639550212,3.693676856106788e-05,0.112764639550212,0.0004359640649188
0.1135587567301431,-5.728559204950874e-06,0.1135587567301431,-1.42672e-05,0.1135587567301431,2.365417115802974e-05,0.1135587567301431,0.0003601965545497
0.1143528739100741,-1.183830807945406e-05,0.1143528739100741,-1.1780016513157269e-05,0.1143528739100741,1.918410793336378e-05,0.1143528739100741,0.0003125646340027
0.1151469910900052,-1.683285579061525e-05,0.1151469910900052,-1.02388e-05,0.1151469910900052,2.996710815703856e-05,0.1151469910900052,0.0004117461952469
0.1159411082699363,-2.2965947281907678e-05,0.1159411082699363,-9.666250221413309e-06,0.1159411082699363,6.359428923412616e-06,0.1159411082699363,0.000381552635925
0.1167352254498673,-2.210690833903815e-05,0.1167352254498673,-1.239014480093316e-05,0.1167352254498673,-1.4977359373742108e-05,0.1167352254498673,0.0001918474956767
0.1175293426297984,-2.214626434884197e-05,0.1175293426297984,-1.847439828175986e-05,0.1175293426297984,-1.4307472507985469e-06,0.1175293426297984,-1.04069229650556e-05
0.1183234598097295,-2.111797377009489e-05,0.1183234598097295,-2.2717209347889223e-05,0.1183234598097295,5.607408654571261e-06,0.1183234598097295,-0.0001313640335391
0.1191175769896605,-1.5074378827637134e-05,0.1191175769896605,-2.2857153958710863e-05,0.1191175769896605,3.474849706909284e-06,0.1191175769896605,-0.0001741880378739
0.1199116941695916,-1.3951633935168264e-05,0.1199116941695916,-2.1711401485975324e-05,0.1199116941695916,7.376803088532762e-06,0.1199116941695916,-0.0001698496648528
0.1207058113495227,-1.7249106903450194e-05,0.1207058113495227,-2.03098e-05,0.1207058113495227,1.12459e-05,0.1207058113495227,-0.0001642166404179
0.1214999285294538,-1.6617305945599662e-05,0.1214999285294538,-2.13167613140904e-05,0.1214999285294538,9.903305945599662e-06,0.1214999285294538,-0.0001789258158281
0.1222940457093848,-1.189892162063436e-05,0.1222940457093848,-2.303552115329868e-05,0.1222940457093848,6.073631811158955e-06,0.1222940457093848,-8.912963159569951e-05
0.1230881628893159,-6.370838219098544e-06,0.1230881628893159,-2.608488785153416e-05,0.1230881628893159,-3.8567554188803e-06,0.1230881628893159,-1.6355945459929478e-05
0.123882280069247,-1.275521152437625e-06,0.123882280069247,-2.71916e-05,0.123882280069247,-8.185423291943608e-06,0.123882280069247,-6.86699619930083e-05
0.124676397249178,2.273547099746093e-07,0.124676397249178,-2.5067743469531628e-05,0.124676397249178,-9.269880563831343e-06,0.124676397249178,-0.0001273585288928
0.1254705144291091,3.064918176316035e-07,0.1254705144291091,-2.35378766095401e-05,0.1254705144291091,-1.4306142436497331e-05,0.1254705144291091,-0.0001331484317262
0.1262646316090402,-4.285005938508467e-06,0.1262646316090402,-2.610551267497621e-05,0.1262646316090402,-1.3724123210306974e-05,0.1262646316090402,-0.0001184517710548
0.1270587487889713,-6.526446383779924e-06,0.1270587487889713,-2.5928253348877653e-05,0.1270587487889713,-1.296374723244015e-05,0.1270587487889713,-0.0001327120703393
0.1278528659689023,-3.465689919517211e-06,0.1278528659689023,-2.6667601778501105e-05,0.1278528659689023,-1.29144763770803e-05,0.1278528659689023,-0.0001448041636967
0.1286469831488334,-4.046184498436907e-07,0.1286469831488334,-2.8465430884759455e-05,0.1286469831488334,-8.808488492795457e-06,0.1286469831488334,-0.0001663726420855
0.1294411003287645,-4.31361755095528e-06,0.1294411003287645,-2.9659895701602523e-05,0.1294411003287645,-3.0913165552016264e-06,0.1294411003287645,-0.0001931295228418
0.1302352175086955,-7.3651839045300015e-06,0.1302352175086955,-2.9679625429593675e-05,0.1302352175086955,-2.023868402013334e-06,0.1302352175086955,-0.0002144772568376
0.1310293346886266,-4.9857610451291656e-06,0.1310293346886266,-3.174355407498247e-05,0.1310293346886266,-1.0022235928518151e-05,0.1310293346886266,-0.0002485865756909
0.1318234518685577,1.5907185867061751e-06,0.1318234518685577,-3.1211036213270606e-05,0.1318234518685577,-2.0113559856248352e-05,0.1318234518685577,-0.0002832471610878
0.1326175690484888,6.192460452706792e-06,0.1326175690484888,-3.3223745428643755e-05,0.1326175690484888,-2.4991539282148694e-05,0.1326175690484888,-0.000304949594236
0.1334116862284198,8.284077599486233e-06,0.1334116862284198,-3.377691515652968e-05,0.1334116862284198,-3.56550032671347e-05,0.1334116862284198,-0.00029448736385
0.1342058034083509,1.0001863234803026e-05,0.1342058034083509,-2.600104323169346e-05,0.1342058034083509,-3.83187941215758e-05,0.1342058034083509,-0.0001686200082738
0.134999920588282,9.231881619628945e-06,0.134999920588282,-2.064591090591273e-05,0.134999920588282,-3.1053015313776305e-05,0.134999920588282,8.239145716136477e-07
0.135794037768213,6.369109475385672e-06,0.135794037768213,-2.102140060723802e-05,0.135794037768213,-7.83638928692796e-06,0.135794037768213,8.204054412876785e-05
0.1365881549481441,1.473429533203248e-06,0.1365881549481441,-2.055772527907259e-05,0.1365881549481441,2.3710960530271635e-05,0.1365881549481441,0.0001753620898982
0.1373822721280752,-6.420592601320105e-06,0.1373822721280752,-1.7851363037649085e-05,0.1373822721280752,6.649735170634915e-05,0.1373822721280752,0.0002627357565001
0.1381763893080062,-1.9168344625213624e-05,0.1381763893080062,-1.017585366679654e-05,0.1381763893080062,9.21232507448851e-05,0.1381763893080062,0.0003117329894774
0.1389705064879373,-3.0220137991438306e-05,0.1389705064879373,1.5071544331695825e-06,0.1389705064879373,7.408969981676715e-05,0.1389705064879373,0.0003785632587415
0.1397646236678684,-3.488321476751554e-05,0.1397646236678684,5.114232580807351e-06,0.1397646236678684,3.899115907006217e-05,0.1397646236678684,0.0003751071185681
0.1405587408477994,-2.731889023850675e-05,0.1405587408477994,-3.213935401965895e-06,0.1405587408477994,1.979467786866132e-05,0.1405587408477994,0.0002126616170534
0.1413528580277305,-2.274859957086937e-05,0.1413528580277305,-1.2450039030580918e-05,0.1413528580277305,6.5071234771289085e-06,0.1413528580277305,8.688882217992958e-05
0.1421469752076616,-2.0261171225097334e-05,0.1421469752076616,-1.1936765031418729e-05,0.1421469752076616,-6.229858562658169e-06,0.1421469752076616,6.803553227955195e-05
0.1429410923875927,-1.491081044054054e-05,0.1429410923875927,-8.56031e-06,0.1429410923875927,-4.747077350141426e-06,0.1429410923875927,0.000131791752111
0.1437352095675237,-9.568273781380524e-06,0.1437352095675237,-1.2428894303184116e-05,0.1437352095675237,-1.5922856764884764e-05,0.1437352095675237,0.0002411291838314
0.1445293267474548,-6.338674811641237e-06,0.1445293267474548,-1.859287510660206e-05,0.1445293267474548,-3.089449962645805e-05,0.1445293267474548,0.0001497442421462
0.1453234439273859,-1.8256927541945348e-06,0.1453234439273859,-2.3052837578022024e-05,0.1453234439273859,-3.519928294602338e-05,0.1453234439273859,-3.002882134101989e-06
0.146117561107317,-1.67849e-07,0.146117561107317,-2.6213397687653165e-05,0.146117561107317,-3.664109589500849e-05,0.146117561107317,-0.0001150519923196
0.146911678287248,-2.241496133458791e-06,0.146911678287248,-2.832727457043997e-05,0.146911678287248,-3.612601933270604e-05,0.146911678287248,-0.0002030209380295
0.1477057954671791,-1.323076252683976e-06,0.1477057954671791,-2.8051116037256135e-05,0.1477057954671791,-2.188871685575393e-05,0.1477057954671791,-0.000209966880143
0.1484999126471102,-1.67849e-06,0.1484999126471102,-2.568123901000116e-05,0.1484999126471102,-3.526717829039516e-06,0.1484999126471102,-0.0001064303476184
0.1492940298270412,-3.049939363004547e-06,0.1492940298270412,-2.201690391201104e-05,0.1492940298270412,6.603428726009094e-06,0.1492940298270412,5.0744907269940505e-05
0.1500881470069723,-9.46656815203328e-06,0.1500881470069723,-2.130714723994093e-05,0.1500881470069723,1.8190749874312523e-05,0.1500881470069723,8.148783230150372e-05
0.1508822641869034,-1.0199624757971025e-05,0.1508822641869034,-2.04579501094551e-05,0.1508822641869034,3.281201235282209e-05,0.1508822641869034,7.865500866071624e-05
0.1516763813668344,-9.626925555723896e-06,0.1516763813668344,-2.1929972953437807e-05,0.1516763813668344,4.11612133567203e-05,0.1516763813668344,0.0001198575307972
0.1524704985467655,-8.027592786561948e-06,0.1524704985467655,-2.552145209064427e-05,0.1524704985467655,2.594393785319373e-05,0.1524704985467655,9.420076948216508e-05
0.1532646157266966,-4.670410047606718e-06,0.1532646157266966,-2.617452312455461e-05,0.1532646157266966,5.598730473118771e-06,0.1532646157266966,1.297244412578226e-06
0.1540587329066277,2.893864939065832e-06,0.1540587329066277,-2.52268581120536e-05,0.1540587329066277,-3.930482679714891e-06,0.1540587329066277,-7.59337624542312e-05
0.1548528500865587,3.4261477642694583e-06,0.1548528500865587,-2.637128001110661e-05,0.1548528500865587,-8.915632470574074e-06,0.1548528500865587,-0.0001099597995371
0.1556469672664898,1.6095924242553445e-06,0.1556469672664898,-2.816917847791574e-05,0.1556469672664898,-7.751118374688462e-06,0.1556469672664898,-0.0001376806893936
0.1564410844464209,1.135834020104455e-06,0.1564410844464209,-2.6193861070543303e-05,0.1564410844464209,-8.400588423929107e-06,0.1564410844464209,-0.000164419147606
0.157235201626352,5.03548e-07,0.157235201626352,-2.335156258998423e-05,0.157235201626352,-1.3555324836260177e-05,0.157235201626352,-0.0001670116766489
0.158029318806283,-1.5206511544392094e-06,0.158029318806283,-2.32524720931524e-05,0.158029318806283,-1.2183704504696278e-05,0.158029318806283,-0.0001369735375323
0.1588234359862141,-4.53193e-06,0.1588234359862141,-2.43381e-05,0.1588234359862141,-6.169194510417852e-06,0.1588234359862141,-0.0001071769813327
0.1596175531661451,-4.235537101344228e-06,0.1596175531661451,-2.6845383790461693e-05,0.1596175531661451,4.068695244729996e-07,0.1596175531661451,-0.0001274494125009
0.1604116703460762,-6.705322258771027e-07,0.1604116703460762,-2.834688214870481e-05,0.1604116703460762,-4.056268989580186e-07,0.1604116703460762,-0.0001688915259378
0.1612057875260073,9.379960037752874e-07,0.1612057875260073,-2.6916878930859396e-05,0.1612057875260073,-8.982728892513527e-07,0.1612057875260073,-0.0001806548681831
0.1619999047059384,1.846202702933546e-06,0.1619999047059384,-2.333146229554592e-05,0.1619999047059384,1.0572783794849074e-05,0.1619999047059384,-0.0001713755101859
0.1627940218858694,1.2348016769586682e-06,0.1627940218858694,-2.4418419030233284e-05,0.1627940218858694,1.638028936110455e-05,0.1627940218858694,-0.0001481194680552
0.1635881390658005,-2.8812614441477333e-06,0.1635881390658005,-2.615735425068896e-05,0.1635881390658005,9.985447185659904e-06,0.1635881390658005,-0.0001069958181386
0.1643822562457316,-3.1331371267691846e-06,0.1643822562457316,-2.0626005713524765e-05,0.1643822562457316,1.734353320097582e-06,0.1643822562457316,-6.800624452880575e-05
0.1651763734256627,2.317734506109492e-06,0.1651763734256627,-1.7565848871086005e-05,0.1651763734256627,-8.200779330383074e-06,0.1651763734256627,3.685380786588501e-05
0.1659704906055937,5.045198446991022e-06,0.1659704906055937,-2.137435379830827e-05,0.1659704906055937,-7.317336160560821e-06,0.1659704906055937,9.291708434934196e-05
0.1667646077855248,4.946589943349107e-06,0.1667646077855248,-2.1810538534100085e-05,0.1667646077855248,-2.675902720329209e-06,0.1667646077855248,3.223468291484691e-06
0.1675587249654559,4.413307038152998e-06,0.1675587249654559,-2.003420330074196e-05,0.1675587249654559,-2.745141102623287e-06,0.1675587249654559,-5.747672021097168e-05
0.1683528421453869,7.802381583062355e-07,0.1683528421453869,-1.8167116755704183e-05,0.1683528421453869,-1.0949378348062249e-05,0.1683528421453869,-5.362323656241548e-05
0.169146959325318,-5.181975716006961e-06,0.169146959325318,-1.983616931224581e-05,0.169146959325318,-1.047553610971728e-05,0.169146959325318,-6.14396022211133e-05
0.1699410765052491,-1.18178191261671e-05,0.1699410765052491,-2.0546677340745903e-05,0.1699410765052491,-1.8134078162122438e-05,0.1699410765052491,-5.694080934113087e-05
0.1707351936851801,-1.343759407774671e-05,0.1707351936851801,-1.9757164469691783e-05,0.1707351936851801,-2.4564827854263308e-05,0.1707351936851801,1.6045796910497484e-05
0.1715293108651112,-1.2805857323842843e-05,0.1715293108651112,-1.714992287153874e-05,0.1715293108651112,-1.8601381488501508e-05,0.1715293108651112,0.0001444625304198
0.1723234280450423,-1.0555141234762873e-05,0.1723234280450423,-1.4801647166147128e-05,0.1723234280450423,-4.232674611557834e-06,0.1723234280450423,0.0002850710031589
0.1731175452249733,-1.2283210935099436e-05,0.1731175452249733,-1.41483019809138e-05,0.1731175452249733,7.477669660410824e-06,0.1731175452249733,0.0002958088432691
0.1739116624049044,-1.4386066402807997e-05,0.1739116624049044,-1.572874545317113e-05,0.1739116624049044,2.0035952093239924e-05,0.1739116624049044,0.0002152553188306
0.1747057795848355,-1.64788920715238e-05,0.1747057795848355,-1.7227490250049517e-05,0.1747057795848355,3.750968900133321e-05,0.1747057795848355,0.0001282454389081
0.1754998967647666,-1.628154873848862e-05,0.1754998967647666,-2.0309399351816778e-05,0.1754998967647666,4.9514310114244506e-05,0.1754998967647666,9.097694018571024e-05
0.1762940139446976,-1.0754148183482445e-05,0.1762940139446976,-2.153487072212058e-05,0.1762940139446976,3.830499392889062e-05,0.1762940139446976,0.0001093422846133
0.1770881311246287,-7.474961087521816e-06,0.1770881311246287,-2.325304805194796e-05,0.1770881311246287,1.5420620859272313e-05,0.1770881311246287,7.586114798655587e-05
0.1778822483045598,-6.092929838625526e-06,0.1778822483045598,-2.100109522311438e-05,0.1778822483045598,-1.622518486792665e-06,0.1778822483045598,-4.682407054189087e-05
0.1786763654844909,-4.927158770078127e-06,0.1786763654844909,-1.865007087471392e-05,0.1786763654844909,-1.0867258305608209e-05,0.1786763654844909,-0.0001383815475906
0.1794704826644219,-5.53903e-06,0.1794704826644219,-1.7149388673961063e-05,0.1794704826644219,-8.957020589575808e-06,0.1794704826644219,-0.0001702228737656
0.180264599844353,-3.110185777361997e-06,0.180264599844353,-2.212657183431612e-05,0.180264599844353,-4.156461429176031e-06,0.180264599844353,-0.0002110622614124
0.181058717024284,-2.85344e-06,0.181058717024284,-2.410135595182276e-05,0.181058717024284,-1.5690504725214057e-05,0.181058717024284,-0.0002545704333316
0.1818528342042151,7.008754306319761e-07,0.1818528342042151,-1.984716081148316e-05,0.1818528342042151,-2.631259732071005e-05,0.1818528342042151,-0.0001934189386781
0.1826469513841462,1.609615356310138e-06,0.1826469513841462,-1.8177172865233245e-05,0.1826469513841462,-1.381722578709985e-05,0.1826469513841462,-3.2644927169782554e-05
0.1834410685640773,8.099334810666702e-07,0.1834410685640773,-2.100149329205543e-05,0.1834410685640773,1.4094405007384338e-06,0.1834410685640773,5.986497958928344e-05
0.1842351857440083,-1.5887277140518398e-06,0.1842351857440083,-2.404116314319475e-05,0.1842351857440083,6.742870265502636e-06,0.1842351857440083,-2.753164750994676e-05
0.1850293029239394,-8.698672172192739e-06,0.1850293029239394,-2.327105800808117e-05,0.1850293029239394,1.6290465791128886e-06,0.1850293029239394,-9.754024221780504e-05
0.1858234201038705,-2.114102266558e-05,0.1858234201038705,-1.7173663838133355e-05,0.1858234201038705,1.168884644082812e-05,0.1858234201038705,-5.463575187677804e-05
0.1866175372838016,-2.5602262865256742e-05,0.1866175372838016,-1.1759977847720268e-05,0.1866175372838016,4.5378109074344187e-05,0.1866175372838016,7.572813372715614e-05
0.1874116544637326,-2.556205652924687e-05,0.1874116544637326,-1.089057187567447e-05,0.1874116544637326,3.892752414289103e-05,0.1874116544637326,0.0003524030325421
0.1882057716436637,-2.56809e-05,0.1882057716436637,-1.7461425149222767e-05,0.1882057716436637,1.7643811825798437e-05,0.1882057716436637,0.0004252583469408
0.1889998888235948,-2.165356105560738e-05,0.1889998888235948,-2.5008493264448003e-05,0.1889998888235948,3.862291971861848e-06,0.1889998888235948,0.0001247597333271
0.1897940060035258,-1.1782215715507396e-05,0.1897940060035258,-2.757739802874403e-05,0.1897940060035258,-3.1083262045417616e-06,0.1897940060035258,-4.303394027985714e-05
0.1905881231834569,-2.972919678464222e-06,0.1905881231834569,-3.1130037207603035e-05,0.1905881231834569,-6.941562784144116e-06,0.1905881231834569,-5.399342462608338e-05
0.191382240363388,-4.431177091467802e-06,0.191382240363388,-3.1802592543414086e-05,0.191382240363388,-2.657649785060642e-06,0.191382240363388,6.715780920054702e-06
0.192176357543319,-6.7627510184215055e-06,0.192176357543319,-2.8345700873788647e-05,0.192176357543319,-2.8319330552645166e-06,0.192176357543319,7.58784792589083e-05
0.1929704747232501,-6.684848983293498e-06,0.1929704747232501,-2.286006822299864e-05,0.1929704747232501,-1.1459463544200044e-05,0.1929704747232501,9.820294890401952e-05
0.1937645919031812,-4.571404250963449e-06,0.1937645919031812,-1.7150251608509767e-05,0.1937645919031812,-1.7565157490365508e-05,0.1937645919031812,5.234521725189746e-05
0.1945587090831123,-5.805762602391283e-06,0.1945587090831123,-1.6359033529239962e-05,0.1945587090831123,-1.075148698804359e-05,0.1945587090831123,-1.826076861499832e-05
0.1953528262630433,-9.2906242914065e-06,0.1953528262630433,-2.161157462312716e-05,0.1953528262630433,4.8960536893437205e-06,0.1953528262630433,-3.6738443075426256e-05
0.1961469434429744,-1.8629126753476263e-05,0.1961469434429744,-2.4693705116042495e-05,0.1961469434429744,1.0733737637353283e-05,0.1961469434429744,-6.731407131396882e-05
0.1969410606229055,-2.2148081604468607e-05,0.1969410606229055,-2.399227129643907e-05,0.1969410606229055,3.468016947344624e-06,0.1969410606229055,-0.0001513914843004
0.1977351778028366,-1.596708723313482e-05,0.1977351778028366,-2.2472390115759647e-05,0.1977351778028366,-1.4507701082853969e-06,0.1977351778028366,-0.0002349860550009
0.1985292949827676,-6.684340098472714e-06,0.1985292949827676,-2.2758181981830055e-05,0.1985292949827676,-2.85344e-06,0.1985292949827676,-0.000230614830002
0.1993234121626987,-1.5494986408147249e-06,0.1993234121626987,-2.114022690220084e-05,0.1993234121626987,-1.903546094325936e-06,0.1993234121626987,-0.0001265489929714
0.2001175293426297,4.248997506529235e-07,0.2001175293426297,-1.96384e-05,0.2001175293426297,6.666982137429265e-06,0.2001175293426297,1.862655356336565e-05
0.2009116465225608,1.3724951346745736e-06,0.2009116465225608,-2.1692786728762555e-05,0.2009116465225608,8.422165134674574e-06,0.2009116465225608,-1.771872708269249e-05
0.2017057637024919,2.863347546992526e-07,0.2017057637024919,-2.4475414305933777e-05,0.2017057637024919,5.499541906026735e-06,0.2017057637024919,-0.000114068114174
0.202499880882423,-4.866857706557323e-06,0.202499880882423,-2.38348696555708e-05,0.202499880882423,-1.8453102771138773e-06,0.202499880882423,-0.0001290773729195
0.203293998062354,-5.786293454085963e-06,0.203293998062354,-2.007177871536449e-05,0.203293998062354,2.140146996795213e-06,0.203293998062354,-7.542381990246307e-05
0.2040881152422851,-2.12446877906048e-06,0.2040881152422851,-1.6242441669228793e-05,0.2040881152422851,1.2515331886059126e-05,0.2040881152422851,4.3596664545237206e-05
0.2048822324222162,4.419141201592168e-07,0.2048822324222162,-1.8374029552854908e-05,0.2048822324222162,1.839638614015514e-05,0.2048822324222162,0.0001495548394319
0.2056763496021472,2.3796601057501674e-06,0.2056763496021472,-2.543483236901036e-05,0.2056763496021472,5.984972821921823e-06,0.2056763496021472,4.382541372108501e-05
0.2064704667820783,-7.199016064032835e-07,0.2064704667820783,-2.714241310454007e-05,0.2064704667820783,-2.5810908783304095e-05,0.2064704667820783,-5.406190728774627e-05
0.2072645839620094,-2.8135798981391914e-06,0.2072645839620094,-2.5206992700631003e-05,0.2072645839620094,-3.8872446258082526e-05,0.2072645839620094,-7.446568797631945e-05
0.2080587011419405,-7.395556472653771e-06,0.2080587011419405,-2.062803257042297e-05,0.2080587011419405,-2.5018023558068463e-05,0.2080587011419405,-7.662826794279078e-05
0.2088528183218715,-9.883217793061551e-06,0.2088528183218715,-1.849257482796649e-05,0.2088528183218715,-8.85740257970553e-06,0.2088528183218715,-5.413927570719147e-05
0.2096469355018026,-1.1620305134905084e-05,0.2096469355018026,-2.003344973914853e-05,0.2096469355018026,2.791407463835939e-08,0.2096469355018026,-2.07876095804212e-05
0.2104410526817337,-1.4386177181696902e-05,0.2104410526817337,-1.967767816197303e-05,0.2104410526817337,4.8499428184423935e-06,0.2104410526817337,-1.3119702908774429e-05
0.2112351698616647,-1.2569480493039824e-05,0.2112351698616647,-1.7861790577565578e-05,0.2112351698616647,-3.5418144821506816e-06,0.2112351698616647,-1.7820879260440263e-05
0.2120292870415958,-9.922861959534248e-06,0.2120292870415958,-1.7308461617709394e-05,0.2120292870415958,-1.5304880283270782e-06,0.2120292870415958,1.525392614745494e-05
0.2128234042215269,-7.868434551593775e-06,0.2128234042215269,-1.9439575934294164e-05,0.2128234042215269,6.071218812681388e-06,0.2128234042215269,5.206792816241929e-05
0.2136175214014579,-5.024948962013415e-06,0.2136175214014579,-2.22049992018066e-05,0.2136175214014579,-8.813629803635784e-07,0.2136175214014579,-4.864441756589979e-05
0.214411638581389,-1.2730500829435258e-06,0.214411638581389,-2.3627423205288287e-05,0.214411638581389,-1.3400938485407865e-05,0.214411638581389,-0.0001322422674335
0.2152057557613201,1.9253120918019377e-06,0.2152057557613201,-2.4200801103611767e-05,0.2152057557613201,-3.39745613875324e-05,0.2152057557613201,-0.0001631689077672
0.2159998729412512,2.349935765688811e-06,0.2159998729412512,-2.098185744946032e-05,0.2159998729412512,-3.1389539096174826e-05,0.2159998729412512,-0.0001733873137191
0.2167939901211822,4.037371480652111e-06,0.2167939901211822,-2.050770799815544e-05,0.2167939901211822,-1.4745253621490446e-05,0.2167939901211822,-0.000153963991383
0.2175881073011133,4.828529287149213e-06,0.2175881073011133,-2.2679074028870413e-05,0.2175881073011133,-4.9916148154929374e-06,0.2175881073011133,-0.0001300412508312
0.2183822244810444,1.8997066971905147e-06,0.2183822244810444,-2.22056566267855e-05,0.2183822244810444,6.657649206973351e-06,0.2183822244810444,-6.92574573165265e-05
0.2191763416609755,-5.376780496608107e-06,0.2191763416609755,-1.7217794867376354e-05,0.2191763416609755,1.9354433529740337e-05,0.2191763416609755,3.0026034228927432e-05
0.2199704588409065,-3.0727885190568147e-06,0.2199704588409065,-1.097156416949716e-05,0.2199704588409065,3.675294918098529e-05,0.2199704588409065,0.0001782588466781
0.2207645760208376,2.636145590757059e-06,0.2207645760208376,-9.56741e-06,0.2207645760208376,5.235897412100941e-05,0.2207645760208376,0.0002580821658754
0.2215586932007686,1.2833656102381874e-06,0.2215586932007686,-9.56741e-06,0.2215586932007686,4.6868761199004646e-05,0.2215586932007686,0.0002604128667341
0.2223528103806997,-3.5936105012948777e-06,0.2223528103806997,-1.3986368758419933e-05,0.2223528103806997,3.731274899609767e-05,0.2223528103806997,0.0002078539556065
0.2231469275606308,-4.53193e-06,0.2231469275606308,-2.32326976044254e-05,0.2231469275606308,1.970334009547846e-05,0.2231469275606308,0.0001305752322704
0.2239410447405619,-6.366615881302401e-06,0.2239410447405619,-2.260012082086064e-05,0.2239410447405619,-1.3487780177930514e-06,0.2239410447405619,5.3566606730047485e-05
0.2247351619204929,-9.665724825127212e-06,0.2247351619204929,-2.2481409352478666e-05,0.2247351619204929,-8.549544371228571e-06,0.2247351619204929,1.0284226576674064e-05
0.225529279100424,-7.276820791237948e-06,0.225529279100424,-2.2758202527890727e-05,0.225529279100424,-1.677488174296644e-05,0.225529279100424,4.393824408669407e-06
0.2263233962803551,-5.381399678074745e-06,0.2263233962803551,-2.2915760120443117e-05,0.2263233962803551,-2.5425000041215625e-05,0.2263233962803551,-2.3322450916318124e-05
0.2271175134602862,-7.988596573277038e-06,0.2271175134602862,-2.346910494916778e-05,0.2271175134602862,-2.350666496336576e-05,0.2271175134602862,-8.156208471137109e-05
0.2279116306402172,-8.767544497029266e-06,0.2279116306402172,-2.4614869398386865e-05,0.2279116306402172,-2.277707108528696e-06,0.2279116306402172,-0.0001231848829209
0.2287057478201483,-1.0436246207414172e-05,0.2287057478201483,-2.7613589298247317e-05,0.2287057478201483,1.2272661725949606e-05,0.2287057478201483,-0.0001536010857373
0.2294998650000794,-8.896593509635365e-06,0.2294998650000794,-3.004473803772632e-05,0.2294998650000794,1.1246678016709814e-05,0.2294998650000794,-0.0001928527758083
0.2302939821800104,-7.514271131899495e-06,0.2302939821800104,-2.710264141035885e-05,0.2302939821800104,5.59899915807259e-06,0.2302939821800104,-0.000191678078711
0.2310880993599415,-8.380984343657314e-06,0.2310880993599415,-2.6867948861158064e-05,0.2310880993599415,1.2505959724415594e-05,0.2310880993599415,-0.000178570903637
0.2318822165398726,-1.09102e-05,0.2318822165398726,-2.354841836273419e-05,0.2318822165398726,1.3741803765065772e-05,0.2318822165398726,-0.0001317633277739
0.2326763337198036,-1.0357903305845084e-05,0.2326763337198036,-2.3349946722052325e-05,0.2326763337198036,-3.2760760587159343e-06,0.2326763337198036,-2.581199266963936e-05
0.2334704508997347,-9.251089686871064e-06,0.2334704508997347,-1.8377480530844947e-05,0.2334704508997347,-2.356360335599359e-05,0.2334704508997347,7.681596853608799e-05
0.2342645680796658,-8.7186586425879e-06,0.2342645680796658,-1.4326428139390797e-05,0.2342645680796658,-2.102300724113195e-05,0.2342645680796658,0.0001334003096435
0.2350586852595969,-4.363844995388869e-06,0.2350586852595969,-1.72068589579104e-05,0.2350586852595969,8.204617129423445e-07,0.2350586852595969,0.0001215516101414
0.2358528024395279,-4.19623e-06,0.2358528024395279,-2.151384914692077e-05,0.2358528024395279,-3.6224704394906257e-06,0.2358528024395279,9.290244801632136e-05
0.236646919619459,1.2678623738485677e-07,0.236646919619459,-2.305463730424355e-05,0.236646919619459,-7.612389694895048e-06,0.236646919619459,5.170252603402153e-05
0.2374410367993901,3.388198807486364e-06,0.2374410367993901,-2.3745317843593168e-05,0.2374410367993901,-1.0316875299400103e-05,0.2374410367993901,3.700498842213688e-06
0.2382351539793211,-2.1604343735536146e-06,0.2382351539793211,-2.121881397295849e-05,0.2382351539793211,-7.091667667516034e-06,0.2382351539793211,2.553209250005026e-05
0.2390292711592522,-3.91987511533416e-06,0.2390292711592522,-2.1534056400460542e-05,0.2390292711592522,6.901319564359443e-06,0.2390292711592522,4.2485797190454414e-05
0.2398233883391833,-9.579477952739042e-07,0.2398233883391833,-2.042912519924705e-05,0.2398233883391833,6.802061771752213e-06,0.2398233883391833,4.043502230505048e-05
0.2406175055191144,-3.288782175365671e-06,0.2406175055191144,-1.9243199625305214e-05,0.2406175055191144,7.534838849010668e-06,0.2406175055191144,5.88416060206481e-05
0.2414116226990454,-8.23489172944162e-06,0.2414116226990454,-1.96384e-05,0.2414116226990454,1.121561903327776e-05,0.2414116226990454,5.658461032183272e-05
0.2422057398789765,-8.797292629306622e-06,0.2422057398789765,-1.9223848505433215e-05,0.2422057398789765,-1.549886602486434e-06,0.2422057398789765,9.502975012355824e-05
0.2429998570589076,-9.567101081600508e-06,0.2429998570589076,-2.098069147122732e-05,0.2429998570589076,-4.196435945599661e-06,0.2429998570589076,0.0001458554394074
0.2437939742388386,-1.0712352481626406e-05,0.2437939742388386,-2.441817247750501e-05,0.2437939742388386,-3.722677518373592e-06,0.2437939742388386,7.110267571426975e-05
0.2445880914187697,-1.1167732972380616e-05,0.2445880914187697,-2.720132897893943e-05,0.2445880914187697,9.541679235677589e-07,0.2445880914187697,-1.991843491155072e-05
0.2453822085987008,-9.919624832621003e-06,0.2453822085987008,-2.716198472719873e-05,0.2453822085987008,9.421281274750465e-06,0.2453822085987008,-7.732715866079017e-05
0.2461763257786318,-1.893998040642613e-05,0.2461763257786318,-2.686533797010213e-05,0.2461763257786318,2.119232764220994e-05,0.2461763257786318,-7.689652282444493e-05
0.2469704429585629,-2.550336587727556e-05,0.2469704429585629,-2.4813014056342317e-05,0.2469704429585629,3.3021123681733144e-05,0.2469704429585629,-3.958979034395084e-05
0.247764560138494,-2.169251855809935e-05,0.247764560138494,-2.1445310669112782e-05,0.247764560138494,4.851790476865657e-05,0.247764560138494,-5.786478801510808e-05
0.2485586773184251,-1.8058526066717158e-05,0.2485586773184251,-2.2844784149909776e-05,0.2485586773184251,4.481532862683832e-05,0.2485586773184251,-6.985465213343432e-05
0.2493527944983561,-1.3478332452536338e-05,0.2493527944983561,-2.759573764796623e-05,0.2493527944983561,2.3650062044597903e-05,0.2493527944983561,-0.0001035058707646
0.2501469116782872,-7.440031656841777e-07,0.2501469116782872,-2.83665e-05,0.2501469116782872,-1.0781745654265449e-05,0.2501469116782872,-0.0002001392136867
0.2509410288582183,1.086719637754418e-05,0.2509410288582183,-3.0203259497152677e-05,0.2509410288582183,-4.940600222446882e-05,0.2509410288582183,-0.0002901970773815
0.2517351460381494,1.843218986067444e-05,0.2517351460381494,-3.194037389212619e-05,0.2517351460381494,-6.754240157830629e-05,0.2517351460381494,-0.0003327401125876
0.2525292632180804,2.3113671054824136e-05,0.2525292632180804,-3.126926153697572e-05,0.2525292632180804,-7.178997105482414e-05,0.2525292632180804,-0.000316219491335
0.2533233803980115,2.218400466827101e-05,0.2533233803980115,-2.927658115831786e-05,0.2533233803980115,-6.240397523882431e-05,0.2533233803980115,-0.0002887269099655
0.2541174975779426,1.40679667892818e-05,0.2541174975779426,-2.1890583727235387e-05,0.2541174975779426,-2.448557729378884e-05,0.2541174975779426,-0.0002304229259455
0.2549116147578736,5.656181180428603e-06,0.2549116147578736,-1.967770761380275e-05,0.2549116147578736,1.383641641781226e-05,0.2549116147578736,-6.649947652559527e-05
0.2557057319378047,-9.448316698727852e-06,0.2557057319378047,-1.9480749110749448e-05,0.2557057319378047,4.015473136335196e-05,0.2557057319378047,8.345427172639557e-05
0.2564998491177358,-2.3664091388116224e-05,0.2564998491177358,-1.4604266313035078e-05,0.2564998491177358,5.186398698435812e-05,0.2564998491177358,0.0002562706747708
0.2572939662976669,-3.511611015598979e-05,0.2572939662976669,-5.221117046411059e-06,0.2572939662976669,5.326821796880205e-05,0.2572939662976669,0.0004436366791914
0.2580880834775979,-4.341319988571884e-05,0.2580880834775979,-1.982549755631169e-06,0.2580880834775979,3.902184349312537e-05,0.2580880834775979,0.0005190888110209
0.258882200657529,-3.996568306369366e-05,0.258882200657529,-4.985870545144503e-06,0.258882200657529,1.5364962237791895e-05,0.258882200657529,0.0004515875814904
0.2596763178374601,-2.8214961886894934e-05,0.2596763178374601,-3.3269042750030576e-06,0.2596763178374601,4.632112150256027e-06,0.2596763178374601,0.0003657438591846
0.2604704350173911,-2.108125406895767e-05,0.2604704350173911,-3.365097982692248e-06,0.2604704350173911,1.3414954432213198e-05,0.2604704350173911,0.0002833207226283
0.2612645521973222,-1.6005761219543634e-05,0.2612645521973222,-1.1028239460848274e-05,0.2612645521973222,1.559114132117227e-05,0.2612645521973222,0.0001184551131309
0.2620586693772533,-7.2369758589174915e-06,0.2620586693772533,-1.841181959518352e-05,0.2620586693772533,4.037832842019118e-06,0.2620586693772533,-4.235127259907601e-05
0.2628527865571843,1.9836688286685493e-06,0.2628527865571843,-2.2104617329117933e-05,0.2628527865571843,-8.263346907202365e-06,0.2628527865571843,-0.0001210119577359
0.2636469037371154,2.913910134710268e-06,0.2636469037371154,-2.5443976789304345e-05,0.2636469037371154,-1.0552597407865696e-05,0.2636469037371154,-0.0001615729842867
0.2644410209170465,2.3380982894860526e-06,0.2644410209170465,-2.617483386396647e-05,0.2644410209170465,-2.3900788305871567e-05,0.2644410209170465,-0.000175103835984
0.2652351380969776,5.380743987791305e-06,0.2652351380969776,-2.874080904773967e-05,0.2652351380969776,-2.6668872024417383e-05,0.2652351380969776,-0.0001925342525418
0.2660292552769086,2.596946783019233e-06,0.2660292552769086,-2.7675200020472728e-05,0.2660292552769086,-1.8375234794146026e-05,0.2660292552769086,-0.0002275528499684
0.2668233724568397,-2.8652844292881575e-07,0.2668233724568397,-2.7615529360619628e-05,0.2668233724568397,-5.617023669180565e-06,0.2668233724568397,-0.0002382766047005
0.2676174896367708,-2.465545792279847e-07,0.2676174896367708,-2.579994184151094e-05,0.2676174896367708,-4.186992827723444e-06,0.2676174896367708,-0.0002276882480038
0.2684116068167018,-1.8862285800283093e-06,0.2684116068167018,-2.50095e-05,0.2684116068167018,-1.1335408516452028e-05,0.2684116068167018,-0.0001910175854216
0.2692057239966329,-4.038403416971096e-06,0.2692057239966329,-2.4577379730852084e-05,0.2692057239966329,-1.047629959661434e-05,0.2692057239966329,-0.0001128504803346
0.269999841176564,-2.1822688284440768e-06,0.269999841176564,-2.0310724542128877e-05,0.269999841176564,5.8706011084559896e-06,0.269999841176564,1.4577271316510248e-05
0.270793958356495,-4.570824324357404e-06,0.270793958356495,-2.074543488808909e-05,0.270793958356495,2.936683181403842e-05,0.270793958356495,4.000608521288937e-05
0.2715880755364261,-4.3848252655399416e-06,0.2715880755364261,-2.4377006965619485e-05,0.2715880755364261,3.573357895077134e-05,0.2715880755364261,-1.874497273691702e-05
0.2723821927163572,-4.509217993810207e-06,0.2723821927163572,-2.540430999954187e-05,0.2723821927163572,3.4053832350373386e-05,0.2723821927163572,-2.3776455420528774e-05
0.2731763098962882,-1.0195377768261436e-05,0.2731763098962882,-2.544341847480031e-05,0.2731763098962882,3.404360672014336e-05,0.2731763098962882,1.436963622480637e-05
0.2739704270762193,-1.604242681302201e-05,0.2739704270762193,-2.4100622425768105e-05,0.2739704270762193,3.228051147397829e-05,0.2739704270762193,3.817229973334562e-05
0.2747645442561504,-2.086217573627107e-05,0.2747645442561504,-2.726055091938113e-05,0.2747645442561504,6.826724856903493e-06,0.2747645442561504,1.443632969534642e-05
0.2755586614360815,-2.31335920413132e-05,0.2755586614360815,-2.741966735313421e-05,0.2755586614360815,-1.892788071850169e-05,0.2755586614360815,-5.925190574841291e-05
0.2763527786160125,-2.0784028977243832e-05,0.2763527786160125,-1.932705219787363e-05,0.2763527786160125,-3.4110797159293176e-05,0.2763527786160125,-6.142477386346299e-05
0.2771468957959436,-1.76847224740079e-05,0.2771468957959436,-1.0594141668362692e-05,0.2771468957959436,-4.463961333891761e-05,0.2771468957959436,-2.4282882737320908e-05
0.2779410129758747,-1.2413185948644096e-05,0.2779410129758747,-9.093573292312085e-06,0.2779410129758747,-2.9438410514678645e-05,0.2779410129758747,9.528059960500948e-05
0.2787351301558057,-8.797756180446414e-06,0.2787351301558057,-1.0672508462262847e-05,0.2787351301558057,-2.335010509273812e-05,0.2787351301558057,0.0001615572286084
0.2795292473357368,-1.0870571078170476e-05,0.2795292473357368,-1.2253e-05,0.2795292473357368,-2.131741996655996e-05,0.2795292473357368,0.0001155435967751
0.2803233645156679,-1.031686087595098e-05,0.2803233645156679,-8.702094170631717e-06,0.2803233645156679,-1.3338157340993228e-05,0.2803233645156679,4.5558844934535945e-05
0.2811174816955989,-5.478839716836314e-06,0.2811174816955989,-6.367532305315071e-06,0.2811174816955989,-6.129406959703542e-06,0.2811174816955989,3.704141726742706e-05
0.2819115988755301,-6.605461473184726e-06,0.2819115988755301,-1.0713560372209797e-05,0.2819115988755301,5.461037080306904e-06,0.2819115988755301,8.51419438838892e-05
0.2827057160554611,-3.2290333182334964e-06,0.2827057160554611,-1.464085929360232e-05,0.2827057160554611,9.508302253521214e-06,0.2827057160554611,8.849672596825719e-05
0.2834998332353922,3.52338838867554e-06,0.2834998332353922,-1.5609946050524763e-05,0.2834998332353922,5.7078911433529e-06,0.2834998332353922,8.577027919040127e-05
0.2842939504153233,5.676841030847122e-06,0.2842939504153233,-1.8573380151568905e-05,0.2842939504153233,-9.947543958711453e-07,0.2842939504153233,8.11982907725423e-05
0.2850880675952543,7.254100659339484e-06,0.2850880675952543,-2.308282045501112e-05,0.2850880675952543,-7.428379379167395e-07,0.2850880675952543,2.1480279285432377e-05
0.2858821847751854,1.2666935823783785e-05,0.2858821847751854,-2.4012470940629887e-05,0.2858821847751854,1.650751489278122e-06,0.2858821847751854,-3.327541382736021e-05
0.2866763019551165,1.3812350928466156e-05,0.2866763019551165,-2.3943725892938983e-05,0.2866763019551165,7.200974608570034e-07,0.2866763019551165,-7.510335117114319e-05
0.2874704191350475,1.4919266078817729e-05,0.2874704191350475,-2.710138038184456e-05,0.2874704191350475,6.3070890299828175e-06,0.2874704191350475,-0.0001007931467346
0.2882645363149786,1.0693543151920392e-05,0.2882645363149786,-2.7537022779990277e-05,0.2882645363149786,1.1304742284745933e-05,0.2882645363149786,-0.0001099801055956
0.2890586534949096,7.632189061441421e-06,0.2890586534949096,-2.8721589807762497e-05,0.2890586534949096,1.2904657587615424e-05,0.2890586534949096,-0.0001151343359314
0.2898527706748408,1.4920252657366183e-06,0.2898527706748408,-2.9531127612886488e-05,0.2898527706748408,4.22758341703926e-06,0.2898527706748408,-0.0001194290119202
0.2906468878547718,-6.287420443883413e-06,0.2906468878547718,-3.0045e-05,0.2906468878547718,-2.241198228867642e-06,0.2906468878547718,-0.0001148804293574
0.2914410050347029,-1.0277791785590348e-05,0.2914410050347029,-2.90379e-05,0.2914410050347029,-2.85344e-06,0.2914410050347029,-0.0001073570725165
0.292235122214634,-1.193638220989378e-05,0.292235122214634,-2.848535692696482e-05,0.292235122214634,-2.85344e-06,0.292235122214634,-0.0001015103298959
0.293029239394565,-1.1621251804673942e-05,0.293029239394565,-2.63523e-05,0.293029239394565,-2.85344e-06,0.293029239394565,-9.637554746197775e-05
0.2938233565744961,-8.145011950981363e-06,0.2938233565744961,-2.694410885407053e-05,0.2938233565744961,-3.2875175865501207e-06,0.2938233565744961,-8.752604695296582e-05
0.2946174737544272,-5.321422121836335e-06,0.2946174737544272,-2.4792882933632256e-05,0.2946174737544272,7.812980304023109e-07,0.2946174737544272,-6.88033483962877e-05
0.2954115909343582,-3.880060865782835e-06,0.2954115909343582,-2.3054307649340617e-05,0.2954115909343582,8.501737402651496e-06,0.2954115909343582,-4.844796681996759e-05
0.2962057081142893,-3.682609253233175e-06,0.2962057081142893,-2.1296470959410102e-05,0.2962057081142893,9.93298908880904e-06,0.2962057081142893,-4.52695555091082e-05
0.2969998252942204,-5.538778288711588e-06,0.2969998252942204,-2.3666022013659687e-05,0.2969998252942204,7.553534635361464e-06,0.2969998252942204,-4.515215513386524e-05
0.2977939424741515,-3.4859771262511728e-06,0.2977939424741515,-2.50095e-05,0.2977939424741515,9.07267654379192e-06,0.2977939424741515,-3.4511640442349085e-05
0.2985880596540825,-4.738829115727411e-06,0.2985880596540825,-2.323378974294387e-05,0.2985880596540825,1.2744896462909645e-05,0.2985880596540825,-6.98515198618941e-06
0.2993821768340136,-4.039782449580229e-06,0.2993821768340136,-2.204733065254985e-05,0.2993821768340136,1.125239528925626e-05,0.2993821768340136,2.740500513794809e-05
0.3001762940139447,-1.7489610259121544e-06,0.3001762940139447,-2.4515519996298257e-05,0.3001762940139447,6.880514501797557e-07,0.3001762940139447,6.644770028434292e-06
0.3009704111938757,3.798958350886273e-06,0.3009704111938757,-2.2246309927165556e-05,0.3009704111938757,-5.932692151486212e-06,0.3009704111938757,-1.7659236037480253e-05
0.3017645283738068,4.986713196727783e-06,0.3017645283738068,-2.2915924568149007e-05,0.3017645283738068,-7.997227226438964e-06,0.3017645283738068,-2.5244754724761444e-05
0.3025586455537379,2.873188145398262e-06,0.3025586455537379,-2.710108745065173e-05,0.3025586455537379,-1.0791711715878088e-05,0.3025586455537379,-4.507241418031911e-05
0.3033527627336689,2.439180019707452e-06,0.3033527627336689,-2.83665e-05,0.3033527627336689,-1.268726257932333e-05,0.3033527627336689,-8.821205752040709e-05
0.3041468799136,-1.3317202536115116e-06,0.3041468799136,-2.900831370228223e-05,0.3041468799136,-1.383242144944311e-05,0.3041468799136,-0.0001399926497508
0.3049409970935311,-3.60279063912594e-06,0.3049409970935311,-3.03807e-05,0.3049409970935311,-1.655426223694079e-05,0.3049409970935311,-0.0001716468738485
0.3057351142734621,-4.86763e-06,0.3057351142734621,-2.8999367999988004e-05,0.3057351142734621,-2.072466016823765e-05,0.3057351142734621,-0.0001735086016823
0.3065292314533932,-5.005723984361171e-06,0.3065292314533932,-2.3626992498218448e-05,0.3065292314533932,-1.2462921898040576e-06,0.3065292314533932,-0.0001539603371416
0.3073233486333243,-8.205767534987417e-06,0.3073233486333243,-2.1732189543171897e-05,0.3073233486333243,1.7763082595828017e-05,0.3073233486333243,-0.0001090846798027
0.3081174658132554,-1.5394517697070226e-05,0.3081174658132554,-1.7705362178925567e-05,0.3081174658132554,2.590060843788242e-05,0.3081174658132554,-4.935261706547741e-05
0.3089115829931864,-2.208732460003186e-05,0.3089115829931864,-8.934122120209693e-06,0.3089115829931864,4.785826822865783e-05,0.3089115829931864,7.386388687116973e-05
0.3097057001731175,-2.6865164467498517e-05,0.3097057001731175,-7.156197363567655e-06,0.3097057001731175,5.392002588750248e-05,0.3097057001731175,0.0002269128512819
0.3104998173530486,-3.64206684728934e-05,0.3104998173530486,-9.566937440604363e-06,0.3104998173530486,4.213296306426731e-05,0.3104998173530486,0.000306984026826
0.3112939345329796,-3.654351939404276e-05,0.3112939345329796,-6.5751364258824426e-06,0.3112939345329796,3.115662450454436e-05,0.3112939345329796,0.0003913922524487
0.3120880517129107,-3.129148391356299e-05,0.3120880517129107,-5.933034219792733e-06,0.3120880517129107,8.768371056394047e-06,0.3120880517129107,0.0004412364885957
0.3128821688928418,-2.614868293967497e-05,0.3128821688928418,-7.177904385338155e-06,0.3128821688928418,-6.321155422523033e-06,0.3128821688928418,0.0003388037981096
0.3136762860727728,-2.0846056044932672e-05,0.3136762860727728,-8.620257564303585e-06,0.3136762860727728,-1.66708243649734e-05,0.3136762860727728,0.0001765033147963
0.314470403252704,-1.4151333769972864e-05,0.314470403252704,-1.3751058033385898e-05,0.314470403252704,-1.6618929525181353e-05,0.314470403252704,5.251593437873762e-05
0.315264520432635,-6.6064581639000176e-06,0.315264520432635,-1.6754978562398257e-05,0.315264520432635,-1.2331897015526988e-05,0.315264520432635,-2.918489187428805e-05
0.3160586376125661,-3.653866660864961e-07,0.3160586376125661,-2.1097235036242213e-05,0.3160586376125661,-1.7643837945408753e-05,0.3160586376125661,-0.0001016462772343
0.3168527547924971,6.031779098634367e-06,0.3168527547924971,-2.55027070668258e-05,0.3168527547924971,-2.7397881123127303e-05,0.3168527547924971,-0.0001710878112312
0.3176468719724282,1.1757549917078668e-05,0.3176468719724282,-2.57598949496259e-05,0.3176468719724282,-3.27882449253708e-05,0.3176468719724282,-0.0002141393782371
0.3184409891523593,1.4524962292928825e-05,0.3184409891523593,-2.8781528928686854e-05,0.3184409891523593,-3.930374426767794e-05,0.3184409891523593,-0.0002338981162907
0.3192351063322903,1.2747031777897544e-05,0.3192351063322903,-3.221658379046164e-05,0.3192351063322903,-4.092669533369264e-05,0.3192351063322903,-0.0002698201511376
0.3200292235122214,1.3082325607409327e-05,0.3200292235122214,-3.184201278044844e-05,0.3200292235122214,-2.1269822059170924e-05,0.3200292235122214,-0.000292265203483
0.3208233406921525,1.1769016075419769e-05,0.3208233406921525,-2.9987940783674535e-05,0.3208233406921525,1.1775259864655947e-06,0.3208233406921525,-0.0002462800540386
0.3216174578720835,8.262985718128716e-06,0.3216174578720835,-2.485248603863067e-05,0.3216174578720835,2.124207941917624e-05,0.3216174578720835,-0.000127459928712
0.3224115750520147,-3.1701142927898643e-06,0.3224115750520147,-2.382475732414887e-05,0.3224115750520147,4.0205780236883103e-05,0.3224115750520147,-8.83141869373065e-06
0.3232056922319457,-9.133027027388854e-06,0.3232056922319457,-2.4653350413349412e-05,0.3232056922319457,4.0473269170393714e-05,0.3232056922319457,3.581182135605508e-05
0.3239998094118768,-7.553769184175942e-06,0.3239998094118768,-2.63518068945436e-05,0.3239998094118768,1.4610039406556872e-05,0.3239998094118768,-5.691149559508743e-06
0.3247939265918079,-9.645054004201103e-06,0.3247939265918079,-2.733944351880574e-05,0.3247939265918079,3.870718780429111e-07,0.3247939265918079,-0.0001008364107563
0.3255880437717389,-1.476811031888158e-05,0.3255880437717389,-2.2781543484541087e-05,0.3255880437717389,1.471608083313654e-06,0.3255880437717389,-8.585187114302191e-05
0.32638216095167,-1.9560198574298425e-05,0.32638216095167,-1.7131471009187293e-05,0.32638216095167,-5.512794091541286e-06,0.32638216095167,8.784686440090614e-05
0.3271762781316011,-1.7034241885301726e-05,0.3271762781316011,-1.2470020757047147e-05,0.3271762781316011,-8.611963136941164e-06,0.3271762781316011,0.0002407007370357
0.3279703953115321,-1.8727797984578256e-05,0.3279703953115321,-1.24493626672936e-05,0.3279703953115321,-1.8270404030843488e-06,0.3279703953115321,0.0002127030342621
0.3287645124914632,-2.1100360936288732e-05,0.3287645124914632,-1.3240646897292448e-05,0.3287645124914632,2.0024760213523014e-06,0.3287645124914632,0.0001457961280728
0.3295586296713942,-1.709111727997977e-05,0.3295586296713942,-9.924793464398706e-06,0.3295586296713942,1.541219166872503e-05,0.3295586296713942,0.0002368520250669
0.3303527468513254,-1.9144038765439736e-05,0.3303527468513254,-1.374921954105716e-05,0.3303527468513254,3.689348087154745e-05,0.3303527468513254,0.0003505067320686
0.3311468640312564,-2.0290602223917585e-05,0.3311468640312564,-2.0428199397012565e-05,0.3311468640312564,4.489875154830557e-05,0.3311468640312564,0.0003615201448765
0.3319409812111875,-1.6363876981197113e-05,0.3319409812111875,-1.7505510883144135e-05,0.3319409812111875,2.531313882296863e-05,0.3319409812111875,0.0003621181078434
0.3327350983911186,-8.148561037750302e-06,0.3327350983911186,-1.6438768380916275e-05,0.3327350983911186,1.3538759315918162e-05,0.3327350983911186,0.0002876631810073
0.3335292155710496,-4.847769773396408e-06,0.3335292155710496,-2.0349445863599623e-05,0.3335292155710496,1.4029839206887429e-05,0.3335292155710496,0.0001207007969221
0.3343233327509807,-5.53903e-06,0.3343233327509807,-2.2836068047580367e-05,0.3343233327509807,1.5560167176148142e-05,0.3343233327509807,-1.328742816850947e-05
0.3351174499309118,-4.946393261044792e-06,0.3351174499309118,-2.485113907903889e-05,0.3351174499309118,7.837294398609562e-06,0.3351174499309118,-6.09163138998539e-05
0.3359115671108428,-2.7941443909249413e-06,0.3359115671108428,-2.313309238194685e-05,0.3359115671108428,-2.606912162486973e-06,0.3359115671108428,-0.0001125309231725
0.3367056842907739,-3.485168779345144e-06,0.3367056842907739,-2.03098e-05,0.3367056842907739,-5.53903e-06,0.3367056842907739,-0.0001586565401433
0.337499801470705,-6.209561897595058e-06,0.337499801470705,-1.963865682575851e-05,0.337499801470705,-9.901240781672863e-06,0.337499801470705,-0.0001435188661907
0.338293918650636,-8.27409194514136e-06,0.338293918650636,-1.9144823104081934e-05,0.338293918650636,-2.232004334505382e-05,0.338293918650636,-0.000127139275618
0.3390880358305671,-4.642578958948403e-06,0.3390880358305671,-2.1414033213918725e-05,0.3390880358305671,-2.4182006731336984e-05,0.3390880358305671,-0.0001606258909429
0.3398821530104982,-3.0718550604887035e-06,0.3398821530104982,-2.378481726878037e-05,0.3398821530104982,-1.9434803514451915e-05,0.3398821530104982,-0.0001942410134591
0.3406762701904293,-1.629834837222675e-06,0.3406762701904293,-2.5601790757972653e-05,0.3406762701904293,-1.427018693478538e-05,0.3406762701904293,-0.0001883248975358
0.3414703873703603,-4.412300388733508e-06,0.3414703873703603,-2.4684129015459685e-05,0.3414703873703603,-9.509540820802418e-06,0.3414703873703603,-0.0001861911964859
0.3422645045502914,-2.873597703580756e-06,0.3422645045502914,-2.5463574094538875e-05,0.3422645045502914,-8.697921094745812e-06,0.3422645045502914,-0.0001954456332234
0.3430586217302225,-2.79414396668189e-06,0.3430586217302225,-2.5779917471469828e-05,0.3430586217302225,-1.33981465556063e-05,0.3430586217302225,-0.0001927404364522
0.3438527389101535,-5.736079894978636e-06,0.3438527389101535,-2.6095343260382554e-05,0.3438527389101535,-1.337868590937948e-05,0.3438527389101535,-0.0001825924100718
0.3446468560900846,-7.46369381609469e-06,0.3446468560900846,-2.6095605222656253e-05,0.3446468560900846,-1.610235467976315e-05,0.3446468560900846,-0.0001633649675337
0.3454409732700157,-1.10075648037019e-05,0.3454409732700157,-2.5483387974060464e-05,0.3454409732700157,-1.689438111777886e-05,0.3454409732700157,-0.0001390390815703
0.3462350904499467,-1.2845222669629027e-05,0.3462350904499467,-2.33519940572586e-05,0.3462350904499467,-1.6715268008887088e-05,0.3462350904499467,-0.0001181815802289
0.3470292076298778,-1.1621343336051603e-05,0.3470292076298778,-2.29953e-05,0.3470292076298778,-1.568948667210321e-05,0.3470292076298778,-0.0001049466613934
0.3478233248098089,-9.56741e-06,0.3478233248098089,-2.3587067840972535e-05,0.3478233248098089,-4.648347638088414e-06,0.3478233248098089,-8.656834649518994e-05
0.34861744198974,-8.382159454144355e-06,0.34861744198974,-2.394281744106249e-05,0.34861744198974,1.1011394158541584e-05,0.34861744198974,-6.89438962730869e-05
0.349411559169671,-3.761607239278689e-06,0.349411559169671,-2.3706079525015123e-05,0.349411559169671,1.2410847570857194e-05,0.349411559169671,-4.0509482109358106e-05
0.3502056763496021,-1.3132987503983398e-06,0.3502056763496021,-2.41804850663556e-05,0.3502056763496021,7.948986292964173e-06,0.3502056763496021,-2.0644386219160068e-05
0.3509997935295332,-1.5103425256811743e-06,0.3509997935295332,-2.366683354939441e-05,0.3509997935295332,-2.17891650503103e-06,0.3509997935295332,-3.8095850460455125e-05
0.3517939107094642,-1.21373348863608e-06,0.3517939107094642,-2.23239e-05,0.3517939107094642,-6.30938962329645e-06,0.3517939107094642,-4.673093037670355e-05
0.3525880278893953,-5.617055327163788e-06,0.3525880278893953,-2.23239e-05,0.3525880278893953,-4.591810376473039e-06,0.3525880278893953,-4.051426751711673e-05
0.3533821450693264,-6.014974930293065e-06,0.3533821450693264,-2.3113396722719668e-05,0.3533821450693264,5.978285026782857e-07,0.3533821450693264,-4.072532472776384e-05
0.3541762622492574,-1.7709696177364006e-06,0.3541762622492574,-2.4179902022494397e-05,0.3541762622492574,5.517102939553445e-06,0.3541762622492574,-3.589917848306154e-05
0.3549703794291886,4.913822245756663e-06,0.3549703794291886,-2.29953e-05,0.3549703794291886,4.8097951448983964e-06,0.3549703794291886,-1.96885643148142e-05
0.3557644966091196,1.174856700528313e-05,0.3557644966091196,-2.295607212706236e-05,0.3557644966091196,-4.627306056353731e-06,0.3557644966091196,-3.851082887934531e-05
0.3565586137890507,1.6458931380375213e-05,0.3565586137890507,-2.080491299053539e-05,0.3565586137890507,-2.048692306367254e-05,0.3565586137890507,-6.323884121168845e-05
0.3573527309689818,1.57687414967519e-05,0.3573527309689818,-1.786252859127564e-05,0.3573527309689818,-2.2581222885292307e-05,0.3573527309689818,-7.242144178803435e-05
0.3581468481489128,9.80729015723079e-06,0.3581468481489128,-1.6834272693241823e-05,0.3581468481489128,-1.6935272766251717e-05,0.3581468481489128,-5.40144606521531e-05
0.3589409653288439,4.711892758086336e-06,0.3589409653288439,-1.7663647341002525e-05,0.3589409653288439,-6.1810027013382805e-06,0.3589409653288439,4.9995840599849336e-06
0.3597350825087749,-1.1526650534216625e-06,0.3597350825087749,-1.640030829211658e-05,0.3597350825087749,1.7387823943556078e-05,0.3597350825087749,4.466970154416069e-05
0.360529199688706,-7.789499748904168e-06,0.360529199688706,-1.6143110516388248e-05,0.360529199688706,4.22260992177568e-05,0.360529199688706,8.930371114905632e-05
0.3613233168686371,-1.260879964980452e-05,0.3613233168686371,-1.3203148443057062e-05,0.3613233168686371,6.513703950428943e-05,0.3613233168686371,0.0002564807479782
0.3621174340485681,-1.3970893096549816e-05,0.3621174340485681,-1.3357428672128448e-05,0.3621174340485681,7.360701380690037e-05,0.3621174340485681,0.0003313825268209
0.3629115512284993,-1.438574535404045e-05,0.3629115512284993,-1.6202620403909136e-05,0.3629115512284993,5.601154209002472e-05,0.3629115512284993,0.0001886285926817
0.3637056684084303,-1.551133422642997e-05,0.3637056684084303,-1.7829867561879942e-05,0.3637056684084303,2.2406883236669392e-05,0.3637056684084303,5.177742965232645e-05
0.3644997855883614,-1.52743e-05,0.3644997855883614,-1.7121224107249418e-05,0.3644997855883614,-2.1769428694139287e-06,0.3644997855883614,-1.7105694756241147e-05
0.3652939027682925,-1.7839497149518896e-05,0.3652939027682925,-1.715053849315489e-05,0.3652939027682925,2.177957787710347e-06,0.3652939027682925,-4.818191380562957e-05
0.3660880199482235,-2.04295836850009e-05,0.3660880199482235,-1.766303505440711e-05,0.3660880199482235,5.373939438582784e-06,0.3660880199482235,-6.266216118124663e-05
0.3668821371281546,-1.651938539427922e-05,0.3668821371281546,-1.9479814264988485e-05,0.3668821371281546,-2.7567288385162647e-08,0.3668821371281546,-6.702835164048792e-05
0.3676762543080857,-1.7296342391522417e-05,0.3676762543080857,-1.9776378161304197e-05,0.3676762543080857,-9.584626546719015e-07,0.3676762543080857,-9.44011917719605e-06
0.3684703714880167,-1.8612034727350977e-05,0.3684703714880167,-1.80786747427221e-05,0.3684703714880167,-5.1799689709840814e-06,0.3684703714880167,0.0001085423194767
0.3692644886679478,-1.6795051734634857e-05,0.3692644886679478,-1.932206064543452e-05,0.3692644886679478,-1.3950721849360424e-05,0.3692644886679478,0.0001087324409019
0.3700586058478789,-1.5333630431400355e-05,0.3700586058478789,-2.192781859989813e-05,0.3700586058478789,-1.4632562270092422e-05,0.3700586058478789,4.149149104648893e-05
0.3708527230278099,-1.0102072347451027e-05,0.3708527230278099,-2.2895798962056714e-05,0.3708527230278099,-1.5688413122965714e-05,0.3708527230278099,4.262381327382747e-06
0.371646840207741,-2.776851978709728e-06,0.371646840207741,-2.3923384504313403e-05,0.371646840207741,-1.444632558242877e-05,0.371646840207741,-2.610892590889705e-05
0.3724409573876721,2.240424484138768e-06,0.3724409573876721,-2.1692062720914323e-05,0.3724409573876721,-1.588246092598092e-05,0.3724409573876721,-3.6462222989425845e-05
0.3732350745676032,4.08692165763884e-06,0.3732350745676032,-2.070495928257344e-05,0.3732350745676032,-2.107933368462056e-05,0.3732350745676032,-3.8120744912827407e-05
0.3740291917475342,4.53193e-06,0.3740291917475342,-2.2482010343653057e-05,0.3740291917475342,-1.7032378203480705e-05,0.3740291917475342,-4.990717556856535e-05
0.3748233089274653,5.914857118503559e-06,0.3748233089274653,-2.5185894668846857e-05,0.3748233089274653,-1.651857688369185e-05,0.3748233089274653,-8.674152338310601e-05
0.3756174261073964,1.2787315218870029e-05,0.3756174261073964,-2.3547493790003607e-05,0.3756174261073964,-1.7031597659127012e-05,0.3756174261073964,-0.0001025165659614
0.3764115432873274,1.1344555156028797e-05,0.3764115432873274,-2.813009957354513e-05,0.3764115432873274,-2.9222085236308857e-06,0.3764115432873274,-0.0001178798764047
0.3772056604672585,4.6414753709156364e-06,0.3772056604672585,-3.17235e-05,0.3772056604672585,2.75605808679069e-06,0.3772056604672585,-0.0001523163047994
0.3779997776471896,1.6856980530436608e-07,0.3779997776471896,-3.038127528969901e-05,0.3779997776471896,-3.5238689253065413e-06,0.3779997776471896,-0.0001606311988618
0.3787938948271206,-2.9309464125551437e-06,0.3787938948271206,-2.649027691639068e-05,0.3787938948271206,5.358352825110286e-06,0.3787938948271206,-0.0001733519463311
0.3795880120070517,-6.159568448027188e-06,0.3795880120070517,-2.57682586494278e-05,0.3795880120070517,5.598927416312971e-06,0.3795880120070517,-0.0001448863078408
0.3803821291869828,-8.462616712078554e-06,0.3803821291869828,-2.827707209619733e-05,0.3803821291869828,8.592308890259345e-06,0.3803821291869828,-1.864510144523495e-05
0.3811762463669139,-6.202600194095642e-06,0.3811762463669139,-2.82773890437638e-05,0.3811762463669139,1.5588012515532028e-05,0.3811762463669139,8.366832543902999e-05
0.3819703635468449,-5.893978544455428e-06,0.3819703635468449,-2.4400018913135608e-05,0.3819703635468449,1.768196149368046e-05,0.3819703635468449,0.0001852305581792
0.382764480726776,-7.010235794014256e-06,0.382764480726776,-2.0132285086828185e-05,0.382764480726776,2.960613124294508e-05,0.382764480726776,0.000349018782431
0.3835585979067071,-4.354489758551473e-06,0.3835585979067071,-2.048603574309208e-05,0.3835585979067071,4.763857721895046e-05,0.3835585979067071,0.0003399195234818
0.3843527150866381,-4.698750644442803e-06,0.3843527150866381,-2.025186074581472e-05,0.3843527150866381,4.231114859726691e-05,0.3843527150866381,0.000172255647081
0.3851468322665692,-1.2131221226229513e-05,0.3851468322665692,-1.8453641264403436e-05,0.3851468322665692,2.096901114708975e-05,0.3851468322665692,8.744431604135204e-05
0.3859409494465003,-1.9657855761699278e-05,0.3859409494465003,-1.5807400591800647e-05,0.3859409494465003,6.301815702102625e-07,0.3859409494465003,4.193600062133722e-05
0.3867350666264313,-2.0230605507495738e-05,0.3867350666264313,-1.1781079771797384e-05,0.3867350666264313,-1.1046162941538382e-05,0.3867350666264313,3.106052650311826e-05
0.3875291838063624,-1.900681198458485e-05,0.3875291838063624,-1.1028687097872558e-05,0.3875291838063624,-9.765793862711752e-06,0.3875291838063624,0.0001378770638018
0.3883233009862935,-1.8335662002542543e-05,0.3883233009862935,-9.766566110607976e-06,0.3883233009862935,-6.1319114698876165e-06,0.3883233009862935,0.0001982874971541
0.3891174181662246,-2.6689534174215787e-05,0.3891174181662246,-8.776783243942845e-06,0.3891174181662246,-1.600709167194925e-05,0.3891174181662246,0.0001534622673975
0.3899115353461556,-2.8870034171494274e-05,0.3899115353461556,-9.251415172053097e-06,0.3899115353461556,-3.420192856073288e-05,0.3899115353461556,5.509330643123178e-05
0.3907056525260867,-2.230474923484164e-05,0.3907056525260867,-1.217099619279107e-05,0.3907056525260867,-6.043186875932075e-05,0.3907056525260867,-2.531642366949401e-05
0.3914997697060178,-1.829676130435368e-05,0.3914997697060178,-1.2589146876819828e-05,0.3914997697060178,-7.402017279502437e-05,0.3914997697060178,-8.474764178846785e-05
0.3922938868859488,-9.571683031069311e-06,0.3922938868859488,-1.4544528138233743e-05,0.3922938868859488,-4.91926984525241e-05,0.3922938868859488,-0.0001287815290972
0.3930880040658799,-2.1249904818731534e-06,0.3930880040658799,-1.9516174014775087e-05,0.3930880040658799,-2.7898632970997247e-05,0.3930880040658799,-0.0001808951557171
0.393882121245811,-1.51064e-06,0.393882121245811,-2.536360525361283e-05,0.393882121245811,-2.179293976108868e-05,0.393882121245811,-0.0002439039027342
0.394676238425742,-4.063286074236414e-07,0.394676238425742,-2.761603177107072e-05,0.394676238425742,-1.7825082713102073e-05,0.394676238425742,-0.000284783501653
0.3954703556056732,-2.062295974511629e-06,0.3954703556056732,-2.7891359936990225e-05,0.3954703556056732,-3.178473416521172e-06,0.3954703556056732,-0.000272926180669
0.3962644727856042,-2.18204e-06,0.3962644727856042,-2.9945966004834997e-05,0.3962644727856042,1.6378377677645534e-05,0.3962644727856042,-0.0002402674968514
0.3970585899655353,-4.077500930497884e-06,0.3970585899655353,-3.152542404396228e-05,0.3970585899655353,1.8710453105976813e-05,0.3970585899655353,-0.0002220950565893
0.3978527071454664,-7.019480213545768e-06,0.3978527071454664,-3.073720914271239e-05,0.3978527071454664,1.900616023051598e-05,0.3978527071454664,-0.0002191235180879
0.3986468243253974,-6.6070587740986365e-06,0.3986468243253974,-2.919595153743381e-05,0.3986468243253974,1.985582940637436e-05,0.3986468243253974,-0.0001901945403743
0.3994409415053285,-2.094515276486091e-06,0.3994409415053285,-2.59277869614756e-05,0.3994409415053285,2.253289500932317e-05,0.3994409415053285,-0.0001252487574283
0.4002350586852595,9.809853998168116e-08,0.4002350586852595,-2.4367843635346662e-05,0.4002350586852595,3.70307953092615e-05,0.4002350586852595,-2.4501990131910904e-05
0.4010291758651906,5.39960385396362e-06,0.4010291758651906,-2.435784588407228e-05,0.4010291758651906,3.4331626061726414e-05,0.4010291758651906,7.569206442367164e-05
0.4018232930451217,1.0811631118003048e-05,0.4018232930451217,-2.796813413937229e-05,0.4018232930451217,3.2790590031013715e-05,0.4018232930451217,8.160153887287618e-05
0.4026174102250527,1.19173e-05,0.4026174102250527,-3.2551729046823346e-05,0.4026174102250527,3.687723088677277e-05,0.4026174102250527,4.042557072517358e-05
0.4034115274049838,7.928420369929498e-06,0.4034115274049838,-3.247374123427299e-05,0.4034115274049838,2.721133720561948e-05,0.4034115274049838,-2.2225029498571867e-05
0.4042056445849149,-1.6667112361374169e-06,0.4042056445849149,-2.807182244966516e-05,0.4042056445849149,1.970017215006533e-05,0.4042056445849149,-3.722129276614816e-05
0.404999761764846,-1.3592367583563134e-05,0.404999761764846,-2.5681670477275666e-05,0.404999761764846,2.187360240876034e-06,0.404999761764846,1.324568385914491e-05
0.4057938789447771,-1.4663170221404971e-05,0.4057938789447771,-2.0012586483608583e-05,0.4057938789447771,5.297945012059903e-06,0.4057938789447771,1.4822432998161187e-05
0.4065879961247081,-1.4917624616197977e-05,0.4065879961247081,-1.340177882341946e-05,0.4065879961247081,1.9015239076241277e-05,0.4065879961247081,2.835197185039977e-05
0.4073821133046392,-1.6421768426157317e-05,0.4073821133046392,-8.462629046165224e-06,0.4073821133046392,3.4135635796620245e-05,0.4073821133046392,6.31441911649517e-05
0.4081762304845703,-1.2730008177334696e-05,0.4081762304845703,-2.754322546909792e-06,0.4081762304845703,2.267276699197387e-05,0.4081762304845703,0.0002111694318536
0.4089703476645013,-9.370708863856907e-06,0.4089703476645013,6.973024296107482e-08,0.4089703476645013,6.569738459992828e-06,0.4089703476645013,0.0003607632362354
0.4097644648444324,-8.461180911647814e-06,0.4097644648444324,-6.20906791280526e-06,0.4097644648444324,7.927228036881448e-06,0.4097644648444324,0.000296606880845
0.4105585820243635,-1.0811230542094425e-05,0.4105585820243635,-1.3040112058095088e-05,0.4105585820243635,6.447946934826937e-06,0.4105585820243635,0.0001330590159631
0.4113526992042945,-9.489079338889496e-06,0.4113526992042945,-1.4010217577806711e-05,0.4113526992042945,2.35884009887435e-06,0.4113526992042945,2.735391375290205e-05
0.4121468163842256,-6.952351928955464e-06,0.4121468163842256,-1.5807214568607422e-05,0.4121468163842256,5.878417938396213e-06,0.4121468163842256,1.91807025404609e-05
0.4129409335641567,-3.8410857043281424e-06,0.4129409335641567,-2.0112226286451603e-05,0.4129409335641567,-1.3507723077991393e-05,0.4129409335641567,6.810328602480723e-06
0.4137350507440878,-4.037818132147059e-06,0.4137350507440878,-2.5876502463048458e-05,0.4137350507440878,-2.1712906075371428e-05,0.4137350507440878,-4.499340720121305e-05
0.4145291679240188,-4.2851372187842e-06,0.4145291679240188,-2.757662317515775e-05,0.4145291679240188,-1.4978457750273604e-05,0.4145291679240188,-7.573676687294798e-05
0.4153232851039499,-2.51774e-06,0.4153232851039499,-2.706354171270004e-05,0.4153232851039499,-1.657778529394819e-05,0.4153232851039499,-9.380963827652424e-05
0.416117402283881,-3.5547250740282936e-06,0.416117402283881,-2.667863796409838e-05,0.416117402283881,-1.8848751914186167e-05,0.416117402283881,-0.0001240251556981
0.416911519463812,-1.273738042282877e-06,0.416911519463812,-2.4604577225417025e-05,0.416911519463812,-1.3911839122536656e-05,0.416911519463812,-0.0001494155766017
0.4177056366437431,1.0762989215382992e-06,0.4177056366437431,-2.350911074893148e-05,0.4177056366437431,-8.402798730846603e-06,0.4177056366437431,-0.0001350439252106
0.4184997538236742,-1.6731697650901255e-07,0.4184997538236742,-2.534424460817849e-05,0.4184997538236742,-9.566168610973903e-06,0.4184997538236742,-0.0001294093396052
0.4192938710036052,-1.7860486159465184e-06,0.4192938710036052,-2.70237e-05,0.4192938710036052,-1.4620017116350284e-05,0.4192938710036052,-0.0001693009059611
0.4200879881835363,-4.945573440084755e-06,0.4200879881835363,-2.8837978868000063e-05,0.4200879881835363,-2.4134419567780885e-05,0.4200879881835363,-0.0002199129305013
0.4208821053634674,-7.569062908681586e-06,0.4208821053634674,-3.184149399241629e-05,0.4208821053634674,-2.821025767298045e-05,0.4208821053634674,-0.0002906983775277
0.4216762225433985,-1.2033202552994652e-05,0.4216762225433985,-3.223680455523949e-05,0.4216762225433985,-2.398694917165749e-05,0.4216762225433985,-0.0003264412775563
0.4224703397233295,-1.2974664431518874e-05,0.4224703397233295,-2.931686231026231e-05,0.4224703397233295,-1.6254786403678102e-05,0.4224703397233295,-0.0002796130964791
0.4232644569032606,-9.450292199339295e-06,0.4232644569032606,-2.502950061867699e-05,0.4232644569032606,-1.6635066247896436e-05,0.4232644569032606,-0.0001782288000258
0.4240585740831917,-4.354627350368303e-06,0.4240585740831917,-2.623131414965318e-05,0.4240585740831917,-2.092180077243514e-05,0.4240585740831917,-0.0001415557918086
0.4248526912631227,-1.5509657246574105e-06,0.4248526912631227,-3.0281137323874565e-05,0.4248526912631227,-9.551942464269969e-06,0.4248526912631227,-0.0001996417528905
0.4256468084430538,2.861077753220176e-07,0.4256468084430538,-2.95121162504835e-05,0.4256468084430538,1.6506498535084516e-05,0.4256468084430538,-0.0001383073648378
0.4264409256229849,1.5689556879743871e-06,0.4264409256229849,-2.0862848027474243e-05,0.4264409256229849,4.007712287468375e-05,0.4264409256229849,9.739147993540324e-05
0.4272350428029159,3.2871973956838127e-06,0.4272350428029159,-1.3638157943609596e-05,0.4272350428029159,3.123697294840204e-05,0.4272350428029159,0.0003929266882165
0.428029159982847,5.124390079139763e-06,0.428029159982847,-9.685878159232978e-06,0.428029159982847,2.1928432020283616e-05,0.428029159982847,0.0005673761464431
0.4288232771627781,1.925029091060221e-06,0.4288232771627781,-1.34533379279526e-05,0.4288232771627781,2.7240857323842828e-05,0.4288232771627781,0.0005023791015064
0.4296173943427092,-3.50573602433928e-06,0.4296173943427092,-1.815757209855979e-05,0.4296173943427092,2.550288704647336e-05,0.4296173943427092,0.0002556838048319
0.4304115115226402,-9.725242643920594e-06,0.4304115115226402,-1.2904229305577524e-05,0.4304115115226402,2.7695239185587967e-05,0.4304115115226402,0.0002215890463486
0.4312056287025713,-1.5056296868012162e-05,0.4312056287025713,-1.4487879633466962e-06,0.4312056287025713,3.3200567041757537e-07,0.4312056287025713,0.0003184985927931
0.4319997458825024,-1.9301418560713284e-05,0.4319997458825024,1.175268736970884e-06,0.4319997458825024,-2.4332791234629536e-05,0.4319997458825024,0.0003301659566028
0.4327938630624334,-1.8691616085514803e-05,0.4327938630624334,-4.27573189179324e-06,0.4327938630624334,-2.86805718503491e-05,0.4327938630624334,0.0002555164182131
0.4335879802423645,-1.0958198285853891e-05,0.4335879802423645,-8.021642436421535e-06,0.4335879802423645,-3.442707706840627e-05,0.4335879802423645,0.0001634557648442
0.4343820974222956,4.501197728372715e-06,0.4343820974222956,-1.6279237147011363e-05,0.4343820974222956,-3.018504069143214e-05,0.4343820974222956,6.930709374405575e-05
0.4351762146022266,1.44018628276983e-05,0.4351762146022266,-2.2047775573489933e-05,0.4351762146022266,-1.5284346438968074e-05,0.4351762146022266,-1.003916526363352e-05
0.4359703317821577,1.2017921770616907e-05,0.4359703317821577,-2.728697783993828e-05,0.4359703317821577,-4.123979796524687e-06,0.4359703317821577,-8.382055306181791e-05
0.4367644489620888,8.157141112419008e-06,0.4367644489620888,-2.95022799892906e-05,0.4367644489620888,2.130837375270824e-05,0.4367644489620888,-0.0001384887633558
0.4375585661420199,7.808235955385337e-07,0.4375585661420199,-2.699616157980466e-05,0.4375585661420199,5.25437264353441e-05,0.4375585661420199,-0.0001598797473213
0.438352683321951,-5.6955631289382095e-06,0.438352683321951,-2.49307926952236e-05,0.438352683321951,6.596356098749927e-05,0.438352683321951,-0.000145356098326
0.439146800501882,-1.098644721242269e-05,0.439146800501882,-2.3390505891312163e-05,0.439146800501882,5.600077779495761e-05,0.439146800501882,-0.0001277677928495
0.4399409176818131,-1.9997904454047025e-05,0.4399409176818131,-2.3153200632544758e-05,0.4399409176818131,3.625374642924558e-05,0.4399409176818131,-0.0001526424127939
0.4407350348617442,-2.8285346733022425e-05,0.4407350348617442,-2.599539020910431e-05,0.4407350348617442,1.9310467164184862e-05,0.4407350348617442,-0.0001636339166967
0.4415291520416752,-3.334214472605648e-05,0.4415291520416752,-2.678676689637619e-05,0.4415291520416752,-2.712034237124224e-06,0.4415291520416752,-0.0001457664902369
0.4423232692216063,-3.1920775061060294e-05,0.4423232692216063,-2.457721179584717e-05,0.4423232692216063,-1.5096918643144484e-05,0.4423232692216063,-0.0001305671199075
0.4431173864015373,-2.852420997852827e-05,0.4431173864015373,-2.0824463410449868e-05,0.4431173864015373,-2.666999688442611e-05,0.4431173864015373,-0.0001340724564182
0.4439115035814684,-2.5720580595721217e-05,0.4439115035814684,-1.932242571811375e-05,0.4439115035814684,-3.535699611914424e-05,0.4439115035814684,-0.0001238042537739
0.4447056207613995,-1.8020492118658707e-05,0.4447056207613995,-2.03098e-05,0.4447056207613995,-2.7972893115998152e-05,0.4447056207613995,-8.59942782270292e-05
0.4454997379413306,-1.124797661813006e-05,0.4454997379413306,-2.165192197999747e-05,0.4454997379413306,-2.165448777842793e-05,0.4454997379413306,-7.469138973226905e-05
0.4462938551212617,-9.60841069980584e-06,0.4462938551212617,-2.491117408372417e-05,0.4462938551212617,-1.9401709754392377e-05,0.4462938551212617,-0.0001033619729172
0.4470879723011927,-3.6777975248506088e-06,0.4470879723011927,-2.7533880373012693e-05,0.4470879723011927,-2.1077016376028244e-05,0.4470879723011927,-0.0001426230897893
0.4478820894811238,3.345335299695077e-06,0.4478820894811238,-3.3143435151031986e-05,0.4478820894811238,-2.9147482314548625e-05,0.4478820894811238,-0.0002252290976371
0.4486762066610549,3.427710960519553e-06,0.4486762066610549,-3.77661e-05,0.4486762066610549,-3.839318178839806e-05,0.4486762066610549,-0.0003051352497269
0.4494703238409859,2.112512468086865e-06,0.4494703238409859,-3.798299443818687e-05,0.4494703238409859,-3.634651350353672e-05,0.4494703238409859,-0.0003276203875987
0.450264441020917,3.898693578704017e-06,0.450264441020917,-3.71346702242597e-05,0.450264441020917,-3.377838153267241e-05,0.450264441020917,-0.0003246931630236
0.4510585582008481,1.031695546915547e-05,0.4510585582008481,-3.480533393827144e-05,0.4510585582008481,-2.4773946588077942e-05,0.4510585582008481,-0.0003064355929001
0.4518526753807791,1.152355418791286e-05,0.4518526753807791,-3.077907398086545e-05,0.4518526753807791,-5.150366170614902e-06,0.4518526753807791,-0.0002628960551564
0.4526467925607102,4.5835242599188896e-06,0.4526467925607102,-2.615517788866557e-05,0.4526467925607102,2.4364281485327982e-05,0.4526467925607102,-0.0001465321390464
0.4534409097406413,4.841209612396577e-07,0.4534409097406413,-1.8098515002437497e-05,0.4534409097406413,5.664601162428113e-05,0.4534409097406413,7.720129682008412e-05
0.4542350269205724,-6.015778917893772e-07,0.4542350269205724,-6.690577225248075e-06,0.4542350269205724,8.307741473396809e-05,0.4542350269205724,0.0004020809925942
0.4550291441005034,-6.722114999446416e-06,0.4550291441005034,2.666262280429436e-07,0.4550291441005034,8.40943371949291e-05,0.4550291441005034,0.0007543051775415
0.4558232612804345,-1.4622759379938078e-05,0.4558232612804345,-7.595321709613111e-07,0.4558232612804345,7.076254157969413e-05,0.4558232612804345,0.0007162419821157
0.4566173784603656,-1.302246550410327e-05,0.4566173784603656,-2.21941570595753e-06,0.4566173784603656,4.396331577394869e-05,0.4566173784603656,0.0004281541928662
0.4574114956402966,-6.714179000232873e-06,0.4574114956402966,-8.619779210700033e-06,0.4574114956402966,1.749668904493021e-05,0.4574114956402966,0.0002595502530708
0.4582056128202277,-2.933079083065733e-06,0.4582056128202277,-1.2369469207615022e-05,0.4582056128202277,3.625325890026225e-06,0.4582056128202277,0.0001286624085939
0.4589997300001588,-1.51064e-06,0.4589997300001588,-1.5944302867873706e-05,0.4589997300001588,-6.206918941608408e-06,0.4589997300001588,3.544440298985095e-05
0.4597938471800898,-1.51064e-06,0.4597938471800898,-2.0113023299168227e-05,0.4597938471800898,-1.661233671409669e-05,0.4597938471800898,-4.25545704720233e-05
0.4605879643600209,-2.062095790615252e-06,0.4605879643600209,-2.43381e-05,0.4605879643600209,-3.1788966063191074e-05,0.4605879643600209,-0.0001148013819158
0.461382081539952,-4.040057632188899e-06,0.461382081539952,-2.512743235423424e-05,0.461382081539952,-5.063206765427485e-05,0.461382081539952,-0.0001592271691356
0.4621761987198831,-3.689891905646192e-07,0.4621761987198831,-2.90379e-05,0.4621761987198831,-5.9049659854898725e-05,0.4621761987198831,-0.0001873099591705
0.4629703158998141,4.136286478366966e-06,0.4629703158998141,-2.860412139665665e-05,0.4629703158998141,-5.605683335575785e-05,0.4629703158998141,-0.0002158684770728
0.4637644330797452,3.7028641729395592e-06,0.4637644330797452,-2.7576818362734188e-05,0.4637644330797452,-3.984401145655802e-05,0.4637644330797452,-0.0002452430226311
0.4645585502596763,1.2938416493763552e-06,0.4645585502596763,-2.607715444482054e-05,0.4645585502596763,-2.276051376607816e-05,0.4645585502596763,-0.0002494740040666
0.4653526674396073,-4.1153834559995245e-06,0.4653526674396073,-2.43381e-05,0.4653526674396073,1.5633659310822252e-06,0.4653526674396073,-0.000213072123341
0.4661467846195384,-1.108551928557134e-05,0.4661467846195384,-2.3054857256463746e-05,0.4661467846195384,2.35974257769008e-05,0.4661467846195384,-0.0001660292140606
0.4669409017994695,-1.2846714545531904e-05,0.4669409017994695,-1.9283130887358784e-05,0.4669409017994695,4.6940891363191545e-05,0.4669409017994695,-7.59967081046458e-05
0.4677350189794005,-1.1838071183229112e-05,0.4677350189794005,-1.790040476182037e-05,0.4677350189794005,5.524118473291646e-05,0.4677350189794005,5.7598340554068174e-05
0.4685291361593316,-1.4858701436697636e-05,0.4685291361593316,-2.0546712557563192e-05,0.4685291361593316,5.867733875711043e-05,0.4685291361593316,9.908673696804344e-05
0.4693232533392627,-2.092199749412388e-05,0.4693232533392627,-2.0685362219249043e-05,0.4693232533392627,5.842102054569687e-05,0.4693232533392627,3.2215618776167867e-05
0.4701173705191938,-2.1810344094362337e-05,0.4701173705191938,-1.569202511347401e-05,0.4701173705191938,3.059432069458848e-05,0.4701173705191938,-8.917130682824054e-06
0.4709114876991248,-1.792061667919689e-05,0.4709114876991248,-1.3714262961667702e-05,0.4709114876991248,-7.709338242636316e-06,0.4709114876991248,2.5963052905488485e-06
0.4717056048790559,-1.4327941177015128e-05,0.4717056048790559,-1.8412043525039336e-05,0.4717056048790559,-3.691244709156127e-05,0.4717056048790559,-5.912602856966578e-06
0.472499722058987,-5.542433805211934e-06,0.472499722058987,-1.93027e-05,0.472499722058987,-5.001679738395982e-05,0.472499722058987,1.995668048837686e-05
0.473293839238918,-2.457355118320778e-06,0.473293839238918,-2.146528982527772e-05,0.473293839238918,-4.262767172719844e-05,0.473293839238918,8.495934624197052e-05
0.4740879564188491,-6.6418875039416905e-06,0.4740879564188491,-2.07874356491779e-05,0.4740879564188491,-3.850060927922695e-05,0.4740879564188491,0.00010392190251
0.4748820735987802,-1.1893901197600395e-05,0.4748820735987802,-1.7821527952043368e-05,0.4748820735987802,-1.8014346762907865e-05,0.4748820735987802,0.0001536138225389
0.4756761907787112,-1.3715109251444752e-05,0.4756761907787112,-2.1001018424312397e-05,0.4756761907787112,2.33029085521633e-05,0.4756761907787112,0.0001839142381705
0.4764703079586423,-1.5490084353178606e-05,0.4764703079586423,-2.3883584165156536e-05,0.4764703079586423,4.490674265137935e-05,0.4764703079586423,0.0001031465061369
0.4772644251385734,-1.699220244260219e-05,0.4772644251385734,-2.4614664317882285e-05,0.4772644251385734,5.605145673398754e-05,0.4772644251385734,1.3863559114682322e-05
0.4780585423185045,-1.8384109301694183e-05,0.4780585423185045,-2.362820621352724e-05,0.4780585423185045,5.056353081695263e-05,0.4780585423185045,-7.01929384472323e-06
0.4788526594984356,-1.809877295806604e-05,0.4788526594984356,-2.605342705707781e-05,0.4788526594984356,2.6843840154749147e-05,0.4788526594984356,-1.5049048626787488e-05
0.4796467766783666,-1.4446646631196165e-05,0.4796467766783666,-2.83665e-05,0.4796467766783666,-2.573796098851232e-06,0.4796467766783666,-6.70353450984435e-05
0.4804408938582977,-8.64360795888225e-06,0.4804408938582977,-2.6352594952591416e-05,0.4804408938582977,-2.7767128242669204e-05,0.4804408938582977,-5.524807017459943e-05
0.4812350110382288,-2.22374847705958e-06,0.4812350110382288,-2.102378677206735e-05,0.4812350110382288,-3.6460823700144245e-05,0.4812350110382288,2.0140730020316743e-05
0.4820291282181598,-1.826353917752199e-06,0.4820291282181598,-1.620278629280313e-05,0.4820291282181598,-3.841850625569396e-05,0.4820291282181598,6.530724396170609e-05
0.4828232453980909,-9.77186253609445e-09,0.4828232453980909,-1.1524971421204222e-05,0.4828232453980909,-1.96775107308358e-05,0.4828232453980909,8.051829691046834e-05
0.483617362578022,7.415576025919044e-06,0.483617362578022,-1.0356288988175684e-05,0.483617362578022,-4.472341680713612e-06,0.483617362578022,7.440549973265389e-05
0.484411479757953,7.632311657124848e-06,0.484411479757953,-1.535336534042977e-05,0.484411479757953,-1.963712239429855e-05,0.484411479757953,5.8796761034452976e-05
0.4852055969378841,4.217191173101811e-06,0.4852055969378841,-1.6322545726029295e-05,0.4852055969378841,-2.8891058235533253e-05,0.4852055969378841,6.02640770012196e-05
0.4859997141178152,-1.5085805562730112e-06,0.4859997141178152,-1.6952060341815477e-05,0.4859997141178152,-1.6958669418916284e-05,0.4859997141178152,-3.0593901544620814e-07
0.4867938312977463,-7.234346365394191e-06,0.4867938312977463,-2.1672722848354685e-05,0.4867938312977463,-1.0002126953433494e-05,0.4867938312977463,-7.040306541023216e-05
0.4875879484776773,-9.360631277560406e-06,0.4875879484776773,-2.4299357402865955e-05,0.4875879484776773,-7.3407121925078e-06,0.4875879484776773,-9.165137729789037e-05
0.4883820656576084,-9.052136504042987e-06,0.4883820656576084,-2.2680144701869064e-05,0.4883820656576084,-5.2032627206490645e-06,0.4883820656576084,-9.77857892545181e-05
0.4891761828375395,-1.189503792139928e-05,0.4891761828375395,-1.9934601771996148e-05,0.4891761828375395,-1.7654472378464023e-05,0.4891761828375395,-0.0001120828665365
0.4899703000174705,-1.1150093786162128e-05,0.4899703000174705,-2.0289037085924103e-05,0.4899703000174705,-9.045068594422305e-06,0.4899703000174705,-0.0001111115564258
0.4907644171974016,-6.181215732301885e-06,0.4907644171974016,-2.340921381921767e-05,0.4907644171974016,1.3838211866533058e-05,0.4907644171974016,-0.0001154014677749
0.4915585343773327,-3.643800445540843e-06,0.4915585343773327,-2.7238209084162983e-05,0.4915585343773327,2.0961371592409862e-05,0.4915585343773327,-0.0001553428043291
0.4923526515572637,1.3515010801011338e-06,0.4923526515572637,-2.996631324128429e-05,0.4923526515572637,1.0814636943698932e-05,0.4923526515572637,-0.0001878755310912
0.4931467687371948,2.735209537470323e-06,0.4931467687371948,-2.8297827708125693e-05,0.4931467687371948,3.40660305937865e-06,0.4931467687371948,-0.0001836745475741
0.4939408859171259,1.1555304493254527e-06,0.4939408859171259,-2.90573973397196e-05,0.4939408859171259,6.998278807345875e-06,0.4939408859171259,-0.0001287220156217
0.494735003097057,5.82787786103351e-07,0.494735003097057,-2.9335427556049883e-05,0.494735003097057,9.152469741806938e-06,0.494735003097057,-6.448917861033511e-05
0.495529120276988,-2.567728511326883e-07,0.495529120276988,-2.485177795974149e-05,0.495529120276988,2.277325126691621e-05,0.495529120276988,-3.660436569938692e-05
0.4963232374569191,2.0733644508731597e-07,0.4963232374569191,-2.303517247252356e-05,0.4963232374569191,4.276212251198498e-05,0.4963232374569191,-1.802895825036572e-05
0.4971173546368502,-2.656187866565691e-06,0.4971173546368502,-2.0824586686813788e-05,0.4971173546368502,4.88441e-05,0.4971173546368502,2.268380284432732e-05
0.4979114718167812,-5.36119663981823e-06,0.4979114718167812,-1.742672384922107e-05,0.4979114718167812,3.7273587765555214e-05,0.4979114718167812,0.0001369870123852
0.4987055889967123,-9.586266166632926e-06,0.4987055889967123,-1.876827529593246e-05,0.4987055889967123,2.244570984472088e-05,0.4987055889967123,0.0001561156437671
0.4994997061766434,-9.568468325248504e-06,0.4994997061766434,-1.93027e-05,0.4994997061766434,3.1973949608981645e-06,0.4994997061766434,6.365416394301263e-05
0.5002938233565745,-7.079885372894388e-06,0.5002938233565745,-1.9322522931799776e-05,0.5002938233565745,-2.104822204246566e-05,0.5002938233565745,-3.168053875912265e-05
0.5010879405365055,-7.316446625693658e-06,0.5010879405365055,-2.180752352752514e-05,0.5010879405365055,-3.3221980491676104e-05,0.5010879405365055,-8.849062647091811e-05
0.5018820577164366,-4.55542169315104e-06,0.5018820577164366,-2.5522006074078056e-05,0.5018820577164366,-3.2082690530619503e-05,0.5018820577164366,-0.0001321820081893
0.5026761748963677,-5.258438032405621e-07,0.5026761748963677,-2.7616113797266774e-05,0.5026761748963677,-2.9157232134289007e-05,0.5026761748963677,-0.0001945725531637
0.5034702920762988,-1.409822247780821e-06,0.5034702920762988,-2.658995221574762e-05,0.5034702920762988,-3.3459452575281206e-05,0.5034702920762988,-0.0002161229691431
0.5042644092562298,-4.275046925571573e-06,0.5042644092562298,-2.4920820692655628e-05,0.5042644092562298,-2.045858113645797e-05,0.5042644092562298,-0.0002002532663607
0.5050585264361609,-5.163661718792263e-06,0.5050585264361609,-2.4387654252631898e-05,0.5050585264361609,1.4419955699573174e-05,0.5050585264361609,-0.0001492480968724
0.505852643616092,-7.887448537422169e-06,0.505852643616092,-2.2344896949274333e-05,0.505852643616092,2.380561882217587e-05,0.505852643616092,-3.985305213360897e-05
0.506646760796023,-1.2962348377095776e-05,0.506646760796023,-1.9777101165029872e-05,0.506646760796023,2.16102368073001e-05,0.506646760796023,2.376163572536395e-05
0.507440877975954,-1.5093833316606724e-05,0.507440877975954,-1.7071267453144053e-05,0.507440877975954,3.240847496236513e-05,0.507440877975954,2.0944302448582148e-05
0.5082349951558852,-2.070164825314998e-05,0.5082349951558852,-1.66766106477251e-05,0.5082349951558852,3.861470804219166e-05,0.5082349951558852,7.881723027828558e-05
0.5090291123358163,-1.811997172073709e-05,0.5090291123358163,-1.3280427830694964e-05,0.5090291123358163,3.145005309855957e-05,0.5090291123358163,0.0002614631232419
0.5098232295157473,-9.883379681710058e-06,0.5098232295157473,-7.280593615820446e-06,0.5098232295157473,2.070473121931964e-05,0.5098232295157473,0.0004568949277987
0.5106173466956784,-8.22461e-06,0.5106173466956784,-1.3670141646983994e-05,0.5106173466956784,1.1521447832814054e-05,0.5106173466956784,0.0004409350142124
0.5114114638756094,-1.0495369826077948e-05,0.5114114638756094,-1.888799439724162e-05,0.5114114638756094,-1.2843673545464008e-05,0.5114114638756094,0.0003076200020081
0.5122055810555405,-9.292670639004172e-06,0.5122055810555405,-1.598688681815075e-05,0.5122055810555405,-2.046936747496939e-05,0.5122055810555405,0.0002089811919251
0.5129996982354716,-1.178200792376166e-06,0.5129996982354716,-1.3596775937882198e-05,0.5129996982354716,-1.0914547740436575e-05,0.5129996982354716,0.0001978907395184
0.5137938154154027,3.739625594518929e-06,0.5137938154154027,-1.3141781646923848e-05,0.5137938154154027,-1.1185446322156404e-05,0.5137938154154027,0.0001430941727719
0.5145879325953338,8.655939912637383e-06,0.5145879325953338,-1.8489210255367115e-05,0.5145879325953338,-2.764411034334208e-06,0.5145879325953338,-8.754781843845956e-06
0.5153820497752648,1.0715098909066187e-05,0.5153820497752648,-2.224447885104359e-05,0.5153820497752648,8.025481577306199e-06,0.5153820497752648,-0.0001247182439793
0.5161761669551959,8.403625363567082e-06,0.5161761669551959,-2.5285915823105343e-05,0.5161761669551959,7.545713055673167e-06,0.5161761669551959,-0.0001822368115673
0.5169702841351269,7.514936451057804e-06,0.5169702841351269,-2.8877481289277e-05,0.5169702841351269,3.131717034053068e-06,0.5169702841351269,-0.000229740782955
0.5177644013150581,2.8155333820572736e-06,0.5177644013150581,-3.156516081771666e-05,0.5177644013150581,2.754171266913827e-06,0.5177644013150581,-0.0002742926966546
0.5185585184949891,-1.3916014674949972e-06,0.5185585184949891,-3.1921668235508216e-05,0.5185585184949891,-2.634414237458644e-06,0.5185585184949891,-0.0003111568090793
0.5193526356749202,-4.589750026255744e-06,0.5193526356749202,-3.042268811451712e-05,0.5193526356749202,-2.762823648918921e-05,0.5193526356749202,-0.0003286776410231
0.5201467528548512,-1.0967070968520574e-05,0.5201467528548512,-2.6056847976181022e-05,0.5201467528548512,-3.891037598600914e-05,0.5201467528548512,-0.000292337126159
0.5209408700347823,-1.1830009947221209e-05,0.5209408700347823,-2.2047712548957505e-05,0.5209408700347823,-4.573927961030844e-05,0.5209408700347823,-0.0002190396093455
0.5217349872147133,-9.765548692195814e-06,0.5217349872147133,-2.1257384215759648e-05,0.5217349872147133,-4.600447549422967e-05,0.5217349872147133,-0.0001620387069796
0.5225291043946444,-7.908935108325587e-06,0.5225291043946444,-1.976698560367485e-05,0.5225291043946444,-2.059468432187236e-05,0.5225291043946444,-8.526275950800072e-05
0.5233232215745756,-9.093389873496742e-06,0.5233232215745756,-1.890716997106972e-05,0.5233232215745756,1.4563002786820871e-05,0.5233232215745756,5.232707903693687e-05
0.5241173387545066,-1.335902864371454e-05,0.5241173387545066,-2.0861767783336155e-05,0.5241173387545066,2.978877160928635e-05,0.5241173387545066,0.0001551855664574
0.5249114559344377,-1.4859452627036904e-05,0.5249114559344377,-2.1020713074409563e-05,0.5249114559344377,4.548533763202374e-05,0.5249114559344377,0.0001740770893324
0.5257055731143687,-1.7880081864433416e-05,0.5257055731143687,-1.849435552315852e-05,0.5257055731143687,5.216354231632203e-05,0.5257055731143687,0.0002192405988189
0.5264996902942998,-2.064460756906819e-05,0.5264996902942998,-1.930189870363348e-05,0.5264996902942998,3.877989316552813e-05,0.5264996902942998,0.0002479055258577
0.5272938074742308,-2.1691167542576048e-05,0.5272938074742308,-1.7308043721056456e-05,0.5272938074742308,1.911508337541985e-05,0.5272938074742308,0.0002378525601916
0.528087924654162,-2.0648820627557196e-05,0.528087924654162,-1.36732235560861e-05,0.528087924654162,7.302024255618121e-06,0.528087924654162,0.0001969906333568
0.528882041834093,-1.656265282354744e-05,0.528882041834093,-1.6911674059827304e-05,0.528882041834093,-1.978815449553092e-06,0.528882041834093,0.0001185008868505
0.5296761590140241,-1.1939665051400512e-05,0.5296761590140241,-1.934218284809212e-05,0.5296761590140241,-5.81504426913681e-06,0.5296761590140241,5.73259303140703e-05
0.5304702761939551,-7.438452716298293e-06,0.5304702761939551,-2.0505854476383426e-05,0.5304702761939551,-7.313159308119134e-06,0.5304702761939551,4.5497677264064914e-05
0.5312643933738862,-1.3530304401997252e-06,0.5312643933738862,-2.35379117809562e-05,0.5312643933738862,-1.2174194515850674e-05,0.5312643933738862,-9.244694166722566e-06
0.5320585105538173,-2.1026579281775297e-06,0.5320585105538173,-2.367782711397069e-05,0.5320585105538173,-9.074619868510369e-06,0.5320585105538173,-8.32910956950226e-05
0.5328526277337483,-3.385868848601957e-06,0.5328526277337483,-2.248124269834034e-05,0.5328526277337483,-3.823060817510204e-06,0.5328526277337483,-0.0001166185114644
0.5336467449136795,-6.092206736511415e-06,0.5336467449136795,-2.4535037196788277e-05,0.5336467449136795,1.628853263488586e-06,0.5336467449136795,-0.0001349341887516
0.5344408620936105,-2.7758692058058425e-06,0.5344408620936105,-2.558221575995181e-05,0.5344408620936105,-2.337181010708882e-06,0.5344408620936105,-0.0001441216396232
0.5352349792735416,-4.848765564416045e-07,0.5352349792735416,-2.5759509753671567e-05,0.5352349792735416,-3.841859681305421e-06,0.5352349792735416,-0.0001463735795977
0.5360290964534726,-1.2927146188459134e-06,0.5360290964534726,-2.398280821138292e-05,0.5360290964534726,5.990070866134514e-06,0.5360290964534726,-0.0001476969751252
0.5368232136334037,-5.459882195415108e-06,0.5368232136334037,-2.3774762280350237e-05,0.5368232136334037,1.349700228955889e-05,0.5368232136334037,-0.0001413197838061
0.5376173308133347,-1.1779389666944924e-05,0.5376173308133347,-2.374496042795646e-05,0.5376173308133347,1.223304100582434e-05,0.5376173308133347,-9.439743303774256e-05
0.5384114479932659,-1.600482361866388e-05,0.5384114479932659,-2.496997665256019e-05,0.5384114479932659,5.322568239888802e-06,0.5384114479932659,-4.764164547940219e-05
0.539205565173197,-1.5372891244391864e-05,0.539205565173197,-2.5838443022432005e-05,0.539205565173197,-2.071631855881593e-06,0.539205565173197,-6.352767156148182e-05
0.539999682353128,-1.6280942343111848e-05,0.539999682353128,-2.568110546060682e-05,0.539999682353128,-1.2751237000317888e-05,0.539999682353128,-8.207486757333885e-05
0.5407937995330591,-1.62814e-05,0.5407937995330591,-2.315325394364561e-05,0.5407937995330591,-2.6484581681198e-05,0.5407937995330591,-5.721406431089446e-05
0.5415879167129901,-1.5670040900856843e-05,0.5415879167129901,-2.528382625663521e-05,0.5415879167129901,-3.0500781801713685e-05,0.5415879167129901,-3.8746557849534346e-05
0.5423820338929212,-1.3994137107579805e-05,0.5423820338929212,-2.544528184425992e-05,0.5423820338929212,-2.438123842536009e-05,0.5423820338929212,-4.2879005328743225e-05
0.5431761510728523,-8.881123744182509e-06,0.5431761510728523,-2.1129267019183423e-05,0.5431761510728523,-2.312211758689735e-05,0.5431761510728523,-5.440551782754541e-05
0.5439702682527834,-4.297177415164756e-06,0.5439702682527834,-2.228228629659151e-05,0.5439702682527834,-2.122127017646212e-05,0.5439702682527834,-5.483200655096876e-05
0.5447643854327144,-1.0378442361625691e-06,0.5447643854327144,-2.100239000503909e-05,0.5447643854327144,-1.4506803311864058e-05,0.5447643854327144,-3.613823743041021e-05
0.5455585026126455,4.293714988675304e-06,0.5455585026126455,-1.583044933925795e-05,0.5455585026126455,-5.8566496602945965e-06,0.5455585026126455,1.44399843325681e-06
0.5463526197925765,8.263633773595543e-06,0.5463526197925765,-1.5352966212654998e-05,0.5463526197925765,1.169383775386728e-05,0.5463526197925765,1.9736756190829852e-05
0.5471467369725076,7.179668338376241e-06,0.5471467369725076,-1.625150610275218e-05,0.5471467369725076,2.4985905426647607e-05,0.5471467369725076,3.5577731857847117e-06
0.5479408541524387,4.53193e-06,0.5479408541524387,-1.555098354635661e-05,0.5479408541524387,3.0480742733085155e-05,0.5479408541524387,-2.479726558692415e-05
0.5487349713323698,4.916585288443809e-06,0.5487349713323698,-1.43267260572706e-05,0.5487349713323698,2.7706798611092457e-05,0.5487349713323698,-4.1099779166513015e-05
0.5495290885123009,8.302265794944979e-06,0.5495290885123009,-1.562957637907165e-05,0.5495290885123009,2.8187392882896826e-05,0.5495290885123009,1.1433601664693226e-05
0.5503232056922319,1.2075340444963963e-05,0.5503232056922319,-1.7464628083709615e-05,0.5503232056922319,2.939358163153453e-05,0.5503232056922319,0.0001177993396147
0.551117322872163,9.468548976597936e-06,0.551117322872163,-2.0535260321887625e-05,0.551117322872163,2.131653534008663e-05,0.551117322872163,9.534584801381656e-05
0.551911440052094,4.09807707399856e-06,0.551911440052094,-2.2926119108295228e-05,0.551911440052094,1.1444408659339855e-05,0.551911440052094,2.4008520070715715e-05
0.5527055572320251,-1.279060657770036e-07,0.5527055572320251,-2.595472731550088e-05,0.5527055572320251,4.6118198684459935e-06,0.5527055572320251,-1.579696349260653e-05
0.5534996744119562,-2.181101807571638e-06,0.5534996744119562,-2.769467880575612e-05,0.5534996744119562,8.408878398937238e-07,0.5534996744119562,-5.822563978492439e-05
0.5542937915918873,-3.4257773322164498e-06,0.5542937915918873,-2.3587572641286108e-05,0.5542937915918873,-3.739488002702421e-06,0.5542937915918873,-7.147624676667075e-05
0.5550879087718184,-4.334053816557897e-06,0.5550879087718184,-2.188810677458444e-05,0.5550879087718184,-7.313006426898194e-06,0.5550879087718184,-6.600019710992912e-05
0.5558820259517494,-6.288426503235599e-06,0.5558820259517494,-2.4376379930666448e-05,0.5558820259517494,-1.4297858529120383e-05,0.5558820259517494,-9.28408944897604e-05
0.5566761431316805,-5.777784021911616e-06,0.5566761431316805,-3.077542594817569e-05,0.5566761431316805,-2.847067138079584e-05,0.5566761431316805,-0.0001518952645707
0.5574702603116115,-3.5753263722644075e-06,0.5574702603116115,-3.2870286615738096e-05,0.5574702603116115,-5.684631967934482e-05,0.5574702603116115,-0.0001933608248951
0.5582643774915427,-1.8668652373850068e-06,0.5582643774915427,-3.151664178263302e-05,0.5582643774915427,-6.933201191454557e-05,0.5582643774915427,-0.000185014193895
0.5590584946714737,-2.075629678635221e-07,0.5590584946714737,-2.61714554669472e-05,0.5590584946714737,-6.88182e-05,0.5590584946714737,-0.0001198901207779
0.5598526118514048,7.002333383569054e-07,0.5598526118514048,-1.821693892386014e-05,0.5598526118514048,-5.7480594953554974e-05,0.5598526118514048,-1.3191608376623067e-05
0.5606467290313358,5.248346913342745e-07,0.5606467290313358,-2.052602593101054e-05,0.5606467290313358,-2.6882030957795888e-05,0.5606467290313358,-7.350265609618944e-07
0.5614408462112669,-3.1278862015280763e-06,0.5614408462112669,-2.2225255406728527e-05,0.5614408462112669,8.522998789095884e-06,0.5614408462112669,-5.31957619057168e-05
0.5622349633911979,-5.893346914306207e-06,0.5622349633911979,-1.964082401390504e-05,0.5622349633911979,7.002039698667163e-05,0.5622349633911979,-4.9077593981418966e-05
0.563029080571129,-9.842941106356808e-06,0.563029080571129,-1.519605612189569e-05,0.563029080571129,9.266539257703016e-05,0.563029080571129,5.417465863509877e-05
0.5638231977510602,-1.1373881948560806e-05,0.5638231977510602,-8.151689208637442e-06,0.5638231977510602,8.440834414692008e-05,0.5638231977510602,0.0002030248525971
0.5646173149309912,-2.0290310014166452e-05,0.5646173149309912,-3.644327964960117e-06,0.5646173149309912,8.272983273404279e-05,0.5646173149309912,0.0002282248944752
0.5654114321109223,-2.473290068660906e-05,0.5654114321109223,-1.5897277870011212e-06,0.5654114321109223,7.443759313390941e-05,0.5654114321109223,0.0001840511422273
0.5662055492908533,-2.352815955672881e-05,0.5662055492908533,-2.4971054988033235e-06,0.5662055492908533,5.592038975196607e-05,0.5662055492908533,0.0002338876438991
0.5669996664707844,-2.970521541227384e-05,0.5669996664707844,-3.188924266362871e-06,0.5669996664707844,2.904967315187319e-05,0.5669996664707844,0.0002871687364389
0.5677937836507154,-3.0936552163641805e-05,0.5677937836507154,-4.5221477859647175e-06,0.5677937836507154,1.3106036218189077e-05,0.5677937836507154,0.0003361030191526
0.5685879008306466,-2.5189691498734787e-05,0.5685879008306466,-1.044187215387871e-05,0.5685879008306466,4.839238986962221e-06,0.5685879008306466,0.0003316432106747
0.5693820180105776,-2.1722912011877856e-05,0.5693820180105776,-1.5243319358443808e-05,0.5693820180105776,-9.87938898715556e-06,0.5693820180105776,0.000288533781583
0.5701761351905087,-2.153321065859991e-05,0.5701761351905087,-2.02503605204947e-05,0.5701761351905087,-1.2390961555723958e-05,0.5701761351905087,0.0002159342474295
0.5709702523704397,-1.960021269736802e-05,0.5709702523704397,-2.2757596419100623e-05,0.5709702523704397,-1.4561912137389137e-05,0.5709702523704397,0.0001112347189507
0.5717643695503708,-1.8552511677983967e-05,0.5717643695503708,-2.374469808558064e-05,0.5717643695503708,-1.49386e-05,0.5717643695503708,-2.9517767689111888e-05
0.5725584867303019,-1.513722805672431e-05,0.5725584867303019,-2.852004450836143e-05,0.5725584867303019,-1.746529755462055e-05,0.5725584867303019,-8.404883899579247e-05
0.573352603910233,-6.074806747162282e-06,0.573352603910233,-3.10521e-05,0.573352603910233,-2.1947535130323105e-05,0.573352603910233,-5.002090014152426e-05
0.5741467210901641,-7.636942683975527e-07,0.5741467210901641,-3.2335137282929404e-05,0.5741467210901641,-2.145640010556804e-05,0.5741467210901641,-9.903137942321234e-05
