X [s].2,L DELTOID ANTERIOR: EMG 3 [V],X [s].3,L BICEPS BRACHII: EMG 4 [V],X [s].4,L DELTOID POSTERIOR: EMG 5 [V],X [s].7,L DELTOID MEDIUS: EMG 8 [V]
0.0,-1.49386e-05,0.0,-1.19173e-05,0.0,-1.8967e-05,0.0,-1.39315e-05
0.000794117179931,-1.158160346670318e-05,0.000794117179931,-1.2252999653329682e-05,0.000794117179931,-2.0309798613318727e-05,0.000794117179931,-1.4267199653329682e-05
0.0015882343598621,-1.8463351123000347e-05,0.0015882343598621,-1.8966952314775832e-05,0.0015882343598621,-1.8967009537044836e-05,0.0015882343598621,-1.42672e-05
0.0023823515397932,-1.963839641984312e-05,0.0023823515397932,-2.0981199349080013e-05,0.0023823515397932,-1.9134803580156884e-05,0.0023823515397932,-1.1581600650919988e-05
0.0031764687197242,-1.779200297675551e-05,0.0031764687197242,-2.064550054121362e-05,0.0031764687197242,-2.098119702324449e-05,0.0031764687197242,-1.1917299458786384e-05
0.0039705858996553,-2.8535171334867925e-06,0.0039705858996553,-1.963840520004168e-05,0.0039705858996553,-1.863131213343057e-05,0.0039705858996553,-8.89602560007339e-06
0.0047647030795864,1.560983909907716e-05,0.0047647030795864,-1.8967005850961662e-05,0.0047647030795864,-1.8295602925480836e-05,0.0047647030795864,-1.023878829816382e-05
0.0055588202595174,1.5945699341761778e-05,0.0055588202595174,-1.7959899012642666e-05,0.0055588202595174,-2.030979934176178e-05,0.0055588202595174,-1.2924400767944593e-05
0.0063529374394485,1.3931506494563415e-05,0.0063529374394485,-1.4938609741845124e-05,0.0063529374394485,-1.8295606494563417e-05,0.0063529374394485,-1.5274292423009347e-05
0.0071470546193796,5.539086863817806e-06,0.0071470546193796,-1.5274297725439157e-05,0.0071470546193796,-1.7959902274560844e-05,0.0071470546193796,-1.560999772543916e-05
0.0079411717993107,5.036000002308577e-07,0.0079411717993107,-1.52743e-05,0.0079411717993107,-1.9638382666527755e-05,0.0079411717993107,-1.3595820800166696e-05
0.0087352889792417,1.0910186623168578e-05,0.0087352889792417,-1.493860043151268e-05,0.0087352889792417,-1.930270043151268e-05,0.0087352889792417,-1.5274297842436593e-05
0.0095294061591728,1.863126265626035e-05,0.0095294061591728,-1.4267203247281709e-05,0.0095294061591728,-1.779200730662567e-05,0.0095294061591728,-1.8631283763591456e-05
0.0103235233391039,1.5274082938691993e-05,0.0103235233391039,-1.174945426687001e-05,0.0103235233391039,-1.9302640801381297e-05,0.0103235233391039,-1.7288480267127098e-05
0.0111176405190349,7.88825061469326e-06,0.0111176405190349,-1.3595774306993177e-05,0.0111176405190349,-1.7288243095441093e-05,0.0111176405190349,-1.6617031492117626e-05
0.011911757698966,-5.034791615386477e-06,0.011911757698966,-1.309222682296738e-05,0.011911757698966,-1.2253268203042572e-05,0.011911757698966,-1.527437152081135e-05
0.0127058748788971,-1.5106081409624338e-05,0.0127058748788971,-1.0574579646644875e-05,0.0127058748788971,-1.2253e-05,0.0127058748788971,-1.6281368140709356e-05
0.0134999920588282,-1.6281388249745794e-05,0.0134999920588282,-9.56742007111788e-06,0.0134999920588282,-1.510637146538268e-05,0.0134999920588282,-1.62814e-05
0.0142941092387592,-1.5274350773037816e-05,0.0142941092387592,-1.0238839056182934e-05,0.0142941092387592,-1.3595768755053652e-05,0.0142941092387592,-1.2924392188763412e-05
0.0150882264186903,-1.9638243663358263e-05,0.0150882264186903,-1.3596068005671546e-05,0.0150882264186903,-1.0910244667611924e-05,0.0150882264186903,-1.2253050249400187e-05
0.0158823435986214,-1.4938933763786313e-05,0.0158823435986214,-2.1652027833509174e-05,0.0158823435986214,-1.2252904638918196e-05,0.0158823435986214,-1.37634927223338e-05
0.0166764607785524,-1.3092291195668926e-05,0.0166764607785524,-2.299523368261229e-05,0.0166764607785524,-1.1078158029566412e-05,0.0166764607785524,-1.35958082878213e-05
0.0174705779584835,-7.553373743254956e-06,0.0174705779584835,-1.7960039765586085e-05,0.0174705779584835,-9.567451931618788e-06,0.0174705779584835,-1.1917346589453915e-05
0.0182646951384146,-3.524854662337117e-06,0.0182646951384146,-1.7288504110399723e-05,0.0182646951384146,-1.2252983558462328e-05,0.0182646951384146,-1.19173e-05
0.0190588123183456,2.1821181120556305e-06,0.0190588123183456,-1.6617055735550388e-05,0.0190588123183456,-1.2252979170035766e-05,0.0190588123183456,-1.091023124494635e-05
0.0198529294982767,7.217495062776352e-06,0.0198529294982767,-1.376339427013344e-05,0.0198529294982767,-1.0910249874447294e-05,0.0198529294982767,-1.29244e-05
0.0206470466782078,6.546165077123218e-06,0.0206470466782078,-8.224981882238211e-06,0.0206470466782078,-1.2252909845753562e-05,0.0206470466782078,-1.29244e-05
0.0214411638581389,5.203391114380631e-06,0.0214411638581389,-4.196413343597021e-06,0.0214411638581389,-1.158163055741788e-05,0.0214411638581389,-1.46028236064553e-05
0.0222352810380699,5.03660223822448e-07,0.0222352810380699,-2.8534720638332897e-06,0.0222352810380699,-1.0910216032036036e-05,0.0222352810380699,-1.695274388787387e-05
0.023029398218001,-5.035457400276845e-07,0.023029398218001,-1.5106430133083889e-06,0.023029398218001,-1.309219510348607e-05,0.023029398218001,-1.561000301330839e-05
0.0238235153979321,-3.52492113070571e-06,0.0238235153979321,-3.5248592921372024e-06,0.0238235153979321,-1.0910138161431493e-05,0.0238235153979321,-1.35958e-05
0.0246176325778631,-8.22478901375845e-06,0.0246176325778631,-5.035555736353461e-06,0.0246176325778631,-7.721063114839667e-06,0.0246176325778631,-1.3595786229679334e-05
0.0254117497577942,-1.2588423921546657e-05,0.0254117497577942,-6.8817031979424006e-06,0.0254117497577942,-7.553230618426383e-06,0.0254117497577942,-1.3260121236852766e-05
0.0262058669377253,-1.2924386023163825e-05,0.0262058669377253,-1.0574346255634764e-05,0.0262058669377253,-1.0910060232470938e-05,0.0262058669377253,-1.2924413976836176e-05
0.0269999841176564,-1.3931479857564238e-05,0.0269999841176564,-1.2252966429273728e-05,0.0269999841176564,-1.1917279857564238e-05,0.0269999841176564,-1.2588706714145257e-05
0.0277941012975874,-1.2253e-05,0.0277941012975874,-1.0910198902908664e-05,0.0277941012975874,-1.3595798354363e-05,0.0277941012975874,-1.46029008227368e-05
0.0285882184775185,-1.225293751820824e-05,0.0285882184775185,-1.0238823430759156e-05,0.0285882184775185,-1.2588707810253052e-05,0.0285882184775185,-1.5106442957555065e-05
0.0293823356574496,-9.56762757455288e-06,0.0293823356574496,-1.1245818409238862e-05,0.0293823356574496,-1.292437280307962e-05,0.0293823356574496,-1.6952650412887136e-05
0.0301764528373806,-8.896049875308664e-06,0.0301764528373806,-9.231829625332076e-06,0.0301764528373806,-1.124599968827166e-05,0.0301764528373806,-1.561007975061733e-05
0.0309705700173117,-9.063853662518296e-06,0.0309705700173117,-1.0910136625560507e-05,0.0309705700173117,-8.896098724366312e-06,0.0309705700173117,-1.359587604978047e-05
0.0317646871972428,-8.560318118408734e-06,0.0317646871972428,-1.2252978350910044e-05,0.0317646871972428,-1.091016752652629e-05,0.0317646871972428,-1.35958e-05
0.0325588043771738,-1.091021480334745e-05,0.0325588043771738,-7.55320519670767e-06,0.0325588043771738,-1.359578704707098e-05,0.0325588043771738,-1.2924381495870808e-05
0.0333529215571049,-1.3595891119618964e-05,0.0333529215571049,-4.867538880652468e-06,0.0333529215571049,-1.1245890888038105e-05,0.0333529215571049,-9.567400888038105e-06
0.034147038737036,-1.6952541047884625e-05,0.034147038737036,-1.5108989513439982e-06,0.034147038737036,-1.0910225895211535e-05,0.034147038737036,-9.231735895211538e-06
0.0349411559169671,-1.762416272843687e-05,0.0349411559169671,3.355955038675465e-07,0.0349411559169671,-1.3931332277965907e-05,0.0349411559169671,-9.903062728992e-06
0.0357352730968981,-1.6952822746181293e-05,0.0357352730968981,-1.6783194046566746e-07,0.0357352730968981,-1.4267188626909354e-05,0.0357352730968981,-1.0238788626909354e-05
0.0365293902768292,-1.3931536993597508e-05,0.0365293902768292,-1.67849e-07,0.0365293902768292,-1.1749430828610137e-05,0.0365293902768292,-1.359575889600277e-05
0.0373235074567603,-1.963841576145597e-05,0.0373235074567603,-2.8534746750153305e-06,0.0373235074567603,-1.4938606304582388e-05,0.0373235074567603,-1.4267209456873582e-05
0.0381176246366913,-2.1316598003548637e-05,0.0381176246366913,-6.546239758144094e-06,0.0381176246366913,-1.561e-05,0.0381176246366913,-1.5274289586329264e-05
0.0389117418166224,-1.1582313211578229e-05,0.0389117418166224,-1.040641717252117e-05,0.0389117418166224,-1.561e-05,0.0389117418166224,-1.4938624593502696e-05
0.0397058589965535,-2.18252534738108e-06,0.0397058589965535,-1.2924269998265733e-05,0.0397058589965535,-1.6617047998273593e-05,0.0397058589965535,-1.49386e-05
0.0404999761764846,5.874478291970833e-06,0.0404999761764846,-1.4267159715128468e-05,0.0404999761764846,-1.1581751068268246e-05,0.0404999761764846,-1.4435015108326856e-05
0.0412940933564156,1.32600382125742e-05,0.0412940933564156,-1.695277753178432e-05,0.0412940933564156,-1.023881123410784e-05,0.0412940933564156,-1.5274292978264292e-05
0.0420882105363467,1.661708663919063e-05,0.0420882105363467,-1.7792051217099245e-05,0.0420882105363467,-1.1245931175221862e-05,0.0420882105363467,-1.6952773278381262e-05
0.0428823277162778,1.5610091660710924e-05,0.0428823277162778,-2.165224862939073e-05,0.0428823277162778,-1.3595586125007844e-05,0.0428823277162778,-1.4938783321421848e-05
0.0436764448962088,1.795973693691128e-05,0.0436764448962088,-2.6016297175488668e-05,0.0436764448962088,-1.560986023163824e-05,0.0436764448962088,-1.426724658945392e-05
0.0444705620761399,2.467347936405496e-05,0.0444705620761399,-2.232407635239641e-05,0.0444705620761399,-1.795978777574774e-05,0.0444705620761399,-1.4938567935927924e-05
0.045264679256071,2.433810876934512e-05,0.045264679256071,-2.0981235074768216e-05,0.045264679256071,-1.6952826308035355e-05,0.045264679256071,-1.6449160539253103e-05
0.046058796436002,1.376364745938272e-05,0.046058796436002,-2.3498888700317947e-05,0.046058796436002,-1.4602910546579362e-05,0.046058796436002,-1.6281400753102692e-05
0.0468529136159331,-4.196382514395495e-06,0.0468529136159331,-2.1652553957504294e-05,0.0468529136159331,-1.2588723021247854e-05,0.0468529136159331,-1.3595811510623929e-05
0.0476470307958642,-1.3091424832642132e-05,0.0476470307958642,-1.896723401489172e-05,0.0476470307958642,-1.393138299255414e-05,0.0476470307958642,-1.426714149627707e-05
0.0484411479757953,-1.12460209574224e-05,0.0484411479757953,-2.198810206431225e-05,0.0484411479757953,-1.0574719928541944e-05,0.0484411479757953,-1.5106345021140183e-05
0.0492352651557263,-1.191727053967345e-05,0.0492352651557263,-2.6520001144989743e-05,0.0492352651557263,-1.0238814730163274e-05,0.0492352651557263,-1.3595866283540788e-05
0.0500293823356574,-1.5945610390331745e-05,0.0500293823356574,-2.2659685877044305e-05,0.0500293823356574,-1.1917262662638228e-05,0.0500293823356574,-1.426718506505529e-05
0.0508234995155885,-1.8966998156967115e-05,0.0508234995155885,-1.8967002252534747e-05,0.0508234995155885,-1.2924399385655704e-05,0.0508234995155885,-1.577779907851406e-05
0.0516176166955195,-1.8966929429791903e-05,0.0516176166955195,-2.1652698796189152e-05,0.0516176166955195,-1.661705765787514e-05,0.0516176166955195,-1.6952771771916763e-05
0.0524117338754506,-1.5610279501526248e-05,0.0524117338754506,-2.6351908706189182e-05,0.0524117338754506,-1.4603067700915748e-05,0.0524117338754506,-1.56101118006105e-05
0.0532058510553817,-1.3931603454907144e-05,0.0532058510553817,-1.997449312248361e-05,0.0532058510553817,-1.3931541381962858e-05,0.0532058510553817,-1.3595924145888573e-05
0.0539999682353128,-1.0238947711195596e-05,0.0539999682353128,-1.1749728995117509e-05,0.0539999682353128,-1.39315e-05,0.0539999682353128,-1.4938546286837964e-05
0.0547940854152438,-1.1581575337601657e-05,0.0547940854152438,-5.874827896707106e-06,0.0547940854152438,-1.39315e-05,0.0547940854152438,-1.560998766880083e-05
0.0555882025951749,-1.0574494515266697e-05,0.0555882025951749,3.3571171185613373e-07,0.0555882025951749,-1.560999396659404e-05,0.0555882025951749,-1.5609995612187216e-05
0.056382319775106,-8.89617955009104e-06,0.056382319775106,4.531506124065303e-06,0.056382319775106,-1.3763786511261964e-05,0.056382319775106,-1.426733564088094e-05
0.057176436955037,-7.553326606404426e-06,0.057176436955037,5.203276696400829e-06,0.057176436955037,-1.5609853411132692e-05,0.057176436955037,-1.5274220044601243e-05
0.0579705541349681,-8.89593244414292e-06,0.0579705541349681,6.210361833251584e-06,0.0579705541349681,-1.426727755643465e-05,0.0579705541349681,-1.52743e-05
0.0587646713148992,-5.539151263455005e-06,0.0587646713148992,4.531990631727503e-06,0.0587646713148992,-1.2924448505670984e-05,0.0587646713148992,-1.4938612126417744e-05
0.0595587884948302,-4.867639727453647e-06,0.0595587884948302,1.8463789096697016e-06,0.0595587884948302,-1.4938570817639062e-05,0.0595587884948302,-1.5609990272546356e-05
0.0603529056747613,-6.210429594648146e-06,0.0603529056747613,-1.510678378449677e-06,0.0603529056747613,-1.443500839567439e-05,0.0603529056747613,-1.5609995202675927e-05
0.0611470228546924,-7.553089565954419e-06,0.0611470228546924,-6.881298265760399e-06,0.0611470228546924,-1.5609885865353325e-05,0.0611470228546924,-1.493866521702279e-05
0.0619411400346235,-7.55322e-06,0.0619411400346235,-9.567207201340553e-06,0.0619411400346235,-1.6281349300146352e-05,0.0619411400346235,-1.4267250699853644e-05
0.0627352572145545,-6.8818561744718005e-06,0.0627352572145545,-9.2317280872359e-06,0.0627352572145545,-1.5610036174471802e-05,0.0627352572145545,-1.25887904361795e-05
0.0635293743944856,-5.539073297857463e-06,0.0635293743944856,-1.091014587759756e-05,0.0635293743944856,-1.3595864947269864e-05,0.0635293743944856,-1.2253010824544976e-05
0.0643234915744167,-6.546109314543921e-06,0.0643234915744167,-1.3595771505167516e-05,0.0643234915744167,-1.560997862887564e-05,0.0643234915744167,-1.3595785752583758e-05
0.0651176087543477,-8.224643303227687e-06,0.0651176087543477,-1.661711480148352e-05,0.0651176087543477,-1.359579259925824e-05,0.0651176087543477,-1.2588666696772312e-05
0.0659117259342788,-1.1245618239709564e-05,0.0659117259342788,-1.795977477278977e-05,0.0659117259342788,-1.2924462613605116e-05,0.0659117259342788,-9.567691760290436e-06
0.0667058431142099,-1.3595631663621616e-05,0.0667058431142099,-1.9134715835392583e-05,0.0667058431142099,-1.6281159519459456e-05,0.0667058431142099,-1.2252807616283918e-05
0.067499960294141,-1.309222518054476e-05,0.067499960294141,-1.863132517554465e-05,0.067499960294141,-1.493866714145255e-05,0.067499960294141,-1.3763524468365937e-05
0.068294077474072,-9.567509986356256e-06,0.068294077474072,-2.1652514295950067e-05,0.068294077474072,-1.1917385704049931e-05,0.068294077474072,-1.3595804759917776e-05
0.0690881946540031,-4.867661639603523e-06,0.0690881946540031,-2.030980903992519e-05,0.0690881946540031,-1.2252997740018704e-05,0.0690881946540031,-1.35958e-05
0.0698823118339342,-6.881596399889151e-06,0.0698823118339342,-1.76244981349613e-05,0.0698823118339342,-1.4266976398779026e-05,0.0698823118339342,-1.35958e-05
0.0706764290138652,-5.203480043467154e-06,0.0706764290138652,-1.628152003548886e-05,0.0706764290138652,-1.493853998225557e-05,0.0706764290138652,-1.5441934955672416e-05
0.0714705461937963,-2.1822447149540503e-06,0.0714705461937963,-1.62814e-05,0.0714705461937963,-1.527427725381871e-05,0.0714705461937963,-1.6952697638796314e-05
0.0722646633737274,4.867304848085821e-06,0.0722646633737274,-1.49386619339615e-05,0.0722646633737274,-1.4435038711032086e-05,0.0722646633737274,-1.6617115483490375e-05
0.0730587805536585,8.560219571695867e-06,0.0730587805536585,-1.3595832883197783e-05,0.0730587805536585,-1.5609971225977513e-05,0.0730587805536585,-1.493864110399723e-05
0.0738528977335895,2.853456287759369e-06,0.0738528977335895,-1.3931499041891472e-05,0.0738528977335895,-1.2924407664868233e-05,0.0738528977335895,-1.6449195688654325e-05
0.0746470149135206,-1.5101724550455112e-06,0.0746470149135206,-1.2253179825806607e-05,0.0746470149135206,-1.3595728069677356e-05,0.0746470149135206,-1.5610089907546565e-05
0.0754411320934517,-1.0573724914435354e-05,0.0754411320934517,-1.1078200470222389e-05,0.0754411320934517,-1.510627082277816e-05,0.0754411320934517,-1.359597224199671e-05
0.0762352492733827,-1.2252892778457355e-05,0.0762352492733827,-1.0910210725348231e-05,0.0762352492733827,-1.5609967830343238e-05,0.0762352492733827,-1.2924442888617057e-05
0.0770293664533138,-6.210675268272011e-06,0.0770293664533138,-1.0238828363235212e-05,0.0770293664533138,-1.3260199271323245e-05,0.0770293664533138,-1.4267143273529577e-05
0.0778234836332449,2.5175601087305024e-06,0.0778234836332449,-8.22465151335403e-06,0.0778234836332449,-1.1581634594633444e-05,0.0778234836332449,-1.4602893081073313e-05
0.078617600813176,2.517737593962527e-06,0.078617600813176,-6.881824812072897e-06,0.078617600813176,-1.35958e-05,0.078617600813176,-1.3260100343720956e-05
0.079411717993107,1.680916432380569e-07,0.079411717993107,-1.15811147137304e-05,0.079411717993107,-1.35958e-05,0.079411717993107,-1.3595765336547515e-05
0.0802058351730381,-2.181848165011211e-06,0.0802058351730381,-1.0910254810253366e-05,0.0802058351730381,-1.5106276681011714e-05,0.0802058351730381,-1.258878221538005e-05
0.0809999523529692,-3.692589359639065e-06,0.0809999523529692,-8.224771138886116e-06,0.0809999523529692,-1.6617009356038988e-05,0.0809999523529692,-1.1917340284871532e-05
0.0817940695329002,-3.189159319233588e-06,0.0817940695329002,-1.1581471202935294e-05,0.0817940695329002,-1.426729015821386e-05,0.0817940695329002,-1.3931422721530976e-05
0.0825881867128313,-7.888831361747087e-06,0.0825881867128313,-1.2252988765892158e-05,0.0825881867128313,-1.460289438294608e-05,0.0825881867128313,-1.56099719147304e-05
0.0833823038927624,-1.15811531424891e-05,0.0833823038927624,-1.1581681247040184e-05,0.0833823038927624,-1.2253284364640645e-05,0.0833823038927624,-1.3596043741120552e-05
0.0841764210726934,-1.4266933072441254e-05,0.0841764210726934,-1.2252933268110312e-05,0.0841764210726934,-1.0574666829724216e-05,0.0841764210726934,-1.4267133268110312e-05
0.0849705382526245,-1.2253156619523489e-05,0.0849705382526245,-1.4267043380476512e-05,0.0849705382526245,-1.2252869483730427e-05,0.0849705382526245,-1.493854779349217e-05
0.0857646554325556,-9.064038984787244e-06,0.0857646554325556,-1.7624011594370025e-05,0.0857646554325556,-1.1581637681125994e-05,0.0857646554325556,-1.0910426086755968e-05
0.0865587726124866,-9.903071055664689e-06,0.0865587726124866,-1.712061736853256e-05,0.0865587726124866,-1.3595730532767516e-05,0.0865587726124866,-1.124588842212792e-05
0.0873528897924177,-7.5532502060110175e-06,0.0873528897924177,-1.5106425891086944e-05,0.0873528897924177,-1.4602887054456527e-05,0.0873528897924177,-1.1749393527870976e-05
0.0881470069723488,-2.567877663624845e-05,0.0881470069723488,-1.3931637620482691e-05,0.0881470069723488,-1.2588935930867511e-05,0.0881470069723488,-1.460256575874767e-05
0.0889411241522799,-6.226860502569527e-05,0.0889411241522799,-1.7623847295207178e-05,0.0889411241522799,-1.4938375551495475e-05,0.0889411241522799,-1.3595896192216223e-05
0.0897352413322109,-6.73071279866706e-05,0.0897352413322109,-2.400192878114596e-05,0.0897352413322109,-1.7624001588950738e-05,0.0897352413322109,-1.1078286006664705e-05
0.090529358512142,-3.659270478231971e-05,0.090529358512142,-2.500944738392929e-05,0.090529358512142,-1.91347210785062e-05,0.090529358512142,-1.2924303539815963e-05
0.0913234756920731,2.516542852508416e-06,0.0913234756920731,-1.9638564412927925e-05,0.0913234756920731,-1.8967005136469124e-05,0.0913234756920731,-1.695267668800826e-05
0.0921175928720041,2.1988125228472493e-05,0.0921175928720041,-1.4267248212934224e-05,0.0921175928720041,-1.561003013308389e-05,0.0921175928720041,-1.426722410646711e-05
0.0929117100519352,3.004408752886774e-05,0.0929117100519352,-1.1581904160819292e-05,0.0929117100519352,-1.359602812061447e-05,0.0929117100519352,-1.023925624122894e-05
0.0937058272318663,4.41431079876289e-05,0.0937058272318663,-5.203914479037845e-06,0.0937058272318663,-1.560981542680413e-05,0.0937058272318663,-1.1581476951202752e-05
0.0944999444117974,5.287188901978204e-05,0.0944999444117974,1.5101700119322666e-06,0.0944999444117974,-1.6281353000983223e-05,0.0944999444117974,-1.4267012003932888e-05
0.0952940615917284,5.152976494726989e-05,0.0952940615917284,4.699625750717687e-06,0.0952940615917284,-1.5106456831279505e-05,0.0952940615917284,-2.2659194084399903e-05
0.0960881787716595,4.347321537636392e-05,0.0960881787716595,5.203316538810177e-06,0.0960881787716595,-1.3260149356359391e-05,0.0960881787716595,-2.3163186537473542e-05
0.0968822959515906,1.997717859880052e-05,0.0968822959515906,2.8537478598800524e-06,0.0968822959515906,-1.0910507861190157e-05,0.0968822959515906,-2.3330978016465508e-05
0.0976764131315216,-5.200575781347511e-06,0.0976764131315216,-1.5101626029607878e-06,0.0976764131315216,-1.09102e-05,0.0976764131315216,-2.43379898309476e-05
0.0984705303114527,-1.695176889120352e-05,0.0984705303114527,-4.195994318265187e-06,0.0984705303114527,-7.889175142061363e-06,0.0984705303114527,-2.1652835673836603e-05
0.0992646474913838,-1.1581955162170018e-05,0.0992646474913838,-8.895699234423701e-06,0.0992646474913838,-2.8537729625506896e-06,0.0992646474913838,-1.896717758108501e-05
0.1000587646713148,-1.5136237413755209e-06,0.1000587646713148,-1.6279211917263364e-05,0.1000587646713148,-5.20263379387656e-06,0.1000587646713148,-1.7624597833763518e-05
0.1008528818512459,1.1745403804397372e-06,0.1008528818512459,-1.9302250424646663e-05,0.1008528818512459,-8.224160427622698e-06,0.1008528818512459,-1.963810028309777e-05
0.101646999031177,-7.553209350073221e-06,0.101646999031177,-1.762420204807223e-05,0.101646999031177,-1.0238797542325527e-05,0.101646999031177,-1.8295601638457783e-05
0.1024411162111081,-2.450735116635595e-05,0.1024411162111081,-1.6281449133588145e-05,0.1024411162111081,-1.2253245667940732e-05,0.1024411162111081,-1.4266512131229563e-05
0.1032352333910391,-3.373612117134799e-05,0.1032352333910391,-1.661660661604625e-05,0.1032352333910391,-1.3931894707163005e-05,0.1032352333910391,-9.566916616046248e-06
0.1040293505709702,-2.83610228026323e-05,0.1040293505709702,-1.49386e-05,0.1040293505709702,-1.5273411798681405e-05,0.1040293505709702,-7.886985572629104e-06
0.1048234677509013,-1.5954015672459028e-05,0.1048234677509013,-1.49386e-05,0.1048234677509013,-1.3261448498282475e-05,0.1048234677509013,-3.527751732888784e-06
0.1056175849308323,-3.531323098453415e-06,0.1056175849308323,-1.49386e-05,0.1056175849308323,-1.5608771573001274e-05,0.1056175849308323,-3.021553229129299e-06
0.1064117021107634,1.1731767620941785e-06,0.1064117021107634,-1.3596303785474594e-05,0.1064117021107634,-1.292540757094919e-05,0.1064117021107634,-3.5246410841987805e-06
0.1072058192906945,3.188681581003696e-06,0.1072058192906945,-1.35958e-05,0.1072058192906945,-9.903787628494457e-06,0.1072058192906945,-4.867324387335797e-06
0.1079999364706256,4.363985990928013e-06,0.1079999364706256,-1.0910414879707668e-05,0.1079999364706256,-1.2588485120292331e-05,0.1079999364706256,-1.0574043383021558e-05
0.1087940536505566,-5.044780095611196e-07,0.1087940536505566,-1.0239208298304405e-05,0.1087940536505566,-1.5610249515630472e-05,0.1087940536505566,-1.3092143295280665e-05
0.1095881708304877,-1.4268788981718096e-05,0.1095881708304877,-1.6282050037975585e-05,0.1095881708304877,-1.9302844452883463e-05,0.1095881708304877,-1.2253288905766926e-05
0.1103822880104188,-2.1651869382134025e-05,0.1103822880104188,-1.9301238764268045e-05,0.1103822880104188,-1.9974221769644328e-05,0.1103822880104188,-1.3596895926798966e-05
0.1111764051903498,-1.963583353961404e-05,0.1111764051903498,-1.5271562442254974e-05,0.1111764051903498,-2.0308431221127487e-05,0.1111764051903498,-1.6616928902640938e-05
0.1119705223702809,-1.4605925288616724e-05,0.1119705223702809,-9.906326974524502e-06,0.1119705223702809,-1.762581348726225e-05,0.1119705223702809,-1.628160168590778e-05
0.112764639550212,-8.227505533095902e-06,0.112764639550212,-8.560919582330977e-06,0.112764639550212,-1.4268723967176616e-05,0.112764639550212,-1.2590376363894278e-05
0.1135587567301431,-4.19746423605306e-06,0.1135587567301431,-6.211139971541594e-06,0.1135587567301431,-1.0911228535150635e-05,0.1135587567301431,-1.0239519974605445e-05
0.1143528739100741,-2.1823598602867945e-06,0.1143528739100741,-3.525256480911738e-06,0.1143528739100741,-1.2252786758750114e-05,0.1143528739100741,-1.3091746870284164e-05
0.1151469910900052,-1.5106475342197587e-06,0.1151469910900052,-1.6788667088558252e-07,0.1151469910900052,-1.2756494349896264e-05,0.1151469910900052,-1.560997174611482e-05
0.1159411082699363,2.517556895629125e-06,0.1159411082699363,-1.6835253442906309e-07,0.1159411082699363,-1.3595388015165533e-05,0.1159411082699363,-1.5610183104370877e-05
0.1167352254498673,1.1742727706116622e-06,0.1167352254498673,-3.861101912932446e-06,0.1167352254498673,-1.057440468070469e-05,0.1167352254498673,-1.6953181277181246e-05
0.1175293426297984,-1.1759527576567037e-06,0.1175293426297984,-5.87609445835903e-06,0.1175293426297984,-1.0238510643747948e-05,0.1175293426297984,-1.829444255775256e-05
0.1183234598097295,-3.523233285893441e-06,0.1183234598097295,-9.061693028428653e-06,0.1183234598097295,-9.567866199176984e-06,0.1183234598097295,-1.5611824823887322e-05
0.1191175769896605,-1.1577307686382564e-05,0.1191175769896605,-1.493547018166078e-05,0.1191175769896605,-5.083768505553908e-07,0.1191175769896605,-1.1583746164800095e-05
0.1199116941695916,-1.6279589745902843e-05,0.1199116941695916,-1.51063353673268e-05,0.1199116941695916,-5.537090448971946e-06,0.1199116941695916,-1.342718884800639e-05
0.1207058113495227,-1.258957736727633e-05,0.1207058113495227,-1.3596158911096926e-05,0.1207058113495227,-1.158016431522113e-05,0.1207058113495227,-1.3595760107789505e-05
0.1214999285294538,-1.0406896408982136e-05,0.1214999285294538,-1.2253120869835568e-05,0.1214999285294538,-1.292427913016443e-05,0.1214999285294538,-1.35958e-05
0.1222940457093848,-9.567545279630254e-06,0.1222940457093848,-9.063869662871854e-06,0.1222940457093848,-1.594587393169335e-05,0.1222940457093848,-1.3092209665750278e-05
0.1230881628893159,-1.1917231131053705e-05,0.1230881628893159,-9.232192080572584e-06,0.1230881628893159,-1.8967e-05,0.1230881628893159,-1.3260237737892596e-05
0.123882280069247,-1.1580534294187307e-05,0.123882280069247,-1.158231047289334e-05,0.123882280069247,-1.896658553984228e-05,0.123882280069247,-1.393161841214889e-05
0.124676397249178,-8.560477744086896e-06,0.124676397249178,-1.359714195269516e-05,0.124676397249178,-1.779065804730484e-05,0.124676397249178,-1.426686451182621e-05
0.1254705144291091,-8.89580496082005e-06,0.1254705144291091,-1.6279759686560395e-05,0.1254705144291091,-1.5108040313439603e-05,0.1254705144291091,-1.35962100783599e-05
0.1262646316090402,-7.553843012212673e-06,0.1262646316090402,-1.9636842457869104e-05,0.1262646316090402,-1.6951943328629587e-05,0.1262646316090402,-1.35958e-05
0.1270587487889713,-9.566772737100884e-06,0.1270587487889713,-1.96384e-05,0.1270587487889713,-1.561042484404199e-05,0.1270587487889713,-1.493817515595801e-05
0.1278528659689023,-7.889193339039526e-06,0.1278528659689023,-1.896711333561581e-05,0.1278528659689023,-1.695257332876838e-05,0.1278528659689023,-1.2253453342463242e-05
0.1286469831488334,-5.874762747419648e-06,0.1286469831488334,-1.695284274763188e-05,0.1286469831488334,-1.6449210687969127e-05,0.1286469831488334,-1.2253e-05
0.1294411003287645,-5.87472e-06,0.1294411003287645,-1.661705758140271e-05,0.1294411003287645,-1.493868483719458e-05,0.1294411003287645,-1.4603366604570198e-05
0.1302352175086955,-5.873892349279863e-06,0.1302352175086955,-1.6281767847199532e-05,0.1302352175086955,-1.561e-05,0.1302352175086955,-1.829564596720292e-05
0.1310293346886266,-2.8535106635043807e-06,0.1310293346886266,-1.7623917345982478e-05,0.1310293346886266,-1.5610282654017523e-05,0.1310293346886266,-1.846290537651893e-05
0.1318234518685577,-3.0211742718709577e-06,0.1318234518685577,-1.695326291251617e-05,0.1318234518685577,-1.6280937087483833e-05,0.1318234518685577,-1.728931006242962e-05
0.1326175690484888,-5.537663471211744e-06,0.1326175690484888,-1.594624661368634e-05,0.1326175690484888,-1.62814e-05,0.1326175690484888,-1.5275393227372686e-05
0.1334116862284198,-5.874587342592273e-06,0.1334116862284198,-1.3932295968157065e-05,0.1334116862284198,-1.62814e-05,0.1334116862284198,-1.628100201592147e-05
0.1342058034083509,-3.1898049403034157e-06,0.1342058034083509,-1.225341559078459e-05,0.1342058034083509,-1.4938932472627672e-05,0.1342058034083509,-1.62814e-05
0.134999920588282,-3.5247964260458216e-06,0.134999920588282,-1.393133212522837e-05,0.134999920588282,-1.762393140036539e-05,0.134999920588282,-1.6952732850091348e-05
0.135794037768213,-4.196134190986004e-06,0.135794037768213,-1.1245772254489448e-05,0.135794037768213,-1.560993612700689e-05,0.135794037768213,-1.795991596824828e-05
0.1365881549481441,-2.182072755725435e-06,0.1365881549481441,-8.560637555302862e-06,0.1365881549481441,-1.426733102290174e-05,0.1365881549481441,-1.8295206931294782e-05
0.1373822721280752,-2.35075290647366e-06,0.1373822721280752,-1.023937527326731e-05,0.1373822721280752,-1.4938369890693075e-05,0.1373822721280752,-1.6280249453465378e-05
0.1381763893080062,-4.866643660008601e-06,0.1381763893080062,-1.191647804592637e-05,0.1381763893080062,-1.426752878162945e-05,0.1381763893080062,-1.2925057563258904e-05
0.1389705064879373,-2.8546903485050185e-06,0.1389705064879373,-1.0239841962260596e-05,0.1389705064879373,-1.493818321509576e-05,0.1389705064879373,-1.4266366430191522e-05
0.1397646236678684,-3.524511781322653e-06,0.1397646236678684,-1.040662042044724e-05,0.1397646236678684,-1.3596436446834094e-05,0.1397646236678684,-1.4938281776582952e-05
0.1405587408477994,-4.1960108629881376e-06,0.1405587408477994,-1.091003566356051e-05,0.1405587408477994,-1.0239895685059312e-05,0.1405587408477994,-1.3931828705517797e-05
0.1413528580277305,-4.19623e-06,0.1413528580277305,-1.09102e-05,0.1413528580277305,-1.0406669978408012e-05,0.1413528580277305,-1.6280979822876626e-05
0.1421469752076616,-2.1821028922921647e-06,0.1421469752076616,-1.158157903579853e-05,0.1421469752076616,-1.4099184700014375e-05,0.1421469752076616,-1.493864192840294e-05
0.1429410923875927,-2.182293895998422e-06,0.1429410923875927,-1.3260060938898155e-05,0.1429410923875927,-1.49386e-05,0.1429410923875927,-1.2588817183305536e-05
0.1437352095675237,-4.364301510761122e-06,0.1437352095675237,-1.29244e-05,0.1437352095675237,-1.4938777208608898e-05,0.1437352095675237,-1.35956227913911e-05
0.1445293267474548,-5.204571755409268e-06,0.1445293267474548,-1.2924537973736592e-05,0.1445293267474548,-1.561e-05,0.1445293267474548,-1.2924951894946367e-05
0.1453234439273859,-8.222496728216968e-06,0.1453234439273859,-1.3259865190469748e-05,0.1453234439273859,-1.561e-05,0.1453234439273859,-1.4266260761878988e-05
0.146117561107317,-6.211533366817603e-06,0.146117561107317,-1.1918042248230146e-05,0.146117561107317,-1.3596913372345218e-05,0.146117561107317,-1.3931685562057536e-05
0.146911678287248,-6.21042e-06,0.146911678287248,-1.3091723954266685e-05,0.146911678287248,-1.2924672037709888e-05,0.146911678287248,-1.326037203770989e-05
0.1477057954671791,-6.881647048695295e-06,0.1477057954671791,-1.359567027364157e-05,0.1477057954671791,-1.4938081146085888e-05,0.1477057954671791,-1.2588872951304705e-05
0.1484999126471102,-6.210493864899496e-06,0.1484999126471102,-1.6281104540402013e-05,0.1484999126471102,-1.326028466224874e-05,0.1484999126471102,-1.544178607967795e-05
0.1492940298270412,-7.04961325198791e-06,0.1492940298270412,-1.5609924335483008e-05,0.1492940298270412,-1.2253025221505664e-05,0.1492940298270412,-1.393143694623584e-05
0.1500881470069723,-5.538905692089128e-06,0.1500881470069723,-1.3595675692089128e-05,0.1500881470069723,-1.2924027076267384e-05,0.1500881470069723,-1.225331076977718e-05
0.1508822641869034,-4.86790923956778e-06,0.1508822641869034,-1.2924176605683945e-05,0.1508822641869034,-1.091075848579014e-05,0.1508822641869034,-1.3931388302841972e-05
0.1516763813668344,-5.706950518771279e-06,0.1516763813668344,-1.2251067554286384e-05,0.1516763813668344,-1.2589827262797898e-05,0.1516763813668344,-1.3597249337883011e-05
0.1524704985467655,-5.874614127137862e-06,0.1524704985467655,-8.227150942383735e-06,0.1524704985467655,-1.4937117779930062e-05,0.1524704985467655,-1.661519428848151e-05
0.1532646157266966,-5.539192464364255e-06,0.1532646157266966,-7.553544933568224e-06,0.1532646157266966,-1.5106318789596586e-05,0.1532646157266966,-1.510713113561643e-05
0.1540587329066277,-4.1966817040054605e-06,0.1540587329066277,-8.559971225359802e-06,0.1540587329066277,-1.560983059417847e-05,0.1540587329066277,-1.242170340801092e-05
0.1548528500865587,-4.19623e-06,0.1548528500865587,-6.8821369121057264e-06,0.1548528500865587,-1.4938726765597522e-05,0.1548528500865587,-1.3595578150763942e-05
0.1556469672664898,-3.524857679192361e-06,0.1556469672664898,-8.224554642027538e-06,0.1556469672664898,-1.3595855358384722e-05,0.1556469672664898,-1.3763593082263214e-05
0.1564410844464209,-2.853654220574982e-06,0.1564410844464209,-6.881927109755712e-06,0.1564410844464209,-1.62814e-05,0.1564410844464209,-1.3595550074755036e-05
0.157235201626352,-4.867459506381969e-06,0.157235201626352,-7.889506725123733e-06,0.157235201626352,-1.628157049361803e-05,0.157235201626352,-1.124666722128114e-05
0.158029318806283,-4.197306959705243e-06,0.158029318806283,-1.0243915537546656e-05,0.158029318806283,-1.6953338481857694e-05,0.158029318806283,-1.4267469240928846e-05
0.1588234359862141,-6.879914704675227e-06,0.1588234359862141,-2.298624988445352e-05,0.1588234359862141,-1.829464734879036e-05,0.1588234359862141,-1.4938123674395178e-05
0.1596175531661451,-7.552842160894036e-06,0.1596175531661451,-2.9034499448046323e-05,0.1596175531661451,-1.661804459776491e-05,0.1596175531661451,-1.292553351731789e-05
0.1604116703460762,-4.53318438300159e-06,0.1604116703460762,-2.769565750540151e-05,0.1604116703460762,-1.0912569397956426e-05,0.1604116703460762,-1.1917718129051136e-05
0.1612057875260073,-4.867540166852226e-06,0.1612057875260073,-2.366777799777329e-05,0.1612057875260073,-9.232159163062876e-06,0.1612057875260073,-1.577676693218057e-05
0.1619999047059384,-2.853681738470985e-06,0.1619999047059384,-1.796058491706652e-05,0.1619999047059384,-1.1916977681638628e-05,0.1619999047059384,-1.6281339559081325e-05
0.1627940218858694,-2.5178325320228205e-06,0.1627940218858694,-1.0238596429439536e-05,0.1627940218858694,-1.091023701302964e-05,0.1627940218858694,-1.326005373371295e-05
0.1635881390658005,-5.874778796460003e-06,0.1635881390658005,-2.8527344459828883e-06,0.1635881390658005,-1.2253352778760014e-05,0.1635881390658005,-1.1581835185840008e-05
0.1643822562457316,-6.209878304914304e-06,0.1643822562457316,1.17580671407348e-06,0.1643822562457316,-1.4267416679325188e-05,0.1643822562457316,-1.2924941698312972e-05
0.1651763734256627,-4.532403052811199e-06,0.1651763734256627,3.861003052811199e-06,0.1651763734256627,-1.4937969262918402e-05,0.1651763734256627,-1.46025846314592e-05
0.1659704906055937,-5.538384703010627e-06,0.1659704906055937,4.866984703010627e-06,0.1659704906055937,-1.3596660395985831e-05,0.1659704906055937,-1.3931930197992916e-05
0.1667646077855248,-6.3778554381912514e-06,0.1667646077855248,2.518900781956008e-06,0.1667646077855248,-1.5609005039803657e-05,0.1667646077855248,-1.39315e-05
0.1675587249654559,-6.2104781417484e-06,0.1675587249654559,1.5109888504903963e-06,0.1675587249654559,-1.4938832566993597e-05,0.1675587249654559,-1.4938251149509602e-05
0.1683528421453869,-5.53916347860032e-06,0.1683528421453869,-1.510039341328327e-06,0.1683528421453869,-1.3260433701471033e-05,0.1683528421453869,-1.5274233259705794e-05
0.169146959325318,-6.21038560632907e-06,0.169146959325318,-4.196092423779454e-06,0.169146959325318,-1.4267148408725192e-05,0.169146959325318,-1.4938617197091602e-05
0.1699410765052491,-5.203443210424921e-06,0.1699410765052491,-7.553737535848745e-06,0.1699410765052491,-1.3931694076665936e-05,0.1699410765052491,-1.49386e-05
0.1707351936851801,-6.379211722227468e-06,0.1707351936851801,-1.292595589695805e-05,0.1707351936851801,-1.594627322519507e-05,0.1707351936851801,-1.4938436221372836e-05
0.1715293108651112,-1.0238931267192263e-05,0.1715293108651112,-1.9302831267192263e-05,0.1715293108651112,-1.8294287328077344e-05,0.1715293108651112,-1.4267987603153594e-05
0.1723234280450423,-1.0574258483925408e-05,0.1723234280450423,-1.963815848392541e-05,0.1723234280450423,-1.4941015160745914e-05,0.1723234280450423,-1.627995090355245e-05
0.1731175452249733,-1.0406796109885976e-05,0.1731175452249733,-1.7289845939338825e-05,0.1731175452249733,-1.49386e-05,0.1731175452249733,-1.561038455409681e-05
0.1739116624049044,-6.547761451982317e-06,0.1739116624049044,-1.6617385467691624e-05,0.1739116624049044,-1.4267485467691625e-05,0.1739116624049044,-1.4267770935383246e-05
0.1747057795848355,-6.21051319064322e-06,0.1747057795848355,-1.8295134046783903e-05,0.1747057795848355,-1.393159319064322e-05,0.1747057795848355,-1.2253559143859315e-05
0.1754998967647666,-4.196491883343503e-06,0.1754998967647666,-2.098085082047508e-05,0.1754998967647666,-1.2588874589762464e-05,0.1754998967647666,-1.2253e-05
0.1762940139446976,-3.189086938300276e-06,0.1762940139446976,-1.863121156357035e-05,0.1762940139446976,-1.0574508844521097e-05,0.1762940139446976,-1.1581552834079814e-05
0.1770881311246287,-1.6829251023024934e-07,0.1770881311246287,-1.3596077194822842e-05,0.1770881311246287,-1.10781e-05,0.1770881311246287,-8.896231754206831e-06
0.1778822483045598,-2.853859925541381e-06,0.1778822483045598,-1.527419501783284e-05,0.1778822483045598,-1.1079359754733314e-05,0.1778822483045598,-1.0238170110124296e-05
0.1786763654844909,-4.1963071654991154e-06,0.1786763654844909,-1.4938137007005308e-05,0.1786763654844909,-1.5105165352014157e-05,0.1786763654844909,-8.22461e-06
0.1794704826644219,-4.363970773865692e-06,0.1794704826644219,-1.3932155356805846e-05,0.1794704826644219,-1.242254761814892e-05,0.1794704826644219,-8.22461e-06
0.180264599844353,-1.699637928597969e-07,0.180264599844353,-1.3595969184194824e-05,0.180264599844353,-9.568848035417548e-06,0.180264599844353,-6.882496731739555e-06
0.181058717024284,1.6772935972055257e-07,0.181058717024284,-1.2924639281984464e-05,0.181058717024284,-9.56741e-06,0.181058717024284,-7.552980718015535e-06
0.1818528342042151,-1.6777890262799293e-07,0.1818528342042151,-1.0910620586737773e-05,0.1818528342042151,-1.023865980650885e-05,0.1818528342042151,-9.566989415350336e-06
0.1826469513841462,-3.524624455292986e-06,0.1826469513841462,-9.567492217735856e-06,0.1826469513841462,-1.1581517781651854e-05,0.1826469513841462,-1.2252835563915998e-05
0.1834410685640773,-3.189226964983139e-06,0.1834410685640773,-1.0238973931693332e-05,0.1834410685640773,-1.292445797723111e-05,0.1834410685640773,-1.3595684045537778e-05
0.1842351857440083,-4.196308531818148e-06,0.1842351857440083,-1.2253471190908886e-05,0.1842351857440083,-1.35958e-05,0.1842351857440083,-1.2253628254545182e-05
0.1850293029239394,-4.532569565790119e-06,0.1850293029239394,-1.4267263937908227e-05,0.1850293029239394,-1.3596311655680384e-05,0.1850293029239394,-1.493891976574842e-05
0.1858234201038705,-6.209195660560548e-06,0.1858234201038705,-1.443487760179808e-05,0.1858234201038705,-1.4937620522613003e-05,0.1858234201038705,-1.5777187863104584e-05
0.1866175372838016,-9.56545366038928e-06,0.1866175372838016,-1.460280215358978e-05,0.1866175372838016,-1.5609608730912325e-05,0.1866175372838016,-1.6952115249958268e-05
0.1874116544637326,-6.882988726378122e-06,0.1874116544637326,-1.5609561725976266e-05,0.1874116544637326,-1.561e-05,0.1874116544637326,-1.628169218268249e-05
0.1882057716436637,-6.210613096277307e-06,0.1882057716436637,-1.5274396548138655e-05,0.1882057716436637,-1.359637928883192e-05,0.1882057716436637,-1.7959417259306732e-05
0.1889998888235948,-8.559980966847861e-06,0.1889998888235948,-1.4938647004936049e-05,0.1889998888235948,-1.35958e-05,0.1889998888235948,-1.86312059901279e-05
0.1897940060035258,-7.888902385275984e-06,0.1897940060035258,-1.4267194923466917e-05,0.1897940060035258,-1.62814e-05,0.1897940060035258,-1.795991396008793e-05
0.1905881231834569,-6.88140334979835e-06,0.1905881231834569,-1.359569583706173e-05,0.1905881231834569,-1.6281556244407403e-05,0.1905881231834569,-1.9806278129960848e-05
0.191382240363388,-4.196738120331447e-06,0.191382240363388,-1.2923993501313044e-05,0.191382240363388,-1.728819512598478e-05,0.191382240363388,-2.0309291876641307e-05
0.192176357543319,-5.875172933178149e-06,0.192176357543319,-1.1580845111369753e-05,0.192176357543319,-1.6280343155917652e-05,0.192176357543319,-1.863084706682185e-05
0.1929704747232501,-6.881154583377647e-06,0.1929704747232501,-9.90420902770392e-06,0.1929704747232501,-1.393305263878549e-05,0.1929704747232501,-1.7624865416622353e-05
0.1937645919031812,-5.539720161621276e-06,0.1937645919031812,-1.5607066791265605e-05,0.1937645919031812,-1.5944664749858446e-05,0.1937645919031812,-1.76242e-05
0.1945587090831123,-3.5255679909259983e-06,0.1945587090831123,-2.0643655022685006e-05,0.1945587090831123,-1.5610122998487668e-05,0.1945587090831123,-1.829535400302467e-05
0.1953528262630433,-4.531709634144813e-06,0.1953528262630433,-1.8631740731710373e-05,0.1953528262630433,-1.4267493821140247e-05,0.1953528262630433,-1.8463363283298083e-05
0.1961469434429744,-4.86760608791753e-06,0.1961469434429744,-1.5610215208742233e-05,0.1961469434429744,-1.42672e-05,0.1961469434429744,-1.628155542497453e-05
0.1969410606229055,-3.6927697089204265e-06,0.1969410606229055,-7.552963689562294e-06,0.1969410606229055,-1.460277184439939e-05,0.1969410606229055,-1.4267251262240242e-05
0.1977351778028366,-4.867780348645452e-06,0.1977351778028366,-4.195478260355672e-06,0.1977351778028366,-1.29244e-05,0.1977351778028366,-1.4938750348645453e-05
0.1985292949827676,-5.538594037732295e-06,0.1985292949827676,-8.380626790394649e-07,0.1985292949827676,-1.2923403514816672e-05,0.1985292949827676,-1.560975087870417e-05
0.1993234121626987,-4.364948779166213e-06,0.1993234121626987,2.3475318954721312e-06,0.1993234121626987,-1.0240785780951342e-05,0.1993234121626987,-1.4939096445237835e-05
0.2001175293426297,-4.196329496019636e-06,0.2001175293426297,1.8466384880589076e-06,0.2001175293426297,-1.25873070557251e-05,0.2001175293426297,-1.2925593952235628e-05
0.2009116465225608,-6.209523311431781e-06,0.2009116465225608,-8.380504155391649e-07,0.2009116465225608,-1.225314944883668e-05,0.2009116465225608,-1.359550110232664e-05
0.2017057637024919,-7.552820377463698e-06,0.2017057637024919,-5.036479050388677e-07,0.2017057637024919,-1.2588600094365925e-05,0.2017057637024919,-1.4434750250795006e-05
0.202499880882423,-8.22450927663723e-06,0.202499880882423,-4.195676015953953e-06,0.202499880882423,-1.5106022289264891e-05,0.202499880882423,-1.2253327348303613e-05
0.203293998062354,-6.210424915348944e-06,0.203293998062354,-8.224600169302114e-06,0.203293998062354,-1.3595803686407992e-05,0.203293998062354,-1.3595796723084434e-05
0.2040881152422851,-4.196717238285714e-06,0.2040881152422851,-1.0910711594466912e-05,0.2040881152422851,-1.0238897447947424e-05,0.2040881152422851,-1.5609415312315448e-05
0.2048822324222162,-7.552728664118534e-06,0.2048822324222162,-1.4435933552810944e-05,0.2048822324222162,-1.0911084404586638e-05,0.2048822324222162,-1.1582386137410345e-05
0.2056763496021472,-5.875162873361677e-06,0.2056763496021472,-1.7623314253276647e-05,0.2056763496021472,-1.3931721414693282e-05,0.2056763496021472,-1.4267790497815568e-05
0.2064704667820783,-6.881144523561175e-06,0.2064704667820783,-1.561135095287765e-05,0.2064704667820783,-1.4434662295316306e-05,0.2064704667820783,-1.5609099364748233e-05
0.2072645839620094,-6.88182e-06,0.2072645839620094,-1.4938951798371384e-05,0.2072645839620094,-1.5609384326651212e-05,0.2072645839620094,-1.2254758991856925e-05
0.2080587011419405,-5.539535420168399e-06,0.2080587011419405,-1.7623189152135294e-05,0.2080587011419405,-1.6616720932050736e-05,0.2080587011419405,-1.3091884128862057e-05
0.2088528183218715,-7.88837231511272e-06,0.2088528183218715,-1.76242e-05,0.2088528183218715,-1.5274607251122033e-05,0.2088528183218715,-1.359568476938855e-05
0.2096469355018026,-6.042719981866153e-06,0.2096469355018026,-1.6281509078311616e-05,0.2096469355018026,-1.1246227234934849e-05,0.2096469355018026,-1.4267145460844191e-05
0.2104410526817337,-4.8674963589153e-06,0.2104410526817337,-1.62813777263753e-05,0.2104410526817337,-1.25886554527506e-05,0.2104410526817337,-1.22529109055012e-05
0.2112351698616647,-2.853727265169805e-06,0.2112351698616647,-1.5945197282209036e-05,0.2112351698616647,-1.1916510017039234e-05,0.2112351698616647,-1.091070271779096e-05
0.2120292870415958,-4.196714829503034e-06,0.2120292870415958,-1.35958e-05,0.2120292870415958,-8.22424638148331e-06,0.2120292870415958,-1.326100903726526e-05
0.2128234042215269,-5.5380236964356525e-06,0.2128234042215269,-1.35958e-05,0.2128234042215269,-7.218274720179192e-06,0.2128234042215269,-1.5775913218287192e-05
0.2136175214014579,-3.526044097208232e-06,0.2136175214014579,-1.35958e-05,0.2136175214014579,-1.1746668323475304e-05,0.2136175214014579,-1.4268110542767724e-05
0.214411638581389,-4.8670187746715945e-06,0.214411638581389,-1.2589158418996304e-05,0.214411638581389,-1.3594959542414084e-05,0.214411638581389,-1.3596105612664203e-05
0.2152057557613201,-6.210006950557971e-06,0.2152057557613201,-1.225310326312952e-05,0.2152057557613201,-1.4938186947481916e-05,0.2152057557613201,-1.4266993473740957e-05
0.2159998729412512,-3.860906037888184e-06,0.2159998729412512,-1.2253e-05,0.2159998729412512,-1.5609892560146167e-05,0.2159998729412512,-1.4938492560146163e-05
0.2167939901211822,-2.8534525300485213e-06,0.2167939901211822,-1.2924391646551372e-05,0.2167939901211822,-1.6281391646551374e-05,0.2167939901211822,-1.6952774939654123e-05
0.2175881073011133,-3.189457563996471e-06,0.2175881073011133,-1.4938554633521732e-05,0.2175881073011133,-1.5106740255344e-05,0.2175881073011133,-1.493891756534787e-05
0.2183822244810444,-5.538697816116951e-06,0.2183822244810444,-1.4602425451595644e-05,0.2183822244810444,-1.76242e-05,0.2183822244810444,-1.7288784729042612e-05
0.2191763416609755,-4.364440677954307e-06,0.2191763416609755,-1.2924544271181725e-05,0.2191763416609755,-1.7622613017001048e-05,0.2191763416609755,-1.829588854236345e-05
0.2199704588409065,-5.2027587197871946e-06,0.2199704588409065,-1.3259871487914878e-05,0.2199704588409065,-1.3934013632936349e-05,0.2199704588409065,-1.8966542975829755e-05
0.2207645760208376,-4.867809256681114e-06,0.2207645760208376,-1.2924579256681114e-05,0.2207645760208376,-1.2589417026724455e-05,0.2207645760208376,-1.4940751080173371e-05
0.2215586932007686,-1.0907865168978298e-05,0.2215586932007686,-9.736492274182102e-06,0.2215586932007686,-1.0575278280871204e-05,0.2215586932007686,-1.4267459426957069e-05
0.2223528103806997,-1.225267931889628e-05,0.2223528103806997,-7.553741104405393e-06,0.2223528103806997,-1.0910119829724067e-05,0.2223528103806997,-1.460281982972407e-05
0.2231469275606308,-1.0238983762440026e-05,0.2231469275606308,-7.217550627073338e-06,0.2231469275606308,-9.567532507381016e-06,0.2231469275606308,-1.3595891881220014e-05
0.2239410447405619,-8.895820839834424e-06,0.2239410447405619,-7.889023496212043e-06,0.2239410447405619,-1.3260118916129256e-05,0.2239410447405619,-1.2253e-05
0.2247351619204929,-5.5386534736747804e-06,0.2247351619204929,-9.903236918663715e-06,0.2247351619204929,-1.35958e-05,0.2247351619204929,-1.225293154066814e-05
0.225529279100424,-3.6922675141481354e-06,0.225529279100424,-1.0574853562310768e-05,0.225529279100424,-1.3595917854103588e-05,0.225529279100424,-1.1917417854103587e-05
0.2263233962803551,-2.5186322444774386e-06,0.2263233962803551,-1.1580835212510233e-05,0.2263233962803551,-1.3931245070836745e-05,0.2263233962803551,-1.2252745070836744e-05
0.2271175134602862,5.016966440820986e-07,0.2271175134602862,-1.2420285763063204e-05,0.2271175134602862,-1.443469147009333e-05,0.2271175134602862,-1.2253e-05
0.2279116306402172,-5.030795103781137e-07,0.2279116306402172,-1.0910902713964528e-05,0.2279116306402172,-1.4938365730999247e-05,0.2279116306402172,-1.2588543836172453e-05
0.2287057478201483,-5.201837316967722e-06,0.2287057478201483,-1.1245793379375057e-05,0.2287057478201483,-1.49386e-05,0.2287057478201483,-1.3931073517500228e-05
0.2294998650000794,-7.217177537166145e-06,0.2294998650000794,-1.0574614154844704e-05,0.2294998650000794,-1.6281171690310595e-05,0.2294998650000794,-1.39315e-05
0.2302939821800104,-1.1917194521372244e-05,0.2302939821800104,-1.1917269863120966e-05,0.2302939821800104,-1.4938630136879035e-05,0.2302939821800104,-1.4434988699792528e-05
0.2310880993599415,-1.1246131043148726e-05,0.2310880993599415,-1.2252957991017154e-05,0.2310880993599415,-1.1245689956337158e-05,0.2310880993599415,-1.0910326026948535e-05
0.2318822165398726,-1.3090964061859813e-05,0.2318822165398726,-1.191762041901302e-05,0.2318822165398726,-9.568233966941733e-06,0.2318822165398726,-1.1917116895629123e-05
0.2326763337198036,-8.55812578079738e-06,0.2326763337198036,-1.3091847726214782e-05,0.2326763337198036,-1.2588840917909554e-05,0.2326763337198036,-1.1246322753728664e-05
0.2334704508997347,-3.360573899224176e-06,0.2334704508997347,-1.225357962885862e-05,0.2334704508997347,-1.2924168134642709e-05,0.2334704508997347,-1.2252304403928124e-05
0.2342645680796658,1.8435094965829123e-06,0.2342645680796658,-1.191748261417655e-05,0.2342645680796658,-1.5273021700764162e-05,0.2342645680796658,-1.2924034771646905e-05
0.2350586852595969,6.544257014292585e-06,0.2350586852595969,-1.1246166141947912e-05,0.2350586852595969,-1.4938733070973956e-05,0.2350586852595969,-1.1582132283895825e-05
0.2358528024395279,1.1915963560634514e-05,0.2358528024395279,-1.0406908806987571e-05,0.2358528024395279,-1.3596134111085455e-05,0.2358528024395279,-1.2252832944457272e-05
0.236646919619459,9.90330390741263e-06,0.236646919619459,-8.224830903746413e-06,0.236646919619459,-1.5609796092587372e-05,0.236646919619459,-1.4266996092587369e-05
0.2374410367993901,6.54590218005345e-06,0.2374410367993901,-8.22461e-06,0.2374410367993901,-1.5106485574803354e-05,0.2374410367993901,-1.4603008910436744e-05
0.2382351539793211,1.8445171563372623e-06,0.2382351539793211,-8.22649795131702e-06,0.2382351539793211,-1.6952669796327153e-05,0.2382351539793211,-1.69530604073457e-05
0.2390292711592522,-7.554823004818267e-06,0.2390292711592522,-1.7964938002474412e-05,0.2390292711592522,-1.628117099833716e-05,0.2390292711592522,-1.829582900166284e-05
0.2398233883391833,-1.224938406129174e-05,0.2398233883391833,-3.271923564977976e-05,0.2398233883391833,-1.5610516564870853e-05,0.2398233883391833,-1.896648343512915e-05
0.2406175055191144,-2.097576432233541e-05,0.2406175055191144,-3.3904768305299135e-05,0.2406175055191144,-1.4603527193576684e-05,0.2406175055191144,-1.8967e-05
0.2414116226990454,-2.131674047867703e-05,0.2414116226990454,-2.971129399277761e-05,0.2414116226990454,-1.2925197606614844e-05,0.2414116226990454,-1.6282676170583752e-05
0.2422057398789765,-1.5611869628046406e-05,0.2422057398789765,-2.1990829464007832e-05,0.2422057398789765,-1.3763325071079475e-05,0.2422057398789765,-1.62814e-05
0.2429998570589076,-1.1582325219013415e-05,0.2429998570589076,-1.4939869133273478e-05,0.2429998570589076,-1.3595830208457564e-05,0.2429998570589076,-1.695267913016443e-05
0.2437939742388386,-5.874905158509377e-06,0.2437939742388386,-5.035801304624835e-06,0.2437939742388386,-1.4267178216569615e-05,0.2437939742388386,-1.69528e-05
0.2445880914187697,-1.5105626977159992e-06,0.2445880914187697,6.378753141289903e-06,0.2445880914187697,-1.3595877302974822e-05,0.2445880914187697,-1.4267161348512588e-05
0.2453822085987008,-8.398633612537123e-07,0.2453822085987008,1.0574588194690004e-05,0.2453822085987008,-1.4267376389380008e-05,0.2453822085987008,-1.3931808668279074e-05
0.2461763257786318,-3.18955268981431e-06,0.2461763257786318,1.090923705163615e-05,0.2461763257786318,-1.49386e-05,0.2461763257786318,-1.510578097962099e-05
0.2469704429585629,-4.195524351118464e-06,0.2469704429585629,8.561956523399332e-06,0.2469704429585629,-1.49386e-05,0.2469704429585629,-1.3596858448798466e-05
0.247764560138494,-8.557892379343719e-06,0.247764560138494,6.547235824492144e-06,0.247764560138494,-1.292551583003196e-05,0.247764560138494,-1.4266828056656011e-05
0.2485586773184251,-9.734782500357135e-06,0.2485586773184251,3.693839637925814e-06,0.2485586773184251,-1.6280035715306103e-05,0.2485586773184251,-1.6951708572244882e-05
0.2493527944983561,-7.553784751646002e-06,0.2493527944983561,-4.865414436049389e-06,0.2493527944983561,-1.896630491786562e-05,0.2493527944983561,-1.69528e-05
0.2501469116782872,-1.0238501265711084e-05,0.2501469116782872,-1.4266154425539336e-05,0.2501469116782872,-1.5610373420642055e-05,0.2501469116782872,-1.577793070278654e-05
0.2509410288582183,-1.2253073206830247e-05,0.2509410288582183,-1.493867320683025e-05,0.2509410288582183,-1.3595812201138374e-05,0.2509410288582183,-1.6616990189754624e-05
0.2517351460381494,-1.4266459067907972e-05,0.2517351460381494,-1.6954405334473346e-05,0.2517351460381494,-1.3931438255658998e-05,0.2517351460381494,-1.3595985233023006e-05
0.2525292632180804,-1.023713279654399e-05,0.2525292632180804,-2.567945511483893e-05,0.2525292632180804,-1.3596578032914758e-05,0.2525292632180804,-1.460367803291476e-05
0.2533233803980115,-5.207254512232707e-06,0.2533233803980115,-2.132030118626137e-05,0.2533233803980115,-1.594386855004684e-05,0.2533233803980115,-1.695096855004684e-05
0.2541174975779426,-5.538817577979005e-06,0.2541174975779426,-1.6284586330314923e-05,0.2541174975779426,-1.6281187577979003e-05,0.2541174975779426,-1.6449518664670164e-05
0.2549116147578736,-3.861344394092072e-06,0.2549116147578736,-1.5274788636455243e-05,0.2549116147578736,-1.2254954545820972e-05,0.2549116147578736,-1.1919498839789016e-05
0.2557057319378047,-8.402660151405383e-07,0.2557057319378047,-1.2925193349310674e-05,0.2557057319378047,-6.212460034332395e-06,0.2557057319378047,-7.219106691869152e-06
0.2564998491177358,3.1883744937019124e-06,0.2564998491177358,-1.0239310339305652e-05,0.2564998491177358,-6.546056207586793e-06,0.2564998491177358,-7.21752e-06
0.2572939662976669,1.8463969968425053e-06,0.2572939662976669,-8.896066996418042e-06,0.2572939662976669,-1.0910014761110785e-05,0.2572939662976669,-8.224567252792584e-06
0.2580880834775979,-6.21190234556035e-06,0.2580880834775979,-8.22510411483633e-06,0.2580880834775979,-9.56793940882831e-06,0.2580880834775979,-8.22475117596791e-06
0.258882200657529,-2.0311496718619902e-05,0.258882200657529,-1.2925248371945814e-05,0.258882200657529,-1.4603324185972908e-05,0.258882200657529,-9.56741e-06
0.2596763178374601,-2.702208946361741e-05,0.2596763178374601,-1.6282205268191294e-05,0.2596763178374601,-1.627978946361741e-05,0.2596763178374601,-9.568483686923773e-06
0.2604704350173911,-2.299816286281956e-05,0.2604704350173911,-1.8294168568590223e-05,0.2604704350173911,-1.2255862862819556e-05,0.2604704350173911,-1.225109143189366e-05
0.2612645521973222,-1.7627229210280705e-05,0.2612645521973222,-1.9973153354162804e-05,0.2612645521973222,-1.2420705363615442e-05,0.2612645521973222,-1.560810670832561e-05
0.2620586693772533,-1.2255236575436989e-05,0.2620586693772533,-1.9302979571929623e-05,0.2620586693772533,-1.5273111798479028e-05,0.2620586693772533,-1.6952240856140753e-05
0.2628527865571843,-1.6813326362575036e-06,0.2628527865571843,-1.493977315590901e-05,0.2628527865571843,-1.6616739028951074e-05,0.2628527865571843,-1.7288409757237768e-05
0.2636469037371154,1.5104365035353615e-05,0.2636469037371154,-1.49386e-05,0.2636469037371154,-1.4267484896917557e-05,0.2636469037371154,-1.66171813991193e-05
0.2644410209170465,3.6087953743084666e-05,0.2644410209170465,-1.7624235374571907e-05,0.2644410209170465,-1.3260038094499164e-05,0.2644410209170465,-1.5777715986708918e-05
0.2652351380969776,4.951474097100776e-05,0.2652351380969776,-1.8966883226308887e-05,0.2652351380969776,-1.0909732906974802e-05,0.2652351380969776,-1.2588758386845557e-05
0.2660292552769086,4.514374666983861e-05,0.2660292552769086,-1.82941447610694e-05,0.2660292552769086,-8.224394414636889e-06,0.2660292552769086,-1.292504676572242e-05
0.2668233724568397,2.1335714059689874e-05,0.2668233724568397,-1.376717739069477e-05,0.2668233724568397,-7.553749970065878e-06,0.2668233724568397,-1.493701006612149e-05
0.2676174896367708,-9.547558342337215e-06,0.2676174896367708,-1.158300253471812e-05,0.2676174896367708,-6.88225155903288e-06,0.2676174896367708,-1.2254726236131524e-05
0.2684116068167018,-2.131108173396765e-05,0.2684116068167018,-1.0574998708941509e-05,0.2684116068167018,-6.88182e-06,0.2684116068167018,-9.568739885558762e-06
0.2692057239966329,-1.7961066931112328e-05,0.2692057239966329,-1.2252416534443836e-05,0.2692057239966329,-1.2251132917172504e-05,0.2692057239966329,-8.225076772444931e-06
0.269999841176564,-1.4939204349177867e-05,0.269999841176564,-1.2253e-05,0.269999841176564,-1.2924265700182696e-05,0.269999841176564,-8.22461e-06
0.270793958356495,-1.3931552820118146e-05,0.270793958356495,-9.56755085312391e-06,0.270793958356495,-1.4267129573175808e-05,0.270793958356495,-8.22461e-06
0.2715880755364261,-1.2588731936496555e-05,0.2715880755364261,-7.217615808538326e-06,0.2715880755364261,-1.5609952090498467e-05,0.2715880755364261,-1.1581743709477796e-05
0.2723821927163572,-1.2924562959398272e-05,0.2723821927163572,-8.225750713360745e-06,0.2723821927163572,-1.5106725918796544e-05,0.2723821927163572,-1.3092322231684494e-05
0.2731763098962882,-1.3598417161861167e-05,0.2731763098962882,-1.2927017161861167e-05,0.2731763098962882,-1.6450181455188274e-05,0.2731763098962882,-1.3596912274300664e-05
0.2739704270762193,-2.030496149652379e-05,0.2739704270762193,-1.9633561496523796e-05,0.2739704270762193,-1.896518552516348e-05,0.2739704270762193,-1.6447143672055556e-05
0.2747645442561504,-2.4335787817444412e-05,0.2747645442561504,-2.316117681873944e-05,0.2747645442561504,-1.829598537332568e-05,0.2747645442561504,-1.6617003627969348e-05
0.2755586614360815,-2.3163700980790752e-05,0.2755586614360815,-1.6955448132694618e-05,0.2755586614360815,-1.9637827426158973e-05,0.2755586614360815,-1.5945986286920513e-05
0.2763527786160125,-1.292725479391809e-05,0.2763527786160125,-9.56946920288068e-06,0.2763527786160125,-1.7624761601546063e-05,0.2763527786160125,-1.6616912799484647e-05
0.2771468957959436,-5.5399992512739095e-06,0.2771468957959436,-5.875204626293152e-06,0.2771468957959436,-1.4603296513495447e-05,0.2771468957959436,-1.6952755942944953e-05
0.2779410129758747,-5.03476680441632e-07,0.2779410129758747,-5.874676111146602e-06,0.2779410129758747,-1.4267243889180248e-05,0.2779410129758747,-1.6617121944590124e-05
0.2787351301558057,3.86053e-06,0.2787351301558057,-3.1888648532494435e-06,0.2787351301558057,-1.6952277212977735e-05,0.2787351301558057,-1.795978994129978e-05
0.2795292473357368,3.86126108399325e-06,0.2795292473357368,-1.5111099845671085e-06,0.2795292473357368,-1.3763025589973684e-05,0.2795292473357368,-1.7288029999877183e-05
0.2803233645156679,6.208541612229987e-06,0.2803233645156679,-3.020082459866304e-06,0.2803233645156679,-1.191877584241806e-05,0.2803233645156679,-1.5779007580101263e-05
0.2811174816955989,5.203987404507824e-06,0.2811174816955989,-2.1825878425296563e-06,0.2811174816955989,-1.4936627766893236e-05,0.2811174816955989,-1.762299471379594e-05
0.2819115988755301,-6.204653835744935e-06,0.2819115988755301,-2.517570406190741e-06,0.2819115988755301,-1.3932008781427776e-05,0.2819115988755301,-1.997291284333519e-05
0.2827057160554611,-8.223889699936058e-06,0.2827057160554611,-1.8465801012133563e-06,0.2827057160554611,-1.6280559645753252e-05,0.2827057160554611,-1.930294010121336e-05
0.2834998332353922,-8.89586898519185e-06,0.2834998332353922,-5.202624928059568e-06,0.2834998332353922,-1.62814e-05,0.2834998332353922,-1.6282034566636667e-05
0.2842939504153233,-1.0910074215415669e-05,0.2842939504153233,-8.224421323435751e-06,0.2842939504153233,-1.4267325785208822e-05,0.2842939504153233,-1.3595967713611764e-05
0.2850880675952543,-1.4938742895005547e-05,0.2850880675952543,-9.567953000169764e-06,0.2850880675952543,-1.258875715800222e-05,0.2850880675952543,-1.4435042872758291e-05
0.2858821847751854,-1.6616553144574166e-05,0.2858821847751854,-1.594620778268827e-05,0.2858821847751854,-1.3260803099833214e-05,0.2858821847751854,-1.49386e-05
0.2866763019551165,-1.4265414936305562e-05,0.2866763019551165,-1.8127508761759536e-05,0.2866763019551165,-1.6280889980716395e-05,0.2866763019551165,-1.4938217485537295e-05
0.2874704191350475,-9.570843890936744e-06,0.2874704191350475,-1.762456788113653e-05,0.2874704191350475,-1.4939581113783775e-05,0.2874704191350475,-1.3932235835337834e-05
0.2882645363149786,-6.212380435742973e-06,0.2882645363149786,-1.8295207911683435e-05,0.2882645363149786,-1.6280615823366866e-05,0.2882645363149786,-1.3763698051278453e-05
0.2890586534949096,-6.3781967495221485e-06,0.2890586534949096,-2.2322142032172008e-05,0.2890586534949096,-1.5610293001911407e-05,0.2890586534949096,-1.4266980226746223e-05
0.2898527706748408,-4.196860222506917e-06,0.2898527706748408,-2.735794563370352e-05,0.2898527706748408,-1.4267587831012396e-05,0.2898527706748408,-1.3595993915506195e-05
0.2906468878547718,-8.895346199117885e-06,0.2906468878547718,-2.400287414550495e-05,0.2906468878547718,-1.359589482910099e-05,0.2906468878547718,-1.3931452585449506e-05
0.2914410050347029,-5.203268269343163e-06,0.2914410050347029,-1.963837871347915e-05,0.2914410050347029,-1.2924391485391658e-05,0.2914410050347029,-1.3260119157868768e-05
0.292235122214634,4.532085015564068e-06,0.292235122214634,-1.6280573250324972e-05,0.292235122214634,-1.1580773253403424e-05,0.292235122214634,-1.62814e-05
0.293029239394565,5.537311514696784e-06,0.293029239394565,-1.0909593476554718e-05,0.293029239394565,-6.21001565204023e-06,0.293029239394565,-1.6281096736771732e-05
0.2938233565744961,-1.6323019308661857e-07,0.2938233565744961,-8.897640165051136e-06,0.2938233565744961,-4.868716774002957e-06,0.2938233565744961,-1.527511508657227e-05
0.2946174737544272,-2.5161825444140085e-06,0.2946174737544272,-5.54125493181729e-06,0.2946174737544272,-6.880485039584071e-06,0.2946174737544272,-1.4267867483521854e-05
0.2954115909343582,-4.866419346019031e-06,0.2954115909343582,-6.545601151237848e-06,0.2954115909343582,-9.566026394714329e-06,0.2954115909343582,-1.2925091805218817e-05
0.2962057081142893,-5.203206591897876e-06,0.2962057081142893,-8.559569555063401e-06,0.2962057081142893,-1.3594319106450655e-05,0.2962057081142893,-1.7622472286570267e-05
0.2969998252942204,-2.85395705209615e-06,0.2969998252942204,-1.090968294790385e-05,0.2969998252942204,-1.4434815348752882e-05,0.2969998252942204,-1.7959826135100503e-05
0.2977939424741515,-5.874501106176771e-06,0.2977939424741515,-1.661668653115243e-05,0.2977939424741515,-1.6281266227044427e-05,0.2977939424741515,-1.7624224321696915e-05
0.2985880596540825,-1.0238926107528324e-05,0.2985880596540825,-2.6352224335483005e-05,0.2985880596540825,-1.8295726107528325e-05,0.2985880596540825,-1.49386e-05
0.2993821768340136,-1.1917225235291707e-05,0.2993821768340136,-2.534527476470829e-05,0.2993821768340136,-1.9974025235291703e-05,0.2993821768340136,-1.4938749529416584e-05
0.3001762940139447,-1.1580606791308524e-05,0.3001762940139447,-2.568040339380512e-05,0.3001762940139447,-1.963815169690256e-05,0.3001762940139447,-1.560962754535384e-05
0.3009704111938757,-8.897999046338636e-06,0.3009704111938757,-2.43390945268725e-05,0.3009704111938757,-1.896749726343625e-05,0.3009704111938757,-1.4603645895154376e-05
0.3017645283738068,-8.225008803307457e-06,0.3017645283738068,-2.1654195153831063e-05,0.3017645283738068,-1.8967e-05,0.3017645283738068,-1.2589896409922373e-05
0.3025586455537379,-8.22461e-06,0.3025586455537379,-1.6283797735217998e-05,0.3025586455537379,-1.5275948442962373e-05,0.3025586455537379,-1.2253149858451125e-05
0.3033527627336689,-8.22461e-06,0.3033527627336689,-8.562617247727743e-06,0.3033527627336689,-1.493870031524852e-05,0.3033527627336689,-1.3091949226819902e-05
0.3041468799136,-6.210724630763221e-06,0.3041468799136,-1.008242364983971e-06,0.3041468799136,-1.863074150749465e-05,0.3041468799136,-1.30922e-05
0.3049409970935311,-4.867634915336742e-06,0.3049409970935311,5.035424702123059e-07,0.3049409970935311,-1.661710737306002e-05,0.3049409970935311,-1.3595798156551967e-05
0.3057351142734621,-9.232845378807504e-06,0.3057351142734621,-1.0066893293854417e-06,0.3057351142734621,-1.124498203149156e-05,0.3057351142734621,-1.3595703371281464e-05
0.3065292314533932,-1.712074661626268e-05,0.3065292314533932,1.8477082767653208e-06,0.3065292314533932,-4.8672390621177005e-06,0.3065292314533932,-1.292459546894115e-05
0.3073233486333243,-1.762378738583917e-05,0.3073233486333243,6.542269333239121e-06,0.3073233486333243,-3.525930195184989e-06,0.3073233486333243,-1.3595249902407505e-05
0.3081174658132554,-1.09147170400546e-05,0.3081174658132554,1.1913686381411903e-05,0.3081174658132554,-9.563344677406443e-06,0.3081174658132554,-1.158295511201638e-05
0.3089115829931864,-5.877364621498295e-06,0.3089115829931864,1.32593947647994e-05,0.3089115829931864,-1.3593684299650178e-05,0.3089115829931864,-9.568467847548922e-06
0.3097057001731175,-2.3512210312216696e-06,0.3097057001731175,1.2924526765597522e-05,0.3097057001731175,-1.2924653531195044e-05,0.3097057001731175,-8.896263531195044e-06
0.3104998173530486,-8.395934993970346e-07,0.3104998173530486,1.0575040556764593e-05,0.3104998173530486,-1.091066333436965e-05,0.3104998173530486,-1.225222777835092e-05
0.3112939345329796,3.1888078508459934e-06,0.3112939345329796,5.875107507044017e-06,0.3112939345329796,-1.057452767919236e-05,0.3112939345329796,-1.3260016962422916e-05
0.3120880517129107,2.8529917897434364e-06,0.3120880517129107,8.390054967988894e-07,0.3120880517129107,-8.224828639451363e-06,0.3120880517129107,-1.0910123476615363e-05
0.3128821688928418,-4.029629619843469e-06,0.3128821688928418,-2.855153764599857e-06,0.3128821688928418,-1.1582028443277078e-05,0.3128821688928418,-9.734831558850036e-06
0.3136762860727728,-9.901408834923647e-06,0.3136762860727728,-1.0912253570701173e-05,0.3136762860727728,-1.359604159655308e-05,0.3136762860727728,-7.721613588646027e-06
0.314470403252704,-5.20685776734519e-06,0.314470403252704,-1.6612816255165197e-05,0.314470403252704,-1.4266696030019436e-05,0.314470403252704,-9.230576075049984e-06
0.315264520432635,-4.196838277447453e-06,0.315264520432635,-1.8965580685955943e-05,0.315264520432635,-1.42672e-05,0.315264520432635,-1.1915677932846684e-05
0.3160586376125661,-3.5251364318930942e-06,0.3160586376125661,-2.265791467022872e-05,0.3160586376125661,-1.4602746784053451e-05,0.3160586376125661,-1.1581753215946548e-05
0.3168527547924971,1.1734885908492354e-06,0.3168527547924971,-2.2995196327256036e-05,0.3168527547924971,-1.2924918363719832e-05,0.3168527547924971,-1.309173348809343e-05
0.3176468719724282,2.5175234818345494e-06,0.3176468719724282,-2.333094587045864e-05,0.3176468719724282,-1.527392109321046e-05,0.3176468719724282,-1.4938302279460316e-05
0.3184409891523593,2.51774e-06,0.3184409891523593,-2.299530458633876e-05,0.3184409891523593,-1.4938604586338758e-05,0.3184409891523593,-1.3092225225546276e-05
0.3192351063322903,6.54612e-06,0.3192351063322903,-2.2492182126646495e-05,0.3192351063322903,-1.4938959654910572e-05,0.3192351063322903,-1.225358443922968e-05
0.3200292235122214,6.544987431241939e-06,0.3200292235122214,-2.5347276386365183e-05,0.3200292235122214,-1.76242e-05,0.3200292235122214,-1.6617005618801584e-05
0.3208233406921525,2.521080808234775e-06,0.3208233406921525,-3.272447515449459e-05,0.3208233406921525,-1.76242e-05,0.3208233406921525,-1.6281678402068427e-05
0.3216174578720835,-1.843360290179332e-06,0.3216174578720835,-3.6085307905018245e-05,0.3216174578720835,-1.5611375256989053e-05,0.3216174578720835,-1.62814e-05
0.3224115750520147,-4.530492674987604e-06,0.3224115750520147,-3.373895766406884e-05,0.3224115750520147,-1.561e-05,0.3224115750520147,-1.7623481334817805e-05
0.3232056922319457,-8.223178653729698e-06,0.3232056922319457,-3.1053140984743745e-05,0.3232056922319457,-1.6616709630721096e-05,0.3232056922319457,-1.76242e-05
0.3239998094118768,-1.3594510724154156e-05,0.3239998094118768,-4.195968116556418e-05,0.3239998094118768,-1.6281480579890386e-05,0.3239998094118768,-1.896667768043845e-05
0.3247939265918079,-1.6281151706497732e-05,0.3247939265918079,-5.723518783532853e-05,0.3247939265918079,-1.5610062073375568e-05,0.3247939265918079,-1.9302668963312217e-05
0.3255880437717389,-1.4938525973940718e-05,0.3255880437717389,-5.7907093186286615e-05,0.3255880437717389,-1.762423701302964e-05,0.3255880437717389,-1.896703701302964e-05
0.32638216095167,-1.3596344397739204e-05,0.32638216095167,-4.145600996158656e-05,0.32638216095167,-1.82951917016956e-05,0.32638216095167,-1.96379917016956e-05
0.3271762781316011,-1.6281165109991237e-05,0.3271762781316011,-2.769204646487117e-05,0.3271762781316011,-1.6281634890008763e-05,0.3271762781316011,-1.762431744500438e-05
0.3279703953115321,-1.5610510676524927e-05,0.3279703953115321,-1.897363871876261e-05,0.3279703953115321,-1.6952289323475076e-05,0.3279703953115321,-1.7959644661737538e-05
0.3287645124914632,-1.091308563302402e-05,0.3287645124914632,-1.091514679946975e-05,0.3287645124914632,-1.6617306116644572e-05,0.3287645124914632,-1.7288912233289146e-05
0.3295586296713942,-1.0406934836842548e-05,0.3295586296713942,2.5114770903048303e-06,0.3295586296713942,-1.6281556573441993e-05,0.3295586296713942,-1.7120678310041438e-05
0.3303527468513254,-8.56089867906972e-06,0.3303527468513254,1.5941418803177534e-05,0.3303527468513254,-1.4939028120957554e-05,0.3303527468513254,-1.6952853499178342e-05
0.3311468640312564,-3.861334815090409e-06,0.3311468640312564,2.4672305354167512e-05,0.3311468640312564,-1.49386e-05,0.3311468640312564,-1.69528e-05
0.3319409812111875,-1.0071675221174663e-06,0.3319409812111875,3.27304093479791e-05,0.3319409812111875,-1.3595831775336817e-05,0.3319409812111875,-1.577782780460289e-05
0.3327350983911186,5.203496396234416e-06,0.3327350983911186,3.6087579194119886e-05,0.3327350983911186,-1.49384752018948e-05,0.3327350983911186,-1.79600247981052e-05
0.3335292155710496,6.545027670308331e-06,0.3335292155710496,3.591901730411115e-05,0.3335292155710496,-1.3931591027926237e-05,0.3335292155710496,-1.8966089720737632e-05
0.3343233327509807,2.521121047301167e-06,0.3343233327509807,3.3404113123089225e-05,0.3343233327509807,-1.426691824465939e-05,0.3343233327509807,-1.561281755340609e-05
0.3351174499309118,6.878796642938875e-06,0.3351174499309118,2.904092337091677e-05,0.3351174499309118,-1.6280004598038415e-05,0.3351174499309118,-1.3597195401961585e-05
0.3359115671108428,7.552853952418012e-06,0.3359115671108428,2.132110949267281e-05,0.3359115671108428,-1.561036604758199e-05,0.3359115671108428,-1.627993580967205e-05
0.3367056842907739,-3.520425160463294e-06,0.3367056842907739,1.1921037456475574e-05,0.3367056842907739,-1.359660088353048e-05,0.3367056842907739,-1.326130132529572e-05
0.337499801470705,-2.0808977244633765e-05,0.337499801470705,6.547462993172212e-06,0.337499801470705,-1.0910871499086476e-05,0.337499801470705,-9.568333308743534e-06
0.338293918650636,-3.507903825233652e-05,0.338293918650636,-1.6716111951199833e-07,0.338293918650636,-9.567547575708272e-06,0.338293918650636,-7.553426364074682e-06
0.3390880358305671,-3.5248019745397895e-05,0.3390880358305671,-9.56777357601373e-06,0.3390880358305671,-1.0574424255354391e-05,0.3390880358305671,-4.196078510528278e-06
0.3398821530104982,-2.9036218021499395e-05,0.3398821530104982,-1.7625235056280817e-05,0.3398821530104982,-8.896398151404788e-06,0.3398821530104982,-8.39246e-07
0.3406762701904293,-2.0308887266142203e-05,0.3406762701904293,-2.2995984550393347e-05,0.3406762701904293,-1.090997181653555e-05,0.3406762701904293,-8.399305483541752e-07
0.3414703873703603,-1.7626269532277154e-05,0.3414703873703603,-2.500794785079213e-05,0.3414703873703603,-1.0239317383069289e-05,0.3414703873703603,-2.8518878554157545e-06
0.3422645045502914,-2.4333910579599308e-05,0.3422645045502914,-2.702244315516003e-05,0.3422645045502914,-1.2922724206880038e-05,0.3422645045502914,-6.879306322799901e-06
0.3430586217302225,-1.6620778363919508e-05,0.3430586217302225,-2.5178279596335262e-05,0.3430586217302225,-1.6279800690625853e-05,0.3430586217302225,-1.023720070015406e-05
0.3438527389101535,1.0565558626361287e-05,0.3438527389101535,-2.433837598577851e-05,0.3438527389101535,-1.52746311632045e-05,0.3438527389101535,-1.2420082496165004e-05
0.3446468560900846,2.9370192724319784e-05,0.3446468560900846,-2.3666821689064463e-05,0.3446468560900846,-1.493866084453223e-05,0.3446468560900846,-1.4602504501478166e-05
0.3454409732700157,2.93736e-05,0.3454409732700157,-2.265963390398888e-05,0.3454409732700157,-1.3595845205318504e-05,0.3454409732700157,-1.5777760447029557e-05
0.3462350904499467,1.460068197934284e-05,0.3462350904499467,-1.829529406501637e-05,0.3462350904499467,-1.0910047033647351e-05,0.3462350904499467,-1.4267276483745907e-05
0.3470292076298778,-4.86815604531278e-06,0.3470292076298778,-1.5609561626729605e-05,0.3470292076298778,-9.5678483706587e-06,0.3470292076298778,-1.4938863023962238e-05
0.3478233248098089,-6.880109356816361e-06,0.3478233248098089,-1.393292554306383e-05,0.3478233248098089,-1.1244474465429129e-05,0.3478233248098089,-1.59448446741617e-05
0.34861744198974,-1.8498788532796216e-06,0.34861744198974,-1.5776502450449576e-05,0.34861744198974,-1.4265076679598822e-05,0.34861744198974,-1.7790702450449575e-05
0.349411559169671,-2.029954905145392e-05,0.349411559169671,-1.6281120400310245e-05,0.349411559169671,-1.695130894970849e-05,0.349411559169671,-1.8295320400310246e-05
0.3502056763496021,-2.165205264766466e-05,0.3502056763496021,-1.6616963161916164e-05,0.3502056763496021,-1.5610547352335343e-05,0.3502056763496021,-1.6617784190419178e-05
0.3509997935295332,-5.207607441379192e-06,0.3509997935295332,-2.0308839756306453e-05,0.3509997935295332,-1.2253872948812314e-05,0.3509997935295332,-1.6449243660442535e-05
0.3517939107094642,1.006401596194087e-06,0.3517939107094642,-2.1988111241606747e-05,0.3517939107094642,-1.2588662248321349e-05,0.3517939107094642,-1.7624067863501893e-05
0.3525880278893953,5.203707327712736e-06,0.3525880278893953,-2.198834716258329e-05,0.3525880278893953,-1.493864716609581e-05,0.3525880278893953,-1.6281423583047905e-05
0.3533821450693264,1.5947846697158788e-05,0.3533821450693264,-2.333075467936447e-05,0.3533821450693264,-1.6281645338906227e-05,0.3533821450693264,-1.6953106673632786e-05
0.3541762622492574,2.769631812306048e-05,0.3541762622492574,-2.198818926153996e-05,0.3541762622492574,-1.7623978523079914e-05,0.3541762622492574,-1.863163221538013e-05
0.3549703794291886,3.138491750712544e-05,0.3549703794291886,-2.165286204480678e-05,0.3549703794291886,-1.6953324089613556e-05,0.3549703794291886,-1.9637613865579667e-05
0.3557644966091196,2.6690979642896165e-05,0.3557644966091196,-2.131711283163544e-05,0.3557644966091196,-1.1585005306167047e-05,0.3557644966091196,-2.165132301018736e-05
0.3565586137890507,1.4944315046508924e-05,0.3565586137890507,-2.031028986529858e-05,0.3565586137890507,-1.023945315373144e-05,0.3565586137890507,-2.2323573471775454e-05
0.3573527309689818,-4.189746545594834e-06,0.3573527309689818,-1.8631868726151164e-05,0.3573527309689818,-1.1581145019079068e-05,0.3573527309689818,-2.2995072509539533e-05
0.3581468481489128,-2.198489729827188e-05,0.3581468481489128,-1.3093259343018674e-05,0.3581468481489128,-1.3595414787834086e-05,0.3581468481489128,-1.913553831375559e-05
0.3589409653288439,-3.994731575940862e-05,0.3589409653288439,-1.359577800957907e-05,0.3589409653288439,-1.3931485341174928e-05,0.3589409653288439,-1.4603097891955147e-05
0.3597350825087749,-3.507966277493979e-05,0.3597350825087749,-1.24208e-05,0.3597350825087749,-1.3091920935371464e-05,0.3597350825087749,-1.2924469768755016e-05
0.360529199688706,-2.7022688143416937e-05,0.360529199688706,-1.2420757851868076e-05,0.360529199688706,-1.0406067579588355e-05,0.360529199688706,-1.35958e-05
0.3613233168686371,-2.299876154261908e-05,0.3613233168686371,-1.2253144187978224e-05,0.3613233168686371,-7.891073498508316e-06,0.3613233168686371,-1.35958e-05
0.3621174340485681,-1.5279803414364185e-05,0.3621174340485681,-1.359484287206214e-05,0.3621174340485681,-1.1578967905298734e-05,0.3621174340485681,-1.3763480394647026e-05
0.3629115512284993,-9.570635553639608e-06,0.3629115512284993,-1.4937841044872556e-05,0.3629115512284993,-1.4265682089745108e-05,0.3629115512284993,-1.2253853796258206e-05
0.3637056684084303,-1.5140046813735286e-06,0.3637056684084303,-1.762307843536594e-05,0.3637056684084303,-1.2253841173475544e-05,0.3637056684084303,-1.1917440195579255e-05
0.3644997855883614,1.5098241340107042e-06,0.3644997855883614,-2.316170424928682e-05,0.3644997855883614,-1.2588609347623322e-05,0.3644997855883614,-1.292412804286997e-05
0.3652939027682925,-3.8598722568885725e-06,0.3652939027682925,-2.1988443875986355e-05,0.3652939027682925,-1.4938312235781487e-05,0.3652939027682925,-1.191742332752222e-05
0.3660880199482235,-9.567561812261895e-06,0.3660880199482235,-1.930260722568642e-05,0.3660880199482235,-1.4938642170142535e-05,0.3660880199482235,-1.25887e-05
0.3668821371281546,-1.5610173931693336e-05,0.3668821371281546,-1.5609420227688888e-05,0.3668821371281546,-1.6616752136613335e-05,0.3668821371281546,-1.2588757977231111e-05
0.3676762543080857,-1.6615972439532974e-05,0.3676762543080857,-1.2252463074060568e-05,0.3676762543080857,-1.4603007385187889e-05,0.3676762543080857,-1.2924829540751546e-05
0.3684703714880167,-1.3094986719358124e-05,0.3684703714880167,-1.0575826990394796e-05,0.3684703714880167,-1.493833460192104e-05,0.3684703714880167,-1.4266138407684164e-05
0.3692644886679478,-8.227744703758145e-06,0.3692644886679478,-6.884198067559845e-06,0.3692644886679478,-1.661601905434557e-05,0.3692644886679478,-1.3260748567392658e-05
0.3700586058478789,-1.493526708639849e-05,0.3700586058478789,-4.1975631624621245e-06,0.3700586058478789,-1.5946033291856562e-05,0.3700586058478789,-1.2589033291856564e-05
0.3708527230278099,-1.7958846075468895e-05,0.3708527230278099,-4.19623e-06,0.3708527230278099,-1.1247539438159497e-05,0.3708527230278099,-1.3595448691822964e-05
0.371646840207741,-1.0911618749985054e-05,0.371646840207741,-3.524965119046196e-06,0.371646840207741,-1.2252797321430708e-05,0.371646840207741,-1.6280859523815217e-05
0.3724409573876721,-1.6842551962682884e-07,0.3724409573876721,-2.8534760321043555e-06,0.3724409573876721,-1.4602773885756378e-05,0.3724409573876721,-1.5610036032641034e-05
0.3732350745676032,5.03768687423459e-07,0.3732350745676032,-2.8535976334714114e-06,0.3732350745676032,-1.5106352714372528e-05,0.3732350745676032,-1.426726305376422e-05
0.3740291917475342,2.852023062903368e-06,0.3740291917475342,-4.531687095670777e-06,0.3740291917475342,-1.4603466776768188e-05,0.3740291917475342,-1.4938923872438963e-05
0.3748233089274653,-3.016183252136146e-06,0.3748233089274653,-3.525705445471313e-06,0.3748233089274653,-1.695075729390027e-05,0.3748233089274653,-1.628023273937158e-05
0.3756174261073964,-9.562678551825798e-06,0.3756174261073964,-5.034388122340507e-06,0.3756174261073964,-1.6281885278959774e-05,0.3756174261073964,-1.3597741115839097e-05
0.3764115432873274,-6.883364764466406e-06,0.3764115432873274,-8.558282500592377e-06,0.3764115432873274,-1.6952413807445388e-05,0.3764115432873274,-1.3260293096277309e-05
0.3772056604672585,-2.184049734493379e-06,0.3772056604672585,-1.0909195132753307e-05,0.3772056604672585,-1.4939461318448218e-05,0.3772056604672585,-1.426676934077589e-05
0.3779997776471896,5.027959243837035e-07,0.3779997776471896,-1.9635955743325428e-05,0.3779997776471896,-1.4267388019744198e-05,0.3779997776471896,-1.1078993079782876e-05
0.3787938948271206,7.552286203648976e-06,0.3787938948271206,-3.239321027980424e-05,0.3787938948271206,-1.4938511066660962e-05,0.3787938948271206,-1.2252844373279662e-05
0.3795880120070517,7.217428622706909e-06,0.3795880120070517,-3.3905408623916694e-05,0.3795880120070517,-1.6617094923466914e-05,0.3795880120070517,-1.4099272079824143e-05
0.3803821291869828,1.1744757355007222e-06,0.3803821291869828,-2.7861661824610817e-05,0.3803821291869828,-1.6281318062261264e-05,0.3803821291869828,-1.2253e-05
0.3811762463669139,-1.6803105523269407e-06,0.3811762463669139,-1.9635070981796373e-05,0.3811762463669139,-1.5777123808042687e-05,0.3811762463669139,-1.2253520159578527e-05
0.3819703635468449,-7.5485168673664545e-06,0.3819703635468449,-8.904610035230772e-06,0.3819703635468449,-1.3597546843753907e-05,0.3819703635468449,-1.3930156243244302e-05
0.382764480726776,-1.895953542778545e-05,0.382764480726776,2.174794994031658e-06,0.382764480726776,-1.2253878186505231e-05,0.382764480726776,-1.6615343626989537e-05
0.3835585979067071,-2.1986769969186665e-05,0.3835585979067071,4.5307399810982175e-06,0.3835585979067071,-1.1581940006847409e-05,0.3835585979067071,-1.7623689989728887e-05
0.3843527150866381,-1.4605550124864724e-05,0.3843527150866381,3.1896218372961653e-06,0.3843527150866381,-1.3595077238673258e-05,0.3843527150866381,-1.4268404602211236e-05
0.3851468322665692,-6.212192921237973e-06,0.3851468322665692,2.182252751055559e-06,0.3851468322665692,-1.0239509170185198e-05,0.3851468322665692,-1.359594183403704e-05
0.3859409494465003,9.902074061929586e-06,0.3859409494465003,1.175004121447748e-06,0.3859409494465003,-7.889059616074718e-06,0.3859409494465003,-1.443494656864368e-05
0.3867350666264313,1.9805805628586697e-05,0.3867350666264313,1.510470984686962e-06,0.3867350666264313,-8.224750846094199e-06,0.3867350666264313,-1.4938557741724384e-05
0.3875291838063624,1.5102868548242509e-05,0.3875291838063624,-5.049450606024022e-07,0.3875291838063624,-9.903643303862925e-06,0.3875291838063624,-1.443542689316673e-05
0.3883233009862935,-1.5441892527410634e-07,0.3883233009862935,-6.540806992892639e-06,0.3883233009862935,-1.2250933820995166e-05,0.3883233009862935,-1.6279776529675933e-05
0.3891174181662246,-1.0566874129671302e-05,0.3891174181662246,-7.88792601942655e-06,0.3891174181662246,-1.5104309062349075e-05,0.3891174181662246,-1.4604129984876664e-05
0.3899115353461556,-1.091000354622727e-05,0.3899115353461556,-5.540405164704975e-06,0.3899115353461556,-1.3932187558944234e-05,0.3899115353461556,-1.4267396453772728e-05
0.3907056525260867,-1.1078026522833708e-05,0.3907056525260867,-2.854615280184754e-06,0.3907056525260867,-1.5105885834885791e-05,0.3907056525260867,-1.3931646910570123e-05
0.3914997697060178,-1.0239043432921e-05,0.3914997697060178,-5.538251063960071e-06,0.3914997697060178,-1.4938648669181632e-05,0.3914997697060178,-9.904268408410534e-06
0.3922938868859488,-7.553602590470305e-06,0.3922938868859488,-7.888575233694636e-06,0.3922938868859488,-1.2589034769154586e-05,0.3922938868859488,-7.889196943565035e-06
0.3930880040658799,-4.196236876150653e-06,0.3930880040658799,-1.1917324066527283e-05,0.3930880040658799,-1.3595796561924671e-05,0.3930880040658799,-8.224616876150653e-06
0.393882121245811,-5.53903e-06,0.393882121245811,-1.661725378672073e-05,0.393882121245811,-1.2924707573441462e-05,0.393882121245811,-9.567358737759755e-06
0.394676238425742,-5.539432711575034e-06,0.394676238425742,-1.76237972854259e-05,0.394676238425742,-1.49377945708518e-05,0.394676238425742,-9.232314068862084e-06
0.3954703556056732,-6.8807315896124e-06,0.3954703556056732,-1.6282488418493188e-05,0.3954703556056732,-1.2255176836986376e-05,0.3954703556056732,-1.1244267380365806e-05
0.3962644727856042,-6.88182e-06,0.3962644727856042,-1.896521676702616e-05,0.3962644727856042,-1.325943128763481e-05,0.3962644727856042,-1.2252331287634807e-05
0.3970585899655353,-1.0908119679298526e-05,0.3970585899655353,-1.7289366804595747e-05,0.3970585899655353,-1.359562663908085e-05,0.3970585899655353,-1.0910893443676598e-05
0.3978527071454664,-1.493711418740145e-05,0.3978527071454664,-1.5275042906299274e-05,0.3978527071454664,-1.4266952364566909e-05,0.3978527071454664,-1.1245776182283456e-05
0.3986468243253974,-1.1917968470625476e-05,0.3986468243253974,-1.6616802901944232e-05,0.3986468243253974,-1.5609702901944233e-05,0.3986468243253974,-1.4266531529374522e-05
0.3994409415053285,-7.5535415055742814e-06,0.3994409415053285,-1.963817741819775e-05,0.3994409415053285,-1.4267298925245445e-05,0.3994409415053285,-1.5609901074754554e-05
0.4002350586852595,-4.867233011366537e-06,0.4002350586852595,-2.198818834279397e-05,0.4002350586852595,-1.52744860854886e-05,0.4002350586852595,-1.4938699247564876e-05
0.4010291758651906,5.038450444918991e-07,0.4010291758651906,-2.0476968787754776e-05,0.4010291758651906,-1.7791740095581794e-05,0.4010291758651906,-1.6281102953738388e-05
0.4018232930451217,1.8451459203082413e-06,0.4018232930451217,-1.762673738999969e-05,0.4018232930451217,-1.661814478149248e-05,0.4018232930451217,-1.493979408680577e-05
0.4026174102250527,-2.514498406735979e-06,0.4026174102250527,-2.164960774635094e-05,0.4026174102250527,-1.4939846772353774e-05,0.4026174102250527,-1.426769870894151e-05
0.4034115274049838,-1.1757392450726038e-06,0.4034115274049838,-2.5678502324302973e-05,0.4034115274049838,-1.49386e-05,0.4034115274049838,-1.5609200754927397e-05
0.4042056445849149,-1.0071751295565247e-06,0.4042056445849149,-2.2325402680655707e-05,0.4042056445849149,-1.49386e-05,0.4042056445849149,-1.661664919580329e-05
0.404999761764846,-3.52407456952846e-06,0.404999761764846,-1.5612014467255375e-05,0.404999761764846,-1.426740144972598e-05,0.404999761764846,-1.762389782541103e-05
0.4057938789447771,-1.683608137068397e-07,0.4057938789447771,-1.0239618906565804e-05,0.4057938789447771,-1.1246360634943263e-05,0.4057938789447771,-1.8966795273358548e-05
0.4065879961247081,-2.1820301692972324e-06,0.4065879961247081,-1.0910196723084434e-05,0.4065879961247081,-1.426718525387996e-05,0.4065879961247081,-2.030979344616887e-05
0.4073821133046392,-3.524782096682213e-06,0.4073821133046392,-1.4938791618979191e-05,0.4073821133046392,-1.4603091618979194e-05,0.4073821133046392,-2.047738443578346e-05
0.4081762304845703,-3.189431973214996e-06,0.4081762304845703,-1.6281594650742783e-05,0.4081762304845703,-1.594672190190372e-05,0.4081762304845703,-1.8966659346704247e-05
0.4089703476645013,-4.195403634519115e-06,0.4089703476645013,-1.6952249084209092e-05,0.4089703476645013,-1.946760773312512e-05,0.4089703476645013,-1.779296414366148e-05
0.4097644648444324,-5.538124953531298e-06,0.4097644648444324,-1.6617326261617177e-05,0.4097644648444324,-1.7625444405194493e-05,0.4097644648444324,-1.795978683549144e-05
0.4105585820243635,-9.900802676403095e-06,0.4105585820243635,-1.695262328158543e-05,0.4105585820243635,-1.5275537028902002e-05,0.4105585820243635,-1.6282283592072857e-05
0.4113526992042945,-9.567537171423631e-06,0.4113526992042945,-1.5107099482607747e-05,0.4113526992042945,-1.762330977351606e-05,0.4113526992042945,-1.62814e-05
0.4121468163842256,-9.56741e-06,0.4121468163842256,-1.5609883540423213e-05,0.4121468163842256,-1.8295444735981227e-05,0.4121468163842256,-1.5945777632009388e-05
0.4129409335641567,-1.1245759556802806e-05,0.4129409335641567,-2.6687073077743378e-05,0.4129409335641567,-1.5778010670234495e-05,0.4129409335641567,-1.6617043822386434e-05
0.4137350507440878,-1.0238842908791592e-05,0.4137350507440878,-4.6830886902206655e-05,0.4137350507440878,-1.460288926960663e-05,0.4137350507440878,-1.7960071635166377e-05
0.4145291679240188,-1.0910767266345963e-05,0.4145291679240188,-6.226954730144316e-05,0.4145291679240188,-1.4434680923241656e-05,0.4145291679240188,-2.064514545853377e-05
0.4153232851039499,-1.3593385000211013e-05,0.4153232851039499,-5.019776749905044e-05,0.4153232851039499,-1.2925758392419288e-05,0.4153232851039499,-1.896850937486812e-05
0.416117402283881,-1.4266694576067648e-05,0.416117402283881,-3.173739908286063e-05,0.416117402283881,-1.1247163559830884e-05,0.416117402283881,-1.5780200801318235e-05
0.416911519463812,-7.5572833631677425e-06,0.416911519463812,-2.2329588725380704e-05,0.416911519463812,-1.1916893662472808e-05,0.416911519463812,-1.5945598385357734e-05
0.4177056366437431,-5.204405374350837e-06,0.4177056366437431,-3.138365210985257e-05,0.4177056366437431,-8.2262998765949e-06,0.4177056366437431,-1.2925782630049144e-05
0.4184997538236742,-3.693148370612749e-06,0.4184997538236742,-3.642173876462417e-05,0.4184997538236742,-9.063599794104028e-06,0.4184997538236742,-8.897258985200207e-06
0.4192938710036052,-3.1892218071090723e-06,0.4192938710036052,-1.6284672333102097e-05,0.4192938710036052,-1.191683641880027e-05,0.4192938710036052,-1.292374553175494e-05
0.4200879881835363,-3.5248250041955945e-06,0.4200879881835363,1.2252575345463856e-05,0.4200879881835363,-1.1581604995953229e-05,0.4200879881835363,-1.628135004046772e-05
0.4208821053634674,-4.5315290760824e-06,0.4208821053634674,3.139029463269642e-05,0.4208821053634674,-8.895920905501201e-06,0.4208821053634674,-1.49385109055012e-05
0.4216762225433985,-1.51064e-06,0.4216762225433985,5.019065888396841e-05,0.4216762225433985,-8.22479794419842e-06,0.4216762225433985,-1.4267059027854743e-05
0.4224703397233295,-1.51064e-06,0.4224703397233295,6.360374755329458e-05,0.4224703397233295,-8.895452377664729e-06,0.4224703397233295,-1.3764018258278287e-05
0.4232644569032606,-1.51064e-06,0.4232644569032606,7.1498403985054e-05,0.4232644569032606,-1.0405666686633274e-05,0.4232644569032606,-1.493779629890586e-05
0.4240585740831917,-3.523749549904088e-06,0.4240585740831917,7.83819084706656e-05,0.4240585740831917,-1.4936169002035725e-05,0.4240585740831917,-1.3764230292506018e-05
0.4248526912631227,-8.22278254987296e-06,0.4248526912631227,7.301648852331862e-05,0.4248526912631227,-1.6280877869170345e-05,0.4248526912631227,-1.37636e-05
0.4256468084430538,-1.1748549624674835e-05,0.4256468084430538,5.757602549309568e-05,0.4256468084430538,-1.62814e-05,0.4256468084430538,-1.1246507409223291e-05
0.4264409256229849,-1.1581615718467422e-05,0.4264409256229849,4.48168949594847e-05,0.4264409256229849,-1.62814e-05,0.4264409256229849,-9.903225785208916e-06
0.4272350428029159,-9.231510935174036e-06,0.4272350428029159,3.071555849682797e-05,0.4272350428029159,-1.4267091418597751e-05,0.4272350428029159,-7.720699014943922e-06
0.428029159982847,-5.538928667468403e-06,0.428029159982847,1.5103799149800272e-05,0.428029159982847,-1.2252594669873611e-05,0.428029159982847,-8.381651244926348e-07
0.4288232771627781,-5.035937842368636e-06,0.4288232771627781,2.1937912056310254e-06,0.4288232771627781,-1.0240631369474545e-05,0.4288232771627781,4.527046369889385e-06
0.4296173943427092,-8.222177355370438e-06,0.4296173943427092,-6.874906155047898e-06,0.4296173943427092,-1.158057572215351e-05,0.4296173943427092,2.5192764091418086e-06
0.4304115115226402,-1.682517243594996e-06,0.4304115115226402,-1.5604630329569124e-05,0.4304115115226402,-1.15816e-05,0.4304115115226402,1.175766105036168e-06
0.4312056287025713,1.8446916872602264e-06,0.4312056287025713,-1.8294344135548683e-05,0.4312056287025713,-9.568351893662198e-06,0.4312056287025713,-8.383041082083184e-07
0.4319997458825024,5.039777568549588e-07,0.4319997458825024,-2.0980340481169326e-05,0.4319997458825024,-9.064021159780752e-06,0.4319997458825024,-5.7053121304406325e-06
0.4327938630624334,-8.390144144297777e-07,0.4327938630624334,-2.7022657877523972e-05,0.4327938630624334,-1.1581165776840251e-05,0.4327938630624334,-6.21033315502312e-06
0.4335879802423645,-3.189081526008917e-06,0.4335879802423645,-3.1387691405167856e-05,0.4335879802423645,-1.0238833413794503e-05,0.4335879802423645,-2.853523533988591e-06
0.4343820974222956,-4.867877137296744e-06,0.4343820974222956,-3.944439405123023e-05,0.4343820974222956,-1.023921189753954e-05,0.4343820974222956,-4.8684537913981375e-06
0.4351762146022266,-6.882182472608718e-06,0.4351762146022266,-3.776555628703782e-05,0.4351762146022266,-1.35958e-05,0.4351762146022266,-1.1581962475308116e-05
0.4359703317821577,-8.223481350646085e-06,0.4359703317821577,-3.575359298663876e-05,0.4359703317821577,-1.35958e-05,0.4359703317821577,-1.292327134224083e-05
0.4367644489620888,-1.1579270240859593e-05,0.4367644489620888,-3.709376809356783e-05,0.4367644489620888,-1.4602201070175872e-05,0.4367644489620888,-1.3930801070175872e-05
0.4375585661420199,-1.3930215966161924e-05,0.4375585661420199,-3.994654084337479e-05,0.4375585661420199,-1.795806566594561e-05,0.4375585661420199,-1.6280115966161925e-05
0.438352683321951,-9.56915056864847e-06,0.438352683321951,-4.212932969373962e-05,0.438352683321951,-1.5107538086666044e-05,0.438352683321951,-2.030819331756597e-05
0.439146800501882,-5.540042158977918e-06,0.439146800501882,-4.21302e-05,0.439146800501882,-1.4938642160937272e-05,0.439146800501882,-2.098103130599949e-05
0.4399409176818131,-4.867699607595349e-06,0.4399409176818131,-3.9109213234179074e-05,0.4399409176818131,-1.5274265196202326e-05,0.4399409176818131,-2.2323760795176837e-05
0.4407350348617442,-1.8465610901961624e-06,0.4407350348617442,-3.541624421821486e-05,0.4407350348617442,-1.35958e-05,0.4407350348617442,-2.232381156796093e-05
0.4415291520416752,-6.8813705896701215e-06,0.4415291520416752,-3.642355680699563e-05,0.4415291520416752,-1.3595864201748907e-05,0.4415291520416752,-2.0309928403497816e-05
0.4423232692216063,-4.534090061433386e-06,0.4423232692216063,-3.7764865673928245e-05,0.4423232692216063,-1.3931191418482062e-05,0.4423232692216063,-2.0980582836964125e-05
0.4431173864015373,-3.1901777001003314e-06,0.4431173864015373,-3.843698114608586e-05,0.4431173864015373,-1.6279584011300526e-05,0.4431173864015373,-2.433550580770872e-05
0.4439115035814684,2.5141719886787555e-06,0.4439115035814684,-4.045044069747336e-05,0.4439115035814684,-1.695238023249112e-05,0.4439115035814684,-2.43381e-05
0.4447056207613995,1.3926048440341971e-05,0.4447056207613995,-4.38070965944814e-05,0.4447056207613995,-1.3932943064966742e-05,0.4447056207613995,-2.6686877616136977e-05
0.4454997379413306,1.8629748837110085e-05,0.4454997379413306,-4.179516478409568e-05,0.4454997379413306,-1.493826760795216e-05,0.4454997379413306,-2.568123239204784e-05
0.4462938551212617,8.394328249648943e-06,0.4462938551212617,-3.608864132049349e-05,0.4462938551212617,-1.8294987458533244e-05,0.4462938551212617,-2.1821104413563424e-05
0.4470879723011927,-2.853047685117849e-06,0.4470879723011927,-2.9709522507937365e-05,0.4470879723011927,-1.695284684377629e-05,0.4470879723011927,-2.064554098656e-05
0.4478820894811238,2.517966992424085e-06,0.4478820894811238,-2.333035686287502e-05,0.4478820894811238,-1.6617213496775526e-05,0.4478820894811238,-2.0645386503224475e-05
0.4486762066610549,4.5302719622559626e-06,0.4486762066610549,-1.7623501875561025e-05,0.4486762066610549,-1.7624549062219487e-05,0.4486762066610549,-1.963927262955362e-05
0.4494703238409859,-1.8409151889879384e-06,0.4494703238409859,-1.4940884141695789e-05,0.4494703238409859,-1.8965857929152107e-05,0.4494703238409859,-2.2992444907931717e-05
0.450264441020917,-8.22011967315383e-06,0.450264441020917,-8.229336675029735e-06,0.450264441020917,-1.9302463665896512e-05,0.450264441020917,-2.249215446595504e-05
0.4510585582008481,-1.728345665124096e-05,0.4510585582008481,-7.553593576237502e-06,0.4510585582008481,-1.7960647163603445e-05,0.4510585582008481,-1.7626908440241384e-05
0.4518526753807791,-2.198637853222407e-05,0.4518526753807791,-7.21765724769828e-06,0.4518526753807791,-1.7288774495396562e-05,0.4518526753807791,-1.4939697981586247e-05
0.4526467925607102,-1.628289097642691e-05,0.4526467925607102,-5.875070817982802e-06,0.4526467925607102,-1.6952887704495703e-05,0.4526467925607102,-1.6616661477521498e-05
0.4534409097406413,-9.90382506456839e-06,0.4534409097406413,-1.5111360945364157e-06,0.4534409097406413,-1.6617138161293072e-05,0.4534409097406413,-1.561011448387922e-05
0.4542350269205724,-8.89601e-06,0.4542350269205724,8.393029093441064e-07,0.4542350269205724,-1.3931454472361971e-05,0.4542350269205724,-1.7288522763819013e-05
0.4550291441005034,-8.896375089047774e-06,0.4550291441005034,2.5181050890477746e-06,0.4550291441005034,-1.2588760848476726e-05,0.4550291441005034,-1.7959595757616368e-05
0.4558232612804345,-1.0908328400551356e-05,0.4558232612804345,4.5300584005513565e-06,0.4558232612804345,-1.292408806520988e-05,0.4558232612804345,-1.6282959673950595e-05
0.4566173784603656,-1.107796856863398e-05,0.4566173784603656,3.190191129982005e-06,0.4566173784603656,-1.493702329328506e-05,0.4566173784603656,-1.493965113780996e-05
0.4574114956402966,-1.6613581551137567e-05,0.4574114956402966,-1.5076546352058695e-06,0.4574114956402966,-1.4267626482499772e-05,0.4574114956402966,-1.1751425823634605e-05
0.4582056128202277,-2.198568083124311e-05,0.4582056128202277,-8.221336053682846e-06,0.4582056128202277,-1.2925054792189224e-05,0.4582056128202277,-9.56847400804957e-06
0.4589997300001588,-1.9639199083912915e-05,0.4589997300001588,-1.2922801835574676e-05,0.4589997300001588,-1.2253228309689404e-05,0.4589997300001588,-9.064031232267052e-06
0.4597938471800898,-1.796022305821049e-05,0.4597938471800898,-1.25887646116421e-05,0.4597938471800898,-1.4266812330147412e-05,0.4597938471800898,-9.567313082536852e-06
0.4605879643600209,-1.6617160273758072e-05,0.4605879643600209,-1.3931439726241933e-05,0.4605879643600209,-1.3595830136879037e-05,0.4605879643600209,-9.903084932009349e-06
0.461382081539952,-9.734622218936804e-06,0.461382081539952,-1.6281848171920124e-05,0.461382081539952,-1.3931327626184568e-05,0.461382081539952,-1.15816e-05
0.4621761987198831,-3.5225224247234536e-06,0.4621761987198831,-2.06455e-05,0.4621761987198831,-1.2253e-05,0.4621761987198831,-1.15816e-05
0.4629703158998141,5.698926090960926e-06,0.4629703158998141,-2.06455e-05,0.4629703158998141,-1.2253e-05,0.4629703158998141,-1.15816e-05
0.4637644330797452,1.2583786336502918e-05,0.4637644330797452,-1.7290896915988873e-05,0.4637644330797452,-1.3930301542005563e-05,0.4637644330797452,-1.42652824672089e-05
0.4645585502596763,1.3930739406414772e-05,0.4645585502596763,-1.37655965864824e-05,0.4645585502596763,-1.0240891632359376e-05,0.4645585502596763,-1.3931690148396308e-05
0.4653526674396073,1.3260381210387454e-05,0.4653526674396073,-9.569167539791073e-06,0.4653526674396073,-1.0909918789612546e-05,0.4653526674396073,-1.3595940605193724e-05
0.4661467846195384,6.21233229638788e-06,0.4661467846195384,-9.903008940721502e-06,0.4661467846195384,-1.5608725132124614e-05,0.4661467846195384,-1.2588973185973296e-05
0.4669409017994695,-5.537576848585759e-06,0.4669409017994695,-9.063963795734516e-06,0.4669409017994695,-1.4603024556365556e-05,0.4669409017994695,-1.3595675443634444e-05
0.4677350189794005,-1.0910143829340604e-05,0.4677350189794005,-1.057447592699685e-05,0.4677350189794005,-1.2253072219726557e-05,0.4677350189794005,-1.493855185351563e-05
0.4685291361593316,-8.560137516098919e-06,0.4685291361593316,-9.56741e-06,0.4685291361593316,-1.5274817456841333e-05,0.4685291361593316,-1.29244e-05
0.4693232533392627,-7.55416585479487e-06,0.4693232533392627,-9.56741e-06,0.4693232533392627,-1.8292762407439515e-05,0.4693232533392627,-1.29244e-05
0.4701173705191938,-7.888643865980058e-06,0.4701173705191938,-7.890240709739561e-06,0.4701173705191938,-2.164993858052088e-05,0.4701173705191938,-1.29244e-05
0.4709114876991248,-9.230843605018674e-06,0.4709114876991248,-5.205062777058349e-06,0.4709114876991248,-2.0310666394981325e-05,0.4709114876991248,-1.2253433197490662e-05
0.4717056048790559,-7.050755856051396e-06,0.4717056048790559,-4.196731166628183e-06,0.4717056048790559,-1.7961069388799095e-05,0.4717056048790559,-9.568746439365488e-06
0.472499722058987,-7.720834975319752e-06,0.472499722058987,-6.209714929459774e-06,0.472499722058987,-1.5778563847713386e-05,0.472499722058987,-1.2252059904779524e-05
0.473293839238918,-8.895772110043297e-06,0.473293839238918,-5.539165936250388e-06,0.473293839238918,-1.5610033974445278e-05,0.473293839238918,-1.0910471876550172e-05
0.4740879564188491,-8.89601e-06,0.4740879564188491,-5.53903e-06,0.4740879564188491,-1.2253184259349394e-05,0.4740879564188491,-1.09102e-05
0.4748820735987802,-1.1245588828250529e-05,0.4748820735987802,-5.035651144045088e-06,0.4748820735987802,-8.895947765464717e-06,0.4748820735987802,-1.15816e-05
0.4756761907787112,-7.888386368831263e-06,0.4756761907787112,-6.881900559010534e-06,0.4756761907787112,-8.223361342535922e-06,0.4756761907787112,-1.15818416770316e-05
0.4764703079586423,-5.708769448960951e-06,0.4764703079586423,-7.217227775743712e-06,0.4764703079586423,-3.0258194498576992e-06,0.4764703079586423,-1.2587823327231136e-05
0.4772644251385734,-6.880969328169835e-06,0.4772644251385734,-4.869331336420262e-06,0.4772644251385734,-5.537207139032572e-06,0.4772644251385734,-1.2253243049094332e-05
0.4780585423185045,-8.22383598219724e-06,0.4780585423185045,-2.519094535478016e-06,0.4780585423185045,-9.061828199665102e-06,0.4780585423185045,-1.1246480517675258e-05
0.4788526594984356,-1.1580160377397182e-05,0.4788526594984356,-3.524398116221058e-06,0.4788526594984356,-1.0406124132089768e-05,0.4788526594984356,-1.2923680186554372e-05
0.4796467766783666,-1.3595233483080732e-05,0.4796467766783666,-8.223288132813604e-06,0.4796467766783666,-1.0238847223806348e-05,0.4796467766783666,-1.359561116102691e-05
0.4804408938582977,-1.4267110247432071e-05,0.4804408938582977,-1.29237717333613e-05,0.4804408938582977,-1.1581420494864144e-05,0.4804408938582977,-1.35958e-05
0.4812350110382288,-1.4267134663278064e-05,0.4812350110382288,-1.728846733156952e-05,0.4812350110382288,-1.1245932668430478e-05,0.4812350110382288,-1.2253011666601497e-05
0.4820291282181598,-9.566056456528124e-06,0.4820291282181598,-1.4938166864540706e-05,0.4820291282181598,-1.3596016567729647e-05,0.4820291282181598,-1.3092822640286772e-05
0.4828232453980909,-1.182906004885298e-06,0.4828232453980909,-1.2255549130675468e-05,0.4828232453980909,-1.4937325434662264e-05,0.4828232453980909,-1.6949135577194775e-05
0.483617362578022,8.8879250568399e-06,0.483617362578022,-9.569565987518688e-06,0.483617362578022,-1.5274030500556667e-05,0.483617362578022,-1.5611077997773337e-05
0.484411479757953,2.0470011549007e-05,0.484411479757953,-9.56741e-06,0.484411479757953,-1.3596899781203768e-05,0.484411479757953,-1.2926159649926029e-05
0.4852055969378841,2.064541476809917e-05,0.4852055969378841,-6.883183299229036e-06,0.4852055969378841,-1.0911563304305385e-05,0.4852055969378841,-1.594416628265644e-05
0.4859997141178152,7.893503050151103e-06,0.4859997141178152,-1.3928961740654106e-05,0.4859997141178152,-1.3594833041315444e-05,0.4859997141178152,-1.59457e-05
0.4867938312977463,-1.5086428649005357e-06,0.4867938312977463,-1.6448665060876327e-05,0.4867938312977463,-1.560957204020221e-05,0.4867938312977463,-1.5610071326632966e-05
0.4875879484776773,-1.51064e-06,0.4875879484776773,-1.443513070058231e-05,0.4875879484776773,-1.5274321783430386e-05,0.4875879484776773,-1.6617034649708846e-05
0.4883820656576084,-2.182262077350829e-06,0.4883820656576084,-1.1581516720683344e-05,0.4883820656576084,-1.3931416720683344e-05,0.4883820656576084,-1.5609944480455565e-05
0.4891761828375395,-4.867938820653663e-06,0.4891761828375395,-1.0573727947215922e-05,0.4891761828375395,-1.2924631617215127e-05,0.4891761828375395,-1.4938445588523246e-05
0.4899703000174705,-6.209237698690936e-06,0.4899703000174705,-7.220475757675066e-06,0.4899703000174705,-1.3930613267414594e-05,0.4899703000174705,-1.4267791155056938e-05
0.4907644171974016,-8.223131567801413e-06,0.4907644171974016,-2.856643270986953e-06,0.4907644171974016,-1.6279675153871552e-05,0.4907644171974016,-1.6950828747281774e-05
0.4915585343773327,-6.547104311071606e-06,0.4915585343773327,-3.5244362790899164e-06,0.4915585343773327,-1.5107089051176438e-05,0.4915585343773327,-1.56107874535487e-05
0.4923526515572637,-5.875014640369141e-06,0.4923526515572637,-9.9003009296585e-06,0.4923526515572637,-1.5274226317965477e-05,0.4923526515572637,-1.2590025881661136e-05
0.4931467687371948,-6.54592444603602e-06,0.4931467687371948,-1.963556446752229e-05,0.4931467687371948,-1.560990222301801e-05,0.4931467687371948,-1.25887e-05
0.4939408859171259,-9.566975897422336e-06,0.4939408859171259,-2.500872827389794e-05,0.4939408859171259,-1.6616955298661842e-05,0.4939408859171259,-1.4602610597323684e-05
0.494735003097057,-1.69528e-05,0.494735003097057,-2.2995263336539965e-05,0.494735003097057,-1.7624194762307128e-05,0.494735003097057,-1.0910205237692867e-05
0.495529120276988,-1.695229211339769e-05,0.495529120276988,-1.3594784229821216e-05,0.495529120276988,-1.6281196845359076e-05,0.495529120276988,-1.2253126964085986e-05
0.4963232374569191,-1.359901994606591e-05,0.4963232374569191,-6.888259872948346e-06,0.4963232374569191,-1.4939887978426363e-05,0.4963232374569191,-1.3091395061442207e-05
0.4971173546368502,-1.5608362858367323e-05,0.4971173546368502,-2.8567142670093566e-06,0.4971173546368502,-1.460317285693878e-05,0.4971173546368502,-1.4937099246196716e-05
0.4979114718167812,-1.6616430058791403e-05,0.4979114718167812,-9.898410438148543e-06,0.4979114718167812,-1.3596469941208596e-05,0.4979114718167812,-1.5609553372527603e-05
0.4987055889967123,-5.0414750678799455e-06,0.4987055889967123,-1.4935993441996073e-05,0.4987055889967123,-1.426685245893281e-05,0.4987055889967123,-1.577771314061502e-05
0.4994997061766434,2.514944896154332e-06,0.4994997061766434,-1.3931872681992977e-05,0.4994997061766434,-1.628065463601405e-05,0.4994997061766434,-1.6616789413169793e-05
0.5002938233565745,5.202732529197441e-06,0.5002938233565745,-1.4267125315871587e-05,0.5002938233565745,-1.1582645577797751e-05,0.5002938233565745,-1.4938973420642054e-05
0.5010879405365055,9.56708316946233e-06,0.5010879405365055,-1.3595850281851614e-05,0.5010879405365055,-1.3595649154445158e-05,0.5010879405365055,-1.560994971814839e-05
0.5018820577164366,8.895058315568197e-06,0.5018820577164366,-1.023876339731178e-05,0.5018820577164366,-1.6281595218214e-05,0.5018820577164366,-1.76242488045535e-05
0.5026761748963677,-4.199774911778654e-06,0.5026761748963677,-9.735075368834452e-06,0.5026761748963677,-1.8967e-05,0.5026761748963677,-1.8295304590135124e-05
0.5034702920762988,-2.029545134828404e-05,0.5034702920762988,-8.896757327001565e-06,0.5034702920762988,-1.8967e-05,0.5034702920762988,-1.6953995723202507e-05
0.5042644092562298,-2.6347804320867796e-05,0.5042644092562298,-8.89601e-06,0.5042644092562298,-1.6954298584511063e-05,0.5042644092562298,-1.494009858451106e-05
0.5050585264361609,-1.96424043580096e-05,0.5050585264361609,-9.23150977911738e-06,0.5050585264361609,-1.460430154617834e-05,0.5050585264361609,-1.594509933735214e-05
0.505852643616092,-1.041084361375813e-05,0.505852643616092,-1.426493983928822e-05,0.505852643616092,-1.695174525623989e-05,0.505852643616092,-1.5106776716642352e-05
0.506646760796023,-7.050681353812055e-06,0.506646760796023,-2.4670664861326668e-05,0.506646760796023,-1.6617201134477414e-05,0.506646760796023,-1.6616644879788423e-05
0.507440877975954,-7.217494204362572e-06,0.507440877975954,-4.447695613015181e-05,0.507440877975954,-1.510663216842098e-05,0.507440877975954,-1.6281451591274855e-05
0.5082349951558852,-3.860550480661035e-06,0.5082349951558852,-7.771399724146186e-05,0.5082349951558852,-1.3931507167947671e-05,0.5082349951558852,-1.4267212288433224e-05
0.5090291123358163,2.51774e-06,0.5090291123358163,-9.6175987210935e-05,0.5090291123358163,-1.1582121789269067e-05,0.5090291123358163,-1.4938718581405096e-05
0.5098232295157473,2.51774e-06,0.5098232295157473,-8.477496173096277e-05,0.5098232295157473,-1.527072117333325e-05,0.5098232295157473,-1.577698667876114e-05
0.5106173466956784,3.859425150491114e-06,0.5106173466956784,-5.658840193019477e-05,0.5106173466956784,-1.5945147571131548e-05,0.5106173466956784,-1.5274714280511267e-05
0.5114114638756094,7.886189958724938e-06,0.5114114638756094,-3.106932694608125e-05,0.5114114638756094,-1.3597386698621348e-05,0.5114114638756094,-1.4603353342463243e-05
0.5122055810555405,-2.847771929451837e-06,0.5122055810555405,-2.532795808601162e-06,0.5122055810555405,-1.3260277128029063e-05,0.5122055810555405,-9.737828351145054e-06
0.5129996982354716,-2.2316500133275876e-05,0.5129996982354716,2.332117602917514e-05,0.5129996982354716,-1.1917810339305654e-05,0.5129996982354716,-6.882904467223953e-06
0.5137938154154027,-2.23239e-05,0.5137938154154027,4.648881515120457e-05,0.5137938154154027,-1.19173e-05,0.5137938154154027,-7.553063916752381e-06
0.5145879325953338,-1.023982593467584e-05,0.5145879325953338,6.092807456788614e-05,0.5145879325953338,-1.4938343514208728e-05,0.5145879325953338,-8.895896007163915e-06
0.5153820497752648,-2.1817453743148666e-06,0.5153820497752648,6.83147262686881e-05,0.5153820497752648,-1.4434821122492975e-05,0.5153820497752648,-1.124608940303216e-05
0.5161761669551959,2.519431972256657e-06,0.5161761669551959,7.032598005323911e-05,0.5161761669551959,-1.1581881996776153e-05,0.5161761669551959,-1.4267481996776151e-05
0.5169702841351269,1.0567245218270988e-05,0.5169702841351269,5.691299127286639e-05,0.5169702841351269,-1.292319086370877e-05,0.5169702841351269,-1.5608790863708774e-05
0.5177644013150581,1.191628751367751e-05,0.5177644013150581,3.0736143407887425e-05,0.5177644013150581,-1.4601634392096888e-05,0.5177644013150581,-1.6616340635258134e-05
0.5185585184949891,5.542897970989468e-06,0.5185585184949891,2.132260013394157e-05,0.5185585184949891,-1.46029e-05,0.5185585184949891,-1.6952596421621983e-05
0.5193526356749202,5.058585193719615e-07,0.5193526356749202,1.5277072633157463e-05,0.5193526356749202,-1.4938445964824583e-05,0.5193526356749202,-1.628170807035083e-05
0.5201467528548512,-5.032345253264906e-07,0.5201467528548512,1.1247153903674292e-05,0.5201467528548512,-1.359621796789143e-05,0.5201467528548512,-1.6952591016054286e-05
0.5209408700347823,-8.558991235733907e-06,0.5209408700347823,5.03649654733917e-06,0.5209408700347823,-1.35958e-05,0.5209408700347823,-1.443541212396111e-05
0.5217349872147133,-1.8295443238699172e-05,0.5217349872147133,-6.210238914288847e-06,0.5217349872147133,-1.15816324334059e-05,0.5217349872147133,-9.903172974358154e-06
0.5225291043946444,-2.0308455502031685e-05,0.5225291043946444,-2.853834532967321e-05,0.5225291043946444,-8.896274491382077e-06,0.5225291043946444,-5.874146935119979e-06
0.5233232215745756,-1.0081025336145768e-05,0.5233232215745756,-5.854998139386456e-05,0.5233232215745756,-1.090822780288594e-05,0.5233232215745756,-1.51491309537905e-06
0.5241173387545066,-4.871963381565225e-06,0.5241173387545066,-7.26669580622361e-05,0.5241173387545066,-1.0239359143859247e-05,0.5241173387545066,-2.5169012842111285e-06
0.5249114559344377,-2.854820165510189e-06,0.5249114559344377,-7.402057988509173e-05,0.5249114559344377,-1.22516198276376e-05,0.5249114559344377,-7.549769582798421e-06
0.5257055731143687,-9.899309825491852e-06,0.5257055731143687,-6.395601451196995e-05,0.5257055731143687,-1.2924039028951071e-05,0.5257055731143687,-1.292151224236138e-05
0.5264996902942998,-1.0909807173034422e-05,0.5264996902942998,-4.91855614621618e-05,0.5264996902942998,-1.3931107173034423e-05,0.5264996902942998,-1.628009057678141e-05
0.5272938074742308,-5.540332378634559e-06,0.5272938074742308,-2.8539406009465705e-05,0.5272938074742308,-1.5609593004403492e-05,0.5272938074742308,-1.8966348807045585e-05
0.528087924654162,-4.867693711833302e-06,0.528087924654162,-1.1583208719046184e-05,0.528087924654162,-1.7959677008583443e-05,0.528087924654162,-2.0309672576333397e-05
0.528882041834093,-8.896346057906224e-06,0.528882041834093,5.037602464830529e-07,0.528882041834093,-1.762412925085619e-05,0.528882041834093,-1.8463355784419503e-05
0.5296761590140241,-1.5274165708156286e-05,0.5296761590140241,4.531795708156285e-06,0.5296761590140241,-1.628146714592186e-05,0.5296761590140241,-1.762446858368743e-05
0.5304702761939551,-1.4603511274689976e-05,0.5304702761939551,3.861141274689976e-06,0.5304702761939551,-1.6616794362655012e-05,0.5304702761939551,-1.896577745062005e-05
0.5312643933738862,-1.4267456479076068e-05,0.5312643933738862,5.202304083695728e-06,0.5312643933738862,-1.7623430562771797e-05,0.5312643933738862,-1.6618895353532478e-05
0.5320585105538173,-4.873424185964068e-06,0.5320585105538173,3.190381609076475e-06,0.5320585105538173,-1.8630679192379607e-05,0.5320585105538173,-1.4268648551114247e-05
0.5328526277337483,-5.055940962825071e-07,0.5328526277337483,1.8469695706836284e-06,0.5328526277337483,-1.2255990460747234e-05,0.5328526277337483,-1.1582859141367256e-05
0.5336467449136795,2.3489732833750302e-06,0.5336467449136795,3.5242907558713927e-06,0.5336467449136795,-9.903854946277796e-06,0.5336467449136795,-8.896872792533377e-06
0.5344408620936105,9.90178811596919e-06,0.5344408620936105,2.8535566107945423e-06,0.5344408620936105,-1.02387416937343e-05,0.5344408620936105,-1.2252416939079862e-05
0.5352349792735416,7.888962578117535e-06,0.5352349792735416,-5.034603696822914e-07,0.5352349792735416,-1.4267094843242856e-05,0.5352349792735416,-1.5609912369369046e-05
0.5360290964534726,2.517577084625058e-06,0.5360290964534726,-2.8537658295366328e-06,0.5360290964534726,-1.6281114898093852e-05,0.5360290964534726,-1.4267118542312528e-05
0.5368232136334037,1.17626821769244e-06,0.5368232136334037,-5.536373574506524e-06,0.5368232136334037,-1.393382438096177e-05,0.5368232136334037,-1.359646410884622e-05
0.5376173308133347,-2.8500448637546933e-06,0.5376173308133347,-1.1241090225057158e-05,0.5376173308133347,-1.2589831717700465e-05,0.5376173308133347,-1.4937468282299537e-05
0.5384114479932659,-1.0904598758469735e-05,0.5384114479932659,-1.493603275155288e-05,0.5384114479932659,-1.2253233386222464e-05,0.5384114479932659,-1.0913000634669582e-05
0.539205565173197,-1.1581232313960276e-05,0.539205565173197,-1.024137380227806e-05,0.539205565173197,-1.2924032313960276e-05,0.539205565173197,-8.561596895662622e-06
0.539999682353128,-1.15816e-05,0.539999682353128,-5.70868303953243e-06,0.539999682353128,-1.1582137199269215e-05,0.539999682353128,-1.158039130564485e-05
0.5407937995330591,-1.0239139026458802e-05,0.5407937995330591,-6.378100486770599e-06,0.5407937995330591,-9.903523783073504e-06,0.5407937995330591,-1.2924060973541197e-05
0.5415879167129901,-6.882172132023056e-06,0.5415879167129901,-7.217431966469757e-06,0.5415879167129901,-1.3259747865879034e-05,0.5415879167129901,-1.560971829270323e-05
0.5423820338929212,-6.378119538053893e-06,0.5423820338929212,-7.217677626841337e-06,0.5423820338929212,-1.258851371315088e-05,0.5423820338929212,-1.527428567020954e-05
0.5431761510728523,-2.850920192236207e-06,0.5431761510728523,-1.091058275589834e-05,0.5431761510728523,-8.224897066923756e-06,0.5431761510728523,-1.493898275589834e-05
0.5439702682527834,1.0394494879828053e-05,0.5439702682527834,-1.2922546056297268e-05,0.5439702682527834,-9.733869542222953e-06,0.5439702682527834,-1.695094605629727e-05
0.5447643854327144,2.3991876734955835e-05,0.5447643854327144,-1.0240878692572109e-05,0.5447643854327144,-1.1580170906596817e-05,0.5447643854327144,-1.8294560653713947e-05
0.5455585026126455,1.8634664631259308e-05,0.5455585026126455,-8.225871753949133e-06,0.5455585026126455,-1.4265517653048722e-05,0.5455585026126455,-1.7792315471374984e-05
0.5463526197925765,2.189916738994953e-06,0.5463526197925765,-1.090891400345806e-05,0.5463526197925765,-1.2253964500997831e-05,0.5463526197925765,-1.8630898100641703e-05
0.5471467369725076,-1.2248218120434936e-05,0.5471467369725076,-1.09102e-05,0.5471467369725076,-1.258858879303625e-05,0.5471467369725076,-1.6953356034818745e-05
0.5479408541524387,-1.493810668991084e-05,0.5479408541524387,-1.023892332752229e-05,0.5479408541524387,-1.3595615008716564e-05,0.5479408541524387,-1.762407667247771e-05
0.5487349713323698,-1.49386e-05,0.5487349713323698,-1.258861515609054e-05,0.5487349713323698,-1.35958e-05,0.5487349713323698,-1.5610072723350967e-05
0.5495290885123009,-1.426705049771378e-05,0.5495290885123009,-2.0814290447079383e-05,0.5495290885123009,-1.4266919677646528e-05,0.5495290885123009,-1.46029e-05
0.5503232056922319,-1.2925741630781164e-05,0.5503232056922319,-2.9700411746031256e-05,0.5503232056922319,-1.1751915607671144e-05,0.5503232056922319,-1.46029e-05
0.551117322872163,-1.29244e-05,0.551117322872163,-3.272802341771537e-05,0.551117322872163,-1.258798424005842e-05,0.551117322872163,-1.5273727426158972e-05
0.551911440052094,-9.569777430126868e-06,0.551911440052094,-3.340152651256418e-05,0.551911440052094,-1.292416325628209e-05,0.551911440052094,-1.4267910231153733e-05
0.5527055572320251,-9.56741e-06,0.5527055572320251,-3.3737512799484644e-05,0.5527055572320251,-1.4601963997423233e-05,0.5527055572320251,-1.5441444826078373e-05
0.5534996744119562,-1.225189874559898e-05,0.5534996744119562,-3.273101297193811e-05,0.5534996744119562,-1.560958702806189e-05,0.5534996744119562,-1.6952180521589813e-05
0.5542937915918873,-1.2420755956068886e-05,0.5542937915918873,-3.038131679877069e-05,0.5542937915918873,-1.3931940570550496e-05,0.5542937915918873,-1.7288411885889898e-05
0.5550879087718184,-1.0910373563339092e-05,0.5550879087718184,-2.6352762850890504e-05,0.5550879087718184,-1.527414571636983e-05,0.5550879087718184,-1.594585428363017e-05
0.5558820259517494,-1.1917267083114817e-05,0.5558820259517494,-2.601652319393457e-05,0.5558820259517494,-1.527418478926761e-05,0.5558820259517494,-1.561000548451329e-05
0.5566761431316805,-1.0909716486780055e-05,0.5566761431316805,-2.3666156063606103e-05,0.5566761431316805,-1.1748825836715735e-05,0.5566761431316805,-1.577776978931322e-05
0.5574702603116115,-8.22710874181054e-06,0.5574702603116115,-2.0648311001961583e-05,0.5574702603116115,-8.563277211123283e-06,0.5574702603116115,-1.5610156125423395e-05
0.5582643774915427,-6.211999156561316e-06,0.5582643774915427,-1.930375277626765e-05,0.5582643774915427,-1.2585541679037212e-05,0.5582643774915427,-1.393281597033456e-05
0.5590584946714737,-8.22332810117849e-06,0.5590584946714737,-1.6954295556050158e-05,0.5590584946714737,-1.4937104443949845e-05,0.5590584946714737,-1.4099193206389542e-05
0.5598526118514048,-7.050244371927608e-06,0.5598526118514048,-1.69528e-05,0.5598526118514048,-1.6616279461691244e-05,0.5598526118514048,-1.4267117921726516e-05
0.5606467290313358,-4.1972037944900495e-06,0.5606467290313358,-1.7623970871081704e-05,0.5606467290313358,-1.7959441742163413e-05,0.5606467290313358,-1.3596029128918294e-05
0.5614408462112669,-5.20313493623037e-06,0.5614408462112669,-1.7288565021256543e-05,0.5614408462112669,-1.7624265021256543e-05,0.5614408462112669,-1.5273974893717282e-05
0.5622349633911979,-6.5460580882451215e-06,0.5622349633911979,-1.326028573664784e-05,0.5622349633911979,-1.8295569043892028e-05,0.5622349633911979,-1.3092300609656251e-05
0.563029080571129,-6.88202413278277e-06,0.563029080571129,-1.2253068044598748e-05,0.563029080571129,-2.030993608919749e-05,0.563029080571129,-1.3092268044598749e-05
0.5638231977510602,-8.893977444286633e-06,0.5638231977510602,-1.292372247806515e-05,0.5638231977510602,-2.16512449561303e-05,0.5638231977510602,-1.376292247806515e-05
0.5646173149309912,-8.560599644415913e-06,0.5646173149309912,-1.3259810355584088e-05,0.5646173149309912,-1.829849644415913e-05,0.5646173149309912,-1.3595944779067591e-05
0.5654114321109223,-8.224850101213356e-06,0.5654114321109223,-1.5272859392719862e-05,0.5654114321109223,-1.82956e-05,0.5654114321109223,-1.5608559392719863e-05
0.5662055492908533,-1.0405461350224358e-05,0.5662055492908533,-1.393226223204301e-05,0.5662055492908533,-1.8966618883978496e-05,0.5662055492908533,-1.426796223204301e-05
0.5669996664707844,-7.554418638471122e-06,0.5669996664707844,-1.1918146088848892e-05,0.5669996664707844,-1.9302558985191853e-05,0.5669996664707844,-1.4434929513599025e-05
0.5677937836507154,-9.06344838049964e-06,0.5677937836507154,-1.0407111608601152e-05,0.5677937836507154,-2.165195969876086e-05,0.5677937836507154,-1.4267245722178786e-05
