X [s],R BICEPS BRACHII: EMG 1 [V],X [s].1,R DELTOID ANTERIOR: EMG 2 [V],X [s].5,R DELTOID MEDIUS: EMG 6 [V],X [s].6,R DELTOID POSTERIOR: EMG 7 [V]
0.0,-1.51064e-06,0.0,0.000108598,0.0,2.09812e-05,0.0,-2.19883e-05
0.000794117179931,9.41930514375956e-06,0.000794117179931,0.0001249487631622,0.000794117179931,5.4096845382020726e-05,0.000794117179931,-2.3034793997874583e-05
0.0015882343598621,1.46029e-05,0.0015882343598621,0.0001386729227115,0.0015882343598621,6.405918985724527e-05,0.0015882343598621,-2.03887329050436e-05
0.0023823515397932,1.4425163944135087e-05,0.0023823515397932,0.0001421090447277,0.0023823515397932,5.579509915362851e-05,0.0023823515397932,-1.0080892822422696e-05
0.0031764687197242,1.6439374973436856e-05,0.0031764687197242,0.0001138512685799,0.0031764687197242,5.170742502656314e-05,0.0031764687197242,1.945070108220231e-06
0.0039705858996553,6.230303577458158e-06,0.0039705858996553,0.0001454059231985,0.0039705858996553,4.0037142341874205e-05,0.0039705858996553,1.7920226058685115e-05
0.0047647030795864,-1.1700074867184277e-05,0.0047647030795864,0.0001643450753203,0.0047647030795864,2.8139946989509704e-06,0.0047647030795864,2.593764876825708e-05
0.0055588202595174,-7.948249579405258e-06,0.0055588202595174,6.209523454321195e-05,0.0055588202595174,-3.21182320689447e-05,0.0055588202595174,8.678970923916667e-06
0.0063529374394485,8.856493514356271e-06,0.0063529374394485,-2.797138805219799e-05,0.0063529374394485,-3.365873372292612e-05,0.0063529374394485,-4.33444349533574e-06
0.0071470546193796,1.231227900454127e-05,0.0071470546193796,-7.379416384414004e-05,0.0071470546193796,-1.3872385294030036e-05,0.0071470546193796,-1.0357203710511232e-05
0.0079411717993107,7.020051283203931e-06,0.0079411717993107,-0.0001321960148606,0.0079411717993107,-6.417772815415163e-06,0.0079411717993107,-2.220544037735825e-05
0.0087352889792417,8.856473433135825e-06,0.0087352889792417,-0.0001643242337438,0.0087352889792417,2.9520328325046685e-06,0.0087352889792417,-3.196039501340545e-05
0.0095294061591728,4.551704916375266e-06,0.0095294061591728,-0.0001692609556045,0.0095294061591728,2.8346699043726776e-05,0.0095294061591728,-3.342175005312629e-05
0.0103235233391039,-6.308937627246482e-06,0.0103235233391039,-0.000164817979191,0.0103235233391039,3.117102551623886e-05,0.0103235233391039,-3.278982407075657e-05
0.0111176405190349,-1.108793860141822e-05,0.0111176405190349,-0.0002082819428199,0.0111176405190349,2.0526953131452774e-05,0.0111176405190349,-3.395492895106366e-05
0.011911757698966,-5.597893316885908e-06,0.011911757698966,-0.0002964904486308,0.011911757698966,1.4819600170996724e-05,0.011911757698966,-3.2147946819826144e-05
0.0127058748788971,-1.51064e-06,0.0127058748788971,-0.0003780652226064,0.0127058748788971,-8.30241238842775e-06,0.0127058748788971,-2.8820921758084003e-05
0.0134999920588282,-4.86757273161263e-06,0.0134999920588282,-0.0003640654030542,0.0134999920588282,-3.0380505288608864e-05,0.0134999920588282,-1.9638520262265785e-05
0.0142941092387592,-1.31616402900846e-05,0.0142941092387592,-0.0002753246230747,0.0142941092387592,-5.108598903420047e-05,0.0142941092387592,-2.260603772172692e-06
0.0150882264186903,-2.4120413112366316e-05,0.0150882264186903,-9.069251185373498e-05,0.0150882264186903,-4.819414861426828e-05,0.0150882264186903,1.377251285740436e-05
0.0158823435986214,-2.5937642208132298e-05,0.0158823435986214,0.0001718589124551,0.0158823435986214,-2.236364942522993e-05,0.0158823435986214,2.714201318332508e-05
0.0166764607785524,-2.2857019720213487e-05,0.0166764607785524,0.0003880139874684,0.0166764607785524,-1.541248419574532e-05,0.0166764607785524,3.1239720011517175e-05
0.0174705779584835,-1.6518481214284163e-05,0.0174705779584835,0.0005081418792549,0.0174705779584835,8.74718230067595e-06,0.0174705779584835,3.652191878571584e-05
0.0182646951384146,-2.1809663151996943e-05,0.0182646951384146,0.0005355208181932,0.0182646951384146,3.675835796642473e-05,0.0182646951384146,3.371869443829499e-05
0.0190588123183456,-4.242626753957332e-05,0.0190588123183456,0.0004165779224047,0.0190588123183456,4.662251847412438e-05,0.0190588123183456,1.2746831987000123e-05
0.0198529294982767,-3.632395159489932e-05,0.0198529294982767,0.0001897484169559,0.0198529294982767,4.313697518632471e-05,0.0198529294982767,-3.6435915516298513e-06
0.0206470466782078,-1.3438648132077083e-05,0.0206470466782078,4.134874295743819e-06,0.0206470466782078,3.444897044335536e-05,0.0206470466782078,-1.2291713726409764e-05
0.0214411638581389,-6.783151982282336e-06,0.0214411638581389,-6.621993357611012e-05,0.0214411638581389,2.208778379973061e-05,0.0214411638581389,-2.520683721111129e-05
0.0222352810380699,1.8775237304138357e-07,0.0222352810380699,-9.10632504922572e-05,0.0222352810380699,-2.066585540657785e-05,0.0222352810380699,-2.733962279716356e-05
0.023029398218001,6.901578110897972e-06,0.023029398218001,-0.0001068401287329,0.023029398218001,-5.198385472275507e-05,0.023029398218001,-2.358780855621828e-05
0.0238235153979321,-1.8259557495214187e-06,0.0238235153979321,-0.0001175440885626,0.0238235153979321,-3.4607529556167325e-05,0.0238235153979321,-1.5610388153686775e-05
0.0246176325778631,-1.682435318489322e-05,0.0246176325778631,-0.0001303298230406,0.0246176325778631,-1.4701678376745364e-05,0.0246176325778631,-1.1206403923498758e-05
0.0254117497577942,-2.350883701858045e-05,0.0254117497577942,-0.0001446467799768,0.0254117497577942,7.119583832564791e-06,0.0254117497577942,-2.331171023896443e-05
0.0262058669377253,-2.115932465074667e-05,0.0262058669377253,-0.0001539965916019,0.0262058669377253,2.1770794331388564e-05,0.0262058669377253,-2.727078219985744e-05
0.0269999841176564,-1.4938703083404335e-05,0.0269999841176564,-0.00015391805133,0.0269999841176564,2.5345142731442038e-05,0.0269999841176564,-2.534521718227333e-05
0.0277941012975874,-1.3714251767422509e-05,0.0277941012975874,-0.0001447159659182,0.0277941012975874,1.713022094033613e-05,0.0277941012975874,-3.415260489538692e-05
0.0285882184775185,-1.3438074463119563e-05,0.0285882184775185,-0.000143847,0.0285882184775185,-2.101754691876064e-06,0.0285882184775185,-5.036345250544202e-05
0.0293823356574496,-6.842705308288124e-06,0.0293823356574496,-0.0001395027909379,0.0293823356574496,-1.2115023146909895e-05,0.0293823356574496,-6.655652965203216e-05
0.0301764528373806,1.4810260970595108e-07,0.0301764528373806,-0.0001236663452825,0.0301764528373806,-2.892930358016923e-06,0.0301764528373806,-8.156487497352071e-05
0.0309705700173117,-5.459731795751056e-06,0.0309705700173117,-9.099322223994368e-05,0.0309705700173117,-4.432776025658598e-06,0.0309705700173117,-7.431836618806037e-05
0.0317646871972428,-1.0436455600828087e-05,0.0317646871972428,-5.117545109170009e-05,0.0317646871972428,-3.389352191039615e-05,0.0317646871972428,-4.0592281483137634e-05
0.0325588043771738,-4.78876499390541e-06,0.0325588043771738,-4.155764143042455e-05,0.0325588043771738,-6.292341800129888e-05,0.0325588043771738,4.333707682486096e-06
0.0333529215571049,3.0115251571567413e-06,0.0333529215571049,-7.141206761915017e-05,0.0333529215571049,-4.848817505819356e-05,0.0333529215571049,4.2782512377604806e-05
0.034147038737036,2.7153703413706004e-06,0.034147038737036,-0.000136106178744,0.034147038737036,-2.4615632501129533e-05,0.034147038737036,7.289459968369255e-05
0.0349411559169671,3.090174755729218e-06,0.0349411559169671,-0.0002122078456469,0.0349411559169671,-1.3843049298845118e-05,0.0349411559169671,8.590909595978734e-05
0.0357352730968981,1.0604113291084004e-05,0.0357352730968981,-0.0002369736862458,0.0357352730968981,5.144171228243274e-06,0.0357352730968981,8.683733213073345e-05
0.0365293902768292,1.3477373905373932e-05,0.0365293902768292,-0.0002261934163995,0.0365293902768292,3.9838796517891405e-05,0.0365293902768292,7.092174264168764e-05
0.0373235074567603,6.753853197603063e-06,0.0373235074567603,-0.0001735075628903,0.0373235074567603,7.105844159657427e-05,0.0373235074567603,4.706773912720203e-05
0.0381176246366913,7.998105838181567e-07,0.0381176246366913,-5.674370624756157e-05,0.0381176246366913,8.369748196642962e-05,0.0381176246366913,3.284923606714075e-05
0.0389117418166224,-1.4909621750080677e-06,0.0389117418166224,7.314992413499092e-05,0.0389117418166224,7.59564444483078e-05,0.0389117418166224,3.4132891748577864e-05
0.0397058589965535,-1.0988129775326746e-05,0.0397058589965535,0.0001547854111139,0.0397058589965535,6.093059384562258e-05,0.0397058589965535,4.927785031702334e-05
0.0404999761764846,-2.7694584588096077e-05,0.0404999761764846,0.0001720450154173,0.0404999761764846,3.4074362106656115e-05,0.0404999761764846,5.2536851541702175e-05
0.0412940933564156,-3.683801039418355e-05,0.0412940933564156,0.0001179020220766,0.0412940933564156,-1.4713580737600637e-06,0.0412940933564156,3.666998873005113e-05
0.0420882105363467,-2.974993529701738e-05,0.0420882105363467,6.961794550442373e-05,0.0420882105363467,-2.287587795280338e-05,0.0420882105363467,2.23442588108151e-05
0.0428823277162778,-1.6232589604054974e-05,0.0428823277162778,8.02402438055157e-05,0.0428823277162778,-2.978823488444452e-05,0.0428823277162778,1.815769069333289e-05
0.0436764448962088,-4.314827290779374e-06,0.0436764448962088,0.0001087365917602,0.0436764448962088,-3.438922764078697e-05,0.0436764448962088,6.862240094397241e-06
0.0444705620761399,-9.775429527836388e-07,0.0444705620761399,0.0001051226874432,0.0444705620761399,-3.642369273556036e-05,0.0444705620761399,-2.0831649813031364e-05
0.045264679256071,2.8335459081839016e-06,0.045264679256071,8.092463736303945e-05,0.045264679256071,-3.158455350841356e-05,0.045264679256071,-5.332509086052382e-05
0.046058796436002,5.432016719524542e-07,0.046058796436002,5.819426743136375e-05,0.046058796436002,-4.717496403788604e-05,0.046058796436002,-7.473191051442598e-05
0.0468529136159331,-1.0989317991064317e-05,0.0468529136159331,5.271402802972154e-05,0.0468529136159331,-4.906122841267414e-05,0.0468529136159331,-8.346065546628653e-05
0.0476470307958642,-1.669631656099222e-05,0.0476470307958642,7.55615788937223e-05,0.0476470307958642,-3.1587005863540875e-05,0.0476470307958642,-8.883148484629465e-05
0.0484411479757953,-8.67927754819947e-06,0.0484411479757953,0.0001274142854574,0.0484411479757953,-8.739078294200339e-06,0.0484411479757953,-8.871341093040186e-05
0.0492352651557263,1.8462781050735503e-06,0.0492352651557263,0.0001712553635172,0.0492352651557263,1.4800220939074326e-05,0.0492352651557263,-8.74495e-05
0.0500293823356574,9.626459720916848e-06,0.0500293823356574,0.0002225360513544,0.0500293823356574,2.881075695979644e-05,0.0500293823356574,-7.947211266751483e-05
0.0508234995155885,1.2312206890189185e-05,0.0508234995155885,0.0002146407854293,0.0508234995155885,2.546421428400768e-05,0.0508234995155885,-6.442533849192665e-05
0.0516176166955195,1.25887e-05,0.0516176166955195,0.0001038026694273,0.0516176166955195,1.583729519328803e-05,0.0516176166955195,-5.027612107565091e-05
0.0524117338754506,6.072072974988055e-06,0.0524117338754506,-6.846697628495551e-05,0.0524117338754506,7.809819073758348e-06,0.0524117338754506,-3.847682667349881e-05
0.0532058510553817,-2.5566153019591112e-06,0.0532058510553817,-0.0002044272053845,0.0532058510553817,-7.216032621663534e-06,0.0532058510553817,-3.160536789616931e-05
0.0539999682353128,-1.0909856390016966e-05,0.0539999682353128,-0.0002561368806496,0.0539999682353128,-2.568018987670501e-05,0.0539999682353128,-2.6016851981655045e-05
0.0547940854152438,-1.4859571386622253e-05,0.0547940854152438,-0.0002195992206019,0.0547940854152438,-3.4389338705223576e-05,0.0547940854152438,-2.2758337327825203e-05
0.0555882025951749,-1.1799514351069782e-05,0.0555882025951749,-0.000155745085136,0.0555882025951749,-3.1595990475888764e-05,0.0555882025951749,-2.4950152271536963e-05
0.056382319775106,-1.4717326499197475e-06,0.056382319775106,-0.0001608556864816,0.056382319775106,-2.0508210254372517e-05,0.056382319775106,-2.416024686146586e-05
0.057176436955037,7.730775659600808e-06,0.057176436955037,-0.0002053301895497,0.057176436955037,-3.0710195009406148e-06,0.057176436955037,-2.741859588698682e-05
0.0579705541349681,1.651789434255435e-05,0.0579705541349681,-0.0001773373422962,0.0579705541349681,9.349845833812336e-06,0.0579705541349681,-2.755705267438745e-05
0.0587646713148992,2.358775366184389e-05,0.0587646713148992,-0.0001625453196975,0.0587646713148992,1.4819824367092775e-05,0.0587646713148992,-2.2502075207826453e-05
0.0595587884948302,1.890804726282718e-05,0.0595587884948302,-0.0001862824573575,0.0595587884948302,1.5353372328983624e-05,0.0595587884948302,-1.901641726130701e-05
0.0603529056747613,1.0396767614545534e-05,0.0603529056747613,-0.0001541807030932,0.0603529056747613,8.20486797823854e-06,0.0603529056747613,-2.603634496292901e-05
0.0611470228546924,1.6872424756467e-07,0.0611470228546924,-4.302085431230888e-05,0.0611470228546924,2.606781636689833e-06,0.0611470228546924,-2.982773096094576e-05
0.0619411400346235,-9.21147406137364e-06,0.0619411400346235,0.0001083880689318,0.0619411400346235,2.69518827756746e-06,0.0619411400346235,-2.836701881075642e-05
0.0627352572145545,-1.6064114840992002e-05,0.0627352572145545,0.0002564603408629,0.0627352572145545,7.335929547448949e-06,0.0627352572145545,-1.6834525584314116e-05
0.0635293743944856,-1.2727247252569424e-05,0.0635293743944856,0.0003197731870576,0.0635293743944856,7.296684563817168e-06,0.0635293743944856,-7.75075340218523e-06
0.0643234915744167,-5.816203645135308e-06,0.0643234915744167,0.0002628250681554,0.0643234915744167,-2.9906620292788685e-06,0.0643234915744167,-1.2252319776667576e-05
0.0651176087543477,2.12260907717066e-06,0.0651176087543477,8.871858736808998e-05,0.0651176087543477,-1.4493950400639768e-05,0.0651176087543477,-2.050704091517638e-05
0.0659117259342788,-7.997714604842368e-07,0.0659117259342788,-7.76685412473292e-05,0.0659117259342788,-1.34970490972359e-05,0.0659117259342788,-2.331126161264672e-05
0.0667058431142099,-7.532971981826981e-06,0.0667058431142099,-0.0001500854287448,0.0667058431142099,-7.237758018173019e-06,0.0667058431142099,-2.4614756855507847e-05
0.067499960294141,-1.191712819432609e-05,0.067499960294141,-0.0001545894235954,0.067499960294141,-1.1752549762158614e-06,0.067499960294141,-1.8967400871376065e-05
0.068294077474072,-1.5688941671913968e-05,0.068294077474072,-0.0001256410739323,0.068294077474072,1.0515104675921827e-05,0.068294077474072,-8.323489101442803e-06
0.0690881946540031,-1.547182959108732e-05,0.0690881946540031,-0.0001265865588102,0.0690881946540031,1.487924081782536e-05,0.0690881946540031,-6.644385039522535e-06
0.0698823118339342,-1.3793728137872e-05,0.0698823118339342,-0.0001499664122476,0.0698823118339342,1.3300205359164112e-05,0.0698823118339342,-9.13274475572922e-06
0.0706764290138652,-9.133041962345523e-06,0.0706764290138652,-0.0002023487047127,0.0706764290138652,8.283868431891356e-06,0.0706764290138652,-1.3398174112977806e-05
0.0714705461937963,-1.1146922832478633e-05,0.0714705461937963,-0.0003227733734583,0.0714705461937963,1.795931259316239e-05,0.0714705461937963,-1.7564578736752135e-05
0.0722646633737274,-1.0673378166099077e-05,0.0722646633737274,-0.0003699152137794,0.0722646633737274,2.862164017291017e-05,0.0722646633737274,-2.668719039210524e-05
0.0730587805536585,-1.2430509527186364e-05,0.0730587805536585,-0.0002643851841768,0.0730587805536585,5.036350590804985e-05,0.0730587805536585,-3.294765714538977e-05
0.0738528977335895,-2.07046941639702e-05,0.0738528977335895,-5.3397792520305225e-05,0.0738528977335895,5.245790874623438e-05,0.0738528977335895,-2.55625116720596e-05
0.0746470149135206,-1.4929750807887144e-05,0.0746470149135206,0.0001952416226176,0.0746470149135206,5.580282863982209e-05,0.0746470149135206,-2.0349419276223703e-05
0.0754411320934517,-5.184236645359478e-06,0.0754411320934517,0.0003983106088454,0.0754411320934517,7.451611884411366e-05,0.0754411320934517,-1.9559556745248252e-05
0.0762352492733827,1.0169346692911051e-06,0.0762352492733827,0.0005351292131897,0.0762352492733827,4.935859097514756e-05,0.0762352492733827,-1.72688144268563e-05
0.0770293664533138,-8.470691452958941e-06,0.0770293664533138,0.0005614403509296,0.0770293664533138,3.0756007831808764e-05,0.0770293664533138,-7.830473642803405e-06
0.0778234836332449,-2.3389417856596583e-05,0.0778234836332449,0.0004651649643157,0.0778234836332449,1.4844364858629953e-05,0.0778234836332449,8.401425202865045e-06
0.078617600813176,-2.83665e-05,0.078617600813176,0.000274796077276,0.078617600813176,-6.201114601703624e-05,0.078617600813176,1.3339137967848848e-05
0.079411717993107,-1.852276441284149e-05,0.079411717993107,8.167336790786368e-05,0.079411717993107,-0.0001511726505161,0.079411717993107,-7.355554490273716e-06
0.0802058351730381,-6.606075108588102e-06,0.0802058351730381,-6.19705136283992e-05,0.0802058351730381,-0.0001773586305694,0.0802058351730381,-2.7200760711206877e-05
0.0809999523529692,1.0066361267275511e-06,0.0809999523529692,-0.0001344436112425,0.0809999523529692,-0.0001482134739607,0.0809999523529692,-2.8702337444539136e-05
0.0817940695329002,1.6063831680043348e-05,0.0817940695329002,-0.0001777002049931,0.0817940695329002,-7.428013873087756e-05,0.0817940695329002,-2.0862888969002693e-05
0.0825881867128313,2.4318155808604828e-05,0.0825881867128313,-0.0002323090808236,0.0825881867128313,-2.5243435873857e-06,0.0825881867128313,-6.035093220642337e-06
0.0833823038927624,2.2344009658402897e-05,0.0833823038927624,-0.0002974331400887,0.0833823038927624,4.4378853162685614e-05,0.0833823038927624,1.6378895574694456e-05
0.0841764210726934,1.831548495248292e-05,0.0841764210726934,-0.0003462917933791,0.0841764210726934,7.840393981158137e-05,0.0841764210726934,3.0755388507562614e-05
0.0849705382526245,9.79646819442969e-07,0.0849705382526245,-0.000355514521752,0.0849705382526245,0.0001176788275309,0.0849705382526245,4.552511058764013e-05
0.0857646554325556,-4.368526234185707e-05,0.0857646554325556,-0.0003591503927001,0.0857646554325556,0.0001392270888759,0.0857646554325556,7.611098351315247e-05
0.0865587726124866,-9.068552023117214e-05,0.0865587726124866,-0.0002990412028453,0.0865587726124866,0.0001183753095137,0.0865587726124866,0.0001146785447347
0.0873528897924177,-9.582254794471936e-05,0.0873528897924177,-0.0001641208432842,0.0873528897924177,6.95794854772089e-05,0.0873528897924177,0.0001348718209482
0.0881470069723488,-6.026210878347325e-05,0.0881470069723488,-2.9210277428050435e-05,0.0881470069723488,3.5892014782974874e-05,0.0881470069723488,0.0001281115387252
0.0889411241522799,-2.7835182049235628e-05,0.0889411241522799,9.0419351164292e-05,0.0889411241522799,1.7408158155684885e-05,0.0889411241522799,8.06222758856818e-05
0.0897352413322109,-6.487493612817346e-06,0.0897352413322109,0.0001932694987291,0.0897352413322109,4.196591609978863e-06,0.0897352413322109,1.109039907769993e-05
0.090529358512142,-8.39246e-07,0.090529358512142,0.0002303971891469,0.090529358512142,-8.39159495416613e-06,0.090529358512142,-3.454548508678797e-05
0.0913234756920731,-1.234129709621799e-06,0.0913234756920731,0.0002362816790307,0.0913234756920731,-2.222416627033016e-05,0.0913234756920731,-5.9506122159788574e-05
0.0921175928720041,-6.221211904351401e-07,0.0921175928720041,0.0002482099420925,0.0921175928720041,-3.661988338737353e-05,0.0921175928720041,-7.200679169055533e-05
0.0929117100519352,4.78852822727737e-06,0.0929117100519352,0.0001997944590853,0.0929117100519352,-4.939689129463083e-05,0.0929117100519352,-7.678600536818058e-05
0.0937058272318663,1.002110171993101e-05,0.0937058272318663,6.162886265784442e-05,0.0937058272318663,-4.692964007502208e-05,0.0937058272318663,-7.946134279628324e-05
0.0944999444117974,1.5273899120094273e-05,0.0944999444117974,-5.185830154070218e-05,0.0944999444117974,-3.94450409678963e-05,0.0944999444117974,-8.577045880615647e-05
0.0952940615917284,1.8532545491607408e-05,0.0952940615917284,-0.0001353108463185,0.0952940615917284,-2.72019807433852e-05,0.0952940615917284,-9.160606491258491e-05
0.0960881787716595,1.9183935820804352e-05,0.0960881787716595,-0.0001859252883199,0.0960881787716595,-7.436847806160417e-06,0.0960881787716595,-8.40554776681027e-05
0.0968822959515906,2.007354837044556e-05,0.0968822959515906,-0.0002104518783973,0.0968822959515906,6.965952720255192e-08,0.0968822959515906,-6.043750767763539e-05
0.0976764131315216,5.964596814415797e-06,0.0976764131315216,-0.0002024209156126,0.0976764131315216,-5.124142566340485e-06,0.0976764131315216,-3.812267776850687e-05
0.0984705303114527,-1.356512255189394e-05,0.0984705303114527,-0.0001544919199807,0.0984705303114527,-7.70844243581749e-07,0.0984705303114527,-3.389603228887725e-06
0.0992646474913838,-2.0131958315177438e-05,0.0992646474913838,-0.0001653938289813,0.0992646474913838,6.644031152698029e-06,0.0992646474913838,2.19872721671948e-05
0.1000587646713148,-1.9065247365566203e-05,0.1000587646713148,-0.000222112581414,0.1000587646713148,1.2767204215094076e-05,0.1000587646713148,2.730045158066028e-05
0.1008528818512459,-1.179882344212397e-05,0.1008528818512459,-0.0002045665568047,0.1008528818512459,1.6380134569734505e-05,0.1008528818512459,3.920762225522106e-05
0.101646999031177,7.388870980334151e-07,0.101646999031177,-0.0001449833254136,0.101646999031177,8.109131731481592e-06,0.101646999031177,6.223017288935167e-05
0.1024411162111081,3.508160959665687e-06,0.1024411162111081,-6.9282011128906e-05,0.1024411162111081,-1.430344694475436e-05,0.1024411162111081,6.624758226547835e-05
0.1032352333910391,-7.314529915097238e-06,0.1032352333910391,3.288314233084315e-05,0.1032352333910391,-1.646041536356699e-05,0.1032352333910391,3.684390711734185e-05
0.1040293505709702,-1.0564299701660737e-05,0.1040293505709702,0.0001939444338511,0.1040293505709702,-2.872409425748296e-06,0.1040293505709702,-6.963587521779805e-06
0.1048234677509013,-8.750553358925743e-07,0.1048234677509013,0.0003359524448565,0.1048234677509013,-2.621496913756702e-06,0.1048234677509013,-3.4572267689495143e-05
0.1056175849308323,1.0390624697002488e-05,0.1056175849308323,0.0003883696966331,0.1056175849308323,-1.8765175364913716e-05,0.1056175849308323,-5.321534994632594e-05
0.1064117021107634,1.3121995265770526e-05,0.1064117021107634,0.0003771466401069,0.1064117021107634,-2.046702840537684e-05,0.1064117021107634,-7.781829642813266e-05
0.1072058192906945,1.5393097606643518e-05,0.1072058192906945,0.0002158164395105,0.1072058192906945,-2.208771519144454e-05,0.1072058192906945,-9.358144787379306e-05
0.1079999364706256,1.7120622889660863e-05,0.1079999364706256,6.562803362102017e-06,0.1079999364706256,-3.306538468622377e-05,0.1079999364706256,-9.684902288966084e-05
0.1087940536505566,8.898243403679972e-06,0.1087940536505566,-0.0001152205288929,0.1087940536505566,-2.8053694297193702e-05,0.1087940536505566,-7.314061931393452e-05
0.1095881708304877,7.235791442688649e-07,0.1095881708304877,-0.0001583092955993,0.1095881708304877,-4.087917495925745e-06,0.1095881708304877,-3.140623560114056e-05
0.1103822880104188,-7.66566648643383e-06,0.1103822880104188,-0.0001867173551721,0.1103822880104188,2.0853353998332185e-05,0.1103822880104188,1.998762658234679e-05
0.1111764051903498,-1.801499733563796e-05,0.1111764051903498,-0.0001943103437433,0.1111764051903498,3.114979933390949e-05,0.1111764051903498,6.316388934255185e-05
0.1119705223702809,-1.967846546663863e-05,0.1119705223702809,-0.0001551011562933,0.1119705223702809,2.3866074284100072e-05,0.1119705223702809,7.874078265967087e-05
0.112764639550212,-1.422775456425839e-05,0.112764639550212,-0.0001109061035286,0.112764639550212,2.104039060316709e-05,0.112764639550212,6.545156504431838e-05
0.1135587567301431,-7.492869193135721e-06,0.1135587567301431,-7.932151274545857e-05,0.1135587567301431,2.485215693434899e-05,0.1135587567301431,3.612289195117021e-05
0.1143528739100741,-3.5840742240732283e-06,0.1143528739100741,-9.713585732238894e-05,0.1143528739100741,1.8878195539035702e-05,0.1143528739100741,1.2825890603679107e-05
0.1151469910900052,-3.643220986913453e-06,0.1151469910900052,-0.0001163993605865,0.1151469910900052,8.284585631382483e-06,0.1151469910900052,-1.1044182677954714e-05
0.1159411082699363,-4.668922370840065e-06,0.1159411082699363,-0.000132791294867,0.1159411082699363,6.765900047333184e-06,0.1159411082699363,-3.55893309713077e-05
0.1167352254498673,-8.934771729419148e-06,0.1167352254498673,-0.0001130523814659,0.1167352254498673,-6.029759273353638e-06,0.1167352254498673,-4.971088175627898e-05
0.1175293426297984,-8.619346198468398e-06,0.1175293426297984,-1.2941688796991124e-05,0.1175293426297984,-1.807855709037916e-05,0.1175293426297984,-5.636783425422749e-05
0.1183234598097295,-5.558364483439062e-06,0.1183234598097295,6.637180962836421e-05,0.1183234598097295,-1.4047556283491487e-05,0.1183234598097295,-5.65652e-05
0.1191175769896605,-4.274809804606189e-06,0.1191175769896605,7.842709500906074e-05,0.1191175769896605,-7.828246975347022e-06,0.1191175769896605,-5.7899001291572666e-05
0.1199116941695916,-2.18204e-06,0.1199116941695916,6.040979671421238e-05,0.1199116941695916,-1.01430506612321e-05,0.1199116941695916,-6.217431626205455e-05
0.1207058113495227,-4.9863788003542906e-06,0.1207058113495227,3.990668159947279e-05,0.1207058113495227,-3.749089135524019e-05,0.1207058113495227,-6.503673713043962e-05
0.1214999285294538,-8.224404055934042e-06,0.1214999285294538,3.07169547436384e-05,0.1214999285294538,-3.6089196063060345e-05,0.1214999285294538,-6.596464852893712e-05
0.1222940457093848,3.425612703650926e-07,0.1222940457093848,2.0286552517151025e-05,0.1222940457093848,-3.058166917840742e-06,0.1222940457093848,-6.80179835138097e-05
0.1230881628893159,6.113465927058087e-06,0.1230881628893159,1.5756600200465943e-05,0.1230881628893159,2.27098740012078e-05,0.1230881628893159,-6.516840782370404e-05
0.123882280069247,-1.1919245048062258e-06,0.123882280069247,-1.3634428136879551e-05,0.123882280069247,4.14535623638255e-05,0.123882280069247,-5.376726583887215e-05
0.124676397249178,-3.584335887233731e-06,0.124676397249178,-6.866249139850361e-05,0.124676397249178,4.842755878936388e-05,0.124676397249178,-4.1898867712569126e-05
0.1254705144291091,2.495924027845666e-06,0.1254705144291091,-0.0001070655220023,0.1254705144291091,5.0443566354516126e-05,0.1254705144291091,-3.2810829517881e-05
0.1262646316090402,9.92289393067998e-06,0.1262646316090402,-0.000146495230836,0.1262646316090402,5.113462526578896e-05,0.1262646316090402,-2.6313118783553608e-05
0.1270587487889713,-2.687137082270411e-07,0.1270587487889713,-0.0001810815583296,0.1270587487889713,5.911366187882658e-05,0.1270587487889713,-6.997363476707902e-06
0.1278528659689023,-1.8433474565195048e-05,0.1278528659689023,-0.0001940087936268,0.1278528659689023,4.041290393428914e-05,0.1278528659689023,1.847277739983844e-05
0.1286469831488334,-2.860327050779949e-05,0.1286469831488334,-0.0001477862077988,0.1286469831488334,-8.788820664968519e-06,0.1286469831488334,3.88493370978993e-05
0.1294411003287645,-2.3255847359874525e-05,0.1294411003287645,-4.501114463360827e-05,0.1294411003287645,-4.570541769426964e-05,0.1294411003287645,4.987236191878859e-05
0.1302352175086955,-1.379434378892666e-05,0.1302352175086955,5.825902790113685e-05,0.1302352175086955,-3.110633527093271e-05,0.1302352175086955,4.18558640193788e-05
0.1310293346886266,-1.3753805697364732e-05,0.1310293346886266,0.0001456798319153,0.1310293346886266,-1.27267451307291e-05,0.1310293346886266,3.154530884216429e-05
0.1318234518685577,-1.3714594387445594e-05,0.1318234518685577,0.0002109910988016,0.1318234518685577,-1.845574301858513e-05,0.1318234518685577,2.103657760055849e-05
0.1326175690484888,-1.5452817458732755e-05,0.1326175690484888,0.0002377415812239,0.1326175690484888,-2.291670872936637e-05,0.1326175690484888,7.301715088828881e-06
0.1334116862284198,-1.5095897201541304e-05,0.1334116862284198,0.0002365561515652,0.1334116862284198,-1.9519464801027532e-05,0.1334116862284198,-7.418016578917912e-06
0.1342058034083509,-1.2253e-05,0.1342058034083509,0.0002026992150121,0.1342058034083509,-2.06455e-05,0.1342058034083509,-1.648888308137273e-05
0.134999920588282,-1.1246071621333058e-05,0.134999920588282,0.000133784012933,0.134999920588282,-1.561085810666529e-05,0.134999920588282,-1.9638085352368823e-05
0.135794037768213,-2.382219759277404e-06,0.135794037768213,-2.9716562696646065e-05,0.135794037768213,-1.3278421049228656e-05,0.135794037768213,-2.6073987363997253e-05
0.1365881549481441,5.240541288968572e-06,0.1365881549481441,-0.0001877377856813,0.1365881549481441,-2.6564732339638112e-05,0.1365881549481441,-3.703112925967258e-05
0.1373822721280752,9.760646160221015e-06,0.1373822721280752,-0.0002169899296032,0.1373822721280752,-3.0268480499146296e-05,0.1373822721280752,-4.382828465180865e-05
0.1381763893080062,1.7768372820991733e-05,0.1381763893080062,-0.0001762704392578,0.1381763893080062,-2.0471544783611385e-05,0.1381763893080062,-4.35622585481091e-05
0.1389705064879373,1.7754324945640528e-05,0.1389705064879373,-0.0001010257668629,0.1389705064879373,-2.054815401425558e-05,0.1389705064879373,-3.881456145062789e-05
0.1397646236678684,5.26305925138878e-06,0.1397646236678684,-4.870531527896133e-05,0.1397646236678684,2.9510858955000914e-06,0.1397646236678684,-2.8406438905109385e-05
0.1405587408477994,-1.0398539264794938e-05,0.1405587408477994,-6.783789603561885e-05,0.1405587408477994,3.133106994053328e-05,0.1405587408477994,-1.4245746987319327e-05
0.1413528580277305,-2.544363693004528e-05,0.1413528580277305,-0.0001632219131782,0.1413528580277305,2.704379828347747e-05,0.1413528580277305,-1.3628876936728078e-06
0.1421469752076616,-2.536638670759521e-05,0.1421469752076616,-0.0002088154352109,0.1421469752076616,2.4710993716893777e-05,0.1421469752076616,6.8411976770495165e-06
0.1429410923875927,-2.2105647909355767e-05,0.1429410923875927,-0.0001629513008569,0.1429410923875927,3.964018955945946e-05,0.1429410923875927,1.1011193693912628e-05
0.1437352095675237,-2.4772225440886688e-05,0.1437352095675237,-0.0001095001961815,0.1437352095675237,3.535995407142866e-05,0.1437352095675237,2.0853717972387147e-06
0.1445293267474548,-2.3765247299289357e-05,0.1445293267474548,1.6701853573686354e-05,0.1445293267474548,9.941719713492384e-06,0.1445293267474548,-1.1254938469783525e-06
0.1453234439273859,-1.808772099854412e-05,0.1453234439273859,0.0002127460712686,0.1453234439273859,5.147765781237503e-06,0.1453234439273859,-2.2724029609339378e-07
0.146117561107317,-1.756524209385987e-05,0.146117561107317,0.0003645811705989,0.146117561107317,1.5474083580033968e-05,0.146117561107317,-1.3927368315915925e-06
0.146911678287248,-1.2122641078833568e-05,0.146911678287248,0.0004029079656377,0.146911678287248,1.1777356817884234e-05,0.146911678287248,-7.159889229831806e-06
0.1477057954671791,-1.609025855046931e-06,0.1477057954671791,0.0002661699500828,0.1477057954671791,-8.630727378133027e-06,0.1477057954671791,-2.042896160075211e-05
0.1484999126471102,7.552213158595401e-06,0.1484999126471102,3.980589518776332e-05,0.1484999126471102,-4.598629507119804e-05,0.1484999126471102,-4.112070874276008e-05
0.1492940298270412,9.864057938677452e-06,0.1492940298270412,-0.0001466019844893,0.1492940298270412,-8.943275734913689e-05,0.1492940298270412,-5.458752743818286e-05
0.1500881470069723,-5.374913170810773e-08,0.1500881470069723,-0.000225757,0.1500881470069723,-0.0001202842080805,0.1500881470069723,-5.879763942208081e-05
0.1508822641869034,-6.904119230739965e-06,0.1508822641869034,-0.0002378017013861,0.1508822641869034,-0.0001022355948136,0.1508822641869034,-5.100354467536256e-05
0.1516763813668344,-1.0796614169215632e-06,0.1516763813668344,-0.0002548388692023,0.1516763813668344,-3.50752132946956e-05,0.1516763813668344,-3.9646844386818725e-05
0.1524704985467655,7.3731008142291745e-06,0.1524704985467655,-0.0001764319567572,0.1524704985467655,1.8343749644269773e-05,0.1524704985467655,-3.2791484155276395e-05
0.1532646157266966,1.4286833726926791e-05,0.1532646157266966,-9.688735075284408e-05,0.1532646157266966,6.566642537628165e-05,0.1532646157266966,-1.829668171242485e-05
0.1540587329066277,1.560015452693073e-05,0.1540587329066277,-7.222641128693407e-05,0.1540587329066277,0.0001155546570009,0.1540587329066277,1.1545394745606667e-05
0.1548528500865587,1.0890785530520204e-05,0.1548528500865587,-7.564753178565566e-05,0.1548528500865587,0.0001406278305843,0.1548528500865587,3.64815628181224e-05
0.1556469672664898,-5.574181294475356e-06,0.1556469672664898,-2.685748300192107e-05,0.1556469672664898,0.0001580819553306,0.1556469672664898,6.854402988928522e-05
0.1564410844464209,-2.531905635676451e-05,0.1564410844464209,9.400964769584838e-05,0.1564410844464209,0.000148543434477,0.1564410844464209,0.0001077607827614
0.157235201626352,-4.717068458245002e-05,0.157235201626352,0.0002103082637803,0.157235201626352,9.6208082436957e-05,0.157235201626352,0.0001223815639145
0.158029318806283,-6.26078e-05,0.158029318806283,0.0002440372077143,0.158029318806283,2.9914335352564652e-05,0.158029318806283,0.0001049443159231
0.1588234359862141,-4.6130529808991086e-05,0.1588234359862141,0.0001701225236552,0.1588234359862141,-3.583925594330952e-05,0.1588234359862141,6.314807493009861e-05
0.1596175531661451,-2.0303429736707243e-05,0.1596175531661451,5.085673194266036e-05,0.1596175531661451,-5.55702670876954e-05,0.1596175531661451,1.7472306689132164e-05
0.1604116703460762,-1.4898393663990109e-05,0.1604116703460762,-2.0798112342667185e-05,0.1604116703460762,-6.079290200688258e-05,0.1604116703460762,-1.7195721179237013e-05
0.1612057875260073,-6.249583449489218e-06,0.1612057875260073,-8.099627586247914e-05,0.1612057875260073,-7.004249059272393e-05,0.1612057875260073,-4.457938249047454e-05
0.1619999047059384,2.51691622169115e-06,0.1619999047059384,-0.0001243720553032,0.1619999047059384,-6.462313269057357e-05,0.1619999047059384,-6.126328378666933e-05
0.1627940218858694,5.913754862452242e-06,0.1627940218858694,-0.0001317847487246,0.1627940218858694,-5.5698640416568274e-05,0.1627940218858694,-7.082062766674538e-05
0.1635881390658005,4.494827481481385e-06,0.1635881390658005,-0.0001439639558353,0.1635881390658005,-3.87030672636513e-05,0.1635881390658005,-6.926604889066945e-05
0.1643822562457316,-1.6673180360610735e-06,0.1643822562457316,-0.000140332274162,0.1643822562457316,-2.118799590656705e-05,0.1643822562457316,-5.5468453747572486e-05
0.1651763734256627,-1.1963832323406657e-06,0.1651763734256627,-0.0001200475099817,0.1651763734256627,-7.13140484167266e-07,0.1651763734256627,-3.984695194271384e-05
0.1659704906055937,2.5954822864302007e-06,0.1659704906055937,-0.0001048516191661,0.1659704906055937,2.2476805855723975e-05,0.1659704906055937,-3.049995776504489e-05
0.1667646077855248,3.850842720329208e-06,0.1667646077855248,-6.894488462402182e-05,0.1667646077855248,3.8437019036934814e-05,0.1667646077855248,-3.047952016995268e-05
0.1675587249654559,1.2340124457835977e-06,0.1675587249654559,-1.0063516229192072e-06,0.1675587249654559,3.932549896787319e-05,0.1675587249654559,-2.7813244891567192e-05
0.1683528421453869,8.224117127407392e-06,0.1683528421453869,5.6368920171967776e-05,0.1683528421453869,1.774366300428073e-05,0.1683528421453869,-2.352891263985234e-05
0.169146959325318,1.0062222977420602e-05,0.169146959325318,0.0001128692811242,0.169146959325318,1.618049304231415e-05,0.169146959325318,-1.5058911122261768e-05
0.1699410765052491,3.231619398093066e-06,0.1699410765052491,0.0001209102514517,0.1699410765052491,1.8854757561308307e-05,0.1699410765052491,-6.666798775476828e-06
0.1707351936851801,-8.438729475015345e-06,0.1707351936851801,3.943213602317729e-05,0.1707351936851801,-4.446974872283979e-06,0.1707351936851801,-2.9325429611266443e-06
0.1715293108651112,-2.090226121943404e-05,0.1715293108651112,-5.211363373390191e-05,0.1715293108651112,-3.5495707014951526e-05,0.1715293108651112,-1.6389444152036055e-06
0.1723234280450423,-1.7503079399799783e-05,0.1723234280450423,-9.014619990719452e-05,0.1723234280450423,-5.01869e-05,0.1723234280450423,-2.9151752620842263e-06
0.1731175452249733,-9.289137172508765e-06,0.1731175452249733,-9.51863588959712e-05,0.1731175452249733,-4.3962857810812e-05,0.1731175452249733,-1.8855226299827413e-05
0.1739116624049044,-2.773107006512831e-06,0.1739116624049044,-0.0001250164493072,0.1739116624049044,-3.1831080118694056e-05,0.1739116624049044,-4.098817217243987e-05
0.1747057795848355,1.17494e-06,0.1747057795848355,-0.0001477128133914,0.1747057795848355,-2.569046061674428e-05,0.1747057795848355,-5.04238539642381e-05
0.1754998967647666,1.6807210573911934e-07,0.1754998967647666,-0.0001357929381264,0.1754998967647666,-3.1925237806780124e-06,0.1754998967647666,-4.615939243093173e-05
0.1762940139446976,-1.5496564852072249e-06,0.1762940139446976,-8.435150082468864e-05,0.1762940139446976,1.695780257532975e-05,0.1762940139446976,-4.013686565882782e-05
0.1770881311246287,-1.4921215835691622e-06,0.1770881311246287,-3.821677118540807e-05,0.1770881311246287,2.69042373637666e-05,0.1770881311246287,-3.8161531318116697e-05
0.1778822483045598,5.818746186989554e-07,0.1778822483045598,-9.213339578533202e-06,0.1778822483045598,2.4483608594267737e-05,0.1778822483045598,-3.850739639314713e-05
0.1786763654844909,1.17494e-06,0.1786763654844909,3.385138790292368e-06,0.1786763654844909,8.570094636110584e-06,0.1786763654844909,-3.362353155117191e-05
0.1794704826644219,8.39246e-07,0.1794704826644219,-1.0149687076851714e-05,0.1794704826644219,-7.589331383896008e-06,0.1794704826644219,-2.035407110487749e-05
0.180264599844353,2.8335545386240205e-06,0.180264599844353,-3.294793028177204e-05,0.180264599844353,-1.5590394238489034e-05,0.180264599844353,4.7969016590168144e-08
0.181058717024284,1.964518702918792e-06,0.181058717024284,-3.94621404817724e-05,0.181058717024284,-8.904996074426941e-06,0.181058717024284,2.321454393631025e-05
0.1818528342042151,-7.43410902302459e-06,0.1818528342042151,-7.29752722982511e-05,0.1818528342042151,-1.0593767475884556e-05,0.1818528342042151,3.821972618856013e-05
0.1826469513841462,-1.1897913034465209e-05,0.1826469513841462,-0.0001208750061756,0.1826469513841462,-1.366566253718904e-05,0.1826469513841462,3.333615377844549e-05
0.1834410685640773,-1.0535416486190318e-05,0.1834410685640773,-0.0001277480422015,0.1834410685640773,-8.316039202928804e-06,0.1834410685640773,1.6780414902593793e-05
0.1842351857440083,-7.080610787156985e-06,0.1842351857440083,-8.704862951686734e-05,0.1842351857440083,8.960190919135482e-07,0.1842351857440083,3.42850656716758e-06
0.1850293029239394,-2.0832631220004437e-06,0.1850293029239394,-4.5343016835272186e-05,0.1850293029239394,1.3418190661366052e-05,0.1850293029239394,-5.5094776609125385e-06
0.1858234201038705,-4.24759112583245e-07,0.1858234201038705,-1.727967967211235e-05,0.1858234201038705,1.8138022932635196e-05,0.1858234201038705,-8.658514525158166e-06
0.1866175372838016,-2.024766433258214e-06,0.1866175372838016,-9.2527639242376e-06,0.1866175372838016,2.3857249494574183e-05,0.1866175372838016,-8.442355469126326e-06
0.1874116544637326,-1.1958969054434308e-05,0.1874116544637326,-4.353254409911824e-06,0.1874116544637326,2.984743913231172e-05,0.1874116544637326,-1.09102e-05
0.1882057716436637,-2.425914181648924e-05,0.1882057716436637,-1.86668954337435e-05,0.1882057716436637,2.0289862147299758e-05,0.1882057716436637,-1.140390151374103e-05
0.1889998888235948,-2.031108141542904e-05,0.1889998888235948,9.225238010165278e-06,0.1889998888235948,1.1917940719643318e-05,0.1889998888235948,-1.560927919040127e-05
0.1897940060035258,-8.9573244469347e-06,0.1897940060035258,9.25000382781717e-05,0.1897940060035258,1.3221102481395904e-05,0.1897940060035258,-1.813679586434016e-05
0.1905881231834569,-8.726050497915468e-06,0.1905881231834569,0.0001362219930701,0.1905881231834569,3.925882028657037e-07,0.1905881231834569,-2.3625450255495592e-05
0.191382240363388,-1.1131284838558333e-05,0.191382240363388,8.59738143461528e-05,0.191382240363388,-1.3769154558842333e-05,0.191382240363388,-2.8758080429878715e-05
0.192176357543319,-1.6454518317222667e-06,0.192176357543319,1.7512213039088625e-06,0.192176357543319,-1.7071868981578497e-05,0.192176357543319,-3.462319671392929e-05
0.1929704747232501,2.9921642724506494e-06,0.1929704747232501,-6.514781455966256e-05,0.1929704747232501,-8.149790728250605e-06,0.1929704747232501,-3.987737005568834e-05
0.1937645919031812,-2.1813644181875736e-06,0.1937645919031812,-0.0001247518166862,0.1937645919031812,3.7616755057806966e-06,0.1937645919031812,-4.5210442509634495e-05
0.1945587090831123,-1.1286066954473636e-05,0.1945587090831123,-0.0001564734213192,0.1945587090831123,-1.7879961349319948e-06,0.1945587090831123,-4.744219315613415e-05
0.1953528262630433,-1.4050022846228687e-05,0.1953528262630433,-0.0002033899946055,0.1953528262630433,-2.7969164532458756e-05,0.1953528262630433,-4.9920083846423534e-05
0.1961469434429744,-1.248971317766243e-05,0.1961469434429744,-0.0002215013322822,0.1961469434429744,-7.436590930383816e-05,0.1961469434429744,-5.845890542129945e-05
0.1969410606229055,-1.42672e-05,0.1969410606229055,-0.0002028207382879,0.1969410606229055,-0.0001156871069647,0.1969410606229055,-6.156521554606849e-05
0.1977351778028366,-1.2727686415292992e-05,0.1977351778028366,-7.401610895896775e-05,0.1977351778028366,-9.425340932018488e-05,0.1977351778028366,-4.811711767391614e-05
0.1985292949827676,-3.761784807461585e-06,0.1985292949827676,0.0001098716875881,0.1985292949827676,-1.9381583789165887e-05,0.1985292949827676,-3.502125196809855e-05
0.1993234121626987,1.2118083344349729e-05,0.1993234121626987,0.0002086952678535,0.1993234121626987,4.786840633519714e-05,0.1993234121626987,-3.6672104305086375e-05
0.2001175293426297,2.3451871508725155e-05,0.2001175293426297,0.0003074621965012,0.2001175293426297,9.198235648945834e-05,0.2001175293426297,-4.169618339197673e-05
0.2009116465225608,2.911807188544403e-05,0.2009116465225608,0.0004188854063164,0.2009116465225608,0.0001131616393318,0.2009116465225608,-2.9548956229111937e-05
0.2017057637024919,3.640355801185848e-05,0.2017057637024919,0.0004255746812193,0.2017057637024919,0.0001200518598964,0.2017057637024919,-1.1107702591960563e-05
0.202499880882423,2.467637431999616e-05,0.202499880882423,0.0004020020819091,0.202499880882423,0.0001435068812413,0.202499880882423,1.0906510159232032e-05
0.203293998062354,-7.44267386645237e-06,0.203293998062354,0.000375208918332,0.203293998062354,0.0001206799758999,0.203293998062354,5.366725873010842e-05
0.2040881152422851,-4.762624839548906e-05,0.2040881152422851,0.0002981225536125,0.2040881152422851,3.999443396228025e-05,0.2040881152422851,9.817879882073111e-05
0.2048822324222162,-5.673343070077571e-05,0.2048822324222162,0.0001484612487074,0.2048822324222162,-2.64324003885112e-05,0.2048822324222162,0.0001090796958321
0.2056763496021472,-4.093308755137149e-05,0.2056763496021472,-2.9387136755713157e-05,0.2056763496021472,-6.942046377711478e-05,0.2056763496021472,9.509960344664592e-05
0.2064704667820783,-3.383764100599582e-05,0.2064704667820783,-0.0001548650219059,0.2064704667820783,-8.528007944227617e-05,0.2064704667820783,7.006307322868756e-05
0.2072645839620094,-3.280000294537729e-05,0.2072645839620094,-0.0002081234085761,0.2072645839620094,-5.325117214347127e-05,0.2072645839620094,3.130158257268351e-05
0.2080587011419405,-2.475196830034842e-05,0.2080587011419405,-0.0002367456681733,0.2080587011419405,-2.0466130729974677e-05,0.2080587011419405,5.5377007250617406e-06
0.2088528183218715,-7.515019626421113e-06,0.2088528183218715,-0.0002407712961932,0.2088528183218715,-8.778270206300985e-06,0.2088528183218715,4.492162055334325e-06
0.2096469355018026,4.766395684048782e-06,0.2096469355018026,-0.0002243344537784,0.2096469355018026,-4.394226576729943e-06,0.2096469355018026,-4.410172934592046e-07
0.2104410526817337,1.3103857672980456e-05,0.2104410526817337,-0.0002092462056521,0.2104410526817337,3.380755526578552e-06,0.2104410526817337,-1.1780588545636e-05
0.2112351698616647,3.1337187329370945e-06,0.2112351698616647,-0.0001850477819731,0.2112351698616647,1.3200199383700218e-05,0.2112351698616647,-6.745038998989599e-06
0.2120292870415958,-1.0752147263839549e-05,0.2120292870415958,-0.0001884299359613,0.2120292870415958,9.42919058643612e-06,0.2120292870415958,-1.0870623929343567e-05
0.2128234042215269,-1.3970385652719034e-05,0.2128234042215269,-0.000216304277098,0.2128234042215269,4.212568496881258e-06,0.2128234042215269,-1.2686948522175226e-05
0.2136175214014579,-1.0810480200394268e-05,0.2136175214014579,-0.0002095709730912,0.2136175214014579,-1.4194122312382683e-05,0.2136175214014579,-1.0692490100197134e-05
0.214411638581389,-1.2490595213287082e-05,0.214411638581389,-0.000162554386446,0.214411638581389,-2.775519814094267e-05,0.214411638581389,-8.50091119667823e-06
0.2152057557613201,-1.7120580407206016e-05,0.2152057557613201,-8.023892148482574e-05,0.2152057557613201,-2.331143732854254e-05,0.2152057557613201,-1.2015919060973951e-05
0.2159998729412512,-1.963826268930065e-05,0.2159998729412512,1.1629411642145225e-06,0.2159998729412512,-1.2254464502041962e-05,0.2159998729412512,-2.567833714869239e-05
0.2167939901211822,-1.565197210423131e-05,0.2167939901211822,1.99741e-05,0.2167939901211822,-7.574203105666648e-06,0.2167939901211822,-4.171048525602745e-05
0.2175881073011133,-5.028489658763093e-06,0.2175881073011133,1.540971427074929e-05,0.2175881073011133,-6.051787854751312e-06,0.2175881073011133,-5.747820173966617e-05
0.2183822244810444,-2.540268433822447e-06,0.2183822244810444,-2.235930376336296e-05,0.2183822244810444,-8.381196307841818e-06,0.2183822244810444,-6.48794068460791e-05
0.2191763416609755,3.1459825384093875e-06,0.2191763416609755,-7.753611486336866e-05,0.2191763416609755,-1.5642791265132528e-05,0.2191763416609755,-6.318168372884575e-05
0.2199704588409065,1.0019451480943184e-05,0.2199704588409065,-0.0001737371198161,0.2199704588409065,-4.190474306258152e-05,0.2199704588409065,-6.673310275330298e-05
0.2207645760208376,1.7604248242018822e-05,0.2207645760208376,-0.000227988410915,0.2207645760208376,-4.770084109397931e-05,0.2207645760208376,-6.817670115113932e-05
0.2215586932007686,1.2627561199004647e-05,0.2215586932007686,-0.0002362779279894,0.2215586932007686,-2.1315195240687795e-05,0.2215586932007686,-6.474028248389621e-05
0.2223528103806997,5.20333e-06,0.2223528103806997,-0.0002207694715373,0.2223528103806997,-1.0515680967089278e-05,0.2223528103806997,-5.800751468384156e-05
0.2231469275606308,1.106721585962673e-05,0.2231469275606308,-0.0001185631263742,0.2231469275606308,5.669716717461052e-06,0.2231469275606308,-4.47914303986724e-05
0.2239410447405619,1.10897041186976e-05,0.2239410447405619,3.2809375322992734e-05,0.2239410447405619,3.296305052816955e-05,0.2239410447405619,-1.804934810683466e-05
0.2247351619204929,7.534021018843828e-06,0.2247351619204929,0.0001704654954208,0.2247351619204929,4.354971006686668e-05,0.2247351619204929,4.123192874986685e-06
0.225529279100424,1.2738795475203305e-06,0.225529279100424,0.0002882694816389,0.225529279100424,5.724623495568163e-05,0.225529279100424,1.434609087148322e-05
0.2263233962803551,-1.022033686803546e-05,0.2263233962803551,0.0003379334977515,0.2263233962803551,6.108393010156757e-05,0.2263233962803551,1.6260957107529465e-05
0.2271175134602862,-1.681647080304699e-05,0.2271175134602862,0.0002569853637668,0.2271175134602862,4.105735470538736e-05,0.2271175134602862,9.861081090850471e-06
0.2279116306402172,-2.603722402376588e-05,0.2279116306402172,0.0001462734810245,0.2279116306402172,2.6746144970292648e-05,0.2279116306402172,1.9044873278054329e-06
0.2287057478201483,-2.662880758517165e-05,0.2287057478201483,7.421131653942347e-05,0.2287057478201483,1.1364990743543735e-05,0.2287057478201483,-8.59963757027254e-06
0.2294998650000794,-2.2996078016709813e-05,0.2294998650000794,2.199720666528202e-05,0.2294998650000794,-2.6009306135641615e-05,0.2294998650000794,-1.1581697252088726e-05
0.2302939821800104,-5.644159129579136e-06,0.2302939821800104,-2.3120300042272758e-05,0.2302939821800104,-7.250741355556202e-05,0.2302939821800104,-1.862660506568504e-05
0.2310880993599415,2.025674012477224e-06,0.2310880993599415,-1.6458387833055493e-05,0.2310880993599415,-8.271969053283587e-05,0.2310880993599415,-3.53909883338617e-05
0.2318822165398726,-2.1037583121065077e-06,0.2318822165398726,1.625879647056491e-05,0.2318822165398726,-4.565714736373472e-05,0.2318822165398726,-4.05216537198686e-05
0.2326763337198036,6.98530324528681e-07,0.2326763337198036,1.7557048795747812e-05,0.2326763337198036,2.296356916600309e-06,0.2326763337198036,-3.812340991753525e-05
0.2334704508997347,1.5300196868710633e-06,0.2334704508997347,-3.09251461658669e-05,0.2334704508997347,3.603947264146999e-05,0.2334704508997347,-3.437034062625787e-05
0.2342645680796658,4.907095669896803e-06,0.2342645680796658,-0.0001060095064252,0.2342645680796658,5.685998349484017e-05,0.2342645680796658,-3.3106249281651146e-05
0.2350586852595969,1.0857385642594963e-06,0.2350586852595969,-0.0001755756489988,0.2350586852595969,6.928273574787299e-05,0.2350586852595969,-2.726033376395667e-05
0.2358528024395279,-9.86228955218531e-06,0.2358528024395279,-0.0001803729500832,0.2358528024395279,7.496883959257169e-05,0.2358528024395279,-1.2926368008043294e-05
0.236646919619459,-2.390101315448078e-05,0.236646919619459,-0.0001405668681815,0.236646919619459,7.239622379632795e-05,0.236646919619459,1.236402596724778e-05
0.2374410367993901,-2.888174940119979e-05,0.2374410367993901,-0.0001057309345084,0.2374410367993901,4.8584469280705815e-05,0.2374410367993901,3.813695767215049e-05
0.2382351539793211,-2.327347877618573e-05,0.2382351539793211,-7.284749693568438e-05,0.2382351539793211,5.846114321960716e-06,0.2382351539793211,4.286155782341072e-05
0.2390292711592522,-2.0941639726703683e-05,0.2390292711592522,-5.0915004131705045e-05,0.2390292711592522,-2.1039931033028945e-05,0.2390292711592522,3.405390102486119e-05
0.2398233883391833,-2.0031577151456237e-05,0.2398233883391833,-1.826851185584875e-05,0.2398233883391833,-2.6074094831357344e-05,0.2398233883391833,2.597578286359217e-05
0.2406175055191144,-9.090121815457394e-06,0.2406175055191144,2.104361978267677e-05,0.2406175055191144,-2.402337972383167e-05,0.2406175055191144,1.717701187976757e-05
0.2414116226990454,-6.072257935633457e-06,0.2414116226990454,3.2010081250556745e-05,0.2414116226990454,-3.96638380690037e-05,0.2414116226990454,2.249354815249847e-07
0.2422057398789765,-6.092083975095532e-06,0.2422057398789765,-1.2849833040174912e-06,0.2422057398789765,-4.398674725117127e-05,0.2422057398789765,-2.264893099829709e-05
0.2429998570589076,1.173292444404927e-06,0.2429998570589076,-5.017774678504978e-05,0.2429998570589076,-2.4342527830392717e-05,0.2429998570589076,-4.716153258974372e-05
0.2437939742388386,1.0058820783339572e-05,0.2437939742388386,-9.748941491229556e-05,0.2437939742388386,8.144483661896929e-06,0.2437939742388386,-6.059039609382446e-05
0.2445880914187697,1.2243790262852796e-05,0.2445880914187697,-0.0001175698023224,0.2445880914187697,3.5328725952066965e-05,0.2445880914187697,-6.584522270349252e-05
0.2453822085987008,9.80831611128924e-06,0.2453822085987008,-0.000140527202606,0.2453822085987008,3.748479872516061e-05,0.2453822085987008,-6.535515422346875e-05
0.2461763257786318,4.060844588577896e-06,0.2461763257786318,-0.0001447504861307,0.2461763257786318,7.090132005879546e-06,0.2461763257786318,-5.941320323087105e-05
0.2469704429585629,2.18204e-06,0.2469704429585629,-0.0001179740264035,0.2469704429585629,-3.159445798781349e-05,0.2469704429585629,-4.37763562212264e-05
0.247764560138494,-7.59256732952921e-07,0.247764560138494,-8.808277741159655e-05,0.247764560138494,-6.78452051654146e-05,0.247764560138494,-1.770632609910288e-05
0.2485586773184251,-1.0555147922571891e-05,0.2485586773184251,-2.9746994050987225e-05,0.2485586773184251,-0.0001134975972475,0.2485586773184251,1.2194942592546585e-05
0.2493527944983561,-1.2292874669701126e-05,0.2493527944983561,3.2209651775594755e-05,0.2493527944983561,-0.0001114444828486,0.2493527944983561,3.73196340840076e-05
0.2501469116782872,-8.857411584323996e-06,0.2501469116782872,3.5553993142151386e-05,0.2501469116782872,-7.665681584323996e-05,0.2501469116782872,4.876436828388194e-05
0.2509410288582183,-1.6942150291561052e-06,0.2509410288582183,2.038655916419379e-06,0.2509410288582183,-3.740946806087866e-05,0.2509410288582183,4.499927851675071e-05
0.2517351460381494,8.519476788842061e-06,0.2517351460381494,-3.455781278566568e-05,0.2517351460381494,3.910647205363382e-05,0.2517351460381494,2.862813041797668e-05
0.2525292632180804,1.8665141073260972e-06,0.2525292632180804,-1.0705293502458892e-05,0.2525292632180804,0.0001014485882403,0.2525292632180804,1.7189920523246208e-05
0.2533233803980115,-6.922564952235137e-06,0.2533233803980115,8.247006531414494e-05,0.2533233803980115,0.000128110077775,0.2533233803980115,1.2310570450653652e-05
0.2541174975779426,-1.409138597827805e-05,0.2541174975779426,0.000230061209563,0.2541174975779426,0.000127276884696,0.2541174975779426,8.481615535119701e-06
0.2549116147578736,-2.824986607859269e-05,0.2549116147578736,0.0003555933719213,0.2549116147578736,0.0001158238629591,0.2549116147578736,1.9896285210511716e-05
0.2557057319378047,-3.818093017392198e-05,0.2557057319378047,0.0003813470685425,0.2557057319378047,8.148799978058566e-05,0.2557057319378047,2.845526982607802e-05
0.2564998491177358,-3.105394778968554e-05,0.2564998491177358,0.0003133926642721,0.2564998491177358,3.0558110633637764e-05,0.2564998491177358,2.5682258685075516e-05
0.2572939662976669,-2.4182453906406124e-05,0.2572939662976669,0.0001556722310793,0.2572939662976669,-7.285442520261629e-06,0.2572939662976669,8.478532889627906e-06
0.2580880834775979,-1.5495150742827546e-05,0.2580880834775979,5.193985666443024e-06,0.2580880834775979,-3.727815604974998e-05,0.2580880834775979,-1.3466703719335842e-05
0.258882200657529,-1.14250824883226e-05,0.258882200657529,-6.905904468680477e-05,0.258882200657529,-5.69235649766452e-05,0.258882200657529,-3.356878133758048e-05
0.2596763178374601,-8.029721206167307e-06,0.2596763178374601,-0.0001147259766586,0.2596763178374601,-4.819985116992917e-05,0.2596763178374601,-5.240674634654245e-05
0.2604704350173911,-5.53903e-06,0.2604704350173911,-0.0001491228153811,0.2604704350173911,-4.773689881409328e-05,0.2604704350173911,-7.626466448254633e-05
0.2612645521973222,-4.216252757420067e-06,0.2612645521973222,-0.0001751059927205,0.2612645521973222,-4.290278726931475e-05,0.2612645521973222,-9.067804819465806e-05
0.2620586693772533,-2.241232839071358e-06,0.2620586693772533,-0.0001831411328835,0.2620586693772533,-1.981542481580285e-05,0.2620586693772533,-8.764680358601791e-05
0.2628527865571843,-1.5699157556486147e-06,0.2628527865571843,-0.0002103516153131,0.2628527865571843,-6.15232287346051e-06,0.2628527865571843,-8.488245151129723e-05
0.2636469037371154,1.7858637504028016e-06,0.2636469037371154,-0.0002588939577559,0.2636469037371154,6.028996071057645e-06,0.2636469037371154,-7.949436944850946e-05
0.2644410209170465,7.37154025838342e-06,0.2644410209170465,-0.0002511468595573,0.2644410209170465,1.458339264117737e-05,0.2644410209170465,-6.466916451767582e-05
0.2652351380969776,1.74632828840174e-05,0.2652351380969776,-0.0001956844771461,0.2652351380969776,2.0681048422906988e-05,0.2652351380969776,-4.480191065644953e-05
0.2660292552769086,1.780242717543334e-05,0.2660292552769086,-0.0001625266119786,0.2660292552769086,4.6078389540166936e-05,0.2660292552769086,-1.8454927242852293e-05
0.2668233724568397,3.815093202216008e-07,0.2668233724568397,-0.0001438222659845,0.2668233724568397,5.132799825218544e-05,0.2668233724568397,1.409588145327419e-05
0.2676174896367708,-1.6976077035919034e-05,0.2676174896367708,-8.452600896062916e-05,0.2676174896367708,1.9293089928204657e-05,0.2676174896367708,4.909911034773164e-05
0.2684116068167018,-3.358100880093918e-05,0.2684116068167018,-2.3163331007029188e-05,0.2684116068167018,-2.1162558455090997e-05,0.2684116068167018,7.309516171761196e-05
0.2692057239966329,-3.0302778584206725e-05,0.2692057239966329,2.694354427377944e-05,0.2692057239966329,-4.31373e-05,0.2692057239966329,7.94919055253443e-05
0.269999841176564,-1.0913861255105226e-05,0.269999841176564,0.0001043849982724,0.269999841176564,-3.374090359821708e-05,0.269999841176564,6.395460446368905e-05
0.270793958356495,-8.737036821061124e-06,0.270793958356495,0.0001407764972425,0.270793958356495,-2.560144720130391e-05,0.270793958356495,3.8407038011585456e-05
0.2715880755364261,-8.661610329691062e-06,0.2715880755364261,0.0001216518374899,0.2715880755364261,-3.574705156737743e-05,0.2715880755364261,1.1494859623084577e-05
0.2723821927163572,-1.0802822369076909e-06,0.2723821927163572,7.906370763134776e-05,0.2723821927163572,-3.865897225641156e-05,0.2723821927163572,-5.320699769282103e-06
0.2731763098962882,3.2865565142423933e-06,0.2731763098962882,6.532218422620006e-06,0.2731763098962882,-3.400575079542255e-05,0.2731763098962882,-3.449124601626889e-06
0.2739704270762193,3.7717686593489e-06,0.2739704270762193,-6.049187039599701e-05,0.2739704270762193,-2.9712714417862586e-05,0.2739704270762193,-1.213634494701058e-06
0.2747645442561504,2.073690378188913e-06,0.2747645442561504,-3.930184942936673e-05,0.2747645442561504,-2.119787573627107e-05,0.2747645442561504,-6.269290888301553e-06
0.2755586614360815,-8.890292923532508e-08,0.2755586614360815,7.747639691598603e-05,0.2755586614360815,-2.820874185075048e-05,0.2755586614360815,-6.921293358741695e-06
0.2763527786160125,-3.396290420865272e-06,0.2763527786160125,0.0001945801093718,0.2763527786160125,-3.063778622155479e-05,0.2763527786160125,-8.83609186448671e-06
0.2771468957959436,-2.004556713876482e-06,0.2771468957959436,0.000176368865557,0.2771468957959436,-2.856461123700395e-05,0.2771468957959436,-1.545042190749012e-05
0.2779410129758747,-3.031040812904451e-06,0.2779410129758747,5.234750027816398e-05,0.2779410129758747,-2.173885703497507e-05,0.2779410129758747,-2.2989088553505935e-05
0.2787351301558057,-1.3932856730751112e-06,0.2787351301558057,-5.191473664723851e-05,0.2787351301558057,-3.786838554022636e-06,0.2787351301558057,-3.592657419050605e-05
0.2795292473357368,8.00665681530228e-06,0.2795292473357368,-0.0001181608198637,0.2795292473357368,1.2222429522207756e-05,0.2795292473357368,-4.467705172481218e-05
0.2803233645156679,1.6854437063602708e-05,0.2803233645156679,-0.0001724588014083,0.2803233645156679,3.050253357242438e-05,0.2803233645156679,-4.724365734099323e-05
0.2811174816955989,1.61818521908054e-05,0.2811174816955989,-0.0002158994281917,0.2811174816955989,5.141623988106656e-05,0.2811174816955989,-3.9738627451114535e-05
0.2819115988755301,1.535313779022291e-05,0.2819115988755301,-0.0001951817944295,0.2819115988755301,6.786111073723287e-05,0.2819115988755301,-3.555437926340764e-05
0.2827057160554611,1.207570088030319e-05,0.2827057160554611,-9.535434575416442e-05,0.2827057160554611,5.038671807225356e-05,0.2827057160554611,-3.583109897008648e-05
0.2834998332353922,8.422493604449528e-07,0.2834998332353922,6.533293891841703e-07,0.2834998332353922,1.729474698073596e-05,0.2834998332353922,-3.0382141619197467e-05
0.2842939504153233,-1.0237090065851374e-05,0.2842939504153233,1.7910926287019878e-05,0.2842939504153233,1.2429695208860564e-05,0.2842939504153233,-2.4507712881451523e-05
0.2850880675952543,-7.594744771156526e-06,0.2850880675952543,2.348658677035669e-05,0.2850880675952543,1.6653684768320024e-05,0.2850880675952543,-2.54025795545053e-05
0.2858821847751854,-4.023399359406965e-06,0.2858821847751854,2.20686615373466e-05,0.2858821847751854,2.2855189559459465e-05,0.2858821847751854,-2.8109035823783784e-05
0.2866763019551165,4.11207842234864e-06,0.2866763019551165,4.611080255125424e-06,0.2866763019551165,2.406197453576692e-05,0.2866763019551165,-3.1739580106563855e-05
0.2874704191350475,3.3508295156595123e-06,0.2874704191350475,1.8220610565781004e-05,0.2874704191350475,2.457361872413795e-05,0.2874704191350475,-3.792250364425488e-05
0.2882645363149786,-1.0355802350171756e-05,0.2882645363149786,3.4785032946738e-05,0.2882645363149786,3.030179154305081e-05,0.2882645363149786,-3.7332091733955977e-05
0.2890586534949096,-1.9371874492323805e-05,0.2890586534949096,2.6808575719366628e-05,0.2890586534949096,2.11982816657993e-05,0.2890586534949096,-3.449793791524618e-05
0.2898527706748408,-2.583807022675368e-05,0.2898527706748408,1.5957155256417653e-05,0.2898527706748408,2.283357615321009e-06,0.2898527706748408,-2.514942252381728e-05
0.2906468878547718,-2.402450483640598e-05,0.2906468878547718,-1.8967240134739797e-05,0.2906468878547718,-1.1954371014811636e-05,0.2906468878547718,-1.5098235422647163e-05
0.2914410050347029,-1.7113036964843438e-05,0.2914410050347029,-7.402536043893695e-05,0.2914410050347029,-9.831571046391698e-06,0.2914410050347029,-1.1995283571180692e-05
0.292235122214634,-1.324101779010622e-05,0.292235122214634,-0.0001050182891685,0.292235122214634,3.601164026938376e-06,0.292235122214634,-1.6082101077207896e-05
0.293029239394565,-1.3102162951168486e-05,0.293029239394565,-8.83153754557694e-05,0.293029239394565,-3.444187822675376e-06,0.293029239394565,-1.687416656051637e-05
0.2938233565744961,-1.2668299816327104e-05,0.2938233565744961,-4.012938931711096e-05,0.2938233565744961,-2.947347108746462e-05,0.2938233565744961,-9.052234398133672e-06
0.2946174737544272,-1.845526239074368e-05,0.2946174737544272,1.7273167607934993e-05,0.2946174737544272,-2.728780055084732e-05,0.2946174737544272,2.994517197842112e-06
0.2954115909343582,-2.086253998568546e-05,0.2954115909343582,5.765627600656505e-05,0.2954115909343582,-8.61776588976933e-06,0.2954115909343582,1.341856503936498e-05
0.2962057081142893,-1.6755411122722954e-05,0.2962057081142893,8.487499715792798e-05,0.2962057081142893,1.8274025900500604e-05,0.2962057081142893,1.8078055509108197e-05
0.2969998252942204,-1.896599315484635e-05,0.2969998252942204,0.0001314150952287,0.2969998252942204,3.8098276041962224e-05,0.2969998252942204,2.2490856101413708e-05
0.2977939424741515,-2.1613710598988104e-05,0.2977939424741515,0.0001219356822316,0.2977939424741515,4.2052480147449696e-05,0.2977939424741515,2.2581950672712955e-05
0.2985880596540825,-1.12326878536175e-05,0.2985880596540825,3.730830135023175e-05,0.2985880596540825,3.496587433036243e-05,0.2985880596540825,1.3720516488626008e-05
0.2993821768340136,-2.908859458596032e-06,0.2993821768340136,-0.0001011305677207,0.2993821768340136,2.1570964766504267e-05,0.2993821768340136,1.8919474681345032e-06
0.3001762940139447,-1.277769713766217e-05,0.3001762940139447,-0.0002645978912809,0.3001762940139447,-2.8201303897178608e-06,0.3001762940139447,-6.166860471876672e-06
0.3009704111938757,-2.0842333719640035e-05,0.3009704111938757,-0.0003476386997651,0.3009704111938757,-4.277129416667612e-06,0.3009704111938757,-8.757143719640036e-06
0.3017645283738068,-1.9530767165143133e-05,0.3017645283738068,-0.0003109528644621,0.3017645283738068,-1.3295894154294223e-05,0.3017645283738068,-1.3673249252285298e-05
0.3025586455537379,-1.0604137748529545e-05,0.3025586455537379,-0.000201925548407,0.3025586455537379,-2.970928152822954e-05,0.3025586455537379,-2.6510254102321797e-05
0.3033527627336689,-1.2749748847097332e-06,0.3033527627336689,-6.76268910303611e-05,0.3033527627336689,-8.900430099318185e-06,0.3033527627336689,-4.295718014070718e-05
0.3041468799136,4.89647473694778e-06,0.3041468799136,5.591319887456124e-05,0.3041468799136,8.490082662091673e-06,0.3041468799136,-5.130272701614313e-05
0.3049409970935311,2.945513583314094e-06,0.3049409970935311,0.0001364079923732,0.3049409970935311,9.036808982767808e-06,0.3049409970935311,-4.6994561651507954e-05
0.3057351142734621,-3.4442131178679424e-06,0.3057351142734621,0.0002221502614266,0.3057351142734621,-1.3083570796598496e-06,0.3057351142734621,-3.2359704205941206e-05
0.3065292314533932,-9.97942863686632e-07,0.3065292314533932,0.0002264822660317,0.3065292314533932,-1.802815309291536e-05,0.3065292314533932,-2.1969177123570408e-05
0.3073233486333243,5.993365648957005e-06,0.3073233486333243,0.0001179146400133,0.3073233486333243,-2.2383222824478503e-05,0.3073233486333243,-1.3752145277568007e-05
0.3081174658132554,5.953460328989968e-06,0.3081174658132554,4.901174506545629e-05,0.3081174658132554,-2.7252756586436706e-05,0.3081174658132554,-4.668669628383386e-06
0.3089115829931864,3.2680080718105115e-06,0.3089115829931864,3.8339128235189686e-05,0.3089115829931864,-3.53174159471914e-05,0.3089115829931864,1.091872914631321e-07
0.3097057001731175,-5.340066820841358e-06,0.3097057001731175,6.37475267940918e-05,0.3097057001731175,-3.432904022937215e-05,0.3097057001731175,1.6378475298983973e-05
0.3104998173530486,-2.0306905320182737e-05,0.3104998173530486,7.737649162256854e-05,0.3104998173530486,-5.79008949160068e-05,0.3104998173530486,3.004289477831472e-05
0.3112939345329796,-1.5415786363830162e-05,0.3112939345329796,3.760762283042511e-05,0.3112939345329796,-8.436070787829693e-05,0.3112939345329796,2.073053840270512e-05
0.3120880517129107,-8.46399802220198e-06,0.3120880517129107,-0.0001376075064763,0.3120880517129107,-8.74597227190326e-05,0.3120880517129107,-4.300504855983488e-06
0.3128821688928418,-3.625892489735333e-06,0.3128821688928418,-0.0003682422275388,0.3128821688928418,-5.395167019660495e-05,0.3128821688928418,-2.683453432839108e-05
0.3136762860727728,-4.657772884665314e-07,0.3136762860727728,-0.0004350269320166,0.3136762860727728,-9.71002532854065e-06,0.3136762860727728,-4.400543657061544e-05
0.314470403252704,4.20403185685792e-06,0.314470403252704,-0.0003525308878698,0.314470403252704,8.51798117394917e-06,0.314470403252704,-5.944391038337856e-05
0.315264520432635,8.659318953419035e-06,0.315264520432635,-0.0002129862859869,0.315264520432635,2.348266758465041e-05,0.315264520432635,-5.956948953419035e-05
0.3160586376125661,3.465692532452025e-06,0.3160586376125661,-2.8539296002269427e-05,0.3160586376125661,7.273727780598543e-05,0.3160586376125661,-4.017548761685787e-05
0.3168527547924971,-6.188831729423736e-06,0.3168527547924971,0.0001519369295758,0.3168527547924971,0.0001099966614499,0.3168527547924971,-1.6818863515996972e-05
0.3176468719724282,-2.115409953482801e-05,0.3176468719724282,0.0002780455664891,0.3176468719724282,0.0001204276512478,0.3176468719724282,9.462299129097882e-06
0.3184409891523593,-2.9514455732322057e-05,0.3184409891523593,0.0003538478860476,0.3184409891523593,0.000110718969036,0.3184409891523593,2.877567296212368e-05
0.3192351063322903,-2.4043493000538952e-05,0.3192351063322903,0.0003419551270602,0.3192351063322903,9.077449091818056e-05,0.3192351063322903,3.464659766684632e-05
0.3200292235122214,-2.635189118481536e-05,0.3200292235122214,0.0002553914378339,0.3200292235122214,6.559107882139231e-05,0.3200292235122214,2.518818611030425e-05
0.3208233406921525,-2.722056316986097e-05,0.3208233406921525,0.0001476256291313,0.3208233406921525,5.387770501909364e-05,0.3208233406921525,1.6072508207606956e-05
0.3216174578720835,-2.204634724559725e-05,0.3216174578720835,6.107022315875112e-05,0.3216174578720835,3.4680700068367324e-05,0.3216174578720835,-8.536070676179242e-07
0.3224115750520147,-1.1186038669860556e-05,0.3224115750520147,-3.572230283170712e-06,0.3224115750520147,2.1207795072732625e-06,0.3224115750520147,-1.568944952571761e-05
0.3232056922319457,-3.367118076562153e-06,0.3232056922319457,-4.122186461959639e-05,0.3232056922319457,-2.009216378088918e-05,0.3232056922319457,-1.928242972611148e-05
0.3239998094118768,-7.215460552182937e-06,0.3239998094118768,-7.820777630777326e-05,0.3239998094118768,-2.2994888149699375e-05,0.3239998094118768,-2.735706599076902e-05
0.3247939265918079,-6.016296463404852e-06,0.3247939265918079,-0.0001363649635433,0.3247939265918079,-3.977272265285329e-05,0.3247939265918079,-2.8486765258152167e-05
0.3255880437717389,1.2530073682917662e-06,0.3255880437717389,-0.0001958926133981,0.3255880437717389,-5.83893100269538e-05,0.3255880437717389,-1.8618331888600255e-05
0.32638216095167,-1.1447429823665086e-08,0.32638216095167,-0.0002283419053321,0.32638216095167,-8.414110759945476e-05,0.32638216095167,-2.9908039364237584e-06
0.3271762781316011,2.2793732083990143e-06,0.3271762781316011,-0.0002271578651563,0.3271762781316011,-8.759345413961712e-05,0.3271762781316011,2.7260099273259613e-05
0.3279703953115321,-1.7846376793847012e-06,0.3279703953115321,-0.0002194221341492,0.3279703953115321,-6.972295851771127e-05,0.3279703953115321,5.225331721415631e-05
0.3287645124914632,-4.788738705184106e-06,0.3287645124914632,-0.0001959741590809,0.3287645124914632,-5.479096986070726e-05,0.3287645124914632,5.917355669331389e-05
0.3295586296713942,-2.4783268856577127e-06,0.3295586296713942,-0.0001429777999775,0.3295586296713942,-3.450831895950941e-05,0.3295586296713942,4.222941895950941e-05
0.3303527468513254,2.043419294536993e-06,0.3303527468513254,-9.221481708905304e-05,0.3303527468513254,-1.702453718842928e-05,0.3303527468513254,1.922749155500653e-05
0.3311468640312564,2.636039258694138e-06,0.3311468640312564,-2.878286473544165e-05,0.3311468640312564,2.6298129105488674e-06,0.3311468640312564,-5.916501616018428e-06
0.3319409812111875,3.8994873875081365e-06,0.3319409812111875,5.406116040344248e-05,0.3319409812111875,2.128829109147324e-05,0.3319409812111875,-2.015397044996745e-05
0.3327350983911186,4.275401609659847e-06,0.3327350983911186,9.934954128308918e-05,0.3327350983911186,3.9675880100544745e-05,0.3327350983911186,-1.3776274144897702e-05
0.3335292155710496,7.315854502690623e-06,0.3335292155710496,7.360525373385542e-05,0.3335292155710496,3.794580396556287e-05,0.3335292155710496,-1.005160191967446e-05
0.3343233327509807,4.688498345985356e-06,0.3343233327509807,3.758262101263228e-05,0.3343233327509807,1.065040974630788e-05,0.3343233327509807,-5.81541038374097e-06
0.3351174499309118,-5.728476146491858e-06,0.3351174499309118,-2.889626361947498e-05,0.3351174499309118,-9.807519037851975e-06,0.3351174499309118,-1.442855460368742e-05
0.3359115671108428,-3.899753720952055e-06,0.3359115671108428,-7.805415129627145e-05,0.3359115671108428,-1.3496819759162237e-05,0.3359115671108428,-3.988014676347701e-05
0.3367056842907739,4.83713271506706e-07,0.3367056842907739,-7.572045985968089e-05,0.3367056842907739,5.31937230530315e-06,0.3367056842907739,-5.83017220315458e-05
0.337499801470705,-1.677417372632865e-06,0.337499801470705,-0.0001015389837571,0.337499801470705,1.997209775111447e-05,0.337499801470705,-6.797689779371733e-05
0.338293918650636,-1.5319914631874422e-06,0.338293918650636,-0.0002061546087032,0.338293918650636,9.988503031944171e-06,0.338293918650636,-7.441346942632463e-05
0.3390880358305671,4.421276932754166e-06,0.3390880358305671,-0.0003128281665763,0.3390880358305671,-7.80019956319994e-06,0.3390880358305671,-7.613726009700548e-05
0.3398821530104982,9.586302027218172e-07,0.3398821530104982,-0.0002618558362003,0.3398821530104982,-1.955208845396321e-05,0.3398821530104982,-6.666583714988125e-05
0.3406762701904293,-1.3538064213269174e-05,0.3406762701904293,-0.0001183185834242,0.3406762701904293,-8.788933844927195e-06,0.3406762701904293,-5.151992772111745e-05
0.3414703873703603,-8.506352073673742e-06,0.3414703873703603,-7.007366742833458e-06,0.3414703873703603,1.83224261159597e-05,0.3414703873703603,-3.307410135661215e-05
0.3422645045502914,1.8060222429554345e-06,0.3422645045502914,7.957874106839021e-05,0.3422645045502914,4.37482033904272e-05,0.3422645045502914,-2.082342885179038e-05
0.3430586217302225,4.80833396668189e-06,0.3430586217302225,0.0001888886030309,0.3430586217302225,4.430251686771501e-05,0.3430586217302225,-1.9203981649437768e-05
0.3438527389101535,6.743176362482079e-06,0.3438527389101535,0.00027893396157,0.3438527389101535,6.118124816854391e-05,0.3438527389101535,-9.727874760114412e-06
0.3446468560900846,7.849124274558399e-07,0.3446468560900846,0.0003642003317601,0.3446468560900846,7.201051006343235e-05,0.3446468560900846,6.04735109822461e-06
0.3454409732700157,-1.5902094411105698e-05,0.3454409732700157,0.0003860018759449,0.3454409732700157,5.608304144960728e-05,0.3454409732700157,1.8473139380721805e-05
0.3462350904499467,-2.1928036933885503e-05,0.3462350904499467,0.0003173193273494,0.3462350904499467,2.843633050077436e-05,0.3462350904499467,1.529650529482262e-05
0.3470292076298778,-2.4022271668025805e-05,0.3470292076298778,0.0002116733121823,0.3470292076298778,-5.811939237106272e-06,0.3470292076298778,6.5863923332140505e-06
0.3478233248098089,-1.8314637714203047e-05,0.3478233248098089,0.0001199422933209,0.3478233248098089,-3.125124722097462e-05,0.3478233248098089,2.9519173506192896e-06
0.34861744198974,-1.6163237909391732e-05,0.34861744198974,5.745743753846771e-05,0.34861744198974,-4.4956289735111474e-05,0.34861744198974,-2.0057066206119296e-06
0.349411559169671,-1.6557815856952398e-05,0.349411559169671,-1.954863511966098e-05,0.349411559169671,-5.1194e-05,0.349411559169671,-8.32354276072131e-06
0.3502056763496021,-1.3379156440746423e-05,0.3502056763496021,-7.327030426660369e-05,0.3502056763496021,-4.27039422742562e-05,0.3502056763496021,-1.620094465142581e-05
0.3509997935295332,-9.903694953954489e-06,0.3509997935295332,-9.88570567676396e-05,0.3509997935295332,-3.54175386463976e-05,0.3509997935295332,-2.7021320228489018e-05
0.3517939107094642,-1.1560212636924854e-05,0.3517939107094642,-0.0001604588863729,0.3517939107094642,-2.718683171252189e-05,0.3517939107094642,-3.14052037670355e-05
0.3525880278893953,-1.1524406764170644e-05,0.3525880278893953,-0.0002419157907827,0.3525880278893953,-1.944060981176348e-05,0.3525880278893953,-3.9517196235269606e-05
0.3533821450693264,-5.7022621201159125e-06,0.3533821450693264,-0.000280572611108,0.3533821450693264,-2.6560413875577093e-05,0.3533821450693264,-4.872339667957919e-05
0.3541762622492574,-4.65863098672915e-07,0.3541762622492574,-0.0002731261720955,0.3541762622492574,-3.66853696359103e-05,0.3541762622492574,-4.938841986506968e-05
0.3549703794291886,-1.1556664581960558e-06,0.3549703794291886,-0.0002253001730616,0.3549703794291886,-3.153073285928727e-05,0.3549703794291886,-4.58344637577938e-05
0.3557644966091196,1.312523710534537e-06,0.3557644966091196,-0.0001365521988402,0.3557644966091196,-1.6404330710284116e-05,0.3557644966091196,-4.130194979080308e-05
0.3565586137890507,7.592345605055843e-06,0.3565586137890507,-3.923990176533632e-05,0.3565586137890507,9.60572191640436e-06,0.3565586137890507,-3.370844875576917e-05
0.3573527309689818,1.6892575218461845e-05,0.3573527309689818,2.319405354597166e-05,0.3573527309689818,2.7673167152137432e-05,0.3573527309689818,-2.1596055733154875e-05
0.3581468481489128,1.383568310999858e-05,0.3581468481489128,1.2550879053824376e-05,0.3581468481489128,3.776112109492189e-05,0.3581468481489128,-6.077934915518183e-06
0.3589409653288439,3.0381516264319e-06,0.3589409653288439,-7.260311586620047e-05,0.3589409653288439,5.4563378635258535e-05,0.3589409653288439,1.0409247920892932e-05
0.3597350825087749,-1.0510979952427255e-05,0.3597350825087749,-0.0002172746390783,0.3597350825087749,6.589340670627815e-05,0.3597350825087749,2.3120308399785577e-05
0.360529199688706,-2.5362823210272663e-05,0.360529199688706,-0.0003551017182981,0.360529199688706,5.7357055086995566e-05,0.360529199688706,2.637218310944797e-05
0.3613233168686371,-4.075774119690092e-05,0.3613233168686371,-0.0003747392311482,0.3613233168686371,3.185822116651889e-05,0.3613233168686371,2.4436600233463652e-05
0.3621174340485681,-3.276741119126356e-05,0.3621174340485681,-0.0002792031111321,0.3621174340485681,2.5331437537200747e-06,0.3621174340485681,2.2738386193099637e-05
0.3629115512284993,-2.2422568120140284e-05,0.3629115512284993,-0.0001067823111067,0.3629115512284993,-8.72829211169172e-06,0.3629115512284993,1.6419345906817976e-05
0.3637056684084303,-1.8414708037869725e-05,0.3637056684084303,8.701773103861346e-05,0.3637056684084303,-1.2479207474097591e-05,0.3637056684084303,2.006334322891345e-06
0.3644997855883614,-1.5945854459199746e-05,0.3644997855883614,0.000288476971223,0.3644997855883614,-2.466955239501253e-05,0.3644997855883614,-1.09074197482079e-05
0.3652939027682925,-1.3843223649137526e-05,0.3652939027682925,0.000423254783402,0.3652939027682925,-3.3589251707172615e-05,0.3652939027682925,-1.073367678155069e-05
0.3660880199482235,-1.2648591842500448e-05,0.3660880199482235,0.0003822733515085,0.3660880199482235,-2.724514697625292e-05,0.3660880199482235,-1.051460815749955e-05
0.3668821371281546,-1.0675700081381223e-05,0.3668821371281546,0.0002830834126246,0.3668821371281546,-2.1281300797611447e-05,0.3668821371281546,-9.2742848106667e-06
0.3676762543080857,-6.963380244576143e-06,0.3676762543080857,0.0001433992217407,0.3676762543080857,-1.6668848711924873e-05,0.3676762543080857,-8.568163045474164e-06
0.3684703714880167,-2.498474727350975e-06,0.3684703714880167,4.054336106093685e-05,0.3684703714880167,-7.974167316388085e-06,0.3684703714880167,-1.762010481751671e-05
0.3692644886679478,-2.6956917346348548e-06,0.3692644886679478,3.6834235277992665e-05,0.3692644886679478,7.235779025788982e-06,0.3692644886679478,-2.1179355203904564e-05
0.3700586058478789,1.6090194526416876e-06,0.3700586058478789,5.121579407321023e-05,0.3700586058478789,6.783440547358312e-06,0.3700586058478789,-1.7111014483734276e-05
0.3708527230278099,2.992125968789316e-06,0.3708527230278099,2.105428033335571e-05,0.3708527230278099,-1.477572869146739e-07,0.3708527230278099,-1.5284313727300843e-05
0.371646840207741,1.0183698105631632e-06,0.371646840207741,1.5135216593378629e-05,0.371646840207741,-3.24422189436837e-07,0.371646840207741,-1.4820317940346966e-05
0.3724409573876721,-5.307939766523384e-06,0.3724409573876721,6.843427473671035e-05,0.3724409573876721,-5.616875399122924e-06,0.3724409573876721,-1.0834829576902164e-05
0.3732350745676032,-9.350493157689722e-06,0.3732350745676032,9.947167977759004e-05,0.3732350745676032,-9.446916999898237e-06,0.3732350745676032,-4.957993429533752e-06
0.3740291917475342,5.806220239454353e-07,0.3740291917475342,5.678120246759257e-05,0.3740291917475342,-1.4129191826305264e-05,0.3740291917475342,-5.103852541963551e-06
0.3748233089274653,1.2628830651075552e-05,0.3748233089274653,5.374357761698406e-07,0.3748233089274653,-1.4691573131048804e-06,0.3748233089274653,-1.2411719092921478e-05
0.3756174261073964,1.7130904681745974e-05,0.3756174261073964,-3.917807504248465e-05,0.3756174261073964,1.4525723411925489e-05,0.3756174261073964,-1.9540712874801435e-05
0.3764115432873274,1.2628093945035995e-05,0.3764115432873274,-6.075315170811496e-05,0.3764115432873274,1.4533769716004902e-05,0.3764115432873274,-2.6411675770968906e-05
0.3772056604672585,5.6389652289685375e-06,0.3772056604672585,-0.0001138858668852,0.3772056604672585,2.230347101621534e-05,0.3772056604672585,-2.7596439959443685e-05
0.3779997776471896,-5.535506056276305e-06,0.3779997776471896,-0.0002347823118962,0.3779997776471896,1.578204474377939e-05,0.3779997776471896,-3.004371856071336e-05
0.3787938948271206,-1.2803951285409069e-05,0.3787938948271206,-0.0003652698800954,0.3787938948271206,-9.931391100146831e-06,0.3787938948271206,-3.679563221526724e-05
0.3795880120070517,-2.050193245392604e-05,0.3795880120070517,-0.0004741510656974,0.3795880120070517,-2.4122206617055747e-05,0.3795880120070517,-4.3844842379509655e-05
0.3803821291869828,-2.6414455534428045e-05,0.3803821291869828,-0.0004727649042961,0.3803821291869828,-9.995416602057188e-06,0.3803821291869828,-4.241789991850818e-05
0.3811762463669139,-1.881647385660288e-05,0.3811762463669139,-0.0003508194131215,0.3811762463669139,1.4290400657822084e-06,0.3811762463669139,-2.529828116457385e-05
0.3819703635468449,-1.0833189961864113e-05,0.3819703635468449,-0.0001852285722811,0.3819703635468449,6.107861618465068e-06,0.3819703635468449,-9.69131843004777e-06
0.382764480726776,-9.094201877542887e-06,0.382764480726776,-3.855658065226308e-05,0.382764480726776,1.6023538166870045e-05,0.382764480726776,-8.796974029717296e-07
0.3835585979067071,-5.0258897585514734e-06,0.3835585979067071,0.0001286122485999,0.3835585979067071,1.71997301739219e-05,0.3835585979067071,4.965940067526626e-06
0.3843527150866381,-4.077626891579415e-06,0.3843527150866381,0.0003335353071066,0.3843527150866381,2.4018438969050745e-05,0.3843527150866381,2.036491353295484e-05
0.3851468322665692,-3.2787163800368444e-06,0.3851468322665692,0.0004933012307703,0.3851468322665692,4.5067943953320085e-05,0.3851468322665692,3.490133428647541e-05
0.3859409494465003,-2.279318228938383e-06,0.3859409494465003,0.0005017003865136,0.3859409494465003,4.001412737872125e-05,0.3859409494465003,3.049041183406716e-05
0.3867350666264313,-4.373541014991475e-06,0.3867350666264313,0.0003630782977684,0.3867350666264313,1.0958578459512748e-05,0.3867350666264313,5.293044173880574e-06
0.3875291838063624,-5.854819304192419e-06,0.3875291838063624,0.0001377826279971,0.3875291838063624,9.940226005068172e-06,0.3875291838063624,-1.4009074049865502e-05
0.3883233009862935,-7.000397000423757e-06,0.3883233009862935,-4.6311369822922494e-05,0.3883233009862935,2.5898022999576244e-05,0.3883233009862935,-2.780566392821504e-05
0.3891174181662246,-9.034688360916706e-06,0.3891174181662246,-0.0001226851096311,0.3891174181662246,1.082682065445284e-05,0.3891174181662246,-4.979514389752257e-05
0.3899115353461556,-1.6459156238596272e-05,0.3899115353461556,-0.0001459211807554,0.3899115353461556,-1.817718734967524e-05,0.3899115353461556,-5.828322410737887e-05
0.3907056525260867,-1.699391384914749e-05,0.3907056525260867,-0.0001454355175285,0.3907056525260867,-1.4230222343706615e-05,0.3907056525260867,-5.974407153771313e-05
0.3914997697060178,-4.871279798857187e-06,0.3914997697060178,-0.0001129755121959,0.3914997697060178,-4.197557200033698e-06,0.3914997697060178,-6.27746875712889e-05
0.3922938868859488,4.527652276535104e-06,0.3922938868859488,-4.470747120551632e-05,0.3922938868859488,-2.918433565916368e-05,0.3922938868859488,-5.862241551272576e-05
0.3930880040658799,1.575117802273709e-05,0.3930880040658799,1.532129696237642e-06,0.3930880040658799,-3.2598432970997246e-05,0.3930880040658799,-4.564549585003916e-05
0.393882121245811,2.4712872047782266e-05,0.393882121245811,1.750616491546239e-05,0.393882121245811,-3.25049409556453e-05,0.393882121245811,-2.5460829727687e-05
0.394676238425742,2.1420546158930745e-05,0.394676238425742,-1.1527738375239475e-05,0.394676238425742,-3.4020224823292574e-05,0.394676238425742,-6.794411533682758e-08
0.3954703556056732,1.1485388050976742e-05,0.3954703556056732,-9.723912839760174e-05,0.3954703556056732,-2.129765761019535e-05,0.3954703556056732,3.794560197205533e-05
0.3962644727856042,1.0959794217102367e-05,0.3962644727856042,-0.0001877580213511,0.3962644727856042,-3.744635724579778e-05,0.3962644727856042,6.854913033319383e-05
0.3970585899655353,8.047215622490524e-06,0.3970585899655353,-0.0002313397928942,0.3970585899655353,-3.251502516513709e-05,0.3970585899655353,7.242215310597681e-05
0.3978527071454664,-3.146730779730372e-06,0.3978527071454664,-0.0002882577969372,0.3978527071454664,8.13874287408975e-06,0.3978527071454664,6.541306632772727e-05
0.3986468243253974,-1.5892470685261555e-05,0.3986468243253974,-0.0002954658917332,0.3986468243253974,1.481434103981884e-05,0.3986468243253974,5.753767634661024e-05
0.3994409415053285,-2.5204000286855458e-05,0.3994409415053285,-0.0002395406748862,0.3994409415053285,6.366019650097157e-06,0.3994409415053285,4.052014911074807e-05
0.4002350586852595,-2.9392499147138453e-05,0.4002350586852595,-0.0001590899108,0.4002350586852595,9.152509786784614e-06,0.4002350586852595,2.4303905330384666e-05
0.4010291758651906,-2.4359512653736087e-05,0.4010291758651906,-6.752480380373047e-05,0.4010291758651906,1.1323379234928843e-05,0.4010291758651906,1.045790117755e-05
0.4018232930451217,-1.685423111800305e-05,0.4018232930451217,5.910640076783054e-05,0.4018232930451217,2.5918738369516003e-05,0.4018232930451217,8.857066262887545e-08
0.4026174102250527,-1.884876911322723e-05,0.4026174102250527,0.0002137375346813,0.4026174102250527,3.794558379259062e-05,0.4026174102250527,-1.9944848522045384e-06
0.4034115274049838,-1.1917330511336664e-05,0.4034115274049838,0.0003113654097775,0.4034115274049838,5.690085074194624e-05,0.4034115274049838,1.4316498890211506e-06
0.4042056445849149,-1.4326115573685813e-06,0.4042056445849149,0.0003005623367449,0.4042056445849149,7.193737615099064e-05,0.4042056445849149,-6.2869812710294425e-06
0.404999761764846,3.188110272001535e-06,0.404999761764846,0.0002583344850645,0.404999761764846,6.898866015622442e-05,0.404999761764846,-1.7621797301336914e-05
0.4057938789447771,8.607942335027948e-07,0.4057938789447771,0.0001869427081714,0.4057938789447771,5.171488410518605e-05,0.4057938789447771,-1.6005970221404973e-05
0.4065879961247081,-6.048677461908029e-06,0.4065879961247081,8.891898792887291e-05,0.4065879961247081,3.578158048844925e-05,0.4065879961247081,-1.7099683541762553e-05
0.4073821133046392,-1.0727123115971798e-05,0.4073821133046392,-4.4981302975151344e-05,0.4073821133046392,1.699051827090241e-05,0.4073821133046392,-1.9123265259074146e-05
0.4081762304845703,-2.0646705620396872e-05,0.4081762304845703,-0.0001726240783074,0.4081762304845703,-7.61526745784818e-06,0.4081762304845703,-2.307045754003022e-05
0.4089703476645013,-2.711245916924845e-05,0.4089703476645013,-0.0002444889899862,0.4089703476645013,-3.35396252725916e-05,0.4089703476645013,-3.120594758705953e-05
0.4097644648444324,-2.759597091164781e-05,0.4097644648444324,-0.0002480964231784,0.4097644648444324,-5.155679918055581e-05,0.4097644648444324,-4.011374500902765e-05
0.4105585820243635,-2.994602995246054e-05,0.4105585820243635,-0.000227044530857,0.4105585820243635,-5.65652e-05,0.4105585820243635,-4.985040183836583e-05
0.4113526992042945,-3.123003952842421e-05,0.4113526992042945,-0.0002417106525313,0.4113526992042945,-4.0574774772175135e-05,0.4113526992042945,-5.968272308548822e-05
0.4121468163842256,-2.7056071627685933e-05,0.4121468163842256,-0.0002468460710083,0.4121468163842256,-2.714566223020916e-05,0.4121468163842256,-6.865804860611928e-05
0.4129409335641567,-1.7196425495219133e-05,0.4129409335641567,-0.0002461755302967,0.4129409335641567,-1.2263296264022578e-05,0.4129409335641567,-7.131645570432815e-05
0.4137350507440878,-5.878423798471718e-06,0.4137350507440878,-0.000174974004222,0.4137350507440878,3.106230267601812e-06,0.4137350507440878,-7.023071780177941e-05
0.4145291679240188,-2.077065721782047e-07,0.4145291679240188,-5.446341868588198e-05,0.4145291679240188,4.5227376881116765e-06,0.4145291679240188,-6.608432028256416e-05
0.4153232851039499,4.236767641800452e-06,0.4153232851039499,7.088315910258604e-05,0.4153232851039499,-2.9332841136270244e-06,0.4153232851039499,-5.687066030005515e-05
0.416117402283881,2.0252667227675497e-05,0.416117402283881,0.0002164391698273,0.416117402283881,-1.7270784430424543e-05,0.416117402283881,-4.714457034269825e-05
0.416911519463812,1.7960022090260262e-05,0.416911519463812,0.000359709422429,0.416911519463812,-1.6320965935447215e-05,0.416911519463812,-2.866300033533357e-05
0.4177056366437431,1.3131220936221195e-05,0.4177056366437431,0.0004633585044213,0.4177056366437431,-1.6084114316969662e-05,0.4177056366437431,-6.233453818323749e-06
0.4184997538236742,1.4267288644608292e-05,0.4184997538236742,0.0005117606948621,0.4184997538236742,-5.208827587519505e-06,0.4184997538236742,1.6609474313233793e-05
0.4192938710036052,1.2612973291658305e-06,0.4192938710036052,0.0004793150931283,0.4192938710036052,1.060241407463836e-05,0.4192938710036052,4.5346792624447165e-05
0.4200879881835363,-2.760450115533931e-06,0.4200879881835363,0.0002970401089092,0.4200879881835363,-2.63477673122102e-06,0.4200879881835363,5.05105147727118e-05
0.4208821053634674,8.045152327019554e-06,0.4208821053634674,5.480122723112502e-05,0.4208821053634674,-1.6769651454155084e-05,0.4208821053634674,3.372922487437291e-05
0.4216762225433985,4.262506042782359e-06,0.4216762225433985,-0.0001390376355808,0.4216762225433985,-2.3790419085464558e-05,0.4216762225433985,1.828677103718001e-05
0.4224703397233295,-2.89187372766023e-06,0.4224703397233295,-0.0002828343355097,0.4224703397233295,-2.865927679524126e-05,0.4224703397233295,1.8574566457591322e-08
0.4232644569032606,-2.360037500323625e-06,0.4232644569032606,-0.000335493522248,0.4232644569032606,-4.3725167756054334e-05,0.4232644569032606,-1.6515624996763748e-05
0.4240585740831917,-4.057632392153319e-06,0.4240585740831917,-0.0003116182610016,0.4240585740831917,-5.188519974252162e-05,0.4240585740831917,-2.4337705137589534e-05
0.4248526912631227,-6.88182e-06,0.4248526912631227,-0.0002656432687554,0.4248526912631227,-3.247018601443912e-05,0.4248526912631227,-3.1069915695536334e-05
0.4256468084430538,-2.6588687390235444e-06,0.4256468084430538,-0.0001866766362511,0.4256468084430538,-1.474332740362952e-06,0.4256468084430538,-3.926531389318767e-05
0.4264409256229849,3.150262874683742e-06,0.4264409256229849,-0.0001033273907199,0.4264409256229849,2.920760262911136e-05,0.4264409256229849,-4.041282287468374e-05
0.4272350428029159,1.2353028574299162e-06,0.4272350428029159,-4.995212651619053e-05,0.4272350428029159,3.435253985565077e-05,0.4272350428029159,-3.9267323309275126e-05
0.428029159982847,-1.1151238176193198e-06,0.428029159982847,-2.1613105160978464e-05,0.428029159982847,1.9245266601470355e-05,0.428029159982847,-3.666094110795667e-05
0.4288232771627781,-4.926901338078588e-06,0.4288232771627781,-4.456958291389554e-05,0.4288232771627781,2.70058229608724e-05,0.4288232771627781,-3.178225859074261e-05
0.4296173943427092,-3.129391157013167e-06,0.4296173943427092,-8.584249123684418e-05,0.4296173943427092,6.162472780767007e-05,0.4296173943427092,-2.173020172759635e-05
0.4304115115226402,1.4711265101623254e-06,0.4304115115226402,-8.46249498286963e-05,0.4304115115226402,6.995369628590915e-05,0.4304115115226402,-9.88362945838468e-06
0.4312056287025713,-9.761350029551391e-06,0.4312056287025713,-6.167558235981191e-05,0.4312056287025713,5.780318601394982e-05,0.4312056287025713,3.394266126529199e-06
0.4319997458825024,-2.6347906548405765e-05,0.4319997458825024,-5.0692390213101125e-05,0.4319997458825024,2.8042058332181764e-05,0.4319997458825024,1.1244527034788823e-05
0.4327938630624334,-2.474494490624752e-05,0.4327938630624334,-5.82437e-05,0.4327938630624334,3.628403537272244e-06,0.4327938630624334,1.476522990193353e-06
0.4335879802423645,-2.3232117171330693e-05,0.4335879802423645,-4.019229145786985e-05,0.4335879802423645,2.0231755854086565e-05,0.4335879802423645,-4.076449047539456e-07
0.4343820974222956,-2.315151939496464e-05,0.4343820974222956,-1.7905197768429965e-05,0.4343820974222956,4.297360139978082e-05,0.4343820974222956,4.61003969748232e-06
0.4351762146022266,-2.544235014564369e-05,0.4351762146022266,-1.5788620748392467e-06,0.4351762146022266,4.351723179796212e-05,0.4351762146022266,1.8905877865582512e-06
0.4359703317821577,-2.5306783868923948e-05,0.4359703317821577,2.2137195928092383e-05,0.4359703317821577,2.460618348459892e-05,0.4359703317821577,-7.548632698803981e-06
0.4367644489620888,-2.161431372475808e-05,0.4367644489620888,4.3098886900041086e-05,0.4367644489620888,3.2704071708232496e-06,0.4367644489620888,-1.61416008203978e-05
0.4375585661420199,-1.5196071181959015e-05,0.4375585661420199,2.9841141033086415e-05,0.4375585661420199,2.951475119541909e-06,0.4375585661420199,-2.086236714678815e-05
0.438352683321951,-6.725283337369789e-06,0.438352683321951,1.2288212304733914e-05,0.438352683321951,1.5037047919049242e-05,0.438352683321951,-2.6804183352393936e-05
0.439146800501882,-6.702490239500137e-06,0.439146800501882,-4.265490916471168e-05,0.439146800501882,-7.659802428028804e-06,0.439146800501882,-3.730825431335217e-05
0.4399409176818131,-1.0958779179736612e-05,0.4399409176818131,-0.0001491359324944,0.4399409176818131,-2.7570537283691423e-05,0.4399409176818131,-4.164875088329261e-05
0.4407350348617442,-1.2390644762793805e-05,0.4407350348617442,-0.0002513818566216,0.4407350348617442,-4.091921349023786e-05,0.4407350348617442,-3.760960114093164e-05
0.4415291520416752,-9.844989371729977e-06,0.4415291520416752,-0.0003154968735721,0.4415291520416752,-5.470713417816943e-05,0.4415291520416752,-3.2919245243568726e-05
0.4423232692216063,-2.724747696407128e-06,0.4423232692216063,-0.0002629468416919,0.4423232692216063,-5.413532734227341e-05,0.4423232692216063,-2.765531259159044e-05
0.4431173864015373,3.5253986445993977e-06,0.4431173864015373,-9.74786180926554e-05,0.4431173864015373,-2.5617794688659952e-05,0.4431173864015373,-2.0190373179989072e-05
0.4439115035814684,1.0317535402395392e-05,0.4439115035814684,8.688428247993533e-05,0.4439115035814684,-8.560628776320972e-06,0.4439115035814684,-2.0941460586304276e-05
0.4447056207613995,1.6182768624512208e-05,0.4447056207613995,0.0002028550867309,0.4447056207613995,9.068964458195746e-06,0.4447056207613995,-1.913748523465686e-05
0.4454997379413306,6.886917142344817e-06,0.4454997379413306,0.0002385084063854,0.4454997379413306,3.205240385144647e-05,0.4454997379413306,3.850996502431271e-06
0.4462938551212617,-9.521704120989371e-06,0.4462938551212617,0.0002176762591627,0.4462938551212617,1.8920628962919397e-05,0.4462938551212617,3.802746350841928e-05
0.4470879723011927,-1.383564255465967e-05,0.4470879723011927,0.0001636636111804,0.4470879723011927,-6.7137746309663245e-06,0.4470879723011927,4.750745649796388e-05
0.4478820894811238,-6.31182646885006e-06,0.4478820894811238,0.0001069878534974,0.4478820894811238,-1.9138926872310127e-05,0.4478820894811238,2.823301026713776e-05
0.4486762066610549,-5.9122058551802855e-06,0.4486762066610549,8.918635384597044e-05,0.4486762066610549,-2.4099527262799357e-05,0.4486762066610549,-7.812559589602153e-07
0.4494703238409859,-7.673073725629784e-06,0.4494703238409859,6.18602539365226e-05,0.4494703238409859,-2.6901525783185116e-05,0.4494703238409859,-2.16431897507756e-05
0.450264441020917,-3.2590634022320424e-06,0.450264441020917,2.974271191515129e-06,0.450264441020917,-3.57315592336638e-05,0.450264441020917,-3.839681846732759e-05
0.4510585582008481,-4.057552130303237e-06,0.4510585582008481,-3.6703991274081615e-05,0.4510585582008481,-2.8861780213724936e-05,0.4510585582008481,-2.9237694952758315e-05
0.4518526753807791,-8.83542110632359e-06,0.4518526753807791,-2.8157586730448496e-05,0.4518526753807791,-4.143269403683514e-06,0.4518526753807791,9.221564139780136e-06
0.4526467925607102,-1.2253e-05,0.4526467925607102,-6.410271561566603e-05,0.4526467925607102,1.3156905569844862e-05,0.4526467925607102,3.809378526919999e-05
0.4534409097406413,-1.150389161347699e-05,0.4534409097406413,-0.0001028514138066,0.4534409097406413,1.843702903369248e-05,0.4534409097406413,4.999262903369248e-05
0.4542350269205724,-9.46937692824196e-06,0.4542350269205724,-0.0001029190179478,0.4542350269205724,8.8623926816194e-06,0.4542350269205724,4.170043832182197e-05
0.4550291441005034,-1.2508847202386308e-05,0.4550291441005034,-4.993281979108516e-05,0.4550291441005034,-4.436567585940102e-07,0.4550291441005034,3.154750559522738e-05
0.4558232612804345,-1.5925840620061923e-05,0.4558232612804345,3.482481582338713e-06,0.4558232612804345,-6.704355022661791e-06,0.4558232612804345,1.669526984291135e-05
0.4566173784603656,-9.230673695321016e-06,0.4566173784603656,3.1261269879575784e-05,0.4566173784603656,-9.389441735926242e-06,0.4566173784603656,-9.392546523247028e-06
0.4574114956402966,1.2732509848680142e-06,0.4574114956402966,3.71933542731447e-05,0.4574114956402966,-7.108653414595474e-06,0.4574114956402966,-2.0842946207414173e-05
0.4582056128202277,6.269222569896253e-06,0.4582056128202277,-2.027914566456336e-06,0.4582056128202277,-1.5905876927422192e-05,0.4582056128202277,-2.2203534053745543e-05
0.4589997300001588,1.1243565961458538e-05,0.4589997300001588,-3.5742556704916965e-05,0.4589997300001588,-9.57149458193253e-06,0.4589997300001588,-3.843049784961168e-05
0.4597938471800898,1.5076269025187846e-05,0.4597938471800898,-7.442219663396891e-05,0.4597938471800898,1.1748407789255034e-05,0.4597938471800898,-5.087524512593923e-05
0.4605879643600209,1.5511052507629058e-05,0.4605879643600209,-0.0001120575967382,0.4605879643600209,3.3050797241484896e-05,0.4605879643600209,-5.008214908343712e-05
0.461382081539952,1.0683605686715524e-05,0.461382081539952,-6.438431825550092e-05,0.461382081539952,5.908696397527865e-05,0.461382081539952,-3.842144409888537e-05
0.4621761987198831,-1.246390587846339e-06,0.4621761987198831,7.732598870433558e-06,0.4621761987198831,5.34197783386307e-05,0.4621761987198831,-5.328145044799112e-06
0.4629703158998141,-1.2030027836860194e-05,0.4629703158998141,5.426553793401163e-05,0.4629703158998141,2.6177231113812628e-05,0.4629703158998141,1.684732219232287e-05
0.4637644330797452,-2.346830452622937e-05,0.4637644330797452,5.698430398015219e-05,0.4637644330797452,1.6456811315573436e-05,0.4637644330797452,2.098374399251028e-05
0.4645585502596763,-2.05872312787082e-05,0.4645585502596763,2.7659667548024146e-05,0.4645585502596763,2.3784419545979976e-05,0.4645585502596763,7.45651012468506e-06
0.4653526674396073,-1.7426013550569455e-05,0.4653526674396073,-1.5233570498780347e-05,0.4653526674396073,2.8384074908960296e-05,0.4653526674396073,-1.7497592070255208e-05
0.4661467846195384,-2.06645257856714e-05,0.4661467846195384,-5.272961615257939e-05,0.4661467846195384,2.61906484330425e-05,0.4661467846195384,-4.88128773482436e-05
0.4669409017994695,-1.8733943636595717e-05,0.4669409017994695,-9.035128335746616e-05,0.4669409017994695,1.2904978636382976e-05,0.4669409017994695,-7.124714090851071e-05
0.4677350189794005,-1.1860945801250632e-05,0.4677350189794005,-0.0001041325796264,0.4677350189794005,1.07934017173962e-05,0.4677350189794005,-8.791661673149258e-05
0.4685291361593316,-4.178189211177309e-06,0.4685291361593316,-0.0001088152298878,0.4685291361593316,-2.5117794137921523e-05,0.4685291361593316,-9.759935485225703e-05
0.4693232533392627,8.786712383854288e-07,0.4693232533392627,-0.0001205748103635,0.4693232533392627,-6.663662433120775e-05,0.4693232533392627,-8.452622032301056e-05
0.4701173705191938,-4.354925626116795e-06,0.4701173705191938,-0.0001294711394636,0.4701173705191938,-8.166465974747055e-05,0.4701173705191938,-5.006482069458848e-05
0.4709114876991248,-5.144400900251224e-06,0.4709114876991248,-0.0001180177302947,0.4709114876991248,-7.670812387038488e-05,0.4709114876991248,-1.9659280312941603e-05
0.4717056048790559,8.581857222572225e-07,0.4717056048790559,-9.39032987370416e-05,0.4717056048790559,-3.856678726551146e-05,0.4717056048790559,-5.303907324112672e-06
0.472499722058987,1.8467404497770745e-06,0.472499722058987,-7.134416978942328e-05,0.472499722058987,2.095897509701637e-05,0.472499722058987,8.889803058277345e-06
0.473293839238918,-3.0188555258192278e-06,0.473293839238918,-5.332644130534892e-05,0.473293839238918,7.508645918587226e-05,0.473293839238918,3.5401617758589924e-05
0.4740879564188491,-1.0981770186212836e-05,0.4740879564188491,-7.748260893976462e-05,0.4740879564188491,7.970523855583452e-05,0.4740879564188491,5.934025536600311e-05
0.4748820735987802,-2.07235752994001e-05,0.4748820735987802,-0.0001113199884111,0.4748820735987802,4.624422794612803e-05,0.4748820735987802,6.54729494011998e-05
0.4756761907787112,-1.7866291706639287e-05,0.4756761907787112,-9.232611320440018e-05,0.4756761907787112,2.2136847872840252e-05,0.4756761907787112,6.042166476011327e-05
0.4764703079586423,-1.9436916188900095e-05,0.4764703079586423,-3.993872939430199e-05,0.4764703079586423,2.196907911451368e-05,0.4764703079586423,5.125639442300707e-05
0.4772644251385734,-3.1008609174844295e-05,0.4772644251385734,3.765256026521276e-05,0.4772644251385734,6.67387584797169e-06,0.4772644251385734,4.908195572242895e-05
0.4780585423185045,-3.9957418603388366e-05,0.4780585423185045,9.340899185316116e-05,0.4780585423185045,-2.3544603825968603e-05,0.4780585423185045,4.261516279322327e-05
0.4788526594984356,-2.868744042501182e-05,0.4788526594984356,9.54560089160268e-05,0.4788526594984356,-3.249331352096698e-05,0.4788526594984356,2.967431070646229e-05
0.4796467766783666,-1.0866841385819404e-05,0.4796467766783666,8.646244287024925e-05,0.4796467766783666,-2.7077548480218703e-05,0.4796467766783666,7.149856137477978e-06
0.4804408938582977,-6.062592424680182e-07,0.4804408938582977,8.750958700474957e-05,0.4804408938582977,-1.69528e-05,0.4804408938582977,-2.0725669530159096e-05
0.4812350110382288,4.72792513538633e-06,0.4812350110382288,4.394161401117164e-05,0.4812350110382288,-2.3107894703214217e-05,0.4812350110382288,-4.985017488344309e-05
0.4820291282181598,8.460380184116438e-06,0.4820291282181598,-5.908719975349168e-05,0.4820291282181598,-4.068539086643191e-05,0.4820291282181598,-6.463990735991872e-05
0.4828232453980909,1.2766445365702514e-05,0.4828232453980909,-9.760013469177264e-05,0.4828232453980909,-5.032506390289246e-05,0.4828232453980909,-7.236279073140502e-05
0.483617362578022,1.4188310612653732e-05,0.483617362578022,7.284056717523575e-06,0.483617362578022,-3.361683354632718e-05,0.483617362578022,-7.165145754938507e-05
0.484411479757953,1.3536630517226489e-05,0.484411479757953,8.750933759750998e-05,0.484411479757953,-1.9465820307520496e-06,0.484411479757953,-6.314150295066306e-05
0.4852055969378841,1.5293199235126722e-05,0.4852055969378841,7.481686925777291e-05,0.4852055969378841,-1.6848564291107815e-06,0.4852055969378841,-5.6960650893832746e-05
0.4859997141178152,1.9301258380802374e-05,0.4859997141178152,6.193750948727679e-05,0.4859997141178152,-8.895804054400338e-06,0.4859997141178152,-5.388083567359797e-05
0.4867938312977463,2.6605803512231567e-05,0.4867938312977463,0.0001316996810671,0.4867938312977463,1.920556723536272e-05,0.4867938312977463,-3.943514209756621e-05
0.4875879484776773,2.2588191431660828e-05,0.4875879484776773,0.0001960764406928,0.4875879484776773,5.2155062418653855e-05,0.4875879484776773,-1.4400013911034702e-05
0.4883820656576084,8.060757615300405e-06,0.4883820656576084,0.0001513288251396,0.4883820656576084,6.224092549964613e-05,0.4883820656576084,-4.586548004160945e-06
0.4891761828375395,-8.292278821381462e-06,0.4891761828375395,1.2439612029841113e-05,0.4891761828375395,5.082802762153597e-05,0.4891761828375395,-1.114171905074976e-05
0.4899703000174705,-2.0817907844561747e-05,0.4899703000174705,-8.0897047825959e-05,0.4899703000174705,3.510960320241289e-05,0.4899703000174705,-1.675123609894436e-05
0.4907644171974016,-2.9510835877695944e-05,0.4907644171974016,-0.0001334266582254,0.4907644171974016,1.4353067223295306e-05,0.4907644171974016,-2.5283971755391888e-05
0.4915585343773327,-3.10521e-05,0.4915585343773327,-0.0001864518690823,0.4915585343773327,-5.625484929383618e-06,0.4915585343773327,-3.1525215924098595e-05
0.4923526515572637,-3.171340886932911e-05,0.4923526515572637,-0.0001986339199199,0.4923526515572637,-9.438637568674467e-06,0.4923526515572637,-3.602685924722809e-05
0.4931467687371948,-3.274012808425288e-05,0.4931467687371948,-0.0001752687327028,0.4931467687371948,-2.1365274669692843e-05,0.4931467687371948,-4.048968277517806e-05
0.4939408859171259,-3.3343770307231185e-05,0.4939408859171259,-0.0001400574433552,0.4939408859171259,-5.875056623007168e-05,0.4939408859171259,-4.471291877107528e-05
0.494735003097057,-2.931738309831676e-05,0.494735003097057,-9.36233508683313e-05,0.494735003097057,-9.2781842378196e-05,0.494735003097057,-5.1842376643490176e-05
0.495529120276988,-1.889121482922875e-05,0.495529120276988,2.012373523477376e-05,0.495529120276988,-7.90055232337702e-05,0.495529120276988,-5.2952490094680026e-05
0.4963232374569191,-5.993182511658276e-06,0.4963232374569191,0.0001211312135357,0.4963232374569191,-3.863486982376829e-05,0.4963232374569191,-4.428250654992267e-05
0.4971173546368502,2.0048868034089964e-06,0.4971173546368502,0.0001942090420388,0.4971173546368502,3.113199533272472e-06,0.4971173546368502,-2.717038341816437e-05
0.4979114718167812,7.987275194242914e-06,0.4979114718167812,0.0001357701781183,0.4979114718167812,3.00432446391386e-05,0.4979114718167812,-7.613795256520461e-06
0.4987055889967123,8.719804553600063e-06,0.4987055889967123,3.937930255699064e-06,0.4987055889967123,6.142421540548556e-05,0.4987055889967123,9.701584315059095e-06
0.4994997061766434,-1.5059833663844992e-06,0.4994997061766434,-3.5072327860978084e-05,0.4994997061766434,9.851427088710456e-05,0.4994997061766434,2.6682073406351364e-05
0.5002938233565745,-6.959026831352178e-06,0.5002938233565745,-6.383289929732035e-05,0.5002938233565745,0.0001095670685589,0.5002938233565745,2.8624996118683163e-05
0.5010879405365055,-1.4854254480577577e-05,0.5010879405365055,-4.185913907346873e-05,0.5010879405365055,8.540125565404382e-05,0.5010879405365055,2.441594024583805e-05
0.5018820577164366,-1.490752985642542e-05,0.5018820577164366,-2.09812e-05,0.5018820577164366,5.110079770699702e-05,0.5018820577164366,3.1895140387743306e-05
0.5026761748963677,-1.8384919483314447e-06,0.5026761748963677,-3.1190317216399346e-05,0.5026761748963677,1.824251232218739e-05,0.5026761748963677,3.437173033572252e-05
0.5034702920762988,2.138331517459156e-05,0.5034702920762988,-4.060039508740714e-05,0.5034702920762988,-1.2597724881211864e-05,0.5034702920762988,2.4108342551252063e-05
0.5042644092562298,4.18470366189102e-05,0.5042644092562298,-5.25368e-05,0.5042644092562298,-1.783433246725962e-05,0.5042644092562298,1.065623388653106e-05
0.5050585264361609,6.418416851644912e-05,0.5050585264361609,-4.117906205946448e-05,0.5050585264361609,-1.0437141406038688e-05,0.5050585264361609,2.4398826461916358e-06
0.505852643616092,7.409962647228016e-05,0.505852643616092,-3.734660633796334e-05,0.505852643616092,-1.197516235564826e-05,0.505852643616092,-5.892061191476239e-06
0.506646760796023,7.108485595064882e-05,0.506646760796023,-8.100490607738506e-05,0.506646760796023,-2.752578809870236e-05,0.506646760796023,-1.41445956722554e-05
0.507440877975954,5.0817580893114485e-05,0.507440877975954,-9.6919210626755e-05,0.507440877975954,-4.559291751630021e-05,0.507440877975954,-2.086477501254496e-05
0.5082349951558852,1.911989719134787e-05,0.5082349951558852,-5.1834201687051085e-05,0.5082349951558852,-2.3208827085868715e-05,0.5082349951558852,-1.281210349370004e-05
0.5090291123358163,-1.3666899921476982e-05,0.5090291123358163,5.312194627103211e-05,0.5090291123358163,1.01743365922129e-05,0.5090291123358163,5.515696431964576e-06
0.5098232295157473,-4.708642860772671e-05,0.5098232295157473,8.700067450931234e-05,0.5098232295157473,2.0290077917128177e-05,0.5098232295157473,1.1443405654086118e-05
0.5106173466956784,-6.399070144479064e-05,0.5106173466956784,-1.7956347805231388e-05,0.5106173466956784,6.189085181404962e-06,0.5106173466956784,5.676801565727272e-06
0.5114114638756094,-6.32792e-05,0.5114114638756094,-0.0001402122240678,0.5114114638756094,-3.825678426284197e-05,0.5114114638756094,-1.2290566646901272e-05
0.5122055810555405,-6.321106498572087e-05,0.5122055810555405,-0.0001990094247761,0.5122055810555405,-4.227313179717817e-05,0.5122055810555405,-3.2599246298297395e-05
0.5129996982354716,-5.791028253135104e-05,0.5129996982354716,-0.0002197103153818,0.5129996982354716,-2.501515206256755e-05,0.5129996982354716,-3.910813911304543e-05
0.5137938154154027,-5.7115692644312814e-05,0.5137938154154027,-0.0001697493855884,0.5137938154154027,-1.3485198905983371e-05,0.5137938154154027,-3.936227738593011e-05
0.5145879325953338,-6.444194609359401e-05,0.5145879325953338,-5.262279553736583e-05,0.5145879325953338,6.859695036672715e-06,0.5145879325953338,-5.572494843677208e-05
0.5153820497752648,-5.882962738155042e-05,0.5153820497752648,0.0001208244963319,0.5153820497752648,1.8802854234958296e-05,0.5153820497752648,-6.210053414143412e-05
0.5161761669551959,-4.362197692106085e-05,0.5161761669551959,0.0002774045056797,0.5161761669551959,2.6523994970020284e-05,0.5161761669551959,-5.603547430284555e-05
0.5169702841351269,-3.429426349797158e-05,0.5169702841351269,0.0003165415623263,0.5169702841351269,2.4875524080966844e-05,0.5169702841351269,-4.63845813041041e-05
0.5177644013150581,-2.9236432770836937e-05,0.5177644013150581,0.0002259380777054,0.5177644013150581,1.02243732448555e-05,0.5177644013150581,-1.7893061844873572e-05
0.5185585184949891,-2.3588918357027785e-05,0.5185585184949891,5.0145890900604186e-05,0.5185585184949891,3.465310970147542e-06,0.5185585184949891,1.9415430849814183e-05
0.5193526356749202,-4.242851161777949e-06,0.5193526356749202,-7.46349546123918e-05,0.5193526356749202,1.606133298307815e-05,0.5193526356749202,3.75257516674053e-05
0.5201467528548512,1.240687683795158e-05,0.5201467528548512,-9.085109050429652e-05,0.5201467528548512,1.837590501748857e-05,0.5201467528548512,4.787043691955258e-05
0.5209408700347823,2.01292816739954e-05,0.5209408700347823,-3.757028279932559e-05,0.5209408700347823,1.2493060893845974e-06,0.5209408700347823,6.151717961030844e-05
0.5217349872147133,2.1633883190567407e-05,0.5217349872147133,-5.513718498257739e-05,0.5217349872147133,-5.6538350247132105e-05,0.5217349872147133,6.434685849807655e-05
0.5225291043946444,1.620364182931545e-05,0.5225291043946444,-0.0001076674158811,0.5225291043946444,-6.753009494514406e-05,0.5225291043946444,5.773246325211635e-05
0.5233232215745756,1.1996388833402349e-05,0.5233232215745756,-0.000119284190961,0.5233232215745756,-4.661284824760103e-05,0.5233232215745756,4.248600945457365e-05
0.5241173387545066,4.491917932406583e-06,0.5241173387545066,-8.87339142952698e-05,0.5241173387545066,-4.039223324899971e-05,0.5241173387545066,1.760308773889166e-05
0.5249114559344377,-3.484809542683564e-06,0.5249114559344377,-3.4844665334211215e-05,0.5249114559344377,-2.680807372963096e-05,0.5249114559344377,7.049742210463375e-08
0.5257055731143687,-2.3416727326568585e-06,0.5257055731143687,9.08626267080374e-06,0.5257055731143687,-1.2018251298567114e-05,0.5257055731143687,-8.89601e-06
0.5264996902942998,3.187355143453213e-06,0.5264996902942998,2.534219519829909e-05,0.5264996902942998,-1.682840580854445e-06,0.5264996902942998,-8.560533107732954e-06
0.5272938074742308,1.765226930881481e-05,0.5272938074742308,5.102914299549634e-06,0.5272938074742308,1.3964819900883876e-05,0.5272938074742308,-1.813082864555768e-05
0.528087924654162,4.349511137469018e-05,0.528087924654162,-3.9662965592450846e-05,0.528087924654162,1.920041754326819e-05,0.528087924654162,-3.3904387912389926e-05
0.528882041834093,6.277929132938832e-05,0.528882041834093,-8.40813448319058e-05,0.528882041834093,2.4689232458807303e-05,0.528882041834093,-4.741512076467884e-05
0.5296761590140241,6.580813252570026e-05,0.5296761590140241,-0.0001031285272988,0.5296761590140241,3.1223714880065466e-05,0.5296761590140241,-5.352153494859949e-05
0.5304702761939551,4.700402548382176e-05,0.5304702761939551,-8.399168364562992e-05,0.5304702761939551,3.3208065564884533e-05,0.5304702761939551,-5.352477202441743e-05
0.5312643933738862,1.901409548819856e-05,0.5312643933738862,-7.1947154715671e-05,0.5312643933738862,1.9783235041009025e-05,0.5312643933738862,-5.2142772579253376e-05
0.5320585105538173,-1.5668291502856636e-06,0.5320585105538173,-8.064660115703921e-05,0.5320585105538173,2.352403560267774e-06,0.5320585105538173,-5.243757196684375e-05
0.5328526277337483,-1.2802612446602742e-05,0.5328526277337483,-9.281791818545452e-05,0.5328526277337483,9.60175780066391e-06,0.5328526277337483,-5.72366e-05
0.5336467449136795,-1.693386020953424e-05,0.5336467449136795,-9.538759607714373e-05,0.5336467449136795,3.296277003918803e-05,0.5336467449136795,-5.360529389209131e-05
0.5344408620936105,-1.4425306539122892e-05,0.5344408620936105,-8.915873505714563e-05,0.5344408620936105,5.677851968403393e-05,0.5344408620936105,-4.969605841161169e-05
0.5352349792735416,-1.5036527739020937e-05,0.5352349792735416,-7.737491185180283e-05,0.5352349792735416,5.820635936261084e-05,0.5352349792735416,-4.434480801399195e-05
0.5360290964534726,-1.5915602228095052e-05,0.5360290964534726,-7.583714252031956e-05,0.5360290964534726,3.7753277290853815e-05,0.5360290964534726,-3.932682961984158e-05
0.5368232136334037,-1.8177148855220555e-05,0.5368232136334037,-9.19363856370161e-05,0.5368232136334037,1.4010913073959606e-05,0.5368232136334037,-3.764764885522055e-05
0.5376173308133347,-1.4365643883008469e-05,0.5376173308133347,-0.0001000903769998,0.5376173308133347,-1.1558864337966282e-06,0.5376173308133347,-3.5317305754368256e-05
0.5384114479932659,-9.054335024610373e-06,0.5384114479932659,-8.045982449416832e-05,0.5384114479932659,-2.188703718592139e-05,0.5384114479932659,-2.6709040194697337e-05
0.539205565173197,-7.868953929702352e-06,0.539205565173197,-4.4314458245806416e-05,0.539205565173197,-4.0784921785807245e-05,0.539205565173197,-1.1920943826205572e-05
0.539999682353128,-8.22461e-06,0.539999682353128,2.1615967369453817e-06,0.539999682353128,-4.9176825230227006e-05,0.539999682353128,4.992002813752033e-07
0.5407937995330591,-9.248307046211792e-06,0.5407937995330591,3.1229846056354386e-05,0.5407937995330591,-4.8750398167813694e-05,0.5407937995330591,1.4515106156873713e-05
0.5415879167129901,-2.2076997681931837e-05,0.5415879167129901,1.118871322359118e-05,0.5415879167129901,-3.215058396328106e-05,0.5415879167129901,2.5044995495715788e-05
0.5423820338929212,-3.465853476947185e-05,0.5423820338929212,-1.7653881101047885e-05,0.5423820338929212,-1.8912610153685438e-05,0.5423820338929212,2.783575507684272e-05
0.5431761510728523,-3.966093354144428e-05,0.5431761510728523,-6.9378635572587e-05,0.5431761510728523,-1.1253414897723654e-05,0.5431761510728523,2.166009711898392e-05
0.5439702682527834,-3.362300079503709e-05,0.5439702682527834,-0.0001395169350488,0.5439702682527834,1.2591757016347044e-05,0.5439702682527834,2.4519897757149893e-06
0.5447643854327144,-2.9531199526876564e-05,0.5447643854327144,-0.0001830114061838,0.5447643854327144,2.9257002365617184e-05,0.5447643854327144,-1.868637132237337e-05
0.5455585026126455,-3.099254598106508e-05,0.5455585026126455,-0.0001753165073196,0.5455585026126455,2.5424605358579896e-05,0.5455585026126455,-2.781243526390528e-05
0.5463526197925765,-3.436846857248956e-05,0.5463526197925765,-9.361852408632944e-05,0.5463526197925765,3.679318667161797e-05,0.5463526197925765,-2.3117258931949066e-05
0.5471467369725076,-3.1283758141039245e-05,0.5471467369725076,1.3875144273568088e-05,0.5471467369725076,4.0002464451453074e-05,0.5471467369725076,-9.534237362754576e-06
0.5479408541524387,-2.0987321585909497e-05,0.5479408541524387,5.073791471515957e-05,0.5479408541524387,2.58931401881624e-05,0.5479408541524387,-6.004315440307685e-06
0.5487349713323698,-1.30456314103746e-05,0.5487349713323698,8.21136289211901e-05,0.5487349713323698,1.641224038867004e-06,0.5487349713323698,-2.1801703098103346e-05
0.5495290885123009,-1.1739428355320602e-05,0.5495290885123009,0.0001277500453776,0.5495290885123009,-1.2804140263847229e-05,0.5495290885123009,-3.217694177660301e-05
0.5503232056922319,-1.272675881342943e-05,0.5503232056922319,0.0001504279478907,0.5503232056922319,-1.148351150592223e-05,0.5503232056922319,-2.726132209034612e-05
0.551117322872163,-1.908577297761633e-05,0.551117322872163,0.0001853599003682,0.551117322872163,6.58629504078526e-06,0.551117322872163,-4.748156516192318e-06
0.551911440052094,-2.3627138516633452e-05,0.551911440052094,0.000177950793089,0.551911440052094,-2.1685023700259677e-05,0.551911440052094,1.4029654686863896e-05
0.5527055572320251,-1.6009437595371297e-05,0.5527055572320251,0.000116336402397,0.5527055572320251,-8.019496069038084e-05,0.5527055572320251,4.2599664055152974e-06
0.5534996744119562,4.969806530014659e-07,0.5534996744119562,0.0001072524197861,0.5534996744119562,-9.315536180337952e-05,0.5534996744119562,-8.388589959901114e-06
0.5542937915918873,2.223292951042569e-06,0.5542937915918873,0.0001711990566137,0.5542937915918873,-6.362010873597178e-05,0.5542937915918873,-1.1510085811953422e-05
0.5550879087718184,-1.230884844359474e-08,0.5550879087718184,0.0002628957680446,0.5550879087718184,-4.004297417723236e-06,0.5550879087718184,-1.910134678512495e-05
0.5558820259517494,5.125323496764402e-06,0.5558820259517494,0.0002463263242631,0.5558820259517494,4.9287093233437095e-05,0.5558820259517494,-1.991976748382201e-05
0.5566761431316805,6.677925659527941e-07,0.5566761431316805,8.443584244160054e-05,0.5566761431316805,8.3987540900638e-05,0.5566761431316805,-1.2812634249835003e-05
0.5574702603116115,-1.1180409085084168e-05,0.5574702603116115,-7.683129199539922e-05,0.5574702603116115,0.000109892076391,0.5574702603116115,-4.93040255905266e-06
0.5582643774915427,-2.297155142570689e-05,0.5582643774915427,-0.000185847184119,0.5582643774915427,0.0001141717604888,0.5582643774915427,-7.021790296557459e-07
0.5590584946714737,-3.42095471133776e-05,0.5590584946714737,-0.0002371972890661,0.5590584946714737,9.57870632427024e-05,0.5590584946714737,3.681817292492261e-06
0.5598526118514048,-3.5595876375987493e-05,0.5598526118514048,-0.0002277406245647,0.5598526118514048,5.231939305529488e-05,0.5598526118514048,2.904268746761617e-06
0.5606467290313358,-2.6910267645698747e-05,0.5606467290313358,-0.0002166952738867,0.5606467290313358,-2.4848415750901852e-05,0.5606467290313358,1.17494e-06
0.5614408462112669,-1.731410027966268e-05,0.5614408462112669,-0.0001859153519867,0.5614408462112669,-9.863134352746452e-05,0.5614408462112669,-4.855190173703172e-06
0.5622349633911979,-8.662979341879205e-06,0.5622349633911979,-0.0001134833980653,0.5622349633911979,-0.0001012832619951,0.5622349633911979,-2.330285776054809e-05
0.563029080571129,3.431127511513571e-07,0.563029080571129,-5.935282287170596e-05,0.563029080571129,-7.272403988484143e-05,0.563029080571129,-3.474218478836041e-05
0.5638231977510602,7.385138349323979e-06,0.5638231977510602,-4.84286037885804e-05,0.5638231977510602,-5.245939804288418e-05,0.5638231977510602,-4.203135652387022e-05
0.5646173149309912,1.047580344663462e-05,0.5646173149309912,-8.779190877665057e-05,0.5646173149309912,-1.4503041029665905e-05,0.5646173149309912,-4.37297418164893e-05
0.5654114321109223,1.4424403776349822e-05,0.5654114321109223,-0.000148681565523,0.5654114321109223,2.549886248227632e-05,0.5654114321109223,-4.732280377634983e-05
0.5662055492908533,2.1415479778364407e-05,0.5662055492908533,-0.0001181314756451,0.5662055492908533,4.2090239335093226e-05,0.5662055492908533,-4.864961357651515e-05
0.5669996664707844,1.1924267826121091e-05,0.5669996664707844,-8.611546507468392e-06,0.5669996664707844,4.347251946026751e-05,0.5669996664707844,-2.7706873223445984e-05
0.5677937836507154,-4.229202412530416e-06,0.5677937836507154,4.0412156866703965e-05,0.5677937836507154,4.142028405454727e-05,0.5677937836507154,4.179604679810284e-06
0.5685879008306466,-1.0549822897136215e-05,0.5685879008306466,2.8500482527846267e-05,0.5685879008306466,3.830667449620437e-05,0.5685879008306466,2.557152911820717e-05
0.5693820180105776,-2.0855753643681644e-05,0.5693820180105776,7.97187206418087e-05,0.5693820180105776,1.6068524994409276e-05,0.5693820180105776,3.4549812406979245e-05
0.5701761351905087,-1.9489475631852923e-05,0.5701761351905087,0.0001677969840909,0.5701761351905087,-3.427583926693572e-06,0.5701761351905087,2.782219874330084e-05
0.5709702523704397,-4.714881358243346e-06,0.5709702523704397,0.000216947892573,0.5709702523704397,8.942191888777266e-06,0.5709702523704397,2.178221269736802e-05
0.5717643695503708,-8.772735034412691e-06,0.5717643695503708,0.0002110194614647,0.5717643695503708,2.6489329932096204e-05,0.5717643695503708,1.9658946711935863e-05
0.5725584867303019,-1.90444835262584e-05,0.5725584867303019,0.0001494503072661,0.5725584867303019,2.108247580796129e-05,0.5725584867303019,1.7367951222689725e-05
0.573352603910233,-1.7922617076736943e-05,0.573352603910233,5.1965556332528935e-05,0.573352603910233,-2.683806323075955e-06,0.573352603910233,1.3775533706124494e-05
0.5741467210901641,-9.255462139502592e-06,0.5741467210901641,-9.0813082730868e-05,0.5741467210901641,-2.944915277336977e-05,0.5741467210901641,1.4210700212152618e-06
0.5749408382700951,-3.0438241577117803e-06,0.5749408382700951,-0.000224919414934,0.5749408382700951,-2.7636973501477924e-05,0.5749408382700951,-1.5219541857021203e-05
