X [s].2,L DELTOID ANTERIOR: EMG 3 [V],X [s].3,L BICEPS BRACHII: EMG 4 [V],X [s].4,L DELTOID POSTERIOR: EMG 5 [V],X [s].7,L DELTOID MEDIUS: EMG 8 [V]
0.0,-6.88182e-06,0.0,-1.35958e-05,0.0,-1.49386e-05,0.0,-1.29244e-05
0.000794117179931,-8.224608613329055e-06,0.000794117179931,-1.1749401906738384e-05,0.000794117179931,-1.3931501040010956e-05,0.000794117179931,-1.1917301040010954e-05
0.0015882343598621,-8.22461e-06,0.0015882343598621,-1.426718211768582e-05,0.0015882343598621,-1.3595802384261208e-05,0.0015882343598621,-1.359578807869396e-05
0.0023823515397932,-7.55322e-06,0.0023823515397932,-1.4938597396320046e-05,0.0023823515397932,-1.35958e-05,0.0023823515397932,-1.3595798698160024e-05
0.0031764687197242,-7.55322e-06,0.0031764687197242,-1.3595802164854472e-05,0.0031764687197242,-1.35958e-05,0.0031764687197242,-1.2924401082427236e-05
0.0039705858996553,-6.210426933388899e-06,0.0039705858996553,-1.3931498266652777e-05,0.0039705858996553,-1.35958e-05,0.0039705858996553,-1.3260098266652777e-05
0.0047647030795864,-8.224592447202158e-06,0.0047647030795864,-1.2588711701923324e-05,0.0047647030795864,-1.17494160905803e-05,0.0047647030795864,-1.443498976125282e-05
0.0055588202595174,-7.2175195611745185e-06,0.0055588202595174,-1.326010043882548e-05,0.0055588202595174,-1.2924399835424103e-05,0.0055588202595174,-1.3931500109706373e-05
0.0063529374394485,-5.874724329708945e-06,0.0063529374394485,-1.4602895670291056e-05,0.0063529374394485,-1.2420801623802074e-05,0.0063529374394485,-1.4267198917572764e-05
0.0071470546193796,-6.881813176317471e-06,0.0071470546193796,-1.22530159219259e-05,0.0071470546193796,-1.4434986352634942e-05,0.0071470546193796,-1.6952781803513258e-05
0.0079411717993107,-5.53904386667453e-06,0.0079411717993107,-9.903124266861146e-06,0.0079411717993107,-1.3595808666219783e-05,0.0079411717993107,-1.5610013866777797e-05
0.0087352889792417,-6.881818273962128e-06,0.0087352889792417,-1.0910198705461957e-05,0.0087352889792417,-1.5609997410923912e-05,0.0087352889792417,-1.6281399136974637e-05
0.0095294061591728,-4.86763974179676e-06,0.0095294061591728,-9.903104870922564e-06,0.0095294061591728,-1.4938603247281709e-05,0.0095294061591728,-1.8295590258154877e-05
0.0103235233391039,-2.853410400690648e-06,0.0103235233391039,-1.057449013356355e-05,0.0103235233391039,-1.426720986643645e-05,0.0103235233391039,-1.561e-05
0.0111176405190349,-1.8463742539411875e-06,0.0111176405190349,-1.0238662985255622e-05,0.0111176405190349,-1.460284861908822e-05,0.0111176405190349,-1.5609965746058813e-05
0.011911757698966,-2.5177042395943235e-06,0.011911757698966,-7.553363040557456e-06,0.011911757698966,-1.3595853640608514e-05,0.011911757698966,-1.4938635760405677e-05
0.0127058748788971,-2.853429380236452e-06,0.0127058748788971,-9.903025662287858e-06,0.0127058748788971,-1.1581663718581289e-05,0.0127058748788971,-1.4267221239527096e-05
0.0134999920588282,-1.6785017497541952e-06,0.0134999920588282,-9.231716714045251e-06,0.0134999920588282,-1.2420791607818444e-05,0.0134999920588282,-1.4938593285854743e-05
0.0142941092387592,-8.39265528021662e-07,0.0142941092387592,-1.091021171685488e-05,0.0142941092387592,-1.091022343370976e-05,0.0142941092387592,-1.3595788283145118e-05
0.0150882264186903,-2.517846084913029e-06,0.0150882264186903,-1.1917244165485097e-05,0.0150882264186903,-1.2924332998582114e-05,0.0150882264186903,-1.2588716748691244e-05
0.0158823435986214,-5.706643518851048e-06,0.0158823435986214,-1.0238919201352254e-05,0.0158823435986214,-1.0910343041622703e-05,0.0158823435986214,-1.3092164243145152e-05
0.0166764607785524,-4.196304612123759e-06,0.0166764607785524,-1.091016683883659e-05,0.0166764607785524,-1.225293367767318e-05,0.0166764607785524,-1.3260091707239594e-05
0.0174705779584835,-2.1820959070671315e-06,0.0174705779584835,-9.567447271285564e-06,0.0174705779584835,-1.3092176706660873e-05,0.0174705779584835,-1.3931481364218436e-05
0.0182646951384146,-5.203311503262468e-06,0.0182646951384146,-1.1245889724061914e-05,0.0182646951384146,-1.2924401027293825e-05,0.0182646951384146,-1.158161438639903e-05
0.0190588123183456,-6.210412188763413e-06,0.0190588123183456,-1.2588718225443089e-05,0.0190588123183456,-1.3595820829964231e-05,0.0190588123183456,-1.2924384377526824e-05
0.0198529294982767,-5.706913640141382e-06,0.0198529294982767,-1.3763556361715724e-05,0.0198529294982767,-1.4938575062776352e-05,0.0198529294982767,-1.191731870106063e-05
0.0206470466782078,-6.881741115034367e-06,0.0206470466782078,-1.2588778881608683e-05,0.0206470466782078,-1.4267245077123218e-05,0.0206470466782078,-1.2420766195514535e-05
0.0214411638581389,-5.8747658361268205e-06,0.0214411638581389,-1.309217708421224e-05,0.0214411638581389,-1.359583055741788e-05,0.0214411638581389,-1.191732291578776e-05
0.0222352810380699,-8.224553888112655e-06,0.0222352810380699,-1.8295475750526787e-05,0.0222352810380699,-1.4267183967963965e-05,0.0222352810380699,-1.3595759919909906e-05
0.023029398218001,-8.22461e-06,0.023029398218001,-1.5610006026616778e-05,0.023029398218001,-1.6281395480037416e-05,0.023029398218001,-1.443499811679446e-05
0.0238235153979321,-5.203395093250419e-06,0.0238235153979321,-1.2924439056182936e-05,0.0238235153979321,-1.4267206509363825e-05,0.0238235153979321,-1.5945667453180884e-05
0.0246176325778631,-8.560358196122329e-06,0.0246176325778631,-1.4938682621923993e-05,0.0246176325778631,-1.4602913770320666e-05,0.0246176325778631,-1.426725508128266e-05
0.0254117497577942,-9.73518567101532e-06,0.0254117497577942,-1.6952672578883405e-05,0.0254117497577942,-1.4938578763147234e-05,0.0254117497577942,-1.5609915052588937e-05
0.0262058669377253,-7.049781814273058e-06,0.0262058669377253,-1.5610055907344704e-05,0.0262058669377253,-1.3931541930508528e-05,0.0262058669377253,-1.4267255907344703e-05
0.0269999841176564,-8.895973072401105e-06,0.0269999841176564,-1.4267226856581017e-05,0.0269999841176564,-1.3595806714145254e-05,0.0269999841176564,-1.3595813428290507e-05
0.0277941012975874,-9.231708354363e-06,0.0277941012975874,-1.4938596708725998e-05,0.0277941012975874,-1.426720027419113e-05,0.0277941012975874,-1.5610001097091335e-05
0.0285882184775185,-8.224563138714345e-06,0.0285882184775185,-1.2924384379493895e-05,0.0285882184775185,-1.4434964855024544e-05,0.0285882184775185,-1.6281345328228637e-05
0.0293823356574496,-6.210583180712122e-06,0.0293823356574496,-1.2253054393840758e-05,0.0293823356574496,-1.292452238209093e-05,0.0293823356574496,-1.3931690378442656e-05
0.0301764528373806,-6.21042e-06,0.0301764528373806,-1.1581639875308663e-05,0.0301764528373806,-1.527416043641968e-05,0.0301764528373806,-1.5274220249382673e-05
0.0309705700173117,-5.874732674963412e-06,0.0309705700173117,-1.0910225349926825e-05,0.0309705700173117,-1.52743e-05,0.0309705700173117,-1.6281361975109766e-05
0.0317646871972428,-4.19625706120122e-06,0.0317646871972428,-9.903116236817468e-06,0.0317646871972428,-1.292443788590742e-05,0.0317646871972428,-1.5945705412272486e-05
0.0325588043771738,-3.8605411024554665e-06,0.0325588043771738,-1.0910190747962964e-05,0.0325588043771738,-1.4938605551255291e-05,0.0325588043771738,-1.5274291672841454e-05
0.0333529215571049,-5.87470177634764e-06,0.0333529215571049,-9.231627992614364e-06,0.0333529215571049,-1.5945727335885687e-05,0.0333529215571049,-1.3763618223923792e-05
0.034147038737036,-5.203381789651696e-06,0.034147038737036,-6.210653056132461e-06,0.034147038737036,-1.6952722314365387e-05,0.034147038737036,-1.4434948209576925e-05
0.0349411559169671,-6.210364093210435e-06,0.0349411559169671,-9.90289500751304e-06,0.0349411559169671,-1.5610074543126264e-05,0.0349411559169671,-1.6281297500425728e-05
0.0357352730968981,-5.874731373090646e-06,0.0357352730968981,-1.0406682938670097e-05,0.0357352730968981,-1.561e-05,0.0357352730968981,-1.3595890984725164e-05
0.0365293902768292,-5.5390341102772806e-06,0.0365293902768292,-1.1581585614213182e-05,0.0365293902768292,-1.6281391779200555e-05,0.0365293902768292,-1.4938583558401109e-05
0.0373235074567603,-2.8534305431264176e-06,0.0373235074567603,-8.896016304582388e-06,0.0373235074567603,-1.5106379510576748e-05,0.0373235074567603,-1.2588690543126418e-05
0.0381176246366913,-1.846392068043476e-06,0.0381176246366913,-9.567399586329264e-06,0.0381176246366913,-1.2924347931646315e-05,0.0381176246366913,-1.1581745791390312e-05
0.0389117418166224,-3.5247070332191163e-06,0.0389117418166224,-9.231734593502698e-06,0.0389117418166224,-1.1246022967513488e-05,0.0389117418166224,-1.6281055690962234e-05
0.0397058589965535,-3.021316000346853e-06,0.0397058589965535,-8.560344667817607e-06,0.0397058589965535,-1.2924313330455984e-05,0.0397058589965535,-1.4938669335635211e-05
0.0404999761764846,-3.1891349643910585e-06,0.0404999761764846,-1.0574439572992708e-05,0.0404999761764846,-1.2253020142435764e-05,0.0404999761764846,-1.2253080569743064e-05
0.0412940933564156,-5.706848936215122e-06,0.0412940933564156,-1.191728876589216e-05,0.0412940933564156,-1.091021123410784e-05,0.0412940933564156,-1.292439438294608e-05
0.0420882105363467,-6.210393278513927e-06,0.0420882105363467,-1.3092220041877385e-05,0.0420882105363467,-7.553197731984384e-06,0.0420882105363467,-1.3595808907206244e-05
0.0428823277162778,-4.196413320511704e-06,0.0428823277162778,-1.4602762504382888e-05,0.0428823277162778,-5.87487276785154e-06,0.0428823277162778,-1.4267138892859385e-05
0.0436764448962088,-4.19623e-06,0.0436764448962088,-1.426722329472696e-05,0.0436764448962088,-6.881750115819119e-06,0.0436764448962088,-1.1078321296436549e-05
0.0444705620761399,-6.378165792243328e-06,0.0444705620761399,-1.4602883967963964e-05,0.0444705620761399,-1.3259795392270432e-05,0.0444705620761399,-1.225294389026172e-05
0.045264679256071,-7.217498076637206e-06,0.045264679256071,-1.3595826308035351e-05,0.045264679256071,-1.829546845982324e-05,0.045264679256071,-1.4267147383929296e-05
0.046058796436002,-5.539037533226091e-06,0.046058796436002,-1.4267196986691613e-05,0.046058796436002,-1.6952806026616778e-05,0.046058796436002,-1.4602898493345804e-05
0.0468529136159331,-3.52483e-06,0.0468529136159331,-1.3595782734064107e-05,0.0468529136159331,-1.5609994244688037e-05,0.0468529136159331,-1.3931546042495709e-05
0.0476470307958642,-3.52483e-06,0.0476470307958642,-1.2588787755584395e-05,0.0476470307958642,-1.5274329251861465e-05,0.0476470307958642,-1.661686598510828e-05
0.0484411479757953,-3.52483e-06,0.0484411479757953,-1.2924378007145805e-05,0.0484411479757953,-1.225319793568775e-05,0.0484411479757953,-1.7624134021437417e-05
0.0492352651557263,-3.52483e-06,0.0492352651557263,-1.1581658920653097e-05,0.0492352651557263,-1.3931426349183628e-05,0.0492352651557263,-1.7288514730163272e-05
0.0500293823356574,-3.189147467249909e-06,0.0500293823356574,-1.15816e-05,0.0500293823356574,-1.4938577597582935e-05,0.0500293823356574,-1.6281422402417062e-05
0.0508234995155885,-5.539028566536078e-06,0.0508234995155885,-1.1245900204781432e-05,0.0508234995155885,-1.6952798771311413e-05,0.0508234995155885,-1.4938600819125729e-05
0.0516176166955195,-7.553152958512527e-06,0.0516176166955195,-9.56743822787302e-06,0.0516176166955195,-1.5274321171062428e-05,0.0516176166955195,-1.5274278828937573e-05
0.0524117338754506,-4.36434552561734e-06,0.0524117338754506,-1.0910088200222097e-05,0.0524117338754506,-1.6281316149542125e-05,0.0524117338754506,-1.4267283850457874e-05
0.0532058510553817,-2.853533108800076e-06,0.0532058510553817,-1.2252917236074283e-05,0.0532058510553817,-1.62814e-05,0.0532058510553817,-1.2924482763925714e-05
0.0539999682353128,-2.85344e-06,0.0539999682353128,-1.2924373143418982e-05,0.0539999682353128,-1.62814e-05,0.0539999682353128,-1.29244e-05
0.0547940854152438,-4.196205337785321e-06,0.0547940854152438,-1.29244e-05,0.0547940854152438,-1.6617093834400414e-05,0.0547940854152438,-1.4267175337601655e-05
0.0555882025951749,-3.3569849362893827e-06,0.0555882025951749,-1.091019670914041e-05,0.0555882025951749,-1.5945694515234017e-05,0.0555882025951749,-1.527430329085959e-05
0.056382319775106,-4.867477404008942e-06,0.056382319775106,-9.903201730660705e-06,0.056382319775106,-1.4267369551101176e-05,0.056382319775106,-1.6281298269339293e-05
0.057176436955037,-4.86763e-06,0.057176436955037,-9.735273325105876e-06,0.057176436955037,-1.5274220044601243e-05,0.057176436955037,-1.7624093392801657e-05
0.0579705541349681,-7.553064887708268e-06,0.0579705541349681,-1.0238770916914575e-05,0.0579705541349681,-1.2588855112869304e-05,0.0579705541349681,-1.4938755112869304e-05
0.0587646713148992,-1.0910078736544994e-05,0.0587646713148992,-1.02388e-05,0.0587646713148992,-9.567519137398486e-06,0.0587646713148992,-1.4267224252835493e-05
0.0595587884948302,-7.553268636978465e-06,0.0595587884948302,-1.0574495136273178e-05,0.0595587884948302,-8.392477023043882e-06,0.0595587884948302,-1.42672e-05
0.0603529056747613,-9.56741e-06,0.0603529056747613,-1.1581602398662037e-05,0.0603529056747613,-9.567424391900764e-06,0.0603529056747613,-1.2253002398662037e-05
0.0611470228546924,-9.56741e-06,0.0611470228546924,-1.1917267391488606e-05,0.0611470228546924,-1.1581404349902988e-05,0.0611470228546924,-1.2588667391488606e-05
0.0619411400346235,-8.224711399707292e-06,0.0619411400346235,-1.1581625349926823e-05,0.0619411400346235,-1.359564790043906e-05,0.0619411400346235,-1.359572395021953e-05
0.0627352572145545,-7.553256173933009e-06,0.0627352572145545,-1.39313733893487e-05,0.0627352572145545,-1.0238980872359002e-05,0.0627352572145545,-1.22530723489436e-05
0.0635293743944856,-5.5390949469474175e-06,0.0635293743944856,-1.4938567526365068e-05,0.0635293743944856,-9.231742473312489e-06,0.0635293743944856,-1.359575670182009e-05
0.0643234915744167,-7.55319862898174e-06,0.0643234915744167,-1.560999287629188e-05,0.0643234915744167,-1.2252967943419558e-05,0.0643234915744167,-1.4938585752583758e-05
0.0651176087543477,-4.531920749072801e-06,0.0651176087543477,-1.6952792599258242e-05,0.0651176087543477,-1.4267209250376055e-05,0.0651176087543477,-1.326010740074176e-05
0.0659117259342788,-3.692758267006394e-06,0.0659117259342788,-1.6281462613605113e-05,0.0659117259342788,-1.510632173765652e-05,0.0659117259342788,-1.3931437386394883e-05
0.0667058431142099,-7.888609400757031e-06,0.0667058431142099,-1.3595992384432437e-05,0.0667058431142099,-1.1749640480540544e-05,0.0667058431142099,-1.4267175951945944e-05
0.067499960294141,-4.867781067268216e-06,0.067499960294141,-1.225306714145255e-05,0.067499960294141,-1.1245925175544651e-05,0.067499960294141,-1.7288348931731763e-05
0.068294077474072,-6.210381909594808e-06,0.068294077474072,-1.3931452386638928e-05,0.068294077474072,-1.493849525060564e-05,0.068294077474072,-1.6952809522672217e-05
0.0690881946540031,-6.21042e-06,0.0690881946540031,-1.39315e-05,0.0690881946540031,-1.762418192014962e-05,0.0690881946540031,-1.594570677994389e-05
0.0698823118339342,-5.5391045326302e-06,0.0698823118339342,-1.1581860868091134e-05,0.0698823118339342,-1.3931909935571784e-05,0.0698823118339342,-1.4938711800610488e-05
0.0706764290138652,-3.525010053233288e-06,0.0706764290138652,-1.0238920035488855e-05,0.0706764290138652,-1.6281189937894496e-05,0.0706764290138652,-1.49386e-05
0.0714705461937963,-2.853485491685009e-06,0.0714705461937963,-1.0574477253818709e-05,0.0714705461937963,-1.7288431761456125e-05,0.0714705461937963,-1.4267245492362582e-05
0.0722646633737274,-4.196168066499731e-06,0.0722646633737274,-1.05745e-05,0.0722646633737274,-1.7624184516509625e-05,0.0722646633737274,-1.4602884516509626e-05
0.0730587805536585,-8.393282076026424e-07,0.0730587805536585,-1.0238808220799446e-05,0.0730587805536585,-1.6952816441598894e-05,0.0730587805536585,-1.3595824662398335e-05
0.0738528977335895,-1.6784876047458022e-06,0.0738528977335895,-9.231712874297048e-06,0.0738528977335895,-1.628140191621706e-05,0.0738528977335895,-1.2924401916217056e-05
0.0746470149135206,-2.8533141219353727e-06,0.0746470149135206,-1.0238692105587382e-05,0.0746470149135206,-1.2589095616774544e-05,0.0746470149135206,-1.3595728069677356e-05
0.0754411320934517,-3.189111293000548e-06,0.0754411320934517,-1.1245813879001643e-05,0.0754411320934517,-1.2924371293000548e-05,0.0754411320934517,-1.2253114827997808e-05
0.0762352492733827,-3.524808556330265e-06,0.0762352492733827,-1.0238864332925586e-05,0.0762352492733827,-1.52741498898403e-05,0.0762352492733827,-1.1413753613965292e-05
0.0770293664533138,-6.210306547481601e-06,0.0770293664533138,-1.0574485818382394e-05,0.0770293664533138,-1.2420920545861895e-05,0.0770293664533138,-1.393139363575571e-05
0.0778234836332449,-6.21042e-06,0.0778234836332449,-1.091019308107331e-05,0.0778234836332449,-1.3595775782726066e-05,0.0778234836332449,-1.4938579243219933e-05
0.078617600813176,-4.867631374873583e-06,0.078617600813176,-1.09102e-05,0.078617600813176,-1.3595799656279044e-05,0.078617600813176,-1.4434998453306896e-05
0.079411717993107,-6.210281347222646e-06,0.079411717993107,-1.09102e-05,0.079411717993107,-1.3260134663452485e-05,0.079411717993107,-1.2924555980373306e-05
0.0802058351730381,-5.539084809437009e-06,0.0802058351730381,-1.3092021870758349e-05,0.0802058351730381,-1.2924427405126682e-05,0.0802058351730381,-1.3595745189746631e-05
0.0809999523529692,-9.567168291970832e-06,0.0809999523529692,-1.393144964091052e-05,0.0809999523529692,-1.3595759715128468e-05,0.0809999523529692,-1.4267159715128468e-05
0.0817940695329002,-1.0574461361149157e-05,0.0817940695329002,-1.510635492281141e-05,0.0817940695329002,-1.57777162835769e-05,0.0817940695329002,-1.2588764398724187e-05
0.0825881867128313,-7.385423361677597e-06,0.0825881867128313,-1.5609991573582502e-05,0.0825881867128313,-1.5274308424744264e-05,0.0825881867128313,-1.3763580341147897e-05
0.0833823038927624,-6.54622155880023e-06,0.0833823038927624,-1.5945659376479907e-05,0.0833823038927624,-1.8966553141278984e-05,0.0833823038927624,-1.46027984351492e-05
0.0841764210726934,-6.378286682972422e-06,0.0841764210726934,-1.2589033659448432e-05,0.0841764210726934,-1.796000009783453e-05,0.0841764210726934,-1.4938566634055156e-05
0.0849705382526245,-5.53909525735721e-06,0.0849705382526245,-1.3595721690238257e-05,0.0849705382526245,-1.6952878309761746e-05,0.0849705382526245,-1.49386e-05
0.0857646554325556,-4.19630536225199e-06,0.0857646554325556,-1.3931481159437003e-05,0.0857646554325556,-1.7120590582524662e-05,0.0857646554325556,-1.49386e-05
0.0865587726124866,-5.203295266383759e-06,0.0865587726124866,-1.1917369467232483e-05,0.0865587726124866,-1.3931609988060328e-05,0.0865587726124866,-1.527428842212792e-05
0.0873528897924177,-7.553189793860439e-06,0.0873528897924177,-1.3595778424094212e-05,0.0873528897924177,-1.1749428049320238e-05,0.0873528897924177,-1.7120576267146346e-05
0.0881470069723488,-4.867944573318679e-06,0.0881470069723488,-1.2924478643622504e-05,0.0881470069723488,-9.903316264105198e-06,0.0881470069723488,-1.4267534229538952e-05
0.0889411241522799,-1.678794607729569e-06,0.0889411241522799,-1.2588732064072075e-05,0.0889411241522799,-6.210772702882539e-06,0.0889411241522799,-1.42672e-05
0.0897352413322109,5.033867919090311e-07,0.0897352413322109,-1.1581674404143472e-05,0.0897352413322109,-5.203404403404677e-06,0.0897352413322109,-1.3595849602762317e-05
0.090529358512142,-2.8532646137245945e-06,0.090529358512142,-1.2588647383929296e-05,0.090529358512142,-5.539012461309766e-06,0.090529358512142,-1.493852984523906e-05
0.0913234756920731,-4.867568344310236e-06,0.0913234756920731,-1.0910251379996558e-05,0.0913234756920731,-9.567286688620472e-06,0.0913234756920731,-1.44350154155295e-05
0.0921175928720041,-3.860539039925167e-06,0.0921175928720041,-7.888937119685738e-06,0.0921175928720041,-1.3595763840389094e-05,0.0921175928720041,-1.3595807532822162e-05
0.0929117100519352,-3.524868020102412e-06,0.0929117100519352,-8.895895939692765e-06,0.0929117100519352,-1.4267123959795176e-05,0.0929117100519352,-1.35958e-05
0.0937058272318663,-3.692664618900344e-06,0.0937058272318663,-1.0238676952119112e-05,0.0937058272318663,-1.258885381099656e-05,0.0937058272318663,-1.2588792286597936e-05
0.0944999444117974,-2.517822247579346e-06,0.0944999444117974,-1.091015300098322e-05,0.0944999444117974,-1.4434870756203937e-05,0.0944999444117974,-1.1581670498525164e-05
0.0952940615917284,-4.867516342761367e-06,0.0952940615917284,-1.09102e-05,0.0952940615917284,-1.292447306326027e-05,0.0952940615917284,-1.4267070105460224e-05
0.0960881787716595,-5.539012051746902e-06,0.0960881787716595,-8.896063844491969e-06,0.0960881787716595,-1.3595782051746902e-05,0.0960881787716595,-1.393150897412655e-05
0.0968822959515906,-3.1894478598800524e-06,0.0968822959515906,-9.735150049574946e-06,0.0968822959515906,-1.527408009914989e-05,0.0968822959515906,-1.2924531940510066e-05
0.0976764131315216,-3.860456555058991e-06,0.0976764131315216,-1.2252724578462928e-05,0.0976764131315216,-1.5609963276982535e-05,0.0976764131315216,-1.3595726553965067e-05
0.0984705303114527,-2.0143520309184408e-06,0.0984705303114527,-1.0238976761959292e-05,0.0984705303114527,-1.7288352698367255e-05,0.0984705303114527,-1.326012946032655e-05
0.0992646474913838,-4.8674413207584114e-06,0.0992646474913838,-9.903122197635626e-06,0.0992646474913838,-1.6617144395271253e-05,0.0992646474913838,-1.3595777802364372e-05
0.1000587646713148,-5.53883108311824e-06,0.1000587646713148,-1.3091255159625232e-05,0.1000587646713148,-1.628149945844088e-05,0.1000587646713148,-1.376355028559315e-05
0.1008528818512459,-7.552920284585792e-06,0.1008528818512459,-1.3595725063334343e-05,0.1008528818512459,-1.6952700094365926e-05,0.1008528818512459,-1.2924524874602496e-05
0.101646999031177,-6.8818208192288905e-06,0.101646999031177,-1.225300163845778e-05,0.101646999031177,-1.527430204807223e-05,0.101646999031177,-1.29244e-05
0.1024411162111081,-6.8819182671762925e-06,0.1024411162111081,-1.42672e-05,0.1024411162111081,-1.426734740076444e-05,0.1024411162111081,-1.39315e-05
0.1032352333910391,-7.553417350642067e-06,0.1032352333910391,-1.426729867679075e-05,0.1032352333910391,-1.527420132320925e-05,0.1032352333910391,-1.3931598676790751e-05
0.1040293505709702,-8.2241659037504e-06,0.1040293505709702,-1.4602307865787603e-05,0.1040293505709702,-1.4938007865787604e-05,0.1040293505709702,-1.4267940167765496e-05
0.1048234677509013,-7.21819424244628e-06,0.1048234677509013,-1.3260998998854984e-05,0.1048234677509013,-1.3596698998854985e-05,0.1048234677509013,-1.594457625143127e-05
0.1056175849308323,-5.875421958284988e-06,0.1056175849308323,-1.3595624510428752e-05,0.1056175849308323,-1.6951045104287534e-05,0.1056175849308323,-1.4435789729208469e-05
0.1064117021107634,-6.881442160894054e-06,0.1064117021107634,-1.4938096214525405e-05,0.1064117021107634,-1.5610503785474595e-05,0.1064117021107634,-1.493841106168826e-05
0.1072058192906945,-7.217443596833949e-06,0.1072058192906945,-1.3931729209498151e-05,0.1072058192906945,-1.3931882015830252e-05,0.1072058192906945,-1.6281094387335796e-05
0.1079999364706256,-4.867818018944092e-06,0.1079999364706256,-1.2253134299817292e-05,0.1079999364706256,-1.39315e-05,0.1079999364706256,-1.6449186574018863e-05
0.1087940536505566,-4.1963434155199685e-06,0.1087940536505566,-1.1581622683239131e-05,0.1087940536505566,-1.6281456704719336e-05,0.1087940536505566,-1.69528e-05
0.1095881708304877,-5.875514488707531e-06,0.1095881708304877,-1.1917372226441731e-05,0.1095881708304877,-1.7119769406677672e-05,0.1095881708304877,-1.695236664134961e-05
0.1103822880104188,-9.56692292142268e-06,0.1103822880104188,-1.225263469106701e-05,0.1103822880104188,-1.326046530893299e-05,0.1103822880104188,-1.4939330617865978e-05
0.1111764051903498,-8.223070133961892e-06,0.1111764051903498,-1.1245215610563744e-05,0.1111764051903498,-1.4266857805281871e-05,0.1111764051903498,-1.6951602318486554e-05
0.1119705223702809,-5.205145161154192e-06,0.1119705223702809,-9.903906743631126e-06,0.1119705223702809,-1.3596203371815565e-05,0.1119705223702809,-1.460431180135447e-05
0.112764639550212,-3.0222805741251312e-06,0.112764639550212,-1.1245290413129354e-05,0.112764639550212,-1.393134760328234e-05,0.112764639550212,-1.426735239671766e-05
0.1135587567301431,-3.524675722791257e-06,0.1135587567301431,-1.0574705707030128e-05,0.1135587567301431,-1.3595902853515064e-05,0.1135587567301431,-1.4938394292969871e-05
0.1143528739100741,-5.538710138125171e-06,0.1143528739100741,-1.05745e-05,0.1143528739100741,-1.4938386758750114e-05,0.1143528739100741,-1.5945540069062585e-05
0.1151469910900052,-6.546108698782578e-06,0.1151469910900052,-1.023880376710988e-05,0.1151469910900052,-1.393151130132964e-05,0.1151469910900052,-1.4938611301329638e-05
0.1159411082699363,-4.867446895629126e-06,0.1159411082699363,-9.567501550821836e-06,0.1159411082699363,-1.29244e-05,0.1159411082699363,-1.2924491552185435e-05
0.1167352254498673,-3.525020638590622e-06,0.1167352254498673,-1.0238990638590622e-05,0.1167352254498673,-1.292449531929531e-05,0.1167352254498673,-1.3595990638590622e-05
0.1175293426297984,-4.197242757656704e-06,0.1175293426297984,-1.090991063943814e-05,0.1175293426297984,-1.3260968081685582e-05,0.1175293426297984,-1.4266331918314418e-05
0.1183234598097295,-6.54452328589344e-06,0.1183234598097295,-1.023925620597183e-05,0.1183234598097295,-1.527293138208451e-05,0.1183234598097295,-1.225436861791549e-05
0.1191175769896605,-6.881641152933325e-06,0.1191175769896605,-1.0574321152933324e-05,0.1191175769896605,-1.3596694235333373e-05,0.1191175769896605,-1.1581957694133349e-05
0.1199116941695916,-6.88182e-06,0.1199116941695916,-1.3594636265223257e-05,0.1199116941695916,-1.35958e-05,0.1199116941695916,-1.443390093641414e-05
0.1207058113495227,-5.539349040269988e-06,0.1207058113495227,-1.35958e-05,0.1207058113495227,-1.3931420239338515e-05,0.1207058113495227,-1.5274100586466538e-05
0.1214999285294538,-6.0425246747117945e-06,0.1214999285294538,-1.2253120869835568e-05,0.1214999285294538,-1.2756605765606789e-05,0.1214999285294538,-1.2924611522212246e-05
0.1222940457093848,-6.881781348512588e-06,0.1222940457093848,-1.4267277302974822e-05,0.1222940457093848,-1.3931519325743709e-05,0.1222940457093848,-1.3931422697025178e-05
0.1230881628893159,-6.210213395212609e-06,0.1230881628893159,-1.560972452421481e-05,0.1230881628893159,-1.4267062262107404e-05,0.1230881628893159,-1.2588631131053703e-05
0.123882280069247,-5.2045141144342594e-06,0.123882280069247,-1.426684476355333e-05,0.123882280069247,-1.3595918412148887e-05,0.123882280069247,-1.225442094578668e-05
0.124676397249178,-8.559471284562371e-06,0.124676397249178,-1.3260267744086896e-05,0.124676397249178,-1.3932087079319908e-05,0.124676397249178,-1.6281064511826208e-05
0.1254705144291091,-6.882845189791943e-06,0.1254705144291091,-1.359559496082005e-05,0.1254705144291091,-1.5105682393409224e-05,0.1254705144291091,-1.5610410078359902e-05
0.1262646316090402,-6.88182e-06,0.1262646316090402,-1.1582534525278535e-05,0.1262646316090402,-1.6280854837055763e-05,0.1262646316090402,-1.3596734525278535e-05
0.1270587487889713,-6.88182e-06,0.1270587487889713,-1.15816e-05,0.1270587487889713,-1.4603431055052488e-05,0.1270587487889713,-1.6616144100905523e-05
0.1278528659689023,-1.0238233325297044e-05,0.1278528659689023,-1.1917243332192094e-05,0.1278528659689023,-1.4267256667807904e-05,0.1278528659689023,-1.4938883339039529e-05
0.1286469831488334,-9.903107124605314e-06,0.1286469831488334,-1.2588685750789372e-05,0.1286469831488334,-1.44349964387585e-05,0.1286469831488334,-1.6617064376973435e-05
0.1294411003287645,-8.224355489679842e-06,0.1294411003287645,-1.1581515162805418e-05,0.1294411003287645,-1.35958e-05,0.1294411003287645,-1.7120281866838252e-05
0.1302352175086955,-6.209408425680097e-06,0.1302352175086955,-1.09102e-05,0.1302352175086955,-1.3595983923599766e-05,0.1302352175086955,-1.4602440191000584e-05
0.1310293346886266,-2.5175986729912387e-06,0.1310293346886266,-1.0909422705661732e-05,0.1310293346886266,-1.4266634691964957e-05,0.1310293346886266,-1.2924682654017524e-05
0.1318234518685577,-2.182271456258084e-06,0.1318234518685577,-9.065133002524728e-06,0.1318234518685577,-1.2925325825032335e-05,0.1318234518685577,-1.359533708748383e-05
0.1326175690484888,-2.5175577954378857e-06,0.1326175690484888,-7.554039915101913e-06,0.1326175690484888,-1.29244e-05,0.1326175690484888,-1.59444245680652e-05
0.1334116862284198,-2.853307338640489e-06,0.1334116862284198,-1.0237738717027482e-05,0.1334116862284198,-1.29244e-05,0.1334116862284198,-1.544229901179818e-05
0.1342058034083509,-3.524663766162129e-06,0.1342058034083509,-1.2252501291058487e-05,0.1342058034083509,-1.3595633763686163e-05,0.1342058034083509,-1.3596257137483223e-05
0.134999920588282,-2.1821742988171566e-06,0.134999920588282,-1.1917333574954329e-05,0.134999920588282,-1.5609798550274045e-05,0.134999920588282,-1.4938465700182696e-05
0.135794037768213,-4.36408e-06,0.135794037768213,-1.1581711777737944e-05,0.135794037768213,-1.4938536127006888e-05,0.135794037768213,-1.3595744108752676e-05
0.1365881549481441,-4.3641782671763045e-06,0.1365881549481441,-1.3931598257418866e-05,0.1365881549481441,-1.3596389603057828e-05,0.1365881549481441,-1.2421029299835483e-05
0.1373822721280752,-4.8672273087128825e-06,0.1373822721280752,-1.4434712380502874e-05,0.1373822721280752,-1.661594945346538e-05,0.1373822721280752,-1.359533978138615e-05
0.1381763893080062,-3.692597804592637e-06,0.1381763893080062,-1.3597279517332532e-05,0.1381763893080062,-1.3259935609185276e-05,0.1381763893080062,-1.2253e-05
0.1389705064879373,-3.52493419622606e-06,0.1389705064879373,-1.6615224467930926e-05,0.1389705064879373,-1.292460839245212e-05,0.1389705064879373,-1.2253e-05
0.1397646236678684,-5.034763997311644e-06,0.1397646236678684,-1.963696799462329e-05,0.1397646236678684,-1.5608727106331812e-05,0.1397646236678684,-1.124637733512557e-05
0.1405587408477994,-3.5253230582766905e-06,0.1405587408477994,-1.762485741103559e-05,0.1405587408477994,-1.3596457411035587e-05,0.1405587408477994,-1.0239128705517792e-05
0.1413528580277305,-4.196109949393322e-06,0.1413528580277305,-1.5106850198715362e-05,0.1413528580277305,-1.4938359898786644e-05,0.1413528580277305,-1.2252639848179966e-05
0.1421469752076616,-4.19623e-06,0.1421469752076616,-1.2924468132093549e-05,0.1421469752076616,-1.4435015724712332e-05,0.1421469752076616,-1.4267137107395587e-05
0.1429410923875927,-4.867708122203691e-06,0.1429410923875927,-9.231631877796313e-06,0.1429410923875927,-1.2253546855425832e-05,0.1429410923875927,-1.6617080463631218e-05
0.1437352095675237,-5.539074299512835e-06,0.1437352095675237,-8.56031e-06,0.1437352095675237,-1.6952356978477756e-05,0.1437352095675237,-1.6448978502435825e-05
0.1445293267474548,-5.707352908078072e-06,0.1445293267474548,-8.560172026263408e-06,0.1445293267474548,-1.5274437973736593e-05,0.1445293267474548,-1.560931013131704e-05
0.1453234439273859,-6.880998166644113e-06,0.1453234439273859,-8.224844809530253e-06,0.1453234439273859,-1.560976519046975e-05,0.1453234439273859,-1.3932674047651268e-05
0.146117561107317,-6.210791124115073e-06,0.146117561107317,-9.902172195239934e-06,0.146117561107317,-1.4938971124115071e-05,0.146117561107317,-1.39315e-05
0.146911678287248,-6.881547962290112e-06,0.146911678287248,-1.2252047868015387e-05,0.146911678287248,-1.4603036018854944e-05,0.146911678287248,-1.6951575830305504e-05
0.1477057954671791,-9.063297910835692e-06,0.1477057954671791,-1.0910545902609408e-05,0.1477057954671791,-1.3596059426957057e-05,0.1477057954671791,-1.561034590260941e-05
0.1484999126471102,-9.06386e-06,0.1484999126471102,-9.735389262473957e-06,0.1484999126471102,-1.4938452270201008e-05,0.1484999126471102,-1.6281326135100502e-05
0.1492940298270412,-8.224540641235078e-06,0.1492940298270412,-1.0910231525003803e-05,0.1492940298270412,-1.7624124335483006e-05,0.1492940298270412,-1.62814e-05
0.1500881470069723,-6.378363230933155e-06,0.1500881470069723,-1.1749058162502469e-05,0.1500881470069723,-1.5610248615821745e-05,0.1500881470069723,-1.628152430791087e-05
0.1508822641869034,-6.881373214695177e-06,0.1508822641869034,-9.902988306169265e-06,0.1508822641869034,-1.6952018119893803e-05,0.1508822641869034,-1.6953246788632114e-05
0.1516763813668344,-5.53903e-06,0.1516763813668344,-9.56741e-06,0.1516763813668344,-1.4601772737202105e-05,0.1516763813668344,-1.8294955849829776e-05
0.1524704985467655,-5.53903e-06,0.1524704985467655,-9.56741e-06,0.1524704985467655,-1.2254482220069936e-05,0.1524704985467655,-1.695364698289711e-05
0.1532646157266966,-6.545632597227807e-06,0.1532646157266966,-1.0574012597227808e-05,0.1532646157266966,-1.3091793851188648e-05,0.1532646157266966,-1.359742469203969e-05
0.1540587329066277,-6.378326463000682e-06,0.1540587329066277,-9.5677487746402e-06,0.1540587329066277,-9.904172780193488e-06,0.1540587329066277,-1.158227755600819e-05
0.1548528500865587,-7.049543234402478e-06,0.1548528500865587,-1.0574309853491796e-05,0.1548528500865587,-5.539853970719659e-06,0.1548528500865587,-1.2924146468804957e-05
0.1556469672664898,-5.874768438586633e-06,0.1556469672664898,-1.2252930802019095e-05,0.1556469672664898,-8.224499284055077e-06,0.1556469672664898,-1.225302767919236e-05
0.1564410844464209,-4.867665703606424e-06,0.1564410844464209,-9.903492739670656e-06,0.1564410844464209,-9.56728503737752e-06,0.1564410844464209,-1.191740711081927e-05
0.157235201626352,-5.203628361292179e-06,0.157235201626352,-1.3596311480854091e-05,0.157235201626352,-8.39309934852824e-06,0.157235201626352,-1.292457049361803e-05
0.158029318806283,-6.3777315221524496e-06,0.158029318806283,-1.5609326897677885e-05,0.158029318806283,-1.0910536531110348e-05,0.158029318806283,-1.3596001910645924e-05
0.1588234359862141,-5.0364326441151296e-06,0.1588234359862141,-1.3932690814012056e-05,0.1588234359862141,-1.1748804628466538e-05,0.1588234359862141,-1.409894279126895e-05
0.1596175531661451,-4.364457839105963e-06,0.1596175531661451,-1.1582922436870872e-05,0.1596175531661451,-1.3930271994767464e-05,0.1596175531661451,-1.3092766758658944e-05
0.1604116703460762,-3.525178440875945e-06,0.1604116703460762,-1.2588281870948866e-05,0.1604116703460762,-1.4938181870948863e-05,0.1604116703460762,-1.2924469667416126e-05
0.1612057875260073,-5.20288083426113e-06,0.1612057875260073,-1.4602361001113356e-05,0.1612057875260073,-1.5609820333704454e-05,0.1612057875260073,-1.5105816097919442e-05
0.1619999047059384,-6.881618551474208e-06,0.1619999047059384,-1.4938559710054808e-05,0.1619999047059384,-1.5945659710054804e-05,0.1619999047059384,-1.4267300718862098e-05
0.1627940218858694,-4.867694772526231e-06,0.1627940218858694,-1.5610037013029643e-05,0.1627940218858694,-1.628143701302964e-05,0.1627940218858694,-1.3595860144794963e-05
0.1635881390658005,-7.21728481415999e-06,0.1635881390658005,-1.6952682407079998e-05,0.1635881390658005,-1.7624082407079996e-05,0.1635881390658005,-1.5777653017607285e-05
0.1643822562457316,-5.873853289153797e-06,0.1643822562457316,-1.6281291660337404e-05,0.1643822562457316,-1.6952204115719352e-05,0.1643822562457316,-1.49386e-05
0.1651763734256627,-3.18914e-06,0.1651763734256627,-1.5945857684270398e-05,0.1651763734256627,-1.510663654989149e-05,0.1651763734256627,-1.49386e-05
0.1659704906055937,-3.18914e-06,0.1659704906055937,-1.628118490100354e-05,0.1659704906055937,-1.560967731946793e-05,0.1659704906055937,-1.49386e-05
0.1667646077855248,-5.537869218043992e-06,0.1667646077855248,-1.3932660786895738e-05,0.1667646077855248,-1.561e-05,0.1667646077855248,-1.5777385457950167e-05
0.1675587249654559,-6.210187436470314e-06,0.1675587249654559,-1.3092490726061551e-05,0.1675587249654559,-1.644890930857756e-05,0.1675587249654559,-1.5610058124428845e-05
0.1683528421453869,-5.874786740294207e-06,0.1683528421453869,-1.3931333139324016e-05,0.1683528421453869,-1.4938900321383462e-05,0.1683528421453869,-1.6281266519411587e-05
0.169146959325318,-5.539047196579328e-06,0.169146959325318,-1.2588768788366412e-05,0.169146959325318,-1.5609965605816797e-05,0.169146959325318,-1.393162037964122e-05
0.1699410765052491,-6.210565557499453e-06,0.1699410765052491,-1.2420816177873206e-05,0.1699410765052491,-1.4267329384443958e-05,0.1699410765052491,-1.35958e-05
0.1707351936851801,-7.720865276716045e-06,0.1707351936851801,-1.2587840164646752e-05,0.1707351936851801,-1.5609713375205668e-05,0.1707351936851801,-1.3595472442745674e-05
0.1715293108651112,-6.880901133564393e-06,0.1715293108651112,-9.063663099211602e-06,0.1715293108651112,-1.4434015515609272e-05,0.1715293108651112,-1.2253525068769062e-05
0.1723234280450423,-4.533620605327738e-06,0.1723234280450423,-8.560672274111887e-06,0.1723234280450423,-1.1919111334587426e-05,0.1723234280450423,-1.3594833935701634e-05
0.1731175452249733,-3.357652969669414e-06,0.1731175452249733,-9.734587030330587e-06,0.1731175452249733,-8.89774048770799e-06,0.1731175452249733,-1.3931307722951596e-05
0.1739116624049044,-3.860315899231283e-06,0.1739116624049044,-8.89636683461453e-06,0.1739116624049044,-4.533785531491899e-06,0.1739116624049044,-1.4267057266154188e-05
0.1747057795848355,-3.189326378510429e-06,0.1747057795848355,-8.224796381286438e-06,0.1747057795848355,-7.552381286987033e-06,0.1747057795848355,-1.3595986381286438e-05
0.1754998967647666,-3.18914e-06,0.1754998967647666,-8.22461e-06,0.1754998967647666,-1.1581076233312994e-05,0.1754998967647666,-1.4938425410237536e-05
0.1762940139446976,-2.182028208476047e-06,0.1762940139446976,-9.567401156357036e-06,0.1762940139446976,-1.527431768728593e-05,0.1762940139446976,-1.359578231271407e-05
0.1770881311246287,-1.51064e-06,0.1770881311246287,-9.064275790582822e-06,0.1770881311246287,-1.6281178244141725e-05,0.1770881311246287,-1.2588977194822844e-05
0.1778822483045598,-1.5114798542100246e-06,0.1778822483045598,-1.1580812636873557e-05,0.1778822483045598,-1.4938809964334322e-05,0.1778822483045598,-1.4267514946501482e-05
0.1786763654844909,-4.196847323992922e-06,0.1786763654844909,-9.064554484894748e-06,0.1786763654844909,-1.560984566900177e-05,0.1786763654844909,-1.527414566900177e-05
0.1794704826644219,-5.53815619092554e-06,0.1794704826644219,-1.0573516971298598e-05,0.1794704826644219,-1.5274518452268614e-05,0.1794704826644219,-1.4938818452268617e-05
0.180264599844353,-1.5126702052981532e-06,0.180264599844353,-1.2252154079025875e-05,0.180264599844353,-1.39321767367793e-05,0.180264599844353,-1.49386e-05
0.181058717024284,-2.852961436031069e-06,0.181058717024284,-1.2588580359007768e-05,0.181058717024284,-1.4938241077023302e-05,0.181058717024284,-1.359627856396893e-05
0.1818528342042151,-5.538469219771079e-06,0.1818528342042151,-1.2420835059335356e-05,0.1818528342042151,-1.5106364961545728e-05,0.1818528342042151,-1.4267059804420745e-05
0.1826469513841462,-4.867671109174073e-06,0.1826469513841462,-1.4267086946709846e-05,0.1826469513841462,-1.5777758890825928e-05,0.1826469513841462,-1.4434989725767933e-05
0.1834410685640773,-5.035465505692222e-06,0.1834410685640773,-1.6952626068306667e-05,0.1834410685640773,-1.3931485501374586e-05,0.1834410685640773,-1.3260273931693332e-05
0.1842351857440083,-4.868729440775379e-06,0.1842351857440083,-1.49386e-05,0.1842351857440083,-1.3763874873060245e-05,0.1842351857440083,-1.5273828809091115e-05
0.1850293029239394,-9.566898344319614e-06,0.1850293029239394,-1.4939111655680384e-05,0.1850293029239394,-1.4938344172159808e-05,0.1850293029239394,-1.3260547679668518e-05
0.1858234201038705,-8.225589477386994e-06,0.1858234201038705,-1.6280420522613005e-05,0.1858234201038705,-1.4267689738693497e-05,0.1858234201038705,-1.4434142993757834e-05
0.1866175372838016,-8.22461e-06,0.1866175372838016,-1.4268373807263026e-05,0.1866175372838016,-1.7622243654561623e-05,0.1866175372838016,-1.5273810884502107e-05
0.1874116544637326,-8.22461e-06,0.1874116544637326,-1.42672e-05,0.1874116544637326,-1.6617538274023736e-05,0.1874116544637326,-1.5106473067429833e-05
0.1882057716436637,-7.217809641539935e-06,0.1882057716436637,-1.3931596548138654e-05,0.1882057716436637,-1.6281496548138655e-05,0.1882057716436637,-1.5609855163411898e-05
0.1889998888235948,-8.224468986592057e-06,0.1889998888235948,-1.1246276039488395e-05,0.1889998888235948,-1.661705299506395e-05,0.1889998888235948,-1.561e-05
0.1897940060035258,-1.0238761926228692e-05,0.1897940060035258,-1.1917297461733455e-05,0.1897940060035258,-1.7120578425112443e-05,0.1897940060035258,-1.5274288577422503e-05
0.1905881231834569,-5.203173755592596e-06,0.1905881231834569,-1.158149583706173e-05,0.1905881231834569,-1.4267408325876538e-05,0.1905881231834569,-1.3763469804084307e-05
0.191382240363388,-4.197042994346663e-06,0.191382240363388,-1.0909996750656522e-05,0.191382240363388,-1.560939025196957e-05,0.191382240363388,-1.2924095125984784e-05
0.192176357543319,-6.880914138141103e-06,0.192176357543319,-1.02384980490453e-05,0.192176357543319,-1.3595196089095802e-05,0.192176357543319,-1.1918205866356295e-05
0.1929704747232501,-4.86896082663745e-06,0.1929704747232501,-9.567853604474314e-06,0.1929704747232501,-1.2253887222163136e-05,0.1929704747232501,-1.3930169166755294e-05
0.1937645919031812,-6.209729838378725e-06,0.1937645919031812,-6.883200328382309e-06,0.1937645919031812,-1.3595109833238966e-05,0.1937645919031812,-1.3595972541690258e-05
0.1945587090831123,-8.223872012737942e-06,0.1945587090831123,-7.049608500756167e-06,0.1945587090831123,-1.3260222998487669e-05,0.1945587090831123,-1.35958e-05
0.1953528262630433,-8.22461e-06,0.1953528262630433,-7.04967e-06,0.1953528262630433,-1.0910714186995436e-05,0.1953528262630433,-1.3092310193868209e-05
0.1961469434429744,-7.217591735535106e-06,0.1961469434429744,-7.553184131876294e-06,0.1961469434429744,-1.4938313055010356e-05,0.1961469434429744,-1.2253059776644647e-05
0.1969410606229055,-9.567153689562294e-06,0.1969410606229055,-8.224738154837096e-06,0.1969410606229055,-1.6616933393901644e-05,0.1969410606229055,-1.2924451262240242e-05
0.1977351778028366,-6.210495174322726e-06,0.1977351778028366,-9.90347587161363e-06,0.1977351778028366,-1.4434812075389838e-05,0.1977351778028366,-1.3595649651354548e-05
0.1985292949827676,-6.546244560647916e-06,0.1985292949827676,-1.158085263982298e-05,0.1985292949827676,-1.3594803514816672e-05,0.1985292949827676,-1.2924898242591664e-05
0.1993234121626987,-6.881571777381082e-06,0.1993234121626987,-9.568899328319328e-06,0.1993234121626987,-1.0912185780951342e-05,0.1993234121626987,-1.4266207109524328e-05
0.2001175293426297,-6.210817984078544e-06,0.2001175293426297,-1.057390302980986e-05,0.2001175293426297,-1.1581202015921455e-05,0.2001175293426297,-1.594470503980364e-05
0.2009116465225608,-8.559263862595102e-06,0.2009116465225608,-1.1581151653489962e-05,0.2009116465225608,-1.560820661395985e-05,0.2009116465225608,-1.628125055116332e-05
0.2017057637024919,-4.197528767290903e-06,0.2017057637024919,-1.4266400754927396e-05,0.2017057637024919,-1.5274399905634076e-05,0.2017057637024919,-1.5610199811268152e-05
0.202499880882423,-2.8536414482257585e-06,0.202499880882423,-1.4602849637568504e-05,0.202499880882423,-1.4938650362431496e-05,0.202499880882423,-1.426740144972598e-05
0.203293998062354,-3.5248283615666214e-06,0.203293998062354,-1.3595802457686672e-05,0.203293998062354,-1.6617095903855546e-05,0.203293998062354,-1.628139508462665e-05
0.2040881152422851,-1.682387904834292e-07,0.2040881152422851,-1.42672e-05,0.2040881152422851,-1.5609853828078863e-05,0.2040881152422851,-1.6281302552052573e-05
0.2048822324222162,-2.8532434656474136e-06,0.2048822324222162,-1.426778960305776e-05,0.2048822324222162,-1.4602998267176294e-05,0.2048822324222162,-1.5609803465647414e-05
0.2056763496021472,-2.1829257423258416e-06,0.2056763496021472,-1.62814e-05,0.2056763496021472,-1.4938304751092215e-05,0.2056763496021472,-1.4939190497815568e-05
0.2064704667820783,-4.194879053829495e-06,0.2064704667820783,-1.62814e-05,0.2064704667820783,-1.4267650317625882e-05,0.2064704667820783,-1.6280499364748235e-05
0.2072645839620094,-3.189667692317304e-06,0.2072645839620094,-1.62814e-05,0.2072645839620094,-1.5609296403257233e-05,0.2072645839620094,-1.62814e-05
0.2080587011419405,-4.5314245798316015e-06,0.2080587011419405,-1.426795813589853e-05,0.2080587011419405,-1.158311627179706e-05,0.2080587011419405,-1.3596810847864707e-05
0.2088528183218715,-5.5387995616584764e-06,0.2088528183218715,-1.4938446374438983e-05,0.2088528183218715,-1.023910725112203e-05,0.2088528183218715,-1.2924553625561016e-05
0.2096469355018026,-4.196339078311617e-06,0.2096469355018026,-1.0239181774090656e-05,0.2096469355018026,-1.258850911295467e-05,0.2096469355018026,-1.3595745460844191e-05
0.2104410526817337,-4.36408e-06,0.2104410526817337,-1.17494445472494e-05,0.2104410526817337,-1.42670663582518e-05,0.2104410526817337,-1.42671109055012e-05
0.2112351698616647,-4.363900457931799e-06,0.2112351698616647,-1.242105136959206e-05,0.2112351698616647,-1.225292818317272e-05,0.2112351698616647,-1.29244e-05
0.2120292870415958,-3.52592086277124e-06,0.2120292870415958,-1.3594830340993932e-05,0.2120292870415958,-1.1917663622127277e-05,0.2120292870415958,-1.2924642414751515e-05
0.2128234042215269,-6.543855824474285e-06,0.2128234042215269,-1.0912212607128696e-05,0.2128234042215269,-1.2923645272326738e-05,0.2128234042215269,-1.3595296848217824e-05
0.2136175214014579,-8.894593559284753e-06,0.2136175214014579,-8.897224091180543e-06,0.2136175214014579,-1.2588902349534706e-05,0.2136175214014579,-1.426679530093059e-05
0.214411638581389,-6.21164244610494e-06,0.214411638581389,-1.158037755389506e-05,0.214411638581389,-1.493753035567529e-05,0.214411638581389,-1.376382923225751e-05
0.2152057557613201,-7.217210210611437e-06,0.2152057557613201,-1.0910406526259042e-05,0.2152057557613201,-1.3596213052518083e-05,0.2152057557613201,-1.4602641826795928e-05
0.2159998729412512,-6.210581159780752e-06,0.2159998729412512,-1.0238907439853834e-05,0.2159998729412512,-1.3931446280073083e-05,0.2159998729412512,-1.3595961159780753e-05
0.2167939901211822,-5.539038353324208e-06,0.2167939901211822,-1.1078089557567123e-05,0.2167939901211822,-1.5609979116378435e-05,0.2167939901211822,-1.1917320883621564e-05
0.2175881073011133,-8.224337802481796e-06,0.2175881073011133,-9.903372198869605e-06,0.2175881073011133,-1.5609954633521734e-05,0.2175881073011133,-1.24208e-05
0.2183822244810444,-6.209850544741991e-06,0.2183822244810444,-1.191815418712784e-05,0.2183822244810444,-1.527439490968087e-05,0.2183822244810444,-1.2421132198019137e-05
0.2191763416609755,-4.196951351610993e-06,0.2191763416609755,-1.4937445830546217e-05,0.2191763416609755,-1.5610144271181723e-05,0.2191763416609755,-1.35958e-05
0.2199704588409065,-5.873577446381421e-06,0.2199704588409065,-1.225482809668098e-05,0.2199704588409065,-1.5945471487914877e-05,0.2199704588409065,-1.35958e-05
0.2207645760208376,-7.216802973275542e-06,0.2207645760208376,-1.0910917026724456e-05,0.2207645760208376,-1.4939137770043345e-05,0.2207645760208376,-1.3931320743318884e-05
0.2215586932007686,-5.5396785635287e-06,0.2215586932007686,-1.4937043438257592e-05,0.2215586932007686,-1.5609740573042932e-05,0.2215586932007686,-1.2421383729973253e-05
0.2223528103806997,-5.706829917250187e-06,0.2223528103806997,-1.3092640948458377e-05,0.2223528103806997,-1.4435280607906518e-05,0.2223528103806997,-1.2924279732645342e-05
0.2231469275606308,-8.224380297862301e-06,0.2231469275606308,-1.191740719019501e-05,0.2231469275606308,-1.2588868444341686e-05,0.2231469275606308,-1.4267077491706647e-05
0.2239410447405619,-8.895934336046466e-06,0.2239410447405619,-1.3595856748387762e-05,0.2239410447405619,-1.225309458064627e-05,0.2239410447405619,-1.3931689161292545e-05
0.2247351619204929,-7.552809246048152e-06,0.2247351619204929,-1.4602181187211996e-05,0.2247351619204929,-1.3931842296659293e-05,0.2247351619204929,-1.7288636918663716e-05
0.225529279100424,-5.538322875378464e-06,0.225529279100424,-1.1078748180016256e-05,0.225529279100424,-1.5609764291792824e-05,0.225529279100424,-1.796001785410359e-05
0.2263233962803551,-3.5263595749795368e-06,0.2263233962803551,-1.292299792757188e-05,0.2263233962803551,-1.4939109858326512e-05,0.2263233962803551,-1.8295345070836743e-05
0.2271175134602862,-5.537795757819236e-06,0.2271175134602862,-1.2253411414060254e-05,0.2271175134602862,-1.4267611414060254e-05,0.2271175134602862,-1.4269668484361528e-05
0.2279116306402172,-5.706791922738113e-06,0.2279116306402172,-1.1581912327655091e-05,0.2279116306402172,-1.3596112327655092e-05,0.2279116306402172,-1.42672e-05
0.2287057478201483,-4.70009985869876e-06,0.2287057478201483,-1.2923973517500229e-05,0.2287057478201483,-1.35958e-05,0.2287057478201483,-1.829432055250069e-05
0.2294998650000794,-3.189396846700328e-06,0.2294998650000794,-1.309217146979008e-05,0.2294998650000794,-1.4267085845155295e-05,0.2294998650000794,-1.7120799779479482e-05
0.2302939821800104,-1.8463701368790348e-06,0.2302939821800104,-1.225301883442723e-05,0.2302939821800104,-1.42672e-05,0.2302939821800104,-1.443506027375807e-05
0.2310880993599415,-3.5246409608285816e-06,0.2310880993599415,-1.2252768956851272e-05,0.2310880993599415,-1.1749505028714036e-05,0.2310880993599415,-1.7791810965834118e-05
0.2318822165398726,-2.014418880463593e-06,0.2318822165398726,-1.0406471108627596e-05,0.2318822165398726,-1.25887e-05,0.2318822165398726,-1.6280759134701938e-05
0.2326763337198036,-2.854708252790519e-06,0.2326763337198036,-9.567973667440482e-06,0.2326763337198036,-1.258940458954777e-05,0.2326763337198036,-1.3932063671638216e-05
0.2334704508997347,-5.8726332255982204e-06,0.2334704508997347,-1.0909272545477757e-05,0.2334704508997347,-1.426604067321354e-05,0.2334704508997347,-1.5273372538570834e-05
0.2342645680796658,-5.539212608736745e-06,0.2342645680796658,-1.0239165228353096e-05,0.2342645680796658,-1.42672e-05,0.2342645680796658,-1.2925678299235836e-05
0.2350586852595969,-4.1967622838958245e-06,0.2350586852595969,-1.2252201574156264e-05,0.2350586852595969,-1.42672e-05,0.2350586852595969,-1.0407698012484744e-05
0.2358528024395279,-5.538695888914545e-06,0.2358528024395279,-1.0910534111085455e-05,0.2358528024395279,-1.4938432944457272e-05,0.2358528024395279,-1.3930622970841516e-05
0.236646919619459,-5.874686016443578e-06,0.236646919619459,-9.567545937262738e-06,0.236646919619459,-1.5609932030862457e-05,0.236646919619459,-1.3092284966483676e-05
0.2374410367993901,-3.0213911306563648e-06,0.2374410367993901,-9.567441116804173e-06,0.2374410367993901,-1.2588785570168673e-05,0.2374410367993901,-1.2924493351802924e-05
0.2382351539793211,-5.202809187247892e-06,0.2382351539793211,-1.0239320814691396e-05,0.2382351539793211,-1.4435032560614642e-05,0.2382351539793211,-1.4938339592654302e-05
0.2390292711592522,-2.51762549916858e-06,0.2390292711592522,-1.29244e-05,0.2390292711592522,-1.4602613730867409e-05,0.2390292711592522,-1.359557099833716e-05
0.2398233883391833,-2.182298282435425e-06,0.2398233883391833,-1.29244e-05,0.2398233883391833,-1.3764245744557796e-05,0.2398233883391833,-1.2924916564870847e-05
0.2406175055191144,-5.536939360972108e-06,0.2406175055191144,-1.2253418129051122e-05,0.2406175055191144,-1.258943169470087e-05,0.2406175055191144,-1.3092095498875812e-05
0.2414116226990454,-6.881181919460025e-06,0.2414116226990454,-1.3762882177806143e-05,0.2414116226990454,-1.4601942872062186e-05,0.2414116226990454,-1.2924479736901978e-05
0.2422057398789765,-6.210639956240754e-06,0.2422057398789765,-1.4938215060198264e-05,0.2422057398789765,-1.5609670065638872e-05,0.2422057398789765,-1.2253219956240753e-05
0.2429998570589076,-7.217338695246646e-06,0.2429998570589076,-1.4602960434917786e-05,0.2429998570589076,-1.426744173967114e-05,0.2429998570589076,-1.292427913016443e-05
0.2437939742388386,-6.2104526751455775e-06,0.2437939742388386,-1.3595832675145577e-05,0.2437939742388386,-1.560995643313923e-05,0.2437939742388386,-1.29244e-05
0.2445880914187697,-3.5250619089244685e-06,0.2445880914187697,-1.2588738651487412e-05,0.2445880914187697,-1.6616906742562943e-05,0.2445880914187697,-1.6281245394050355e-05
0.2453822085987008,-5.53947097082283e-06,0.2453822085987008,-1.2924223610619992e-05,0.2453822085987008,-1.4938776389380008e-05,0.2453822085987008,-1.4938952778760014e-05
0.2461763257786318,-7.21793268981431e-06,0.2461763257786318,-1.2252312176813077e-05,0.2461763257786318,-1.5609862435362616e-05,0.2461763257786318,-1.628195025854954e-05
0.2469704429585629,-8.223904351118464e-06,0.2469704429585629,-1.0575676093147245e-05,0.2469704429585629,-1.527453521862945e-05,0.2469704429585629,-1.7623259125482204e-05
0.247764560138494,-9.23115208498402e-06,0.247764560138494,-1.1245528056656012e-05,0.247764560138494,-1.3596729858359967e-05,0.247764560138494,-1.76242e-05
0.2485586773184251,-9.90282714712522e-06,0.2485586773184251,-1.191702714306122e-05,0.2485586773184251,-1.35958e-05,0.2485586773184251,-1.628194571387756e-05
0.2493527944983561,-7.72163474905782e-06,0.2493527944983561,-1.1246073770533595e-05,0.2493527944983561,-1.493825245893281e-05,0.2493527944983561,-1.62814e-05
0.2501469116782872,-8.224553988016056e-06,0.2501469116782872,-1.0910237342064204e-05,0.2501469116782872,-1.5106381334529718e-05,0.2501469116782872,-1.62814e-05
0.2509410288582183,-7.553097988979704e-06,0.2509410288582183,-1.091022440227675e-05,0.2509410288582183,-1.29244488045535e-05,0.2509410288582183,-1.628132679316975e-05
0.2517351460381494,-4.196476977364009e-06,0.2517351460381494,-1.1581538255658995e-05,0.2517351460381494,-1.4267446977364009e-05,0.2517351460381494,-1.4267014766976993e-05
0.2525292632180804,-5.539252291807584e-06,0.2525292632180804,-1.1245788852440748e-05,0.2525292632180804,-1.5609110819525993e-05,0.2525292632180804,-1.3259766557322246e-05
0.2533233803980115,-6.209896736378547e-06,0.2533233803980115,-1.0910461635707592e-05,0.2533233803980115,-1.2926493085660754e-05,0.2533233803980115,-1.2253784907122783e-05
0.2541174975779426,-4.532992103777241e-06,0.2541174975779426,-1.1916662733937017e-05,0.2541174975779426,-1.3930862733937017e-05,0.2541174975779426,-1.2923975155958009e-05
0.2549116147578736,-4.196392878818415e-06,0.2549116147578736,-1.2252837121181584e-05,0.2549116147578736,-1.4267037121181584e-05,0.2549116147578736,-1.3931011363544756e-05
0.2557057319378047,-3.860643335615811e-06,0.2557057319378047,-1.2253e-05,0.2557057319378047,-1.359602667123162e-05,0.2557057319378047,-1.359591333561581e-05
0.2564998491177358,-2.182358960165753e-06,0.2564998491177358,-1.3595544830347172e-05,0.2564998491177358,-1.37635681132948e-05,0.2564998491177358,-1.3092295698121212e-05
0.2572939662976669,-2.18204e-06,0.2572939662976669,-1.2924428498421252e-05,0.2572939662976669,-1.2253064119325503e-05,0.2572939662976669,-1.1245978368536133e-05
0.2580880834775979,-8.393518813451198e-07,0.2580880834775979,-1.1581529412016043e-05,0.2580880834775979,-1.0910376469959887e-05,0.2580880834775979,-1.2253e-05
0.258882200657529,-1.8465945115837443e-06,0.258882200657529,-1.0910539348778323e-05,0.258882200657529,-1.2588954511583745e-05,0.258882200657529,-1.2252490976832513e-05
0.2596763178374601,-2.85344e-06,0.2596763178374601,-1.2252731577269567e-05,0.2596763178374601,-1.35958e-05,0.2596763178374601,-1.0240276325017374e-05
0.2604704350173911,-2.85344e-06,0.2604704350173911,-1.158207714380326e-05,0.2604704350173911,-1.35958e-05,0.2604704350173911,-1.3928875709082076e-05
0.2612645521973222,-4.530983359802636e-06,0.2612645521973222,-1.225262134166512e-05,0.2612645521973222,-1.5608864024995367e-05,0.2612645521973222,-1.39315e-05
0.2620586693772533,-6.880841502410331e-06,0.2620586693772533,-1.2253e-05,0.2620586693772533,-1.896560214035188e-05,0.2620586693772533,-1.3763669913802478e-05
0.2628527865571843,-4.8681714538851926e-06,0.2628527865571843,-1.2756364649297638e-05,0.2628527865571843,-1.863139024276223e-05,0.2628527865571843,-1.2924625593464597e-05
0.2636469037371154,-4.86763e-06,0.2636469037371154,-1.292437964415828e-05,0.2636469037371154,-1.3596410493394764e-05,0.2636469037371154,-1.2253081399119302e-05
0.2644410209170465,-4.867647687285953e-06,0.2644410209170465,-1.560998231271405e-05,0.2644410209170465,-1.29244e-05,0.2644410209170465,-1.3595826530928927e-05
0.2652351380969776,-5.538796452617773e-06,0.2652351380969776,-1.49381912920811e-05,0.2652351380969776,-1.2924166452617772e-05,0.2652351380969776,-1.46029e-05
0.2660292552769086,-4.196014411425859e-06,0.2660292552769086,-1.258880779428707e-05,0.2660292552769086,-1.1581168822851718e-05,0.2660292552769086,-1.460300779428707e-05
0.2668233724568397,-3.5253599779595034e-06,0.2668233724568397,-1.2924135011020247e-05,0.2668233724568397,-1.0239859955919008e-05,0.2668233724568397,-1.4938335011020247e-05
0.2676174896367708,-6.208693770296226e-06,0.2676174896367708,-1.258891577951644e-05,0.2676174896367708,-1.3929126425319156e-05,0.2676174896367708,-1.49386e-05
0.2684116068167018,-6.881487527372326e-06,0.2684116068167018,-1.5272970109489307e-05,0.2684116068167018,-1.3595966236313836e-05,0.2684116068167018,-1.560966752737233e-05
0.2692057239966329,-6.210653386222466e-06,0.2692057239966329,-1.52743e-05,0.2692057239966329,-1.091113354488986e-05,0.2692057239966329,-1.6281166613777536e-05
0.269999841176564,-6.881685700182695e-06,0.269999841176564,-9.568551546446792e-06,0.269999841176564,-6.882625794903236e-06,0.269999841176564,-1.6952665700182698e-05
0.270793958356495,-8.895904360288186e-06,0.270793958356495,-1.0910129573700284e-05,0.270793958356495,-5.539100426299716e-06,0.270793958356495,-1.76241647865879e-05
0.2715880755364261,-6.210292254965118e-06,0.2715880755364261,-1.0238608381972009e-05,0.2715880755364261,-8.224929364014216e-06,0.2715880755364261,-1.5609952090498467e-05
0.2723821927163572,-4.867792959398272e-06,0.2723821927163572,-8.224202603931478e-06,0.2723821927163572,-1.158282219548704e-05,0.2723821927163572,-1.5106522231684494e-05
0.2731763098962882,-5.539553428474168e-06,0.2731763098962882,-6.545727429618891e-06,0.2731763098962882,-1.6616707425720825e-05,0.2731763098962882,-1.5610785148558353e-05
0.2739704270762193,-6.880852306511346e-06,0.2739704270762193,-5.539755768314843e-06,0.2739704270762193,-1.5610725775521433e-05,0.2739704270762193,-1.7622748448957136e-05
0.2747645442561504,-5.5398007409115045e-06,0.2747645442561504,-6.881049259088495e-06,0.2747645442561504,-1.4267970746651351e-05,0.2747645442561504,-1.4269126866628377e-05
0.2755586614360815,-7.049025858692872e-06,0.2755586614360815,-7.2173768565397426e-06,0.2755586614360815,-1.2253858860761544e-05,0.2755586614360815,-1.2589415717301287e-05
0.2763527786160125,-6.210654000644193e-06,0.2763527786160125,-1.0237957603257327e-05,0.2763527786160125,-1.4937851197938583e-05,0.2763527786160125,-1.25887e-05
0.2771468957959436,-5.539118112797706e-06,0.2771468957959436,-9.567498112797706e-06,0.2771468957959436,-1.6952535657669706e-05,0.2771468957959436,-1.25887e-05
0.2779410129758747,-4.53193e-06,0.2779410129758747,-1.0910221944590125e-05,0.2779410129758747,-1.5610021944590125e-05,0.2779410129758747,-1.393150548614753e-05
0.2787351301558057,-4.532342718486592e-06,0.2787351301558057,-1.2252889941299777e-05,0.2787351301558057,-1.6952910058700222e-05,0.2787351301558057,-1.4267089941299777e-05
0.2795292473357368,-7.050505525008163e-06,0.2795292473357368,-1.1582226646089478e-05,0.2795292473357368,-1.7623573353910523e-05,0.2795292473357368,-1.35958e-05
0.2803233645156679,-9.733113269978054e-06,0.2803233645156679,-1.3594189946488404e-05,0.2803233645156679,-1.5611610053511597e-05,0.2803233645156679,-1.35958e-05
0.2811174816955989,-1.0238471301009967e-05,0.2811174816955989,-1.5608685177928826e-05,0.2811174816955989,-8.900392733709487e-06,0.2811174816955989,-1.527320431494069e-05
0.2819115988755301,-9.903269593809258e-06,0.2819115988755301,-1.594553040619074e-05,0.2819115988755301,-1.023812162981491e-05,0.2819115988755301,-1.4267708781427776e-05
0.2827057160554611,-9.735320021727213e-06,0.2827057160554611,-1.628127994939332e-05,0.2827057160554611,-1.5272499240899826e-05,0.2827057160554611,-1.1079240462882804e-05
0.2834998332353922,-6.546789818238396e-06,0.2834998332353922,-1.527451152221222e-05,0.2834998332353922,-1.695244746297963e-05,0.2834998332353922,-1.2588382727183217e-05
0.2842939504153233,-6.210440964201471e-06,0.2842939504153233,-1.4938620964201467e-05,0.2842939504153233,-1.594576289260441e-05,0.2842939504153233,-1.4938453250589708e-05
0.2850880675952543,-7.04954139534633e-06,0.2850880675952543,-1.5777985767763843e-05,0.2850880675952543,-1.493871431600444e-05,0.2850880675952543,-1.359585715800222e-05
0.2858821847751854,-5.538248780290239e-06,0.2858821847751854,-1.795950938898155e-05,0.2858821847751854,-1.6281712488814762e-05,0.2858821847751854,-1.426743436661107e-05
0.2866763019551165,-2.182295009641802e-06,0.2866763019551165,-1.6281017485537295e-05,0.2866763019551165,-1.762317996143279e-05,0.2866763019551165,-1.52743e-05
0.2874704191350475,-2.852949443108111e-06,0.2874704191350475,-1.5275035835337832e-05,0.2874704191350475,-1.4940562227567554e-05,0.2874704191350475,-1.52743e-05
0.2882645363149786,-3.859941873365012e-06,0.2882645363149786,-1.3596780220791417e-05,0.2882645363149786,-1.6280615823366866e-05,0.2882645363149786,-1.5609803955841718e-05
0.2890586534949096,-5.538297495221486e-06,0.2890586534949096,-1.2253586003822811e-05,0.2890586534949096,-1.4939186003822811e-05,0.2890586534949096,-1.6281106998088594e-05
0.2898527706748408,-5.53903e-06,0.2898527706748408,-1.1078439337694716e-05,0.2898527706748408,-1.510635153556458e-05,0.2898527706748408,-1.62814e-05
0.2906468878547718,-2.8538193149915525e-06,0.2906468878547718,-9.567623371126862e-06,0.2906468878547718,-1.5609928871112218e-05,0.2906468878547718,-1.62814e-05
0.2914410050347029,-3.021286807021872e-06,0.2914410050347029,-1.1245894678686832e-05,0.2914410050347029,-1.35958e-05,0.2914410050347029,-1.4267196806704825e-05
0.292235122214634,-2.517791671854689e-06,0.292235122214634,-1.0406880843795276e-05,0.292235122214634,-1.3595489968871864e-05,0.292235122214634,-1.3763780859187549e-05
0.293029239394565,-2.8542486989307926e-06,0.293029239394565,-1.1581498912257244e-05,0.293029239394565,-1.1580386953109436e-05,0.293029239394565,-1.4938397824514488e-05
0.2938233565744961,-5.536856443900684e-06,0.2938233565744961,-1.124617169552409e-05,0.2938233565744961,-7.556480330102272e-06,0.2938233565744961,-1.426774339104818e-05
0.2946174737544272,-6.20997501761321e-06,0.2946174737544272,-1.0910422494507284e-05,0.2946174737544272,-8.224165017613209e-06,0.2946174737544272,-1.3596244989014567e-05
0.2954115909343582,-6.881474097390591e-06,0.2954115909343582,-9.568101800066856e-06,0.2954115909343582,-1.4264086881667289e-05,0.2954115909343582,-1.4266854097390593e-05
0.2962057081142893,-5.539523628732353e-06,0.2962057081142893,-1.0238553187471897e-05,0.2962057081142893,-1.4938353183795752e-05,0.2962057081142893,-1.3931623408102124e-05
0.2969998252942204,-4.867777729798993e-06,0.2969998252942204,-9.567557727598668e-06,0.2969998252942204,-1.560985227020101e-05,0.2969998252942204,-1.5274004540402013e-05
0.2977939424741515,-4.196278643393832e-06,0.2977939424741515,-1.0910102713936842e-05,0.2977939424741515,-1.393162160848458e-05,0.2977939424741515,-1.359592160848458e-05
0.2985880596540825,-4.867655221505664e-06,0.2985880596540825,-1.2253025221505664e-05,0.2985880596540825,-1.2588775664516994e-05,0.2985880596540825,-1.29244e-05
0.2993821768340136,-5.203853350730915e-06,0.2993821768340136,-1.2588625235291707e-05,0.2993821768340136,-1.3595538312385335e-05,0.2993821768340136,-1.2924699058833168e-05
0.3001762940139447,-7.5524750944059666e-06,0.3001762940139447,-1.225262754535384e-05,0.3001762940139447,-1.2421358700460683e-05,0.3001762940139447,-1.4266455090707676e-05
0.3009704111938757,-5.540521782902385e-06,0.3009704111938757,-1.1246645895154376e-05,0.3009704111938757,-1.3930381120236606e-05,0.3009704111938757,-1.2254491790308751e-05
0.3017645283738068,-4.868028803307458e-06,0.3017645283738068,-1.0239398204961184e-05,0.3017645283738068,-1.62800041884239e-05,0.3017645283738068,-1.2588500598346273e-05
0.3025586455537379,-5.874270429110684e-06,0.3025586455537379,-1.1245450424646625e-05,0.3025586455537379,-1.561029971690225e-05,0.3025586455537379,-1.2253149858451125e-05
0.3033527627336689,-4.532331258005843e-06,0.3033527627336689,-1.0574700630497042e-05,0.3033527627336689,-1.896599684751479e-05,0.3033527627336689,-1.2253e-05
0.3041468799136,-3.524982316137822e-06,0.3041468799136,-1.2924044595678414e-05,0.3041468799136,-1.963829845590812e-05,0.3041468799136,-1.3595596911816238e-05
0.3049409970935311,-6.210410169289912e-06,0.3049409970935311,-1.7624182796193285e-05,0.3049409970935311,-1.6281412288433366e-05,0.3049409970935311,-1.5106394470388013e-05
0.3057351142734621,-5.538957528461099e-06,0.3057351142734621,-1.4938116856407327e-05,0.3057351142734621,-1.62814e-05,0.3057351142734621,-1.4938648314359267e-05
0.3065292314533932,-5.035822067735648e-06,0.3065292314533932,-1.158179546894115e-05,0.3065292314533932,-1.628159546894115e-05,0.3065292314533932,-1.5274202265529426e-05
0.3073233486333243,-6.209457337406427e-06,0.3073233486333243,-1.2252449902407505e-05,0.3073233486333243,-1.6952249902407507e-05,0.3073233486333243,-1.4938875048796249e-05
0.3081174658132554,-4.868533401283127e-06,0.3081174658132554,-1.124657755600819e-05,0.3081174658132554,-1.762374829599454e-05,0.3081174658132554,-1.49386e-05
0.3089115829931864,-4.86763e-06,0.3089115829931864,-1.091037630880015e-05,0.3089115829931864,-1.6282105235200597e-05,0.3089115829931864,-1.56096473823997e-05
0.3097057001731175,-6.881059410191023e-06,0.3097057001731175,-1.1245773234402478e-05,0.3097057001731175,-1.5945826765597523e-05,0.3097057001731175,-1.561e-05
0.3104998173530486,-5.539338887279428e-06,0.3104998173530486,-8.560927776859197e-06,0.3104998173530486,-1.4938831667184823e-05,0.3104998173530486,-1.5945622777605057e-05
0.3112939345329796,-4.532013037577084e-06,0.3112939345329796,-7.553303036752562e-06,0.3112939345329796,-1.3595910716769445e-05,0.3112939345329796,-1.4938683037577084e-05
0.3120880517129107,-6.546032544610232e-06,0.3120880517129107,-9.56741e-06,0.3120880517129107,-1.3763501615210284e-05,0.3120880517129107,-1.5945656271979466e-05
0.3128821688928418,-5.202972963935768e-06,0.3128821688928418,-9.567481405085732e-06,0.3128821688928418,-1.225278577836146e-05,0.3128821688928418,-1.5273657335084382e-05
0.3136762860727728,-3.5251923948296187e-06,0.3136762860727728,-9.902737608768782e-06,0.3136762860727728,-1.1245537605170382e-05,0.3136762860727728,-1.225275840344692e-05
0.314470403252704,-4.531174045029153e-06,0.314470403252704,-8.896765947464592e-06,0.314470403252704,-1.0239555954970848e-05,0.314470403252704,-1.1582103969980564e-05
0.315264520432635,-5.873908969443288e-06,0.315264520432635,-9.23150724085085e-06,0.315264520432635,-1.2251783445105094e-05,0.315264520432635,-1.4601075167657642e-05
0.3160586376125661,-5.706946607973274e-06,0.3160586376125661,-8.896163215946547e-06,0.3160586376125661,-1.1581906431893094e-05,0.3160586376125661,-1.46029e-05
0.3168527547924971,-4.8678891787716605e-06,0.3168527547924971,-9.231606327256034e-06,0.3168527547924971,-1.0910407345487931e-05,0.3168527547924971,-1.35961110182319e-05
0.3176468719724282,-4.196338259082725e-06,0.3176468719724282,-1.1581221094822898e-05,0.3176468719724282,-1.3931012834127737e-05,0.3176468719724282,-1.2420989461456958e-05
0.3184409891523593,-5.203316240983724e-06,0.3184409891523593,-1.2588686240983723e-05,0.3184409891523593,-1.426719541366124e-05,0.3184409891523593,-1.258869770614752e-05
0.3192351063322903,-5.538940086272357e-06,0.3192351063322903,-1.3595755043136176e-05,0.3192351063322903,-1.426746974118293e-05,0.3192351063322903,-1.3260189913727644e-05
0.3200292235122214,-4.867488428202374e-06,0.3200292235122214,-1.326043032013709e-05,0.3200292235122214,-1.6281116856404746e-05,0.3200292235122214,-1.3931405618801584e-05
0.3208233406921525,-4.364497603102642e-06,0.3208233406921525,-1.4434025634226403e-05,0.3208233406921525,-1.5275135206205283e-05,0.3208233406921525,-1.3596078402068429e-05
0.3216174578720835,-5.538227766756386e-06,0.3216174578720835,-1.5273726942115523e-05,0.3216174578720835,-1.4938829209498174e-05,0.3216174578720835,-1.4266741581003648e-05
0.3224115750520147,-8.223172680339594e-06,0.3224115750520147,-1.4267738998886644e-05,0.3224115750520147,-1.6280681334817805e-05,0.3224115750520147,-1.42672e-05
0.3232056922319457,-8.560179876907033e-06,0.3232056922319457,-1.5945049384535158e-05,0.3232056922319457,-1.5442425327113277e-05,0.3232056922319457,-1.6280619261442194e-05
0.3239998094118768,-7.217842317161195e-06,0.3239998094118768,-1.3764123781289288e-05,0.3239998094118768,-1.5609959698053038e-05,0.3239998094118768,-1.35964446391231e-05
0.3247939265918079,-7.21752e-06,0.3247939265918079,-1.6281167220218943e-05,0.3247939265918079,-1.3931655183438918e-05,0.3247939265918079,-1.4938475853248866e-05
0.3255880437717389,-4.19619298697036e-06,0.3255880437717389,-1.6449061203895255e-05,0.3255880437717389,-1.2252925973940718e-05,0.3255880437717389,-1.7624070454396257e-05
0.32638216095167,-3.5249660994348016e-06,0.32638216095167,-1.3931704149152202e-05,0.32638216095167,-1.0910063900565195e-05,0.32638216095167,-1.5274265965005804e-05
0.3271762781316011,-4.196993389029973e-06,0.3271762781316011,-1.4938012774978088e-05,0.3271762781316011,-1.0239034890008764e-05,0.3271762781316011,-1.510681107500789e-05
0.3279703953115321,-6.376610308900132e-06,0.3279703953115321,-1.3261376691312315e-05,0.3279703953115321,-1.0909689323475072e-05,0.3279703953115321,-1.6280506278050658e-05
0.3287645124914632,-8.223476364594756e-06,0.3287645124914632,-1.2589112233289146e-05,0.3287645124914632,-1.1748884739088097e-05,0.3287645124914632,-1.4268436699867436e-05
0.3295586296713942,-5.540282578207764e-06,0.3295586296713942,-1.1917613146883985e-05,0.3295586296713942,-1.225276511651657e-05,0.3295586296713942,-1.3931656573441994e-05
0.3303527468513254,-3.525472181436332e-06,0.3303527468513254,-1.19173e-05,0.3303527468513254,-9.56826623872684e-06,0.3303527468513254,-1.3595907030239388e-05
0.3311468640312564,-6.377781361899584e-06,0.3311468640312564,-9.90344492222085e-06,0.3311468640312564,-8.224839948147232e-06,0.3311468640312564,-1.4434856290970243e-05
0.3319409812111875,-8.22456630914851e-06,0.3319409812111875,-8.896033831265977e-06,0.3319409812111875,-9.567378224663184e-06,0.3319409812111875,-1.6281356307728702e-05
0.3327350983911186,-5.539071598129217e-06,0.3327350983911186,-1.0574333603765585e-05,0.3327350983911186,-9.9032247981052e-06,0.3327350983911186,-1.29244e-05
0.3335292155710496,-5.875266164845835e-06,0.3335292155710496,-9.23107280722793e-06,0.3335292155710496,-1.0910291027926236e-05,0.3335292155710496,-1.2924582055852472e-05
0.3343233327509807,-7.887219476349417e-06,0.3343233327509807,-6.883792278991192e-06,0.3343233327509807,-1.124561824465939e-05,0.3343233327509807,-1.3595236489318782e-05
0.3351174499309118,-6.88251769405297e-06,0.3351174499309118,-7.217287433006402e-06,0.3351174499309118,-1.2252302299019209e-05,0.3351174499309118,-1.2924865133987197e-05
0.3359115671108428,-6.88182e-06,0.3359115671108428,-7.553036976209006e-06,0.3359115671108428,-1.2253e-05,0.3359115671108428,-1.1246815118954967e-05
0.3367056842907739,-8.55964260103412e-06,0.3367056842907739,-8.559909562210948e-06,0.3367056842907739,-1.3595266077646349e-05,0.3367056842907739,-1.12459e-05
0.337499801470705,-8.89592606261419e-06,0.337499801470705,-6.211007559200297e-06,0.337499801470705,-1.292456787477162e-05,0.337499801470705,-1.242050623165151e-05
0.338293918650636,-6.882026364074682e-06,0.338293918650636,-9.567066059192496e-06,0.338293918650636,-1.1917403182549615e-05,0.338293918650636,-1.1581685980335256e-05
0.3390880358305671,-6.88182e-06,0.3390880358305671,-1.0406790889603582e-05,0.3390880358305671,-1.1246006043135624e-05,0.3390880358305671,-1.393146212519523e-05
0.3398821530104982,-6.881431848595211e-06,0.3398821530104982,-1.2421058768887916e-05,0.3398821530104982,-1.3596058768887915e-05,0.3398821530104982,-1.3092297047968387e-05
0.3406762701904293,-4.866717269540824e-06,0.3406762701904293,-1.3764455704984794e-05,0.3406762701904293,-1.49381436330711e-05,0.3406762701904293,-1.3596484550393348e-05
0.3414703873703603,-2.18410952457112e-06,0.3414703873703603,-1.627945977496e-05,0.3414703873703603,-1.3596834766138576e-05,0.3414703873703603,-1.5608447850792137e-05
0.3422645045502914,-4.19497316139995e-06,0.3422645045502914,-1.7287871577580015e-05,0.3422645045502914,-1.560874315516003e-05,0.3422645045502914,-1.5777695294129605e-05
0.3430586217302225,-7.551620695389957e-06,0.3430586217302225,-1.5610799654687073e-05,0.3430586217302225,-1.3596759585624486e-05,0.3430586217302225,-1.7287780286961118e-05
0.3438527389101535,-6.882040775469668e-06,0.3438527389101535,-1.2925283101878671e-05,0.3438527389101535,-1.2589031163204505e-05,0.3438527389101535,-1.6952910387734836e-05
0.3446468560900846,-6.88182e-06,0.3446468560900846,-1.225312168906446e-05,0.3446468560900846,-1.191742168906446e-05,0.3446468560900846,-1.5274604222661152e-05
0.3454409732700157,-4.867697807641108e-06,0.3454409732700157,-1.2253e-05,0.3454409732700157,-1.4267120890692616e-05,0.3454409732700157,-1.628136609601112e-05
0.3462350904499467,-4.86763e-06,0.3462350904499467,-1.2253152967491815e-05,0.3462350904499467,-1.6281744176856587e-05,0.3462350904499467,-1.795959406501637e-05
0.3470292076298778,-4.867849184023502e-06,0.3470292076298778,-1.359562465069184e-05,0.3470292076298778,-1.930322604792448e-05,0.3470292076298778,-1.527425614961448e-05
0.3478233248098089,-5.706157236961043e-06,0.3478233248098089,-1.2924970217225532e-05,0.3478233248098089,-2.1315189348323403e-05,0.3478233248098089,-1.5106542596771174e-05
0.34861744198974,-5.203683879705693e-06,0.34861744198974,-1.0911615546934116e-05,0.34861744198974,-1.980726169533977e-05,0.34861744198974,-1.6280574229149246e-05
0.349411559169671,-6.209860861692702e-06,0.349411559169671,-1.3594308949708484e-05,0.349411559169671,-2.0309520400310245e-05,0.349411559169671,-1.62814e-05
0.3502056763496021,-6.378201580958082e-06,0.3502056763496021,-1.35958e-05,0.3502056763496021,-2.2323079012259005e-05,0.3502056763496021,-1.5945836838083835e-05
0.3509997935295332,-6.8816890576781525e-06,0.3509997935295332,-1.0910898359049852e-05,0.3509997935295332,-1.9303485627927247e-05,0.3509997935295332,-1.4603249179524928e-05
0.3517939107094642,-7.049651124160674e-06,0.3517939107094642,-1.1581524496642698e-05,0.3517939107094642,-1.5274753020143812e-05,0.3517939107094642,-1.3595913255035952e-05
0.3525880278893953,-7.553172833904188e-06,0.3525880278893953,-1.359571745933233e-05,0.3525880278893953,-1.2253035374571856e-05,0.3525880278893953,-1.35958e-05
0.3533821450693264,-6.209929324014616e-06,0.3533821450693264,-1.124553199346773e-05,0.3533821450693264,-1.3260897351445238e-05,0.3533821450693264,-1.3596045338906229e-05
0.3541762622492574,-3.52483e-06,0.3541762622492574,-9.231599261539958e-06,0.3541762622492574,-1.7624476829656444e-05,0.3541762622492574,-1.4938378523079912e-05
0.3549703794291886,-3.52483e-06,0.3549703794291886,-8.896272044806777e-06,0.3549703794291886,-1.8462744927012667e-05,0.3549703794291886,-1.4267724089613556e-05
0.3557644966091196,-3.52483e-06,0.3557644966091196,-8.225035663270881e-06,0.3557644966091196,-1.997314222594084e-05,0.3557644966091196,-1.3763919279152838e-05
0.3565586137890507,-1.5116197257330426e-06,0.3565586137890507,-1.0573356985834096e-05,0.3565586137890507,-1.9638563288432863e-05,0.3565586137890507,-1.32603449083287e-05
0.3573527309689818,-1.8462262547697676e-06,0.3573527309689818,-1.292360378338837e-05,0.3573527309689818,-1.9302813745230232e-05,0.3573527309689818,-1.2588927490460463e-05
0.3581468481489128,-4.195780587718916e-06,0.3581468481489128,-1.29244e-05,0.3581468481489128,-1.796015680811061e-05,0.3581468481489128,-9.90361361622122e-06
0.3589409653288439,-2.1821279525137666e-06,0.3589409653288439,-1.124597329412536e-05,0.3589409653288439,-1.460304658825072e-05,0.3589409653288439,-1.158152670587464e-05
0.3597350825087749,-1.5107795375100343e-06,0.3597350825087749,-1.0910339537510032e-05,0.3597350825087749,-1.4602865115622492e-05,0.3597350825087749,-1.2588804653132526e-05
0.360529199688706,-2.85344e-06,0.360529199688706,-1.2253674571055374e-05,0.360529199688706,-1.4267031357236156e-05,0.360529199688706,-1.359588432138192e-05
0.3613233168686371,-2.85344e-06,0.3613233168686371,-1.4936292304920612e-05,0.3613233168686371,-1.3596376923769846e-05,0.3613233168686371,-1.3931211538115076e-05
0.3621174340485681,-2.1825185639689303e-06,0.3621174340485681,-1.426767856396893e-05,0.3621174340485681,-1.35958e-05,0.3621174340485681,-1.4937882154046605e-05
0.3629115512284993,-2.18204e-06,0.3629115512284993,-1.2925158955127444e-05,0.3629115512284993,-1.1582738432691168e-05,0.3629115512284993,-1.3932069216345584e-05
0.3637056684084303,-5.537628048383643e-06,0.3637056684084303,-1.3595519608841485e-05,0.3637056684084303,-1.0910480391158514e-05,0.3637056684084303,-1.376367011867071e-05
0.3644997855883614,-5.035615978565015e-06,0.3644997855883614,-1.35958e-05,0.3644997855883614,-1.3762829468300238e-05,0.3644997855883614,-1.4938282703179636e-05
0.3652939027682925,-3.525014991283329e-06,0.3652939027682925,-1.3260141109174074e-05,0.3652939027682925,-1.2924502766812278e-05,0.3652939027682925,-1.49386e-05
0.3660880199482235,-4.531908914928732e-06,0.3660880199482235,-1.2253016868057016e-05,0.3660880199482235,-1.0910233736114028e-05,0.3660880199482235,-1.4267183131942984e-05
0.3668821371281546,-3.6924191041870544e-06,0.3668821371281546,-1.2924168091075554e-05,0.3668821371281546,-1.225305797723111e-05,0.3668821371281546,-1.3596031908924443e-05
0.3676762543080857,-2.183436001044837e-06,0.3676762543080857,-1.1582351696315203e-05,0.3676762543080857,-1.2588485229624227e-05,0.3676762543080857,-1.4938063074060569e-05
0.3684703714880167,-6.542669840785155e-06,0.3684703714880167,-1.3929642213447288e-05,0.3684703714880167,-1.1917830796157916e-05,0.3684703714880167,-1.3261426990394796e-05
0.3692644886679478,-7.552571432607341e-06,0.3692644886679478,-1.225408094565443e-05,0.3692644886679478,-1.19173e-05,0.3692644886679478,-1.4937519054345569e-05
0.3700586058478789,-4.8689631624621245e-06,0.3700586058478789,-9.904266521497977e-06,0.3700586058478789,-1.2252833354071718e-05,0.3700586058478789,-1.527413335407172e-05
0.3708527230278099,-5.538795794548644e-06,0.3708527230278099,-9.567527099237364e-06,0.3708527230278099,-1.3091907260627376e-05,0.3708527230278099,-1.4938717102725675e-05
0.371646840207741,-5.53903e-06,0.371646840207741,-8.728328898807744e-06,0.371646840207741,-1.0407240456059812e-05,0.371646840207741,-1.2924805357138588e-05
0.3724409573876721,-4.19630206528207e-06,0.3724409573876721,-8.224637024480776e-06,0.3724409573876721,-8.560409091909563e-06,0.3724409573876721,-1.3092190994523138e-05
0.3732350745676032,-5.53903e-06,0.3732350745676032,-9.5675361065893e-06,0.3732350745676032,-9.23174152688211e-06,0.3732350745676032,-1.4938741866273802e-05
0.3740291917475342,-5.5391919338075634e-06,0.3740291917475342,-1.0910038063780517e-05,0.3740291917475342,-9.566600321314507e-06,0.3740291917475342,-1.6448673719346278e-05
0.3748233089274653,-6.209836378378528e-06,0.3748233089274653,-1.0239383630314208e-05,0.3748233089274653,-6.213338142878308e-06,0.3748233089274653,-1.4269096755057496e-05
0.3756174261073964,-6.21042e-06,0.3756174261073964,-9.567895271731908e-06,0.3756174261073964,-8.223154170348543e-06,0.3756174261073964,-1.2254455836879322e-05
0.3764115432873274,-3.5263747644664057e-06,0.3764115432873274,-8.896396192554613e-06,0.3764115432873274,-1.1244162139256288e-05,0.3764115432873274,-1.3595027614890773e-05
0.3772056604672585,-7.215940920454498e-06,0.3772056604672585,-9.902669345052123e-06,0.3772056604672585,-1.1581456446925295e-05,0.3772056604672585,-1.2924687106149406e-05
0.3779997776471896,-6.881914009872099e-06,0.3779997776471896,-8.896292026815884e-06,0.3779997776471896,-1.4266447921023208e-05,0.3779997776471896,-1.4938035940767406e-05
0.3787938948271206,-5.539207865353479e-06,0.3787938948271206,-1.023862213464652e-05,0.3787938948271206,-1.5609822133321926e-05,0.3787938948271206,-1.4267288933339035e-05
0.3795880120070517,-8.224564311504676e-06,0.3795880120070517,-1.225301015306617e-05,0.3795880120070517,-1.6617115229599256e-05,0.3795880120070517,-1.292441015306617e-05
0.3803821291869828,-5.203712336522784e-06,0.3803821291869828,-1.2924864259618157e-05,0.3803821291869828,-1.762425461973569e-05,0.3803821291869828,-1.3596018478942756e-05
0.3811762463669139,-7.55259581160472e-06,0.3811762463669139,-1.5777956063368334e-05,0.3811762463669139,-1.7959587904252884e-05,0.3811762463669139,-1.4938287904252882e-05
0.3819703635468449,-5.540642500101139e-06,0.3819703635468449,-1.6280996832944788e-05,0.3819703635468449,-1.695360625405342e-05,0.3819703635468449,-1.393230625405342e-05
0.382764480726776,-6.545461366661041e-06,0.382764480726776,-1.5610439093252617e-05,0.382764480726776,-1.4939917279757848e-05,0.382764480726776,-1.527342181349477e-05
0.3835585979067071,-2.8553100275324517e-06,0.3835585979067071,-1.4938940006847407e-05,0.3835585979067071,-1.49386e-05,0.3835585979067071,-1.4603240006847408e-05
0.3843527150866381,-2.85344e-06,0.3843527150866381,-1.4267440920442248e-05,0.3843527150866381,-1.5274179539778877e-05,0.3843527150866381,-1.2925002301105618e-05
0.3851468322665692,-3.692502709566212e-06,0.3851468322665692,-1.292468366807408e-05,0.3851468322665692,-1.426741275105556e-05,0.3851468322665692,-1.426691633192592e-05
0.3859409494465003,-4.196197939276126e-06,0.3859409494465003,-1.2253042747631833e-05,0.3859409494465003,-9.567709232786127e-06,0.3859409494465003,-1.2420917559171007e-05
0.3867350666264313,-4.196173661226671e-06,0.3867350666264313,-1.3931528169386664e-05,0.3867350666264313,-1.0574542258275616e-05,0.3867350666264313,-1.1917440846933322e-05
0.3875291838063624,-3.5246747726369093e-06,0.3875291838063624,-1.4266656696137077e-05,0.3875291838063624,-1.1078061181021071e-05,0.3875291838063624,-1.359603284451268e-05
0.3883233009862935,-2.8540303280658983e-06,0.3883233009862935,-1.1919366179004831e-05,0.3883233009862935,-1.0910347628177757e-05,0.3883233009862935,-1.4602014494712215e-05
0.3891174181662246,-4.866154025475885e-06,0.3891174181662246,-1.0910937990925998e-05,0.3891174181662246,-1.1916562009074005e-05,0.3891174181662246,-1.5609262009074002e-05
0.3899115353461556,-5.035381773113635e-06,0.3899115353461556,-1.0574696453772727e-05,0.3899115353461556,-1.4265824823590898e-05,0.3899115353461556,-1.6952014184909086e-05
0.3907056525260867,-5.538809634144812e-06,0.3907056525260867,-9.90339382114025e-06,0.3907056525260867,-1.3596093821140249e-05,0.3907056525260867,-1.762390617885975e-05
0.3914997697060178,-1.2251052661350392e-05,0.3914997697060178,-9.567507364467115e-06,0.3914997697060178,-1.3260197367367545e-05,0.3914997697060178,-1.6449540800288548e-05
0.3922938868859488,-1.3595608703340236e-05,0.3922938868859488,-1.0238704353094729e-05,0.3922938868859488,-1.4938360879175296e-05,0.3922938868859488,-1.5274467377454243e-05
0.3930880040658799,-1.1245893123849349e-05,0.3930880040658799,-1.091020429733812e-05,0.3930880040658799,-1.4267201719037662e-05,0.3930880040658799,-1.661708452866103e-05
0.393882121245811,-9.902946214806294e-06,0.393882121245811,-1.1749681949956466e-05,0.393882121245811,-1.4602848737759756e-05,0.393882121245811,-1.35958e-05
0.394676238425742,-8.895657627746728e-06,0.394676238425742,-1.359444084131148e-05,0.394676238425742,-1.4267602714574098e-05,0.394676238425742,-1.3595699321356475e-05
0.3954703556056732,-7.72202235807595e-06,0.3954703556056732,-9.067533404308922e-06,0.3954703556056732,-1.5608911581506813e-05,0.3954703556056732,-1.3260372104623298e-05
0.3962644727856042,-6.882377260304325e-06,0.3962644727856042,-8.896121452060866e-06,0.3962644727856042,-1.779055115640865e-05,0.3962644727856042,-1.292462290412173e-05
0.3970585899655353,-7.049583319540425e-06,0.3970585899655353,-1.0238106561487562e-05,0.3970585899655353,-1.6953233376477064e-05,0.3970585899655353,-1.35954532781617e-05
0.3978527071454664,-6.210729544291365e-06,0.3978527071454664,-9.567657631744749e-06,0.3978527071454664,-1.762395236456691e-05,0.3978527071454664,-1.4434690474150357e-05
0.3986468243253974,-4.196675644871125e-06,0.3986468243253974,-1.023865145318464e-05,0.3986468243253974,-1.644945997186143e-05,0.3986468243253974,-1.5609740028138573e-05
0.3994409415053285,-1.6814577433659096e-07,0.3994409415053285,-1.1245825806065916e-05,0.3994409415053285,-1.4267360749840306e-05,0.3994409415053285,-1.6281350537377278e-05
0.4002350586852595,-2.853539246825766e-06,0.4002350586852595,-1.191743646170616e-05,0.4002350586852595,-1.1581277446892371e-05,0.4002350586852595,-1.4267274435673657e-05
0.4010291758651906,-4.195784432819723e-06,0.4010291758651906,-1.3763859926539614e-05,0.4010291758651906,-7.21803982874568e-06,0.4010291758651906,-1.527452278469621e-05
0.4018232930451217,-2.183831121316141e-06,0.4018232930451217,-1.493755512958238e-05,0.4018232930451217,-9.565320356982416e-06,0.4018232930451217,-1.6280504434895672e-05
0.4026174102250527,-6.878329052265224e-06,0.4026174102250527,-1.3932248063412264e-05,0.4026174102250527,-1.1412328594978223e-05,0.4026174102250527,-1.3262344190236794e-05
0.4034115274049838,-5.539829239120526e-06,0.4034115274049838,-1.5105700690321864e-05,0.4034115274049838,-1.4936501951924023e-05,0.4034115274049838,-1.3931100377463698e-05
0.4042056445849149,-9.230057060231246e-06,0.4042056445849149,-1.4938675111651482e-05,0.4042056445849149,-1.6280798927737717e-05,0.4042056445849149,-1.359595026806557e-05
0.404999761764846,-7.553723621314508e-06,0.404999761764846,-1.426740144972598e-05,0.404999761764846,-1.29254072486299e-05,0.404999761764846,-1.292460144972598e-05
0.4057938789447771,-7.55322e-06,0.4057938789447771,-1.191765827162254e-05,0.4057938789447771,-7.889677723380816e-06,0.4057938789447771,-1.628088818339637e-05
0.4065879961247081,-7.55322e-06,0.4065879961247081,-1.3092194265641796e-05,0.4065879961247081,-5.539041469106862e-06,0.4065879961247081,-1.4267209830746692e-05
0.4073821133046392,-9.73499652390361e-06,0.4073821133046392,-1.2924208381020806e-05,0.4073821133046392,-8.225424379234558e-06,0.4073821133046392,-1.258917904744798e-05
0.4081762304845703,-7.888520701413613e-06,0.4081762304845703,-1.1581210698514437e-05,0.4081762304845703,-1.3932667904456691e-05,0.4081762304845703,-1.5945505349257216e-05
0.4089703476645013,-6.54722182337634e-06,0.4089703476645013,-1.0239901831581815e-05,0.4089703476645013,-1.7956594505254547e-05,0.4089703476645013,-1.527485091579091e-05
0.4097644648444324,-9.062163044611175e-06,0.4097644648444324,-9.567862516494357e-06,0.4097644648444324,-1.8295373738382825e-05,0.4097644648444324,-1.4938826261617176e-05
0.4105585820243635,-8.225051796036429e-06,0.4105585820243635,-8.225316873658287e-06,0.4105585820243635,-1.8966646563170856e-05,0.4105585820243635,-1.2925460310487427e-05
0.4113526992042945,-5.875610222695581e-06,0.4113526992042945,-1.0238036952516413e-05,0.4113526992042945,-1.930257282478801e-05,0.4113526992042945,-1.4266691299152034e-05
0.4121468163842256,-3.860995789743784e-06,0.4121468163842256,-1.2252534207943674e-05,0.4121468163842256,-1.4603986848131425e-05,0.4121468163842256,-1.5609689471962452e-05
0.4129409335641567,-4.196201911193216e-06,0.4129409335641567,-1.0910312355227131e-05,0.4129409335641567,-1.4267228088806784e-05,0.4129409335641567,-1.35959685328407e-05
0.4137350507440878,-4.867554909614711e-06,0.4137350507440878,-9.231903088923078e-06,0.4137350507440878,-1.6617078545604205e-05,0.4137350507440878,-1.326008926960663e-05
0.4145291679240188,-3.692077282887016e-06,0.4145291679240188,-1.2253e-05,0.4145291679240188,-1.6281329091706755e-05,0.4145291679240188,-1.30922e-05
0.4153232851039499,-8.418119228879535e-07,0.4153232851039499,-1.2253e-05,0.4153232851039499,-1.5946001874973622e-05,0.4153232851039499,-1.30922e-05
0.416117402283881,-2.851923732719685e-06,0.416117402283881,-8.898537112133858e-06,0.416117402283881,-1.4268463559830885e-05,0.416117402283881,-1.359542089441118e-05
0.416911519463812,-5.049701765035006e-07,0.416911519463812,-8.89601e-06,0.416911519463812,-1.4602696831236404e-05,0.416911519463812,-1.4434492108351474e-05
0.4177056366437431,-1.5101791269779722e-06,0.4177056366437431,-1.023818550233221e-05,0.4177056366437431,-1.4267353625561016e-05,0.4177056366437431,-1.426727678989913e-05
0.4184997538236742,-1.8462359176416115e-06,0.4184997538236742,-1.1245587752924836e-05,0.4184997538236742,-1.5609583670566447e-05,0.4184997538236742,-1.5609583670566447e-05
0.4192938710036052,-3.188921843376767e-06,0.4192938710036052,-1.2924127304220956e-05,0.4192938710036052,-1.6281290921688384e-05,0.4192938710036052,-1.2924836313246466e-05
0.4200879881835363,-3.18914e-06,0.4200879881835363,-1.1917314987859685e-05,0.4200879881835363,-1.493861998381291e-05,0.4200879881835363,-1.2253009991906456e-05
0.4208821053634674,-2.3501350085447016e-06,0.4208821053634674,-1.15817336417482e-05,0.4208821053634674,-1.49384663582518e-05,0.4208821053634674,-1.2420911374758476e-05
0.4216762225433985,-4.1969817739943935e-06,0.4216762225433985,-1.2588652999953955e-05,0.4216762225433985,-1.393093616740474e-05,0.4216762225433985,-1.326000602790079e-05
0.4224703397233295,-6.879589518964284e-06,0.4224703397233295,-1.2420939447110653e-05,0.4224703397233295,-1.1918972867005812e-05,0.4224703397233295,-1.2924678811167634e-05
0.4232644569032606,-6.210879238225196e-06,0.4232644569032606,-1.325952591801846e-05,0.4232644569032606,-1.493653342798662e-05,0.4232644569032606,-1.2588929619112598e-05
0.4240585740831917,-3.358510639870956e-06,0.4240585740831917,-1.3595619924089982e-05,0.4240585740831917,-1.6280679696359932e-05,0.4240585740831917,-1.3930779696359933e-05
0.4248526912631227,-6.880449410460533e-06,0.4248526912631227,-1.560921680375552e-05,0.4248526912631227,-1.661696946729259e-05,0.4248526912631227,-1.6280486271048106e-05
0.4256468084430538,-8.895524065383698e-06,0.4256468084430538,-1.4267523958019235e-05,0.4256468084430538,-1.4939004947524046e-05,0.4256468084430538,-1.62814e-05
0.4264409256229849,-8.224672892604458e-06,0.4264409256229849,-1.42672e-05,0.4264409256229849,-1.2253251570417832e-05,0.4264409256229849,-1.4603057231511143e-05
0.4272350428029159,-6.881693322236455e-06,0.4272350428029159,-1.32601723876015e-05,0.4272350428029159,-1.4602927142655166e-05,0.4272350428029159,-1.4938636193800748e-05
0.428029159982847,-4.53253799317722e-06,0.428029159982847,-1.4602494669873612e-05,0.428029159982847,-1.5106298677530215e-05,0.428029159982847,-1.561e-05
0.4288232771627781,-7.550472954880476e-06,0.4288232771627781,-1.2590531369474544e-05,0.4288232771627781,-1.4603357796907176e-05,0.4288232771627781,-1.561e-05
0.4296173943427092,-6.21144427784649e-06,0.4296173943427092,-1.0911480347308112e-05,0.4296173943427092,-1.5273787861076754e-05,0.4296173943427092,-1.6280887861076753e-05
0.4304115115226402,-5.539443046365976e-06,0.4304115115226402,-1.2252173894963832e-05,0.4304115115226402,-1.52743e-05,0.4304115115226402,-1.5610413052518087e-05
0.4312056287025713,-7.216735089394216e-06,0.4312056287025713,-1.3259629050830756e-05,0.4312056287025713,-1.4938756983056414e-05,0.4312056287025713,-1.6616629050830758e-05
0.4319997458825024,-5.707353479342254e-06,0.4319997458825024,-1.0239766958684507e-05,0.4319997458825024,-1.5609785120292333e-05,0.4319997458825024,-1.7120438856221612e-05
0.4327938630624334,-5.539058946600972e-06,0.4327938630624334,-8.392778429857242e-06,0.4327938630624334,-1.1582294759815043e-05,0.4327938630624334,-1.561026052630737e-05
0.4335879802423645,-6.210403293351585e-06,0.4335879802423645,-8.89599746982706e-06,0.4335879802423645,-1.2252983293102747e-05,0.4335879802423645,-1.5945691646551373e-05
0.4343820974222956,-7.217828921927674e-06,0.4343820974222956,-1.1749461790765836e-05,0.4343820974222956,-1.3091932272734204e-05,0.4343820974222956,-1.493839405123023e-05
0.4351762146022266,-9.73458036149668e-06,0.4351762146022266,-1.2252003195602077e-05,0.4351762146022266,-1.0910562475308116e-05,0.4351762146022266,-1.3260009381172973e-05
0.4359703317821577,-7.219636224893188e-06,0.4359703317821577,-8.563413800432465e-06,0.4359703317821577,-1.225187134224083e-05,0.4359703317821577,-1.2924682164439792e-05
0.4367644489620888,-4.198326782532365e-06,0.4367644489620888,-8.895777023391958e-06,0.4367644489620888,-1.2923934046783911e-05,0.4367644489620888,-1.29244e-05
0.4375585661420199,-4.867263133189121e-06,0.4375585661420199,-1.0238066271842448e-05,0.4375585661420199,-1.1582333733621756e-05,0.4375585661420199,-1.6279565665945607e-05
0.438352683321951,-7.887704996151258e-06,0.438352683321951,-1.1245498329391496e-05,0.438352683321951,-1.040716859576798e-05,0.438352683321951,-1.3764604196463208e-05
0.439146800501882,-8.224525652999745e-06,0.439146800501882,-9.735639558988576e-06,0.439146800501882,-8.560773918551687e-06,0.439146800501882,-1.0239685630939825e-05
0.4399409176818131,-4.86797803590324e-06,0.4399409176818131,-1.091007818774489e-05,0.4399409176818131,-8.895975196202325e-06,0.4399409176818131,-1.0406682592917395e-05
0.4407350348617442,-5.8747347394049535e-06,0.4407350348617442,-1.3260122106912106e-05,0.4407350348617442,-1.1581688436429716e-05,0.4407350348617442,-1.1581629478809906e-05
0.4415291520416752,-6.210548403497815e-06,0.4415291520416752,-1.3763888917432452e-05,0.4415291520416752,-1.3595864201748907e-05,0.4415291520416752,-1.2253e-05
0.4423232692216063,-6.881202836964123e-06,0.4423232692216063,-1.5272911337208374e-05,0.4423232692216063,-1.3931191418482062e-05,0.4423232692216063,-1.2253e-05
0.4431173864015373,-6.210938853914136e-06,0.4431173864015373,-1.52743e-05,0.4431173864015373,-1.3596059426957069e-05,0.4431173864015373,-1.4265643438257592e-05
0.4439115035814684,-5.036214586888419e-06,0.4439115035814684,-1.426782965126332e-05,0.4439115035814684,-1.8292661627437835e-05,0.4439115035814684,-1.42672e-05
0.4447056207613995,-4.19663085137965e-06,0.4447056207613995,-1.292504136220744e-05,0.4447056207613995,-1.66179017027593e-05,0.4447056207613995,-1.359612068110372e-05
0.4454997379413306,-2.518293983445911e-06,0.4454997379413306,-1.29244e-05,0.4454997379413306,-1.561033239204784e-05,0.4454997379413306,-1.493815681060288e-05
0.4462938551212617,-2.1821012541466755e-06,0.4462938551212617,-1.3931316237559972e-05,0.4462938551212617,-1.5777769382050008e-05,0.4462938551212617,-1.6448924365463305e-05
0.4470879723011927,-2.18204e-06,0.4470879723011927,-1.3595811710944071e-05,0.4470879723011927,-1.6281382431839633e-05,0.4470879723011927,-1.6281405853727777e-05
0.4478820894811238,-1.846491329034034e-06,0.4478820894811238,-1.493833517419044e-05,0.4478820894811238,-1.6617024335482983e-05,0.4478820894811238,-1.5609924335482984e-05
0.4486762066610549,-3.190099915904572e-06,0.4486762066610549,-1.2587914612605664e-05,0.4486762066610549,-1.5945089141115893e-05,0.4486762066610549,-1.4937989141115896e-05
0.4494703238409859,-6.878679322178582e-06,0.4494703238409859,-9.569979650902616e-06,0.4494703238409859,-1.3597798623983814e-05,0.4494703238409859,-1.2590698623983816e-05
0.450264441020917,-8.894592002419107e-06,0.450264441020917,-9.56741e-06,0.450264441020917,-1.2253945336413954e-05,0.450264441020917,-1.4936945661275578e-05
0.4510585582008481,-7.050697344390517e-06,0.4510585582008481,-1.0909452841960777e-05,0.4510585582008481,-1.2253e-05,0.4510585582008481,-1.527411320909914e-05
0.4518526753807791,-5.204084858252142e-06,0.4518526753807791,-9.903511743094843e-06,0.4518526753807791,-1.258856275230172e-05,0.4518526753807791,-1.4603174495396562e-05
0.4526467925607102,-4.5321054089914016e-06,0.4526467925607102,-8.225048519865917e-06,0.4526467925607102,-1.4602373773025795e-05,0.4526467925607102,-1.35960631134871e-05
0.4534409097406413,-7.217214710792183e-06,0.4534409097406413,-1.0909894710792182e-05,0.4534409097406413,-1.4938561838706926e-05,0.4534409097406413,-1.4938447354827708e-05
0.4542350269205724,-5.53903e-06,0.4542350269205724,-1.1245888618090491e-05,0.4542350269205724,-1.2253e-05,0.4542350269205724,-1.2588734145728522e-05
0.4550291441005034,-5.538786606093094e-06,0.4550291441005034,-1.09102e-05,0.4550291441005034,-1.2253152112128892e-05,0.4550291441005034,-1.3595921696953451e-05
0.4558232612804345,-4.197477739160476e-06,0.4558232612804345,-1.09102e-05,0.4558232612804345,-1.3091420209485052e-05,0.4558232612804345,-1.426657613041976e-05
0.4566173784603656,-2.1836166988869845e-06,0.4566173784603656,-1.09102e-05,0.4566173784603656,-1.292453135308647e-05,0.4566173784603656,-1.393176278445249e-05
0.4574114956402966,-4.530437317602935e-06,0.4574114956402966,-9.065032820522235e-06,0.4574114956402966,-1.4937320552500684e-05,0.4574114956402966,-1.3596013241249883e-05
0.4582056128202277,-2.8542584853602084e-06,0.4582056128202277,-1.0238227061710748e-05,0.4582056128202277,-1.560967260390539e-05,0.4582056128202277,-1.3763518175357943e-05
0.4589997300001588,-1.6788895419564565e-06,0.4589997300001588,-1.0909971690310596e-05,0.4589997300001588,-1.4603242464534106e-05,0.4589997300001588,-1.3092428309689405e-05
0.4597938471800898,-2.1819430825368533e-06,0.4597938471800898,-1.3595283106863217e-05,0.4597938471800898,-1.49385353883579e-05,0.4597938471800898,-1.3595703072913432e-05
0.4605879643600209,-4.1961395898117615e-06,0.4605879643600209,-1.2588745205318552e-05,0.4605879643600209,-1.3931545205318552e-05,0.4605879643600209,-1.628127945248386e-05
0.461382081539952,-5.538909338329198e-06,0.461382081539952,-1.3260168949526171e-05,0.461382081539952,-1.29244e-05,0.461382081539952,-1.49386e-05
0.4621761987198831,-4.36408e-06,0.4621761987198831,-1.39315e-05,0.4621761987198831,-1.292423217543457e-05,0.4621761987198831,-1.4938935649130858e-05
0.4629703158998141,-4.36408e-06,0.4629703158998141,-1.39315e-05,0.4629703158998141,-1.2253577741968308e-05,0.4629703158998141,-1.6280244516063382e-05
0.4637644330797452,-6.209101703346173e-06,0.4637644330797452,-1.39315e-05,0.4637644330797452,-1.2588460308401114e-05,0.4637644330797452,-1.493955876639555e-05
0.4645585502596763,-4.868390587920991e-06,0.4645585502596763,-1.5105734508934103e-05,0.4645585502596763,-1.2924209851603692e-05,0.4645585502596763,-1.695165910962216e-05
0.4653526674396073,-6.880976373026059e-06,0.4653526674396073,-1.6280907860879867e-05,0.4653526674396073,-1.6279993948062735e-05,0.4653526674396073,-1.5610562420774908e-05
0.4661467846195384,-8.224245754748204e-06,0.4661467846195384,-1.5442327668540747e-05,0.4661467846195384,-1.4267746371946594e-05,0.4661467846195384,-1.3596346371946594e-05
0.4669409017994695,-7.217644555128774e-06,0.4669409017994695,-1.309249063151963e-05,0.4669409017994695,-1.225324911273111e-05,0.4669409017994695,-1.4938433924845925e-05
0.4677350189794005,-6.210468146245336e-06,0.4677350189794005,-1.19173e-05,0.4677350189794005,-1.393152808425404e-05,0.4677350189794005,-1.4267175926757814e-05
0.4685291361593316,-8.22461e-06,0.4685291361593316,-1.19173e-05,0.4685291361593316,-1.5106514990409186e-05,0.4685291361593316,-1.3260444971227555e-05
0.4693232533392627,-8.22461e-06,0.4693232533392627,-1.19173e-05,0.4693232533392627,-1.5777169423875447e-05,0.4693232533392627,-1.5272408271626344e-05
0.4701173705191938,-5.876582985707414e-06,0.4701173705191938,-1.359446929026044e-05,0.4701173705191938,-1.359752988302158e-05,0.4701173705191938,-1.4267998425843736e-05
0.4709114876991248,-5.203763191038511e-06,0.4709114876991248,-1.2253866394981326e-05,0.4709114876991248,-1.35958e-05,0.4709114876991248,-1.594461700627334e-05
0.4717056048790559,-4.867797055542728e-06,0.4717056048790559,-8.897680550450944e-06,0.4717056048790559,-1.4266865888914544e-05,0.4717056048790559,-1.3596969388799094e-05
0.472499722058987,-5.874367466480145e-06,0.472499722058987,-6.882525070540226e-06,0.472499722058987,-1.3092611310693016e-05,0.472499722058987,-1.2253470049360494e-05
0.473293839238918,-7.88850218719944e-06,0.473293839238918,-8.224338125474525e-06,0.473293839238918,-1.3595698036170193e-05,0.473293839238918,-1.426679218517474e-05
0.4740879564188491,-3.5250695360564517e-06,0.4740879564188491,-1.0910052593069364e-05,0.4740879564188491,-1.4434953937907056e-05,0.4740879564188491,-1.393151842593494e-05
0.4748820735987802,-3.5250167036058457e-06,0.4748820735987802,-1.0910091090490193e-05,0.4748820735987802,-1.4938537765464715e-05,0.4748820735987802,-1.3595675530929436e-05
0.4756761907787112,-5.538868881978933e-06,0.4756761907787112,-9.734978043463131e-06,0.4756761907787112,-1.42672e-05,0.4756761907787112,-1.2253080559010534e-05
0.4764703079586423,-4.868214448512577e-06,0.4764703079586423,-8.561332784897009e-06,0.4764703079586423,-1.42672e-05,0.4764703079586423,-1.2588407775743712e-05
0.4772644251385734,-5.538543901811334e-06,0.4772644251385734,-8.895766950905667e-06,0.4772644251385734,-1.4434878511653175e-05,0.4772644251385734,-1.25887e-05
0.4780585423185045,-5.874526499872499e-06,0.4780585423185045,-1.1076842188646608e-05,0.4780585423185045,-1.3763987011783504e-05,0.4780585423185045,-1.1582180517675256e-05
0.4788526594984356,-7.552500186554374e-06,0.4788526594984356,-1.0910272002786726e-05,0.4788526594984356,-1.5609208183767648e-05,0.4788526594984356,-1.4266048298487e-05
0.4796467766783666,-4.868385353079743e-06,0.4796467766783666,-1.0574594419486544e-05,0.4796467766783666,-1.4938788838973089e-05,0.4796467766783666,-1.628083348308073e-05
0.4804408938582977,-3.5250095051358567e-06,0.4804408938582977,-1.1581465371148106e-05,0.4804408938582977,-1.4267289752567928e-05,0.4804408938582977,-1.2589193639123608e-05
0.4812350110382288,-4.19623466691864e-06,0.4812350110382288,-1.2253e-05,0.4812350110382288,-1.5609990666162723e-05,0.4812350110382288,-1.4267232668430476e-05
0.4820291282181598,-4.532254849981664e-06,0.4820291282181598,-1.2252837574202764e-05,0.4820291282181598,-1.49386e-05,0.4820291282181598,-1.66171e-05
0.4828232453980909,-6.544208161485245e-06,0.4828232453980909,-1.12468559240033e-05,0.4828232453980909,-1.49386e-05,0.4828232453980909,-1.66171e-05
0.483617362578022,-7.049265750834999e-06,0.483617362578022,-1.4264774505009993e-05,0.483617362578022,-1.577712629153159e-05,0.483617362578022,-1.5610808498330003e-05
0.484411479757953,-8.559320203468777e-06,0.484411479757953,-1.3596239912481506e-05,0.484411479757953,-1.5274629901600298e-05,0.484411479757953,-1.6448650142158953e-05
0.4852055969378841,-9.56689876088548e-06,0.4852055969378841,-1.5608977521770964e-05,0.4852055969378841,-1.4267711239114518e-05,0.4852055969378841,-1.4939366833290034e-05
0.4859997141178152,-8.89625173967114e-06,0.4859997141178152,-1.2925366958684557e-05,0.4859997141178152,-1.4434939583084872e-05,0.4859997141178152,-1.5777497843413732e-05
0.4867938312977463,-8.89601e-06,0.4867938312977463,-1.0574999286430756e-05,0.4867938312977463,-1.5609750346161055e-05,0.4867938312977463,-1.4267520959224777e-05
0.4875879484776773,-9.56736643313923e-06,0.4875879484776773,-1.0910178216569612e-05,0.4875879484776773,-1.5945678216569613e-05,0.4875879484776773,-1.493855643313923e-05
0.4883820656576084,-9.063832240227782e-06,0.4883820656576084,-1.0910311039088874e-05,0.4883820656576084,-1.7624033441366686e-05,0.4883820656576084,-1.4435152682881812e-05
0.4891761828375395,-8.728275808607564e-06,0.4891761828375395,-1.225303859136997e-05,0.4891761828375395,-1.5609691177046494e-05,0.4891761828375395,-1.6280859559831366e-05
0.4899703000174705,-9.231266633707298e-06,0.4899703000174705,-1.2420652255259824e-05,0.4899703000174705,-1.4268382310113876e-05,0.4899703000174705,-1.3933569042699283e-05
0.4907644171974016,-8.225349219769335e-06,0.4907644171974016,-9.234050818562396e-06,0.4907644171974016,-1.4938107186820444e-05,0.4907644171974016,-1.2925139219769337e-05
0.4915585343773327,-5.5406048953688655e-06,0.4915585343773327,-6.547694901233131e-06,0.4915585343773327,-1.2254574907097395e-05,0.4915585343773327,-1.6279431366128253e-05
0.4923526515572637,-4.196819280738282e-06,0.4923526515572637,-9.566084122727311e-06,0.4923526515572637,-6.213071754545375e-06,0.4923526515572637,-1.4268083921107422e-05
0.4931467687371948,-3.52502555396398e-06,0.4931467687371948,-1.023860444894865e-05,0.4931467687371948,-3.5256122129432915e-06,0.4931467687371948,-1.3092542234000114e-05
0.4939408859171259,-4.867437064882455e-06,0.4939408859171259,-1.1245755298661842e-05,0.4939408859171259,-5.538740597323683e-06,0.4939408859171259,-1.2253120577264405e-05
0.494735003097057,-4.867628035865174e-06,0.494735003097057,-1.2420791488944114e-05,0.494735003097057,-1.0238809165962524e-05,0.494735003097057,-1.225300523769287e-05
0.495529120276988,-4.363749875221416e-06,0.495529120276988,-1.02388e-05,0.495529120276988,-1.2588852365980693e-05,0.495529120276988,-1.359585078866023e-05
0.4963232374569191,-2.1841329553511047e-06,0.4963232374569191,-1.02388e-05,0.4963232374569191,-1.3594834016180229e-05,0.4963232374569191,-1.3931178005393407e-05
0.4971173546368502,-2.852894286122441e-06,0.4971173546368502,-9.56795570574956e-06,0.4971173546368502,-1.627921714448976e-05,0.4971173546368502,-1.426692714306122e-05
0.4979114718167812,-4.866290124234987e-06,0.4979114718167812,-1.0238353379179782e-05,0.4979114718167812,-1.712004174892041e-05,0.4979114718167812,-1.4434888376392809e-05
0.4987055889967123,-6.880777381974792e-06,0.4987055889967123,-1.158090491786562e-05,0.4987055889967123,-1.493972948258655e-05,0.4987055889967123,-1.2589655712052956e-05
0.4994997061766434,-4.868375360285402e-06,0.4994997061766434,-1.510509563152732e-05,0.4994997061766434,-1.6952054636014052e-05,0.4994997061766434,-1.2924275772669009e-05
0.5002938233565745,-5.874495949839496e-06,0.5002938233565745,-1.2589260119839442e-05,0.5002938233565745,-1.762405063174318e-05,0.5002938233565745,-1.29244e-05
0.5010879405365055,-6.546069718148385e-06,0.5010879405365055,-1.3931399436296772e-05,0.5010879405365055,-1.5610150845554843e-05,0.5010879405365055,-1.1749487996984877e-05
0.5018820577164366,-6.881624782512908e-06,0.5018820577164366,-1.493852679316975e-05,0.5018820577164366,-1.39315e-05,0.5018820577164366,-1.258862679316975e-05
0.5026761748963677,-4.196045368834452e-06,0.5026761748963677,-1.393157385246622e-05,0.5026761748963677,-1.3931758472631995e-05,0.5026761748963677,-1.1582116967263534e-05
0.5034702920762988,-3.357727327001566e-06,0.5034702920762988,-1.4266901069199371e-05,0.5034702920762988,-1.510535378672131e-05,0.5034702920762988,-1.3929407484395617e-05
0.5042644092562298,-3.1892648746024907e-06,0.5042644092562298,-1.3931749764085176e-05,0.5042644092562298,-1.5274175080756923e-05,0.5042644092562298,-1.4602400471829648e-05
0.5050585264361609,-5.537628459785941e-06,0.5050585264361609,-1.460249955823476e-05,0.5050585264361609,-1.225480198794358e-05,0.5050585264361609,-1.527389955823476e-05
0.505852643616092,-4.867931355360032e-06,0.505852643616092,-1.292515338840008e-05,0.505852643616092,-1.2588549322319984e-05,0.505852643616092,-1.7623145256239888e-05
0.506646760796023,-4.196432268954825e-06,0.506646760796023,-1.3595597731045176e-05,0.506646760796023,-1.2420850582301929e-05,0.506646760796023,-1.628180453790965e-05
0.507440877975954,-2.1823495461123045e-06,0.507440877975954,-1.426709681745029e-05,0.507440877975954,-1.174950318254971e-05,0.507440877975954,-1.5945751591274854e-05
0.5082349951558852,-4.196217711627783e-06,0.5082349951558852,-1.2253012288433223e-05,0.5082349951558852,-1.1917298975658852e-05,0.5082349951558852,-1.4938606144216612e-05
0.5090291123358163,-5.539409480278719e-06,0.5090291123358163,-1.15816e-05,0.5090291123358163,-1.2420966030923484e-05,0.5090291123358163,-1.4267389741552388e-05
0.5098232295157473,-8.22200723635289e-06,0.5098232295157473,-1.15816e-05,0.5098232295157473,-1.3594661233966088e-05,0.5098232295157473,-1.560869860848482e-05
0.5106173466956784,-9.5663051422631e-06,0.5106173466956784,-1.0910752428868447e-05,0.5106173466956784,-1.4434309505054508e-05,0.5106173466956784,-1.42683048577369e-05
0.5114114638756094,-9.56741e-06,0.5114114638756094,-9.903780013694865e-06,0.5114114638756094,-1.4938259959391588e-05,0.5114114638756094,-1.5105833355681929e-05
0.5122055810555405,-8.896364256058128e-06,0.5122055810555405,-8.896541378810814e-06,0.5122055810555405,-1.661621435985468e-05,0.5122055810555405,-1.6951825769458256e-05
0.5129996982354716,-5.540305840663013e-06,0.5129996982354716,-1.0238289664494906e-05,0.5129996982354716,-1.5778118981068837e-05,0.5129996982354716,-1.4435956905200904e-05
0.5137938154154027,-3.021875309853828e-06,0.5137938154154027,-9.231944122546686e-06,0.5137938154154027,-1.728814880106914e-05,0.5137938154154027,-1.3595995092435807e-05
0.5145879325953338,-4.531801757953289e-06,0.5145879325953338,-9.23171e-06,0.5145879325953338,-1.644927125029776e-05,0.5145879325953338,-1.2420899748719013e-05
0.5153820497752648,-4.196251044781351e-06,0.5153820497752648,-9.73537574567054e-06,0.5153820497752648,-1.39315e-05,0.5153820497752648,-1.2924526268688108e-05
0.5161761669551959,-4.531859500805962e-06,0.5161761669551959,-1.1582093494358269e-05,0.5161761669551959,-1.3931464739902656e-05,0.5161761669551959,-1.4938106505641732e-05
0.5169702841351269,-4.196532284072808e-06,0.5169702841351269,-1.392938401149035e-05,0.5169702841351269,-1.3763751187059352e-05,0.5169702841351269,-1.2590815988509653e-05
0.5177644013150581,-4.19623e-06,0.5177644013150581,-1.3260606243161246e-05,0.5177644013150581,-1.1750918729483736e-05,0.5177644013150581,-1.1917806243161246e-05
0.5185585184949891,-4.5317264216219816e-06,0.5185585184949891,-1.3092301819510485e-05,0.5185585184949891,-9.736481433882345e-06,0.5185585184949891,-1.2923789264865944e-05
0.5193526356749202,-3.189756136113181e-06,0.5193526356749202,-1.4937752783592834e-05,0.5193526356749202,-1.1245206846299112e-05,0.5193526356749202,-1.2588854035175416e-05
0.5201467528548512,-5.873884070442458e-06,0.5201467528548512,-1.3931813475918572e-05,0.5201467528548512,-1.4937450588298563e-05,0.5201467528548512,-1.3595486524081426e-05
0.5209408700347823,-4.86779484467392e-06,0.5209408700347823,-1.3763627482569334e-05,0.5209408700347823,-1.695247030737848e-05,0.5209408700347823,-1.4267090102459493e-05
0.5217349872147133,-1.510694055515475e-06,0.5217349872147133,-1.2924413513114006e-05,0.5217349872147133,-1.795988378329705e-05,0.5217349872147133,-1.393150540556765e-05
0.5225291043946444,-1.678291631660414e-06,0.5225291043946444,-1.2924488164231738e-05,0.5225291043946444,-1.661705591788413e-05,0.5225291043946444,-1.6281223671536522e-05
0.5233232215745756,-1.6932814636681807e-07,0.5233232215745756,-1.359514259769814e-05,0.5233232215745756,-1.628172870115093e-05,0.5233232215745756,-1.4939914804603716e-05
0.5241173387545066,-3.1866238601286125e-06,0.5241173387545066,-1.3260379571929624e-05,0.5241173387545066,-1.4268877431577742e-05,0.5241173387545066,-1.3596918287718494e-05
0.5249114559344377,-3.18914e-06,0.5249114559344377,-1.32601e-05,0.5249114559344377,-1.5609079885091735e-05,0.5249114559344377,-1.5273149856364667e-05
0.5257055731143687,-8.405093954454039e-07,0.5257055731143687,-1.2924580485524464e-05,0.5257055731143687,-1.3596882913146777e-05,0.5257055731143687,-1.3596702427622314e-05
0.5264996902942998,-2.8526543484091917e-06,0.5264996902942998,-1.1582123769287435e-05,0.5264996902942998,-1.2924661884643716e-05,0.5264996902942998,-1.35958e-05
0.5272938074742308,-1.510965596477208e-06,0.5272938074742308,-1.15816e-05,0.5272938074742308,-1.3931255802642095e-05,0.5272938074742308,-1.4267037201761397e-05
0.528087924654162,-3.5246388654490333e-06,0.528087924654162,-1.15816e-05,0.528087924654162,-1.2924495567749951e-05,0.528087924654162,-1.5609872576333395e-05
0.528882041834093,-6.546066938669019e-06,0.528882041834093,-1.1749302722561649e-05,0.528882041834093,-1.2924435374571903e-05,0.528882041834093,-1.4602988436429765e-05
0.5296761590140241,-5.539164289843539e-06,0.5296761590140241,-9.903066429039247e-06,0.5296761590140241,-1.35958e-05,0.5296761590140241,-1.6281735729609288e-05
0.5304702761939551,-6.209808734414503e-06,0.5304702761939551,-9.735412809568015e-06,0.5304702761939551,-1.35958e-05,0.5304702761939551,-1.795837181327506e-05
0.5312643933738862,-9.564845216879447e-06,0.5312643933738862,-1.0238415289026023e-05,0.5312643933738862,-1.2924912958152137e-05,0.5312643933738862,-1.5108580110347215e-05
0.5320585105538173,-8.225437743493856e-06,0.5320585105538173,-1.02388e-05,0.5320585105538173,-8.89849322431726e-06,0.5320585105538173,-1.2925745052355967e-05
0.5328526277337483,-7.553534780653322e-06,0.5328526277337483,-1.0909885214658186e-05,0.5328526277337483,-8.89601e-06,0.5328526277337483,-1.242103611244882e-05
0.5336467449136795,-6.210851397873026e-06,0.5336467449136795,-1.0239015698936512e-05,0.5336467449136795,-1.0238368605339649e-05,0.5336467449136795,-1.158186960760727e-05
0.5344408620936105,-6.5460616937343e-06,0.5344408620936105,-1.0406670838182869e-05,0.5344408620936105,-1.3259575243608706e-05,0.5344408620936105,-1.4938016937343006e-05
0.5352349792735416,-7.553193710810713e-06,0.5352349792735416,-1.2924334278331976e-05,0.5352349792735416,-1.628132113243214e-05,0.5352349792735416,-1.49386e-05
0.5360290964534726,-8.224202713989147e-06,0.5360290964534726,-1.040655744419392e-05,0.5360290964534726,-1.577757599742571e-05,0.5360290964534726,-1.4435101828175596e-05
0.5368232136334037,-4.870950524448292e-06,0.5368232136334037,-9.2328722300465e-06,0.5368232136334037,-1.3933326249870088e-05,0.5368232136334037,-1.5273469814485205e-05
0.5376173308133347,-5.873871220152696e-06,0.5376173308133347,-1.1747278079879893e-05,0.5376173308133347,-1.560858535287442e-05,0.5376173308133347,-1.3932631717700463e-05
0.5384114479932659,-6.210186613777535e-06,0.5384114479932659,-1.2252649885905172e-05,0.5384114479932659,-1.493906677244493e-05,0.5384114479932659,-1.3596033386222464e-05
0.539205565173197,-8.55902310433738e-06,0.539205565173197,-1.3930580784900692e-05,0.539205565173197,-1.49386e-05,0.539205565173197,-1.393131615698014e-05
0.539999682353128,-4.1979758896237775e-06,0.539999682353128,-1.39315e-05,0.539999682353128,-1.49386e-05,0.539999682353128,-1.3595934299817304e-05
0.5407937995330591,-3.189394267319329e-06,0.5407937995330591,-1.2421181417390017e-05,0.5407937995330591,-1.3931754269844102e-05,0.5407937995330591,-1.35958e-05
0.5415879167129901,-3.524794787636858e-06,0.5415879167129901,-1.4267006320988694e-05,0.5415879167129901,-1.4267164786587905e-05,0.5415879167129901,-1.2924470426824192e-05
0.5423820338929212,-4.867658659580921e-06,0.5423820338929212,-1.4267207162760917e-05,0.5423820338929212,-1.3092250156400924e-05,0.5423820338929212,-1.0574628968114142e-05
0.5431761510728523,-5.539285168698607e-06,0.5431761510728523,-1.443541466172464e-05,0.5431761510728523,-1.4267837926497235e-05,0.5431761510728523,-1.3595927585299448e-05
0.5439702682527834,-6.880584046735879e-06,0.5439702682527834,-1.6615091514966872e-05,0.5439702682527834,-1.762111009382878e-05,0.5439702682527834,-1.4266582018765756e-05
0.5447643854327144,-7.888130498025602e-06,0.5447643854327144,-1.510756930327252e-05,0.5447643854327144,-1.4940678692572107e-05,0.5447643854327144,-1.3093109466701008e-05
0.5455585026126455,-5.540502041053719e-06,0.5455585026126455,-1.4267725702100652e-05,0.5455585026126455,-1.1919192640320188e-05,0.5455585026126455,-1.3595484528625014e-05
0.5463526197925765,-3.525794500997834e-06,0.5463526197925765,-1.2253964500997831e-05,0.5463526197925765,-1.5272692498336942e-05,0.5463526197925765,-1.6280113998669554e-05
0.5471467369725076,-6.2095303476027e-06,0.5471467369725076,-1.2924177586072502e-05,0.5471467369725076,-1.6952243965181258e-05,0.5471467369725076,-1.4267867241782493e-05
0.5479408541524387,-5.203514989446564e-06,0.5479408541524387,-1.2588761663761146e-05,0.5479408541524387,-1.4267693310089158e-05,0.5479408541524387,-1.359592332752229e-05
0.5487349713323698,-5.539017879441506e-06,0.5487349713323698,-9.903196964467953e-06,0.5487349713323698,-1.3931512120558494e-05,0.5487349713323698,-1.6616990914973554e-05
0.5495290885123009,-9.23152312325559e-06,0.5495290885123009,-8.896028687785777e-06,0.5495290885123009,-1.4267274751143107e-05,0.5495290885123009,-1.6952725248856894e-05
0.5503232056922319,-7.554897028485161e-06,0.5503232056922319,-9.063692296152357e-06,0.5503232056922319,-1.493792918460942e-05,0.5503232056922319,-1.628207081539058e-05
0.551117322872163,-5.876151434602574e-06,0.551117322872163,-1.0237798004306256e-05,0.551117322872163,-1.5106256899180035e-05,0.551117322872163,-1.762305485231794e-05
0.551911440052094,-6.377914884423133e-06,0.551911440052094,-8.896956967819403e-06,0.551911440052094,-1.4603255080315664e-05,0.551911440052094,-1.4940493949743286e-05
0.5527055572320251,-7.552564798196261e-06,0.5527055572320251,-8.89601e-06,0.5527055572320251,-1.3260848802061417e-05,0.5527055572320251,-1.4267574401030708e-05
0.5534996744119562,-8.895459374849793e-06,0.5534996744119562,-9.902687032162495e-06,0.5534996744119562,-1.225341297193811e-05,0.5534996744119562,-1.42672e-05
0.5542937915918873,-6.546736796145906e-06,0.5542937915918873,-1.1245547543559604e-05,0.5542937915918873,-1.3595447543559605e-05,0.5542937915918873,-1.39315881141101e-05
0.5550879087718184,-4.532161424296284e-06,0.5550879087718184,-1.1581561429092455e-05,0.5550879087718184,-1.1581831425445252e-05,0.5550879087718184,-1.3595838570907542e-05
0.5558820259517494,-3.524851944590124e-06,0.5558820259517494,-1.1581534166556478e-05,0.5558820259517494,-1.3931516456808352e-05,0.5558820259517494,-1.2924378055409876e-05
0.5566761431316805,-4.196501975398544e-06,0.5566761431316805,-9.567440219688771e-06,0.5566761431316805,-1.4435211546823392e-05,0.5566761431316805,-1.2253362636265256e-05
0.5574702603116115,-5.705464461802183e-06,0.5574702603116115,-9.735103828055326e-06,0.5574702603116115,-1.5608906749865995e-05,0.5574702603116115,-1.4265325936663902e-05
0.5582643774915427,-6.880898820765808e-06,0.5582643774915427,-8.89666798516728e-06,0.5582643774915427,-1.5106794830301152e-05,0.5582643774915427,-1.3931763194066912e-05
0.5590584946714737,-2.8560037976430204e-06,0.5590584946714737,-1.107671124392464e-05,0.5590584946714737,-1.493870679361046e-05,0.5590584946714737,-1.4937959047407077e-05
0.5598526118514048,-4.363341520410641e-06,0.5598526118514048,-1.091028207827348e-05,0.5598526118514048,-1.3931992322985251e-05,0.5598526118514048,-1.3596456430647004e-05
0.5606467290313358,-6.880960769969098e-06,0.5606467290313358,-9.567868254423886e-06,0.5606467290313358,-1.4267085435540852e-05,0.5606467290313358,-1.2421200992670534e-05
0.5614408462112669,-9.56688983188454e-06,0.5614408462112669,-1.0909939916910713e-05,0.5614408462112669,-1.4434967499056156e-05,0.5614408462112669,-1.4266842373404582e-05
0.5622349633911979,-8.392514173188954e-06,0.5622349633911979,-1.2252938087784052e-05,0.5622349633911979,-1.2588785126991583e-05,0.5622349633911979,-1.5609938087784057e-05
0.563029080571129,-4.19617896655094e-06,0.563029080571129,-1.359545977700626e-05,0.563029080571129,-1.124607011149687e-05,0.563029080571129,-1.3595731955401252e-05
0.5638231977510602,-3.693188141451137e-06,0.5638231977510602,-1.0242187609674249e-05,0.5638231977510602,-1.2922706195162876e-05,0.5638231977510602,-1.292507752193485e-05
0.5646173149309912,-8.417079637303462e-07,0.5646173149309912,-1.225126213350452e-05,0.5646173149309912,-1.3595220711168173e-05,0.5646173149309912,-1.29244e-05
0.5654114321109223,-3.5229092017367577e-06,0.5654114321109223,-1.426575939271986e-05,0.5654114321109223,-1.4266719797573286e-05,0.5654114321109223,-1.4266239595146574e-05
0.5662055492908533,-6.208895541590418e-06,0.5662055492908533,-1.4938218883978496e-05,0.5662055492908533,-1.4938218883978496e-05,0.5662055492908533,-1.3931690558010752e-05
0.5669996664707844,-3.86151709945642e-06,0.5669996664707844,-1.6280835940767406e-05,0.5669996664707844,-1.6280835940767406e-05,0.5669996664707844,-1.39315e-05
0.5677937836507154,-4.867355585183225e-06,0.5677937836507154,-1.3596531772844732e-05,0.5677937836507154,-1.62814e-05,0.5677937836507154,-1.510607986300444e-05
0.5685879008306466,-4.196313856805882e-06,0.5685879008306466,-1.2253167713611764e-05,0.5685879008306466,-1.2924819284029406e-05,0.5685879008306466,-1.6281253244344784e-05
0.5693820180105776,-4.699806651571823e-06,0.5693820180105776,-1.1245922844398848e-05,0.5693820180105776,-1.2924430459198465e-05,0.5693820180105776,-1.7288454311202303e-05
