X [s],R BICEPS BRACHII: EMG 1 [V],X [s].1,R DELTOID ANTERIOR: EMG 2 [V],X [s].5,R DELTOID MEDIUS: EMG 6 [V],X [s].6,R DELTOID POSTERIOR: EMG 7 [V]
0.0,-4.19623e-06,0.0,-1.8967e-05,0.0,-4.19623e-06,0.0,-3.40734e-05
0.000794117179931,-3.840783001062709e-06,0.000794117179931,-2.024065905505142e-05,0.000794117179931,-5.065093269905918e-06,0.000794117179931,-6.264722137351906e-05
0.0015882343598621,-3.801288324478952e-06,0.0015882343598621,-2.3074291904209856e-05,0.0015882343598621,-1.1008933297915808e-05,0.0015882343598621,-8.479349388666903e-05
0.0023823515397932,-6.230165493016887e-06,0.0023823515397932,-2.3745684107763917e-05,0.0023823515397932,-1.4128975666995286e-05,0.0023823515397932,-9.598009183240529e-05
0.0031764687197242,-6.792957486718427e-06,0.0031764687197242,-2.3903671148734012e-05,0.0031764687197242,-1.0189437004646517e-05,0.0031764687197242,-0.0001042339797521
0.0039705858996553,-8.40232929995339e-06,0.0039705858996553,-2.589811347478825e-05,0.0039705858996553,-6.970679649976694e-06,0.0039705858996553,-0.0001238037550777
0.0047647030795864,-8.066637379482022e-06,0.0047647030795864,-2.489102507437104e-05,0.0047647030795864,-8.461572460155282e-06,0.0047647030795864,-0.0001484283222511
0.0055588202595174,-9.448901361525908e-06,0.0055588202595174,-2.457506145084071e-05,0.0055588202595174,-1.0811442899333043e-05,0.0055588202595174,-0.0001719071692988
0.0063529374394485,-9.03423987472689e-06,0.0063529374394485,-2.6046251832877984e-05,0.0063529374394485,-1.189754994687371e-05,0.0063529374394485,-0.0001872509222134
0.0071470546193796,-1.0752182715052504e-05,0.0071470546193796,-2.489103401174777e-05,0.0071470546193796,-1.3161355248864684e-05,0.0071470546193796,-0.0001946953786637
0.0079411717993107,-1.6399874867184275e-05,0.0079411717993107,-2.4575066585080597e-05,0.0079411717993107,-1.1897576574843428e-05,0.0079411717993107,-0.000191594625664
0.0087352889792417,-1.6241945706625457e-05,0.0087352889792417,-2.516747220883692e-05,0.0087352889792417,-1.076308736677355e-06,0.0087352889792417,-0.0001749286687878
0.0095294061591728,-9.646404918342915e-06,0.0095294061591728,-2.5503195560457737e-05,0.0095294061591728,5.4797751347833744e-06,0.0095294061591728,-0.0001445182703591
0.0103235233391039,-2.32071121711438e-06,0.0103235233391039,-2.5029250339671915e-05,0.0103235233391039,1.3457125839670935e-05,0.0103235233391039,-5.637045346332481e-05
0.0111176405190349,1.44943730473898e-05,0.0111176405190349,-2.270895592517956e-05,0.0111176405190349,2.864307232315644e-05,0.0111176405190349,9.745406589111416e-06
0.011911757698966,1.9184119080189853e-05,0.011911757698966,-2.292618569051468e-05,0.011911757698966,3.172331996083834e-05,0.011911757698966,6.841732130400056e-06
0.0127058748788971,1.1088514622751276e-05,0.0127058748788971,-2.3706198233423715e-05,0.0127058748788971,2.056718598454658e-05,0.0127058748788971,-6.052128441786505e-06
0.0134999920588282,-1.846208282999058e-06,0.0134999920588282,-2.29953e-05,0.0134999920588282,4.867784624594722e-06,0.0134999920588282,-3.1892373560367564e-06
0.0142941092387592,-7.395312204436194e-06,0.0142941092387592,-2.090223860834196e-05,0.0142941092387592,-2.2611208808882718e-06,0.0142941092387592,3.154701762662748e-05
0.0150882264186903,-1.3476837037057526e-05,0.0150882264186903,-1.957918744941633e-05,0.0150882264186903,-6.595038221054716e-06,0.0150882264186903,0.0001169635563285
0.0158823435986214,-1.6005047728463034e-05,0.0158823435986214,-1.7249128013863938e-05,0.0158823435986214,-9.765055600828089e-06,0.0158823435986214,0.0002458764788972
0.0166764607785524,-1.1719784195745323e-05,0.0166764607785524,-1.1838339663482015e-05,0.0166764607785524,-3.445791715606618e-06,0.0166764607785524,0.0003468266034956
0.0174705779584835,-7.612584629483166e-06,0.0174705779584835,-1.3635472047943408e-05,0.0174705779584835,-1.6883518785715837e-06,0.0174705779584835,0.0003218676288056
0.0182646951384146,-3.8111252780852503e-06,0.0182646951384146,-1.667632281965676e-05,0.0182646951384146,-1.2737513255934244e-06,0.0182646951384146,0.000206785463306
0.0190588123183456,-8.61949855320027e-06,0.0190588123183456,-1.7900705895752314e-05,0.0190588123183456,7.602427462957843e-07,0.0190588123183456,0.0001043731442685
0.0198529294982767,-1.3467454339320862e-05,0.0198529294982767,-1.876939282632716e-05,0.0198529294982767,1.0847163617807589e-07,0.0198529294982767,2.6922643869025243e-05
0.0206470466782078,-1.2075618584868513e-05,0.0206470466782078,-2.133667650134337e-05,0.0206470466782078,-2.0043677877302766e-06,0.0206470466782078,-4.424026046166478e-05
0.0214411638581389,-5.460095115555482e-06,0.0214411638581389,-2.0467836273252303e-05,0.0214411638581389,6.219498563963901e-07,0.0214411638581389,-5.502643499231317e-05
0.0222352810380699,-7.533565614651813e-06,0.0222352810380699,-2.046778533020084e-05,0.0222352810380699,3.287890254844021e-06,0.0222352810380699,1.373495614651812e-05
0.023029398218001,-1.7150193223714193e-05,0.023029398218001,-2.2146241481580264e-05,0.023029398218001,2.0438271663469586e-06,0.023029398218001,3.999760971978278e-05
0.0238235153979321,-1.9599179873190663e-05,0.0238235153979321,-2.1968546331496157e-05,0.0238235153979321,-1.28240779075582e-07,0.0238235153979321,-1.8540190181162592e-06
0.0246176325778631,-9.764922506498373e-06,0.0246176325778631,-2.4891025833920065e-05,0.0246176325778631,-3.8802625645190085e-06,0.0246176325778631,-5.1045809951195045e-05
0.0254117497577942,6.309643548849712e-06,0.0254117497577942,-2.56809e-05,0.0254117497577942,-4.1467772360646666e-06,0.0254117497577942,-8.628544284735036e-05
0.0262058669377253,1.2391294066619148e-05,0.0262058669377253,-2.617457030809627e-05,0.0262058669377253,5.724200159433645e-07,0.0262058669377253,-0.0001212142076683
0.0269999841176564,9.903168722269556e-06,0.0269999841176564,-2.7023679461853828e-05,0.0269999841176564,3.692634185494817e-06,0.0269999841176564,-0.0001599592440618
0.0277941012975874,3.465470481685234e-06,0.0277941012975874,-2.7734536630850094e-05,0.0277941012975874,4.808426503545551e-06,0.0277941012975874,-0.0001836964473612
0.0285882184775185,-4.136191850917667e-06,0.0285882184775185,-3.049926610519778e-05,0.0285882184775185,4.097833400560657e-06,0.0285882184775185,-0.0002003227517896
0.0293823356574496,-1.4731054647318224e-05,0.0293823356574496,-2.812971594136977e-05,0.0293823356574496,2.862674489722609e-07,0.0293823356574496,-0.0002049935366184
0.0301764528373806,-1.5846965005295857e-05,0.0301764528373806,-2.6964493328926864e-05,0.0301764528373806,2.5572337433801805e-06,0.0301764528373806,-0.0001842784157693
0.0309705700173117,-1.1009186390940587e-05,0.0309705700173117,-2.467372379738235e-05,0.0309705700173117,7.0989454711288695e-06,0.0309705700173117,-0.0001059754463967
0.0317646871972428,-3.3669167682989045e-06,0.0317646871972428,-2.171181768512021e-05,0.0317646871972428,7.17829457725929e-06,0.0317646871972428,-5.877311211588291e-06
0.0325588043771738,-3.485317331451726e-06,0.0325588043771738,-2.2225200749190212e-05,0.0325588043771738,-5.033847273654628e-07,0.0325588043771738,2.4792020286242717e-05
0.0333529215571049,1.550263402405403e-06,0.0333529215571049,-2.16526e-05,0.0333529215571049,-4.630687902127337e-06,0.0333529215571049,5.372231445244313e-05
0.034147038737036,2.982029040277964e-06,0.034147038737036,-2.08824580276021e-05,0.034147038737036,-2.5969279267132504e-06,0.034147038737036,6.634104767181484e-05
0.0349411559169671,-2.862164366313479e-07,0.0349411559169671,-2.03098e-05,0.0349411559169671,6.219154953980868e-07,0.0349411559169671,3.409508080755482e-05
0.0357352730968981,-3.722313796007152e-06,0.0357352730968981,-1.8927516789014665e-05,0.0357352730968981,3.2878730744472184e-06,0.0357352730968981,-2.1178772866847875e-05
0.0365293902768292,-4.354195218925213e-06,0.0365293902768292,-1.8571765114508143e-05,0.0365293902768292,2.912648341765851e-06,0.0365293902768292,-6.163942695574184e-05
0.0373235074567603,-7.039393110919426e-06,0.0373235074567603,-2.238310682183243e-05,0.0373235074567603,5.558603938414734e-06,0.0373235074567603,-8.938482931923656e-05
0.0381176246366913,-1.3279785573143695e-05,0.0381176246366913,-2.522670529972886e-05,0.0381176246366913,6.625123606714076e-06,0.0381176246366913,-6.982575141624608e-05
0.0389117418166224,-1.341808002687339e-05,0.0389117418166224,-2.459490830471902e-05,0.0389117418166224,6.9410875524818805e-06,0.0389117418166224,-5.536061622375906e-05
0.0397058589965535,-1.367501656099222e-05,0.0397058589965535,-2.0665269650903057e-05,0.0397058589965535,5.953939501035111e-06,0.0397058589965535,-6.371227399378314e-05
0.0404999761764846,-8.22481616629692e-06,0.0404999761764846,-2.1652538385561477e-05,0.0404999761764846,5.03754165887493e-07,0.0404999761764846,-8.291694163411868e-05
0.0412940933564156,-6.21042e-06,0.0412940933564156,-2.035920944774039e-05,0.0412940933564156,-7.987710266622374e-06,0.0412940933564156,-2.2007411451643347e-05
0.0420882105363467,-1.150195196050922e-05,0.0420882105363467,-2.0349254495576263e-05,0.0420882105363467,-1.5866420825586723e-05,0.0420882105363467,4.437927893053745e-05
0.0428823277162778,-1.6933293019999668e-05,0.0428823277162778,-2.058631425243805e-05,0.0428823277162778,-1.5136390693332894e-05,0.0428823277162778,5.910969280426236e-05
0.0436764448962088,-9.291053842357023e-06,0.0436764448962088,-1.671598060488458e-05,0.0436764448962088,-7.987727186579503e-06,0.0436764448962088,0.0001539760390127
0.0444705620761399,-4.86763e-06,0.0444705620761399,-1.49386e-05,0.0444705620761399,-5.38103042731998e-06,0.0444705620761399,0.0001981920361992
0.045264679256071,-1.7481157935607666e-06,0.045264679256071,-1.478053765175101e-05,0.045264679256071,-7.237101940689854e-06,0.045264679256071,0.0001276966674754
0.046058796436002,1.84634e-06,0.046058796436002,-1.750572963891992e-05,0.046058796436002,-6.970750010564547e-06,0.046058796436002,0.0001058734523665
0.0468529136159331,-2.794244664663804e-06,0.0468529136159331,-1.5728713586129947e-05,0.0468529136159331,-1.4513593829405662e-06,0.0468529136159331,0.0001068211653063
0.0476470307958642,-7.829309974360979e-06,0.0476470307958642,-1.39315e-05,0.0476470307958642,-6.415925759599018e-07,0.0476470307958642,0.0001016880757685
0.0484411479757953,-1.0357556233598716e-05,0.0484411479757953,-1.6014519200038204e-05,0.0484411479757953,-3.260482984003473e-07,0.0484411479757953,8.282943197801399e-05
0.0492352651557263,-3.2879254359190006e-06,0.0492352651557263,-1.9312524467513832e-05,0.0492352651557263,5.08480317609093e-06,0.0492352651557263,5.550901933780436e-05
0.0500293823356574,-1.8659798832201684e-06,0.0500293823356574,-2.078356201910789e-05,0.0500293823356574,1.0732296954084611e-05,0.0500293823356574,-3.542902276174413e-06
0.0508234995155885,-5.805459242166788e-06,0.0508234995155885,-2.283728840443124e-05,0.0508234995155885,1.29244e-05,0.0508234995155885,-4.495257175110032e-05
0.0516176166955195,-8.086334821125217e-06,0.0516176166955195,-2.5048911913844155e-05,0.0516176166955195,1.2035822590638496e-05,0.0516176166955195,-6.574716656340221e-05
0.0524117338754506,-1.0693012197540586e-05,0.0524117338754506,-2.891932086273637e-05,0.0524117338754506,1.0850943901229707e-05,0.0524117338754506,-7.207643156243144e-05
0.0532058510553817,-1.2825708487021165e-05,0.0532058510553817,-2.6431419671994654e-05,0.0532058510553817,9.290773112043049e-06,0.0532058510553817,-7.399083585564116e-05
0.0539999682353128,-1.2253022907423186e-05,0.0539999682353128,-2.299542322887704e-05,0.0539999682353128,1.191718546288407e-05,0.0539999682353128,-9.18126638824656e-05
0.0547940854152438,-1.2253e-05,0.0547940854152438,-2.368639778123385e-05,0.0547940854152438,6.546155749317292e-06,0.0547940854152438,-0.0001068412371714
0.0555882025951749,-1.260818067884241e-05,0.0555882025951749,-2.562173366024522e-05,0.0555882025951749,-2.6160449700878084e-06,0.0555882025951749,-0.0001280670709373
0.056382319775106,-1.485967656926707e-05,0.056382319775106,-2.5068675480466355e-05,0.056382319775106,-2.7845208833065825e-06,0.056382319775106,-0.0001370147656926
0.057176436955037,-1.302314599790651e-05,0.057176436955037,-2.686584094140255e-05,0.057176436955037,7.897991823181816e-07,0.057176436955037,-0.0001186502834741
0.0579705541349681,-6.694790081292756e-06,0.0579705541349681,-2.4377589486415912e-05,0.0579705541349681,-2.339555581937272e-06,0.0579705541349681,-9.803409650324962e-05
0.0587646713148992,3.929168185409029e-06,0.0587646713148992,-2.2758487972813583e-05,0.0587646713148992,-1.0574132115861326e-05,0.0587646713148992,-9.601970732368778e-05
0.0595587884948302,8.777402095386115e-06,0.0595587884948302,-2.1178677859343106e-05,0.0595587884948302,-1.25985810968152e-05,0.0595587884948302,-9.07672212336886e-05
0.0603529056747613,6.605365464998901e-06,0.0603529056747613,-1.898689973022042e-05,0.0603529056747613,-7.829676491767197e-06,0.0603529056747613,-7.83263625661982e-05
0.0611470228546924,3.067445634668436e-07,0.0611470228546924,-1.9756826052083505e-05,0.0611470228546924,-6.447281921891524e-06,0.0611470228546924,-5.532389434868336e-05
0.0619411400346235,-9.15232443974242e-06,0.0619411400346235,-2.323230728115734e-05,0.0619411400346235,-4.9470159126533e-06,0.0619411400346235,-2.343114559557616e-05
0.0627352572145545,-1.3516802120141716e-05,0.0627352572145545,-2.216604322986046e-05,0.0627352572145545,2.754565329732339e-06,0.0627352572145545,2.655531878976462e-06
0.0635293743944856,-1.1700185339172693e-05,0.0635293743944856,-2.234357083059909e-05,0.0635293743944856,1.0495335436182832e-05,0.0635293743944856,3.932425436182832e-05
0.0643234915744167,-1.073259650999984e-05,0.0643234915744167,-2.329148902452175e-05,0.0643234915744167,9.587590730360646e-06,0.0643234915744167,8.622232852791855e-05
0.0651176087543477,-9.014548594165182e-06,0.0651176087543477,-2.2916351826490164e-05,0.0651176087543477,5.95374651413727e-06,0.0651176087543477,0.0001146108280037
0.0659117259342788,-1.4543684837940166e-05,0.0659117259342788,-2.3271695027758543e-05,0.0659117259342788,4.018501947228537e-06,0.0659117259342788,0.0001282268720865
0.0667058431142099,-2.2836800036459444e-05,0.0667058431142099,-2.4101191165020796e-05,0.0667058431142099,-1.58908635589036e-06,0.0667058431142099,0.0001216347409872
0.067499960294141,-2.56809e-05,0.067499960294141,-2.3666712840165117e-05,0.067499960294141,-6.210248195179064e-06,0.067499960294141,7.268142023944413e-05
0.068294077474072,-1.4741276492041854e-05,0.068294077474072,-2.410111416944981e-05,0.068294077474072,-7.801052397562471e-07,0.068294077474072,5.559757083595698e-05
0.0690881946540031,-1.7091749872401178e-06,0.0690881946540031,-2.299560861761836e-05,0.0690881946540031,6.1306074929986144e-06,0.0690881946540031,7.082111940499164e-05
0.0698823118339342,7.987233522947776e-06,0.0698823118339342,-1.9914934786629243e-05,0.0698823118339342,1.3398190083113442e-05,0.0698823118339342,7.581901616085067e-05
0.0706764290138652,1.069301686378271e-05,0.0706764290138652,-1.934215963011282e-05,0.0706764290138652,1.4020378821737555e-05,0.0706764290138652,5.549989178734584e-05
0.0714705461937963,6.980792460609724e-06,0.0714705461937963,-2.094167970636479e-05,0.0714705461937963,1.1789126073134085e-05,0.0714705461937963,-1.921534436637788e-06
0.0722646633737274,4.571807461120064e-06,0.0722646633737274,-2.3489093155468265e-05,0.0722646633737274,9.350520423942902e-06,0.0722646633737274,-4.550549482378396e-05
0.0730587805536585,-3.1689032032657525e-06,0.0730587805536585,-2.123793497087138e-05,0.0730587805536585,4.078041311086605e-06,0.0730587805536585,-6.01585761997625e-05
0.0738528977335895,-1.187777062297765e-05,0.0738528977335895,-2.009250564110621e-05,0.0738528977335895,1.7772699621873935e-06,0.0738528977335895,-7.765480603290315e-05
0.0746470149135206,-3.2992280245021666e-06,0.0746470149135206,-1.983589176535725e-05,0.0746470149135206,-5.828180628025372e-07,0.0746470149135206,-8.34211e-05
0.0754411320934517,7.040123263964178e-06,0.0754411320934517,-1.96384e-05,0.0754411320934517,3.100441338404286e-06,0.0754411320934517,-8.083431508787026e-05
0.0762352492733827,-6.809785326297863e-07,0.0762352492733827,-1.991484123858744e-05,0.0762352492733827,-2.4672224440313614e-07,0.0762352492733827,-8.409223868586073e-05
0.0770293664533138,-5.854921379060107e-06,0.0770293664533138,-1.987526047140777e-05,0.0770293664533138,-3.801123547251341e-06,0.0770293664533138,-0.0001023769462198
0.0778234836332449,-6.032835453910593e-06,0.0778234836332449,-2.2086815111168305e-05,0.0778234836332449,-7.967584528656403e-06,0.0778234836332449,-0.0001217094774055
0.078617600813176,-6.239954733475833e-06,0.078617600813176,-2.204751932238581e-05,0.078617600813176,-1.0791643048226728e-05,0.078617600813176,-0.0001249589669893
0.079411717993107,-1.544206877850562e-05,0.079411717993107,-2.2284358972983004e-05,0.079411717993107,-7.454516521172011e-06,0.079411717993107,-9.669124753525984e-05
0.0802058351730381,-2.78528002963362e-05,0.0802058351730381,-2.396279909562025e-05,0.0802058351730381,-6.091444654342941e-06,0.0802058351730381,-7.378448005926724e-05
0.0809999523529692,-2.098202465699915e-05,0.0809999523529692,-2.4338130807219263e-05,0.0809999523529692,-1.0238593834214863e-05,0.0809999523529692,-9.046901631463126e-05
0.0817940695329002,-3.52518216287529e-06,0.0817940695329002,-2.382471137647868e-05,0.0817940695329002,-6.575886322979859e-06,0.0817940695329002,-0.0001216702117096
0.0825881867128313,9.526364137927668e-06,0.0825881867128313,-2.46738e-05,0.0825881867128313,9.56884989014324e-07,0.0825881867128313,-0.0001250388504356
0.0833823038927624,1.4248595547301808e-05,0.0833823038927624,-2.46738e-05,0.0833823038927624,4.176878820270375e-06,0.0833823038927624,-0.0001034280260741
0.0841764210726934,-1.4704864578944956e-06,0.0841764210726934,-2.2758584779445456e-05,0.0841764210726934,-3.741616279975546e-06,0.0841764210726934,-4.7938442948112895e-05
0.0849705382526245,-7.869248792032634e-06,0.0849705382526245,-2.054678370028481e-05,0.0849705382526245,-6.447788081409778e-06,0.0849705382526245,1.282261533084311e-05
0.0857646554325556,-6.190915371351598e-06,0.0857646554325556,-1.878940855907787e-05,0.0857646554325556,4.945653217297476e-06,0.0857646554325556,3.908756733435364e-05
0.0865587726124866,-4.561599303936255e-06,0.0865587726124866,-1.79599e-05,0.0865587726124866,1.0199241517287731e-05,0.0865587726124866,6.688091559074716e-05
0.0873528897924177,-3.86053e-06,0.0873528897924177,-1.7308440806512766e-05,0.0873528897924177,5.934068547720889e-06,0.0873528897924177,0.0001479721806964
0.0881470069723488,-7.068690805653279e-06,0.0881470069723488,-1.62814e-05,0.0881470069723488,2.7154619710633173e-06,0.0881470069723488,0.0002332533408681
0.0889411241522799,-1.2963810173664294e-05,0.0889411241522799,-1.865067714838702e-05,0.0889411241522799,2.2767807571696134e-07,0.0889411241522799,0.0002911786133057
0.0897352413322109,-1.269734443534287e-05,0.0897352413322109,-2.058623610405089e-05,0.0897352413322109,-6.763129017870927e-06,0.0897352413322109,0.0002551241468184
0.090529358512142,-9.686006597387951e-06,0.090529358512142,-1.926304511438675e-05,0.090529358512142,-1.0515059193667044e-05,0.090529358512142,0.0001565092958003
0.0913234756920731,-8.6194997096218e-06,0.0913234756920731,-1.965815473588238e-05,0.0913234756920731,-9.903582178696422e-06,0.0913234756920731,0.0001032606349639
0.0921175928720041,-1.008070233426102e-05,0.0921175928720041,-1.8572011581482028e-05,0.0921175928720041,-5.480001798079651e-06,0.0921175928720041,4.5076321768370215e-05
0.0929117100519352,-8.264203075949263e-06,0.0929117100519352,-1.9914764220539278e-05,0.0929117100519352,-2.873231537974632e-06,0.0929117100519352,-6.328537722694258e-06
0.0937058272318663,-2.18204e-06,0.0937058272318663,-1.9144755359642743e-05,0.0937058272318663,-9.185975327639726e-07,0.0937058272318663,-3.110817634323078e-06
0.0944999444117974,-8.223888419752173e-06,0.0944999444117974,-2.0645320291221e-05,0.0944999444117974,4.195789034253189e-06,0.0944999444117974,-1.9636114990269324e-05
0.0952940615917284,-1.6932918441251847e-05,0.0952940615917284,-2.3794902169505496e-05,0.0952940615917284,1.0080730399785868e-05,0.0952940615917284,-8.36262074236732e-05
0.0960881787716595,-1.9469930541467933e-05,0.0960881787716595,-2.840591341928393e-05,0.0960881787716595,8.521518679085647e-06,0.0960881787716595,-0.0001314418191802
0.0968822959515906,-2.3025150003171208e-05,0.0968822959515906,-2.90379e-05,0.0968822959515906,5.835276640194521e-06,0.0968822959515906,-0.0001594449393221
0.0976764131315216,-1.7980022169048092e-05,0.0976764131315216,-3.089430255584108e-05,0.0976764131315216,4.709739656808829e-06,0.0976764131315216,-0.0001773366639904
0.0984705303114527,-1.249042475183228e-05,0.0984705303114527,-2.8623284923394757e-05,0.0984705303114527,6.111367380970166e-06,0.0984705303114527,-0.0001888688575288
0.0992646474913838,2.4757659223469133e-06,0.0992646474913838,-2.824811597512501e-05,0.0992646474913838,9.9031e-06,0.0992646474913838,-0.0001894245970434
0.1000587646713148,2.5269925874980483e-05,0.1000587646713148,-2.6511511485853293e-05,0.1000587646713148,8.00680625335108e-06,0.1000587646713148,-0.0001605269109528
0.1008528818512459,3.292806913946901e-05,0.1008528818512459,-2.36286020250784e-05,0.1008528818512459,5.223074615975691e-06,0.1008528818512459,-0.0001281082528599
0.101646999031177,2.9769971755506265e-05,0.101646999031177,-2.0032963826915893e-05,0.101646999031177,3.7031564873707537e-06,0.101646999031177,-9.185972966297192e-05
0.1024411162111081,1.7351539428512513e-05,0.1024411162111081,-2.0625887161373152e-05,0.1024411162111081,-1.6280963467781044e-06,0.1024411162111081,-3.3963932463286564e-05
0.1032352333910391,4.849692086967264e-06,0.1032352333910391,-2.1533886895459937e-05,0.1032352333910391,-2.4983350747779e-06,0.1032352333910391,5.574338833503177e-05
0.1040293505709702,-5.7370605288295625e-06,0.1040293505709702,-2.1998274783205245e-05,0.1040293505709702,-3.2091466950213118e-06,0.1040293505709702,6.348393522249831e-05
0.1048234677509013,-8.925714317572503e-06,0.1048234677509013,-2.23239e-05,0.1048234677509013,-6.7050157236033e-06,0.1048234677509013,2.258882718101961e-05
0.1056175849308323,-1.0990554069835468e-05,0.1056175849308323,-2.124780383451492e-05,0.1056175849308323,-9.410273322842417e-06,0.1056175849308323,-1.3370810542020216e-05
0.1064117021107634,-1.1462618936917892e-05,0.1064117021107634,-2.0358790344214445e-05,0.1064117021107634,-6.979553759902684e-06,0.1064117021107634,-3.387895458104341e-05
0.1072058192906945,-1.3003821709134836e-05,0.1072058192906945,-1.9854652378876702e-05,0.1072058192906945,-5.0751879122170805e-06,0.1072058192906945,-2.927284498032052e-05
0.1079999364706256,-1.913431946708393e-05,0.1079999364706256,-2.299499181521016e-05,0.1079999364706256,-7.217405585777971e-06,0.1079999364706256,1.0570747227150385e-05
0.1087940536505566,-1.9934999287149213e-05,0.1087940536505566,-2.0229316601281344e-05,0.1087940536505566,1.40955016727029e-06,0.1087940536505566,6.739189964612332e-05
0.1095881708304877,-1.5315308957928683e-05,0.1095881708304877,-1.8492675588118745e-05,0.1095881708304877,9.19069693087066e-06,0.1095881708304877,0.0001312100362928
0.1103822880104188,-1.32209075589299e-05,0.1103822880104188,-1.837460008614106e-05,0.1103822880104188,9.805120064808842e-06,0.1103822880104188,0.0001498707565906
0.1111764051903498,-1.29244e-05,0.1111764051903498,-1.875022532154108e-05,0.1111764051903498,1.0306751023068983e-05,0.1111764051903498,9.98585355421292e-05
0.1119705223702809,-1.1631456796474067e-05,0.1119705223702809,-2.007244570213223e-05,0.1119705223702809,1.049657465149612e-05,0.1119705223702809,8.75629484179308e-05
0.112764639550212,-1.0396765652387023e-05,0.112764639550212,-1.835487436802732e-05,0.112764639550212,1.4811319475666528e-06,0.112764639550212,7.672765138850923e-05
0.1135587567301431,-1.2174328467174496e-05,0.1135587567301431,-2.2656314053039696e-05,0.1135587567301431,-7.001173870606635e-06,0.1135587567301431,-1.3253903689245136e-05
0.1143528739100741,-1.160136534443937e-05,0.1143528739100741,-2.2878417671044404e-05,0.1143528739100741,-5.045410951871235e-06,0.1143528739100741,-4.19130567707029e-05
0.1151469910900052,-1.229194592148072e-05,0.1151469910900052,-1.953945370569505e-05,0.1151469910900052,5.424930421216011e-07,0.1151469910900052,-1.4489182787260864e-05
0.1159411082699363,-1.566871126592012e-05,0.1159411082699363,-1.9006170502590657e-05,0.1159411082699363,3.91924126592012e-06,0.1159411082699363,9.9031e-06
0.1167352254498673,-1.5590620313128945e-05,0.1167352254498673,-1.82956e-05,0.1167352254498673,5.50917215997145e-06,0.1167352254498673,-6.007258703271748e-06
0.1175293426297984,-1.0514879108089243e-05,0.1175293426297984,-2.0784159312703945e-05,0.1175293426297984,7.652195219607433e-06,0.1175293426297984,-5.111772070452931e-05
0.1183234598097295,-3.364593090877781e-06,0.1183234598097295,-2.1948571073319608e-05,0.1183234598097295,9.822981368486509e-06,0.1183234598097295,-9.47090421066485e-05
0.1191175769896605,1.985591424794383e-06,0.1191175769896605,-2.340973812386741e-05,0.1191175769896605,1.367921403196265e-06,0.1191175769896605,-0.0001299153628878
0.1199116941695916,1.869993992912524e-07,0.1199116941695916,-2.5898985349501992e-05,0.1199116941695916,-7.198361777887973e-06,0.1199116941695916,-0.00013579
0.1207058113495227,-1.3131038296742734e-06,0.1207058113495227,-2.278141992431139e-05,0.1207058113495227,-4.215643264012247e-06,0.1207058113495227,-0.0001403030935065
0.1214999285294538,-8.39246e-07,0.1214999285294538,-1.8967231143182665e-05,0.1214999285294538,-8.394004582795242e-07,0.1214999285294538,-0.000151398970272
0.1222940457093848,1.2140258700125414e-06,0.1222940457093848,-2.4458763459896023e-05,0.1222940457093848,4.437591188983928e-07,0.1222940457093848,-0.0001422121253815
0.1230881628893159,-1.074211934835399e-06,0.1230881628893159,-2.481440596696593e-05,0.1230881628893159,2.991447272996474e-06,0.1230881628893159,-0.0001146955369008
0.123882280069247,-8.280775913250609e-06,0.123882280069247,-2.224492568349082e-05,0.123882280069247,2.2800067701409814e-06,0.123882280069247,-5.939059198417135e-05
0.124676397249178,-1.3869702934235647e-05,0.124676397249178,-2.4634163352790236e-05,0.124676397249178,5.645117616461993e-06,0.124676397249178,1.2370290726138605e-05
0.1254705144291091,-1.8689713654746003e-05,0.1254705144291091,-2.368704685634716e-05,0.1254705144291091,6.507177563502666e-06,0.1254705144291091,6.609166704810326e-05
0.1262646316090402,-1.920412052324621e-05,0.1262646316090402,-2.2580433034831016e-05,0.1262646316090402,5.440258963837605e-06,0.1262646316090402,0.0001153508949675
0.1270587487889713,-9.9215345059138e-06,0.1270587487889713,-1.9698441781094858e-05,0.1270587487889713,6.21042e-06,0.1270587487889713,0.0001639743386965
0.1278528659689023,-1.175046363073705e-06,0.1278528659689023,-1.8137949110749448e-05,0.1278528659689023,7.869130986283615e-06,0.1278528659689023,0.0001870728580402
0.1286469831488334,-8.905485958788276e-09,0.1286469831488334,-1.7110646076827028e-05,0.1286469831488334,9.66633301871984e-06,0.1286469831488334,0.000154817769532
0.1294411003287645,-6.011672239914954e-06,0.1294411003287645,-2.023142823499521e-05,0.1294411003287645,7.416267760085046e-06,0.1294411003287645,7.903958429193474e-05
0.1302352175086955,-8.481224201006668e-06,0.1302352175086955,-2.0685392730795187e-05,0.1302352175086955,3.150424036099209e-06,0.1302352175086955,2.2054639768038767e-05
0.1310293346886266,-7.414897614658779e-06,0.1310293346886266,-2.034990814996496e-05,0.1310293346886266,-4.444805360848222e-07,0.1310293346886266,2.1001835248141675e-05
0.1318234518685577,-6.664914387445593e-06,0.1318234518685577,-2.16526e-05,0.1318234518685577,-1.6294343874455937e-06,0.1318234518685577,2.642709346301851e-05
0.1326175690484888,-7.513924364683188e-06,0.1326175690484888,-1.936211819045208e-05,0.1326175690484888,-4.256861723340415e-06,0.1326175690484888,6.518043171631801e-06
0.1334116862284198,-5.815258286239111e-06,0.1334116862284198,-2.0389368818210104e-05,0.1334116862284198,-4.017833087266648e-06,0.1334116862284198,-2.1164384858914407e-05
0.1342058034083509,-6.151070002796678e-06,0.1342058034083509,-2.1433938613826968e-05,0.1342058034083509,-2.083276765196974e-06,0.1342058034083509,-4.985262497495431e-05
0.134999920588282,-3.525116035555096e-06,0.134999920588282,-2.4002143174241477e-05,0.134999920588282,-1.5106972071110193e-06,0.134999920588282,-7.871843966149019e-05
0.135794037768213,-4.1364213651158015e-06,0.135794037768213,-2.2797299544571485e-05,0.135794037768213,-2.931565574961533e-06,0.135794037768213,-9.031201052461431e-05
0.1365881549481441,-5.253717180936648e-06,0.1365881549481441,-2.40024e-05,0.1365881549481441,-4.987023840068932e-06,0.1365881549481441,-9.92693336535894e-05
0.1373822721280752,-2.5399932500868028e-06,0.1373822721280752,-2.49896818246132e-05,0.1373822721280752,-2.025316800114782e-06,0.1373822721280752,-0.0001226479605049
0.1381763893080062,-1.67849e-07,0.1381763893080062,-2.5818442397137423e-05,0.1381763893080062,-8.39246e-07,0.1381763893080062,-0.0001440325833767
0.1389705064879373,-9.779045666313202e-07,0.1389705064879373,-2.2602064020509154e-05,0.1389705064879373,1.4011730986083967e-06,0.1389705064879373,-0.0001784446107798
0.1397646236678684,1.0465833399464326e-06,0.1397646236678684,-2.1376164094996983e-05,0.1397646236678684,2.6165258456860568e-06,0.1397646236678684,-0.0002007177812598
0.1405587408477994,1.0169390883985649e-06,0.1405587408477994,-2.2362807757180917e-05,0.1405587408477994,-4.977354943745908e-08,0.1405587408477994,-0.0002051028448216
0.1413528580277305,-1.01684483670475e-06,0.1413528580277305,-2.463296246488097e-05,0.1413528580277305,-1.056442203787059e-06,0.1413528580277305,-0.0002106511808468
0.1421469752076616,-3.5840197604430283e-06,0.1421469752076616,-2.591768452478605e-05,0.1421469752076616,-7.20867184383654e-07,0.1421469752076616,-0.0001578012508953
0.1429410923875927,-4.668842108989633e-06,0.1429410923875927,-2.427846834988561e-05,0.1429410923875927,-1.6768905429085517e-06,0.1429410923875927,-9.960569699511308e-05
0.1437352095675237,-8.16485475749568e-06,0.1437352095675237,-2.3054671961815543e-05,0.1437352095675237,-5.775418997643462e-06,0.1437352095675237,-6.289074218120087e-05
0.1445293267474548,-8.382609976653628e-06,0.1445293267474548,-1.959832266912615e-05,0.1445293267474548,-3.198784928373096e-06,0.1445293267474548,5.642354273326947e-06
0.1453234439273859,-1.52961852045845e-05,0.1453234439273859,-1.7111756719819573e-05,0.1453234439273859,-2.223335906957324e-06,0.1453234439273859,0.0001383785979612
0.146117561107317,-1.95990986316695e-05,0.146117561107317,-1.410978539044723e-05,0.146117561107317,-8.799397289822224e-06,0.146117561107317,0.0002538059552217
0.146911678287248,-1.5273357005027314e-05,0.146911678287248,-1.2292225429560026e-05,0.146911678287248,-5.734772703438799e-06,0.146911678287248,0.0004073187880829
0.1477057954671791,-9.685688367572151e-06,0.1477057954671791,-1.241069198137193e-05,0.1477057954671791,1.3330317438437842e-06,0.1477057954671791,0.0004588680679259
0.1484999126471102,-5.539407565058093e-06,0.1484999126471102,-1.309211525591521e-05,0.1484999126471102,3.1890141443557936e-06,0.1484999126471102,0.0003838811942321
0.1492940298270412,-7.769243920868261e-06,0.1492940298270412,-1.859403519882609e-05,0.1492940298270412,2.616623628090857e-06,0.1492940298270412,0.0002643953701759
0.1500881470069723,-1.1857591613938134e-05,0.1500881470069723,-2.135589942289255e-05,0.1500881470069723,1.965756772123732e-06,0.1500881470069723,0.0001450950349311
0.1508822641869034,-9.6288756397407e-06,0.1508822641869034,-2.3172948552682335e-05,0.1508822641869034,1.67849e-07,0.1508822641869034,4.5300866858658846e-05
0.1516763813668344,-6.448489314623757e-06,0.1516763813668344,-2.463417360606474e-05,0.1516763813668344,9.963896096710208e-07,0.1516763813668344,-3.968316852450536e-05
0.1524704985467655,-2.1042451218522517e-06,0.1524704985467655,-2.488065092543416e-05,0.1524704985467655,4.254579716544488e-06,0.1524704985467655,-0.0001027984072805
0.1532646157266966,-2.7149599523932827e-06,0.1532646157266966,-2.550312312455461e-05,0.1532646157266966,6.783016992180571e-06,0.1532646157266966,-0.0001389096686346
0.1540587329066277,-6.803080257399137e-06,0.1540587329066277,-2.4910554301451768e-05,0.1540587329066277,7.55322e-06,0.1540587329066277,-0.000139155503599
0.1548528500865587,-1.7872855293314308e-06,0.1548528500865587,-2.4022839313620203e-05,0.1548528500865587,3.939800706039413e-06,0.1548528500865587,-9.562660915284706e-05
0.1556469672664898,3.851745647454495e-07,0.1556469672664898,-2.248176662288772e-05,0.1556469672664898,-1.667860399399631e-06,0.1556469672664898,-8.584311337417893e-05
0.1564410844464209,-1.3704716468613649e-06,0.1564410844464209,-2.613582228713071e-05,0.1564410844464209,-4.352655200996849e-06,0.1564410844464209,-0.000135061146109
0.157235201626352,-7.867750586974584e-06,0.157235201626352,-2.9965060311685064e-05,0.157235201626352,-1.0217640586974584e-05,0.157235201626352,-0.0001806677971824
0.158029318806283,-1.15816e-05,0.158029318806283,-2.6983653488217114e-05,0.158029318806283,-1.282554020840233e-05,0.158029318806283,-0.0001994739425594
0.1588234359862141,-9.190474510417853e-06,0.1588234359862141,-2.6272811386815692e-05,0.1588234359862141,-5.379023005816635e-06,0.1588234359862141,-0.0001961337065645
0.1596175531661451,-2.614415772987209e-06,0.1596175531661451,-2.4921202098932865e-05,0.1596175531661451,8.604855310454768e-07,0.1596175531661451,-0.0001838707997985
0.1604116703460762,-2.9722156638941665e-08,0.1604116703460762,-2.2728265401465124e-05,0.1604116703460762,3.1698957831947083e-06,0.1604116703460762,-0.0001776123718298
0.1612057875260073,-5.697222995136459e-06,0.1612057875260073,-2.4139760534570305e-05,0.1612057875260073,2.892884693673131e-06,0.1612057875260073,-0.0001512700208477
0.1619999047059384,-1.2252313516712666e-05,0.1619999047059384,-2.433816163818205e-05,0.1619999047059384,3.524555407912029e-06,0.1619999047059384,-8.242381671980209e-05
0.1627940218858694,-8.039852560072933e-06,0.1627940218858694,-2.1434503596833653e-05,0.1627940218858694,1.0257009334720382e-05,0.1627940218858694,2.458519094434861e-05
0.1635881390658005,8.515079443376257e-06,0.1635881390658005,-2.0192832550413375e-05,0.1635881390658005,1.3317756033297629e-05,0.1635881390658005,0.0001139639201235
0.1643822562457316,1.1961990189357672e-05,0.1643822562457316,-1.7900707816215407e-05,0.1643822562457316,1.8055064599167957e-05,0.1643822562457316,0.0001485748744754
0.1651763734256627,5.284289572466707e-06,0.1651763734256627,-1.6162536198106e-05,0.1651763734256627,2.1869253901265955e-05,0.1651763734256627,0.0001693098413211
0.1659704906055937,1.255329795528575e-06,0.1659704906055937,-1.505729769499457e-05,0.1659704906055937,1.6639173295134672e-05,0.1659704906055937,0.0001380016179031
0.1667646077855248,-5.5879544177143485e-06,0.1667646077855248,-1.8127848661303563e-05,0.1667646077855248,7.454875497309312e-06,0.1667646077855248,4.886785497309312e-05
0.1675587249654559,-1.2095474064470288e-05,0.1675587249654559,-2.201643437427841e-05,0.1675587249654559,-2.475686920361534e-07,0.1675587249654559,-1.2830207354610511e-05
0.1683528421453869,-8.619815361258728e-06,0.1683528421453869,-2.220569668554464e-05,0.1683528421453869,-7.039503258539983e-06,0.1683528421453869,-3.2789115494967737e-05
0.169146959325318,-1.1144999516307154e-05,0.169146959325318,-2.1692057466689083e-05,0.169146959325318,-1.0731676384010476e-05,0.169146959325318,-4.474587472654618e-05
0.1699410765052491,-1.89279050201629e-05,0.1699410765052491,-2.1751422659254095e-05,0.1699410765052491,-1.3990142469755648e-05,0.1699410765052491,-3.5680495383095124e-05
0.1707351936851801,-1.8552197038873358e-05,0.1707351936851801,-2.2540853219386213e-05,0.1707351936851801,-1.3142420727886512e-05,0.1707351936851801,-2.4693088155493422e-05
0.1715293108651112,-1.712052098174154e-05,0.1715293108651112,-2.074406143576937e-05,0.1715293108651112,-8.145517889158862e-06,0.1715293108651112,-4.71365548218214e-05
0.1723234280450423,-1.374424123476287e-05,0.1723234280450423,-2.090170113354115e-05,0.1723234280450423,-5.30150987364206e-06,0.1723234280450423,-6.50376602211264e-05
0.1731175452249733,-1.4879624893110968e-05,0.1731175452249733,-2.374537648568535e-05,0.1731175452249733,-1.825141503792924e-06,0.1731175452249733,-6.548996417178959e-05
0.1739116624049044,-1.0593766996490004e-05,0.1739116624049044,-2.7024801680914948e-05,0.1739116624049044,-5.726142881703015e-07,0.1739116624049044,-6.023700079157601e-05
0.1747057795848355,-1.20160460357619e-05,0.1747057795848355,-2.6906691458292072e-05,0.1747057795848355,-6.910355253738921e-08,0.1747057795848355,-4.533863043793478e-05
0.1754998967647666,-1.0910497476977244e-05,0.1754998967647666,-2.500970032409161e-05,0.1754998967647666,1.1747168942608809e-06,0.1754998967647666,-2.501214009709629e-05
0.1762940139446976,-4.4774568573256617e-07,0.1762940139446976,-2.259944453561544e-05,0.1762940139446976,4.274262381227115e-06,0.1762940139446976,-3.155555163504912e-06
0.1770881311246287,8.440847363766601e-06,0.1770881311246287,-2.240185775366372e-05,0.1770881311246287,6.447262170470825e-06,0.1770881311246287,5.37325721234274e-06
0.1778822483045598,5.849561357239351e-06,0.1778822483045598,-2.267955403781661e-05,0.1778822483045598,6.66361132800468e-06,0.1778822483045598,-1.5107541594220688e-07
0.1786763654844909,2.398682459843746e-06,0.1786763654844909,-2.323299684396456e-05,0.1786763654844909,8.381725463038485e-06,0.1786763654844909,1.0250501530903906e-05
0.1794704826644219,7.927765615792188e-06,0.1794704826644219,-2.4792502831509736e-05,0.1794704826644219,3.981183773875964e-06,0.1794704826644219,1.6578249094880247e-05
0.180264599844353,-8.778603808761084e-07,0.180264599844353,-2.048741840367943e-05,0.180264599844353,-1.6685484452760051e-06,0.180264599844353,1.774174049194617e-05
0.181058717024284,-1.0081228787262051e-05,0.181058717024284,-1.4959891662759325e-05,0.181058717024284,-2.8140469034501824e-06,0.181058717024284,3.4153903551752735e-05
0.1818528342042151,-6.487159844825492e-06,0.1818528342042151,-1.4839314695693817e-05,0.1818528342042151,-3.4063164172322294e-06,0.1818528342042151,1.703394929762505e-05
0.1826469513841462,-1.116784039566326e-06,0.1826469513841462,-1.663702566210326e-05,0.1826469513841462,9.953615265895076e-07,0.1826469513841462,-1.2400410399328213e-05
0.1834410685640773,1.0967736127122596e-06,0.1834410685640773,-1.6992047402149533e-05,0.1834410685640773,7.1784364861903175e-06,0.1834410685640773,7.542742616710996e-06
0.1842351857440083,-2.7337476590278496e-06,0.1842351857440083,-1.780107830281827e-05,0.1842351857440083,5.2631710526596204e-06,0.1842351857440083,2.3410108681837745e-05
0.1850293029239394,-7.94822154758104e-06,0.1850293029239394,-2.078405658240057e-05,0.1850293029239394,8.984482895564443e-07,0.1850293029239394,3.050614881824001e-06
0.1858234201038705,-1.441562693383721e-05,0.1858234201038705,-2.16526e-05,0.1858234201038705,1.7093070292338214e-06,0.1858234201038705,-1.5454686217567952e-05
0.1866175372838016,-1.3179964831709538e-05,0.1866175372838016,-2.428826218620246e-05,0.1866175372838016,5.381755730513489e-06,0.1866175372838016,-3.372551331543209e-05
0.1874116544637326,-8.500888264623436e-06,0.1874116544637326,-2.5651460736973773e-05,0.1874116544637326,5.677165017353949e-06,0.1874116544637326,-7.853139518497108e-05
0.1882057716436637,-8.165351730332846e-06,0.1882057716436637,-2.4495776571826425e-05,0.1882057716436637,2.7941787890071755e-06,0.1882057716436637,-0.0001162804206149
0.1889998888235948,-5.875040359821659e-06,0.1889998888235948,-2.46738e-05,0.1889998888235948,4.195669372697856e-06,0.1889998888235948,-0.0001277323594235
0.1897940060035258,-7.394408810447611e-06,0.1897940060035258,-2.6392418422995227e-05,0.1897940060035258,3.969883722093857e-06,0.1897940060035258,-0.0001244749892103
0.1905881231834569,-6.962187656396321e-06,0.1905881231834569,-2.5880209886694687e-05,0.1905881231834569,4.688397537391662e-06,0.1905881231834569,-0.0001213038489533
0.191382240363388,-5.793556112961737e-06,0.191382240363388,-2.425900745658591e-05,0.191382240363388,4.43689269359284e-06,0.191382240363388,-8.317557170971009e-05
0.192176357543319,-1.3658611994917736e-05,0.192176357543319,-2.4060834701363177e-05,0.192176357543319,-1.0343676205725746e-06,0.192176357543319,-3.5457634583971535e-05
0.1929704747232501,-2.694182115166884e-05,0.1929704747232501,-2.068634780814937e-05,0.1929704747232501,-4.165698241471435e-06,0.1929704747232501,4.234838100146824e-06
0.1937645919031812,-3.0302426965315824e-05,0.1937645919031812,-2.0684982255318607e-05,0.1937645919031812,-7.55322e-06,0.1937645919031812,3.349880457491535e-05
0.1945587090831123,-1.3673080819953024e-05,0.1945587090831123,-1.7172049706140057e-05,0.1945587090831123,-5.341245382118874e-06,0.1945587090831123,7.173451880334787e-05
0.1953528262630433,-1.135894894217762e-06,0.1953528262630433,-1.3280600951802217e-05,0.1953528262630433,1.8737175798941965e-07,0.1953528262630433,0.0001011533649963
0.1961469434429744,2.51774e-06,0.1961469434429744,-1.3023253837031874e-05,0.1961469434429744,-8.779853598883969e-07,0.1961469434429744,8.641545096845607e-05
0.1969410606229055,-1.0736773555753824e-06,0.1969410606229055,-1.5807624811959153e-05,0.1969410606229055,-4.157157952217736e-06,0.1969410606229055,7.906951530771081e-05
0.1977351778028366,-6.663721538857683e-06,0.1977351778028366,-1.5452477523628665e-05,0.1977351778028366,-1.4721574496714432e-06,0.1977351778028366,3.613893027259515e-05
0.1985292949827676,-8.678795469046116e-06,0.1985292949827676,-1.485999504542485e-05,0.1985292949827676,4.541806422578114e-07,0.1985292949827676,3.326376403859031e-05
0.1993234121626987,-9.94195881766486e-06,0.1993234121626987,-1.860916282146468e-05,0.1993234121626987,-2.0039342294981083e-06,0.1993234121626987,7.938941061166791e-05
0.2001175293426297,-5.892946360644054e-06,0.2001175293426297,-1.9757339111207577e-05,0.2001175293426297,2.0851750385852738e-06,0.2001175293426297,0.0001659925094917
0.2009116465225608,-3.1297256155223056e-06,0.2009116465225608,-1.92830667391593e-05,0.2009116465225608,3.6629748653254255e-06,0.2009116465225608,0.0001920145577599
0.2017057637024919,-1.895707284867252e-06,0.2017057637024919,-2.1611838773286948e-05,0.2017057637024919,3.129894662216878e-06,0.2017057637024919,0.000118146269117
0.202499880882423,-2.853225473333653e-06,0.202499880882423,-2.3666391809089737e-05,0.202499880882423,-8.384737075797908e-07,0.202499880882423,1.0591790759841566e-05
0.203293998062354,-6.761970465112815e-06,0.203293998062354,-2.603664893846729e-05,0.203293998062354,-2.498249840218515e-06,0.203293998062354,-9.615138468605834e-05
0.2040881152422851,-8.293596437457127e-06,0.2040881152422851,-2.63523e-05,0.2040881152422851,-2.18204e-06,0.2040881152422851,-0.0001366779736997
0.2048822324222162,-8.244186154987071e-06,0.2048822324222162,-2.615486931765322e-05,0.2048822324222162,-1.986279383160204e-06,0.2048822324222162,-0.0001162224754732
0.2056763496021472,-8.254380105750167e-06,0.2056763496021472,-2.254079413584169e-05,0.2056763496021472,8.772410708347518e-07,0.2056763496021472,-5.427240870140496e-05
0.2064704667820783,-5.303266294982564e-06,0.2064704667820783,-2.2737469840154757e-05,0.2064704667820783,-6.790841603069654e-08,0.2064704667820783,-8.187293072318036e-06
0.2072645839620094,-2.616611656352615e-06,0.2072645839620094,-2.43381e-05,0.2072645839620094,-5.657053108983614e-06,0.2072645839620094,-4.662680062023101e-05
0.2080587011419405,-2.162331985697694e-06,0.2080587011419405,-2.4574833794902742e-05,0.2080587011419405,-9.646573935639623e-06,0.2080587011419405,-0.0001074765706984
0.2088528183218715,-1.7476971584848174e-06,0.2088528183218715,-2.438779632582945e-05,0.2088528183218715,-6.477302234286879e-06,0.2088528183218715,-0.0001128059538685
0.2096469355018026,-4.550167790912088e-06,0.2096469355018026,-2.3745653857504545e-05,0.2096469355018026,-3.722830102224606e-06,0.2096469355018026,-8.17106012184017e-05
0.2104410526817337,-7.592279999976784e-06,0.2104410526817337,-2.3034578161973036e-05,0.2104410526817337,-2.1372458375090076e-08,0.2104410526817337,-5.024070661986979e-05
0.2112351698616647,-1.0277241370790273e-05,0.2112351698616647,-2.287650471121721e-05,0.2112351698616647,4.274231432420249e-06,0.2112351698616647,-6.024953506737283e-06
0.2120292870415958,-1.3911742746196256e-05,0.2120292870415958,-2.192900540600397e-05,0.2120292870415958,7.21752e-06,0.2120292870415958,8.432851344302625e-05
0.2128234042215269,-1.1540647334856616e-05,0.2128234042215269,-2.1080606110181916e-05,0.2128234042215269,6.092726883134322e-06,0.2128234042215269,0.0001564026007607
0.2136175214014579,-4.964558024223963e-06,0.2136175214014579,-2.191922438669597e-05,0.2136175214014579,1.1741710737395183e-05,0.2136175214014579,0.0001252117678528
0.214411638581389,-2.7346382780571343e-06,0.214411638581389,-2.166241627368577e-05,0.214411638581389,1.2074803590034687e-05,0.214411638581389,8.049116449254442e-05
0.2152057557613201,-2.4288620918019377e-06,0.2152057557613201,-2.102193480481569e-05,0.2152057557613201,9.429164732457436e-06,0.2152057557613201,1.0950440739747728e-05
0.2159998729412512,-6.545158925988127e-06,0.2159998729412512,-1.9638564368485445e-05,0.2159998729412512,1.0574316937244757e-05,0.2159998729412512,-4.078117589358749e-05
0.2167939901211822,-1.1659526241043724e-05,0.2167939901211822,-2.046763066728152e-05,0.2167939901211822,7.810990812507269e-06,0.2167939901211822,-4.385064263974124e-05
0.2175881073011133,-1.3664763021778098e-05,0.2175881073011133,-1.951918797268674e-05,0.2175881073011133,3.704131258431284e-06,0.2175881073011133,-3.470792858099476e-05
0.2183822244810444,-1.3025220538237273e-05,0.2183822244810444,-2.0902076637494843e-05,0.2183822244810444,3.469623918289044e-07,0.2183822244810444,-2.4300072798826725e-05
0.2191763416609755,-8.760521616118816e-06,0.2191763416609755,-2.1168806278611125e-05,0.2191763416609755,-1.1153951320590245e-06,0.2191763416609755,1.02206400926129e-05
0.2199704588409065,-5.145151903936572e-06,0.2199704588409065,-2.1967780641219464e-05,0.2199704588409065,2.5952992243566806e-06,0.2199704588409065,-5.246393449179697e-06
0.2207645760208376,-5.262312951106775e-06,0.2207645760208376,-2.2442366551811903e-05,0.2207645760208376,3.544784109397931e-06,0.2207645760208376,-7.121189256667786e-05
0.2215586932007686,-5.598170654705108e-06,0.2215586932007686,-2.29953e-05,0.2215586932007686,2.51774e-06,0.2215586932007686,-0.0001225821650813
0.2223528103806997,-3.722096281935138e-06,0.2223528103806997,-2.1059989489019088e-05,0.2223528103806997,2.7747080303209658e-06,0.2223528103806997,-0.0001408444490092
0.2231469275606308,-1.0335483316733396e-05,0.2231469275606308,-2.208704653864212e-05,0.2231469275606308,-2.6940877027143027e-06,0.2231469275606308,-0.0001390696470069
0.2239410447405619,-1.2928183679531483e-05,0.2239410447405619,-2.0783595694589885e-05,0.2239410447405619,-5.460931768545137e-06,0.2239410447405619,-0.0001337564579939
0.2247351619204929,-1.1388920853388735e-06,0.2247351619204929,-2.334898710522613e-05,0.2247351619204929,-3.6830816879420807e-06,0.2247351619204929,-0.0001339536068896
0.225529279100424,1.0969327470697177e-05,0.225529279100424,-2.50095e-05,0.225529279100424,-1.5501802137879589e-06,0.225529279100424,-0.000130576643673
0.2263233962803551,9.920632063149712e-06,0.2263233962803551,-2.5601360120443117e-05,0.2263233962803551,-4.9135232957978094e-08,0.2263233962803551,-0.0001069901247162
0.2271175134602862,-1.988056654180109e-06,0.2271175134602862,-2.662850989833556e-05,0.2271175134602862,1.3926336381645815e-06,0.2271175134602862,-7.002435985346305e-05
0.2279116306402172,-1.3201955029707352e-05,0.2279116306402172,-2.639158706774209e-05,0.2279116306402172,-6.029412487646165e-07,0.2279116306402172,-5.3027553254113725e-05
0.2287057478201483,-1.636046137775748e-05,0.2287057478201483,-2.7160983486842744e-05,0.2287057478201483,-5.084734992550443e-06,0.2287057478201483,-2.5148197674678245e-05
0.2294998650000794,-1.0911367025064718e-05,0.2294998650000794,-2.76951e-05,0.2294998650000794,-1.1076981592288665e-05,0.2294998650000794,-1.712045413635188e-05
0.2302939821800104,-4.92759915807259e-06,0.2302939821800104,-2.5956514822780205e-05,0.2302939821800104,-1.154265407851928e-05,0.2302939821800104,-3.55973248039541e-05
0.2310880993599415,-6.88182e-06,0.2310880993599415,-2.439650667706573e-05,0.2310880993599415,-1.0358358474116342e-05,0.2310880993599415,-4.2705008728905374e-05
0.2318822165398726,-3.055142437722652e-06,0.2318822165398726,-2.4160677544101284e-05,0.2318822165398726,-9.75482925602628e-06,0.2318822165398726,-3.755081952855742e-05
0.2326763337198036,7.796947018683596e-07,0.2326763337198036,-2.224472052672267e-05,0.2326763337198036,-8.79851483773566e-06,0.2326763337198036,-2.584032646190025e-05
0.2334704508997347,-5.418067309087843e-06,0.2334704508997347,-2.0133763642992887e-05,0.2334704508997347,-6.171665914903791e-06,0.2334704508997347,2.879818447064245e-05
0.2342645680796658,-9.764747754469395e-06,0.2342645680796658,-1.6004997776156678e-05,0.2342645680796658,-2.656590199887647e-06,0.2342645680796658,9.31505966589479e-05
0.2350586852595969,-9.616711050479397e-06,0.2350586852595969,-1.3694776458371782e-05,0.2350586852595969,5.539490537894657e-06,0.2350586852595969,0.0001526766153846
0.2358528024395279,-1.065320330478127e-05,0.2358528024395279,-1.6360184352503934e-05,0.2358528024395279,1.8471938913524497e-05,0.2358528024395279,0.0001878219993221
0.236646919619459,-1.1207263661259415e-05,0.236646919619459,-1.533342065267444e-05,0.236646919619459,2.7634715118320775e-05,0.236646919619459,0.0001948125036091
0.2374410367993901,-1.4598469691683126e-06,0.2374410367993901,-1.462307918247464e-05,0.2374410367993901,2.834896825674202e-05,0.2374410367993901,0.000169184075259
0.2382351539793211,1.5626737141674973e-05,0.2382351539793211,-1.7662860412891323e-05,0.2382351539793211,2.2651269643108792e-05,0.2382351539793211,5.692164383351411e-05
0.2390292711592522,1.294446600354719e-05,0.2390292711592522,-1.6715712800921093e-05,0.2390292711592522,1.144370607187127e-05,0.2390292711592522,-2.449498823174169e-05
0.2398233883391833,2.556682859830073e-06,0.2398233883391833,-1.6429318390990315e-05,0.2398233883391833,3.010142290388401e-06,0.2398233883391833,-4.2625402312574686e-05
0.2406175055191144,1.6194777508603378e-06,0.2406175055191144,-1.7978999063263033e-05,0.2406175055191144,-3.131417232391793e-06,0.2406175055191144,-4.9457785005735584e-05
0.2414116226990454,-8.00427587616327e-07,0.2414116226990454,-2.02312053184552e-05,0.2414116226990454,-8.22461e-06,0.2414116226990454,-1.0685237436257525e-05
0.2422057398789765,-8.698274679115555e-06,0.2422057398789765,-2.2303565088163667e-05,0.2422057398789765,-5.578570828562424e-06,0.2422057398789765,3.774586900872121e-05
0.2429998570589076,-1.6280164326402034e-05,0.2429998570589076,-2.165287734427756e-05,0.2429998570589076,-4.699831486399915e-06,0.2429998570589076,6.428012166268421e-05
0.2437939742388386,-1.918270992650563e-05,0.2437939742388386,-1.9756204701559365e-05,0.2437939742388386,-3.1007464511764275e-06,0.2437939742388386,0.0001321769065974
0.2445880914187697,-3.3332904331432606e-05,0.2445880914187697,-1.9083782535040527e-05,0.2445880914187697,-3.4650472422533792e-06,0.2445880914187697,0.0001200445211406
0.2453822085987008,-4.371687116568739e-05,0.2453822085987008,-2.2165632829755844e-05,0.2453822085987008,-4.039690722044174e-06,0.2453822085987008,3.760275434401837e-05
0.2461763257786318,-2.799284770956205e-05,0.2461763257786318,-2.42193284775766e-05,0.2461763257786318,-6.443063923567421e-07,0.2461763257786318,-3.449598392613441e-05
0.2469704429585629,-2.959937987626568e-06,0.2469704429585629,-2.3547971485914422e-05,0.2469704429585629,2.3595741227244382e-06,0.2469704429585629,-5.608748245448877e-05
0.247764560138494,1.2509230387739072e-05,0.247764560138494,-2.5917792011502432e-05,0.247764560138494,2.3198913634190574e-06,0.247764560138494,-7.892543411660967e-05
0.2485586773184251,1.332913530877926e-05,0.2485586773184251,-2.70237e-05,0.2485586773184251,5.756369307523965e-06,0.2485586773184251,-0.0001009966822746
0.2493527944983561,1.304294577828352e-05,0.2493527944983561,-2.591902604563593e-05,0.2493527944983561,6.674634445708802e-06,0.2493527944983561,-0.0001051027462608
0.2501469116782872,1.0337832686447222e-05,0.2501469116782872,-2.4891057861305614e-05,0.2501469116782872,1.3151095118716024e-06,0.2501469116782872,-0.0001115182337292
0.2509410288582183,7.17271645298987e-06,0.2509410288582183,-2.645109189943053e-05,0.2509410288582183,-2.8729530918362782e-06,0.2509410288582183,-0.0001165226741706
0.2517351460381494,-3.611013577684121e-06,0.2517351460381494,-2.6964286946063097e-05,0.2517351460381494,-2.419451856179698e-06,0.2517351460381494,-9.738883069507236e-05
0.2525292632180804,-7.908706283289618e-06,0.2525292632180804,-2.556236153697572e-05,0.2525292632180804,-6.021258304906646e-07,0.2525292632180804,-8.873249979999831e-05
0.2533233803980115,-3.908803608749181e-06,0.2533233803980115,-2.593703961389405e-05,0.2533233803980115,-7.356583890763324e-06,0.2533233803980115,-0.0001183405788107
0.2541174975779426,3.264856884383448e-07,0.2541174975779426,-2.4930915971587692e-05,0.2541174975779426,-8.3819989297606e-06,0.2541174975779426,-0.0001483938754929
0.2549116147578736,-3.7622917367697095e-06,0.2549116147578736,-2.307391522760549e-05,0.2549116147578736,-7.788358027896534e-07,0.2549116147578736,-0.0001278467150621
0.2557057319378047,-7.365383436324917e-06,0.2557057319378047,-2.1632201778501103e-05,0.2557057319378047,8.08633327535934e-06,0.2557057319378047,-7.726144278161728e-05
0.2564998491177358,-1.3762295697295928e-05,0.2564998491177358,-2.366621206013063e-05,0.2564998491177358,4.868825622144425e-06,0.2564998491177358,-6.529274783893452e-05
0.2572939662976669,-1.5708929492200513e-05,0.2572939662976669,-1.987406076827028e-05,0.2572939662976669,9.381737240237062e-07,0.2572939662976669,-8.065437558579439e-05
0.2580880834775979,-1.364640471052212e-05,0.2580880834775979,-1.9083751715949385e-05,0.2580880834775979,4.851952168894213e-07,0.2580880834775979,-6.047224900361562e-05
0.258882200657529,-1.4462846889596748e-05,0.258882200657529,-2.2165602012195074e-05,0.258882200657529,-2.786514898089442e-06,0.258882200657529,-1.3553799217624244e-05
0.2596763178374601,-1.5669563094344748e-05,0.2596763178374601,-2.29953e-05,0.2596763178374601,2.1684661893307445e-06,0.2596763178374601,9.124185132321796e-05
0.2604704350173911,-1.596505680402665e-05,0.2604704350173911,-2.29953e-05,0.2604704350173911,2.4596648762251443e-06,0.2604704350173911,0.0001822743725243
0.2612645521973222,-1.4899720914657724e-05,0.2612645521973222,-1.9717621336395645e-05,0.2612645521973222,2.3198570393226617e-06,0.2612645521973222,0.0002062900146558
0.2620586693772533,-1.0376916624499834e-05,0.2620586693772533,-1.6597694810798527e-05,0.2620586693772533,5.756334909612612e-06,0.2620586693772533,0.0001552786547873
0.2628527865571843,-1.3200236398324934e-05,0.2628527865571843,-2.005104202219012e-05,0.2628527865571843,3.0118970476087176e-06,0.2628527865571843,4.7920975571739625e-05
0.2636469037371154,-1.561e-05,0.2636469037371154,-2.1850024246267296e-05,0.2636469037371154,3.023841983628904e-08,0.2636469037371154,-7.46350169739347e-05
0.2644410209170465,-1.4763033770596326e-05,0.2644410209170465,-2.1751386772793293e-05,0.2644410209170465,-3.967819892429477e-06,0.2644410209170465,-0.0001490931711813
0.2652351380969776,-9.864851691283213e-06,0.2652351380969776,-2.336962674752831e-05,0.2652351380969776,-6.09170549084348e-06,0.2652351380969776,-0.0001539696340803
0.2660292552769086,-1.0768803490577007e-06,0.2660292552769086,-2.230403532977464e-05,0.2660292552769086,2.659149458934391e-07,0.2660292552769086,-0.0001173094332775
0.2668233724568397,9.606401834590283e-06,0.2668233724568397,-2.106077063938037e-05,0.2668233724568397,1.0060781807813884e-05,0.2668233724568397,-5.906351780670051e-05
0.2676174896367708,1.112315599056054e-06,0.2676174896367708,-2.2126348404817493e-05,0.2676174896367708,5.231042689095543e-06,0.2676174896367708,2.094730138627901e-05
0.2684116068167018,-8.738372933618745e-06,0.2684116068167018,-2.0743788860978132e-05,0.2684116068167018,5.697615281649003e-06,0.2684116068167018,0.0001526045821075
0.2692057239966329,-8.362898190668038e-06,0.2692057239966329,-1.7024179730852083e-05,0.2692057239966329,1.1739429523329909e-05,0.2692057239966329,0.0001708628216568
0.269999841176564,-6.210992067701964e-06,0.269999841176564,-1.3932065001367847e-05,0.269999841176564,1.0575300899554267e-05,0.269999841176564,0.0001341180639196
0.270793958356495,-3.623765225214199e-06,0.270793958356495,-1.4307195146631128e-05,0.270793958356495,7.297005115903379e-06,0.270793958356495,0.0001053540894824
0.2715880755364261,-7.787613779460259e-06,0.2715880755364261,-1.841232089685846e-05,0.2715880755364261,3.3502478008482792e-06,0.2715880755364261,4.480818958879133e-05
0.2723821927163572,-1.0356170934716862e-05,0.2723821927163572,-2.03098e-05,0.2723821927163572,-2.8111661713573963e-06,0.2723821927163572,8.54772159592159e-06
0.2731763098962882,-1.2074293554832486e-05,0.2731763098962882,-1.8967e-05,0.2731763098962882,-5.449676777416244e-06,0.2731763098962882,4.5139729243954464e-05
0.2739704270762193,-8.51365437868965e-06,0.2739704270762193,-1.864152586592669e-05,0.2739704270762193,-4.690107318697799e-06,0.2739704270762193,8.35212412308846e-05
0.2747645442561504,-4.038401644679379e-06,0.2747645442561504,-2.0131878833441547e-05,0.2747645442561504,-5.183284359906132e-06,0.2747645442561504,1.3513179792105616e-05
0.2755586614360815,-4.946664942831185e-06,0.2755586614360815,-2.283607029676761e-05,0.2755586614360815,-4.472631148613557e-06,0.2755586614360815,-0.0001006024921505
0.2763527786160125,-6.644705511378084e-06,0.2763527786160125,-2.25602068288752e-05,0.2763527786160125,-4.373432821465961e-06,0.2763527786160125,-0.0001395011279467
0.2771468957959436,-7.828394001351322e-06,0.2771468957959436,-2.512804321943739e-05,0.2771468957959436,-9.66511833843167e-06,0.2771468957959436,-0.0001309744120449
0.2779410129758747,-1.3279601625808902e-05,0.2779410129758747,-2.6549863292312083e-05,0.2779410129758747,-1.268620812904451e-05,0.2779410129758747,-0.0001363750487742
0.2787351301558057,-1.1543389814523769e-05,0.2787351301558057,-2.647114665393451e-05,0.2787351301558057,-1.2727892360892826e-05,0.2787351301558057,-0.0001376516649492
0.2795292473357368,-9.97759801953436e-07,0.2795292473357368,-2.520678724002411e-05,0.2795292473357368,-3.4860655104447186e-06,0.2795292473357368,-0.0001033275181401
0.2803233645156679,3.584164265900677e-06,0.2803233645156679,-2.2858552231637287e-05,0.2803233645156679,4.225897132950339e-06,0.2803233645156679,-8.986567202297968e-05
0.2811174816955989,3.86053e-06,0.2811174816955989,-2.003363119378582e-05,0.2811174816955989,2.4378703676025303e-06,0.2811174816955989,-6.127545325847852e-05
0.2819115988755301,-1.590332660752726e-06,0.2819115988755301,-2.027047184013657e-05,0.2819115988755301,2.5376625780732707e-06,0.2819115988755301,-6.915689294744259e-06
0.2827057160554611,-1.075180911969681e-05,0.2827057160554611,-1.8987418767559515e-05,0.2827057160554611,6.545818518913925e-06,0.2827057160554611,7.449016711688569e-05
0.2834998332353922,-1.5609279190401266e-05,0.2834998332353922,-1.8295707866818567e-05,0.2834998332353922,8.56031e-06,0.2834998332353922,0.0001488681846616
0.2842939504153233,-1.2097491498734644e-05,0.2842939504153233,-2.0034061900855767e-05,0.2842939504153233,3.7050256041288543e-06,0.2842939504153233,0.0001719077640243
0.2850880675952543,-4.633281926473063e-06,0.2850880675952543,-2.3705596692589176e-05,0.2850880675952543,-1.1932370969755784e-06,0.2850880675952543,0.0001114900076199
0.2858821847751854,-3.345610482303587e-06,0.2858821847751854,-2.3548500546977014e-05,0.2858821847751854,-1.3541694011700145e-06,0.2858821847751854,3.338847573209925e-05
0.2866763019551165,-4.808055464233078e-06,0.2866763019551165,-2.1366657307176155e-05,0.2866763019551165,-7.200974608570034e-07,0.2866763019551165,4.988034616945449e-07
0.2874704191350475,-9.170195990573951e-06,0.2874704191350475,-2.483945896311793e-05,0.2874704191350475,-8.005769168033003e-07,0.2874704191350475,-4.021790396764816e-05
0.2882645363149786,-1.1029243151920393e-05,0.2882645363149786,-2.617467722000973e-05,0.2882645363149786,2.8333714772320472e-06,0.2882645363149786,-6.403017482005761e-05
0.2890586534949096,-8.28383723715373e-06,0.2890586534949096,-2.4161684824604144e-05,0.2890586534949096,4.966381556653983e-06,0.2890586534949096,-5.878669238955363e-05
0.2898527706748408,-4.039062709619434e-06,0.2898527706748408,-2.248142761288649e-05,0.2898527706748408,5.20333e-06,0.2898527706748408,-6.185644427210441e-05
0.2906468878547718,-2.951093450809348e-06,0.2906468878547718,-2.29953e-05,0.2906468878547718,1.8381296520111584e-06,0.2906468878547718,-6.533189874641171e-05
0.2914410050347029,-7.572715312041738e-06,0.2914410050347029,-1.9776546960962465e-05,0.2914410050347029,-1.7586089470244671e-06,0.2914410050347029,-7.228024249913242e-05
0.292235122214634,-6.734462655977108e-06,0.292235122214634,-2.1789061531507128e-05,0.292235122214634,5.622068483924911e-07,0.292235122214634,-7.747673665742033e-05
0.293029239394565,-6.684231146494543e-06,0.293029239394565,-2.43381e-05,0.293029239394565,2.9738735388671994e-08,0.293029239394565,-7.135639607220123e-05
0.2938233565744961,-8.600109908163553e-06,0.2938233565744961,-2.3450386718894203e-05,0.2938233565744961,-1.273327409819274e-06,0.2938233565744961,-6.406925709037918e-05
0.2946174737544272,-1.193808572075739e-05,0.2946174737544272,-2.421901706636774e-05,0.2946174737544272,7.211532918599501e-07,0.2946174737544272,-7.469732105571163e-05
0.2954115909343582,-8.609144804239044e-06,0.2954115909343582,-2.4377438432893744e-05,0.2954115909343582,2.861295443073537e-07,0.2954115909343582,-0.00011983832267
0.2962057081142893,-9.386348617025032e-07,0.2962057081142893,-2.413960643911516e-05,0.2962057081142893,-2.4586622454459023e-06,0.2962057081142893,-0.000171539109856
0.2969998252942204,1.2417213147881582e-05,0.2969998252942204,-2.500938699666628e-05,0.2969998252942204,3.1873780284792145e-06,0.2969998252942204,-0.000205609022138
0.2977939424741515,1.9184288082989177e-05,0.2977939424741515,-2.2777560407291277e-05,0.2977939424741515,6.309366691241616e-06,0.2977939424741515,-0.0001957901255754
0.2985880596540825,1.2998413835808242e-05,0.2985880596540825,-2.082565432176481e-05,0.2985880596540825,6.408187256181726e-06,0.2985880596540825,-0.0001657604748253
0.2993821768340136,1.2661561013622111e-06,0.2993821768340136,-1.82956e-05,0.2993821768340136,6.249532178878244e-06,0.2993821768340136,-0.0001340865068917
0.3001762940139447,-1.9269391515685023e-05,0.3001762940139447,-2.0388940001850872e-05,0.3001762940139447,5.717768994627549e-06,0.3001762940139447,-5.535560554035482e-05
0.3009704111938757,-2.8860388760119987e-05,0.3009704111938757,-2.2282841012688196e-05,0.3009704111938757,8.193826531546206e-06,0.3009704111938757,1.934681964223036e-05
0.3017645283738068,-2.37069016140383e-05,0.3017645283738068,-2.3923700437820515e-05,0.3017645283738068,7.47503870652689e-06,0.3017645283738068,0.0001073744036063
0.3025586455537379,-1.9124985163186094e-05,0.3025586455537379,-1.9502936706979293e-05,0.3025586455537379,3.2977542114227813e-06,0.3025586455537379,0.0002553975149415
0.3033527627336689,-5.166249761536485e-06,0.3033527627336689,-1.5452482660143837e-05,0.3033527627336689,1.071161029758587e-05,0.3033527627336689,0.0003747560595099
0.3041468799136,4.2250782612469984e-06,0.3041468799136,-1.4040076110828524e-05,0.3041468799136,1.2412692752784449e-05,0.3041468799136,0.0003887215605651
0.3049409970935311,3.7046093023307767e-06,0.3049409970935311,-1.3536414428473898e-05,0.3049409970935311,4.220088836894616e-06,0.3049409970935311,0.0003213967586446
0.3057351142734621,-2.4165947188613253e-06,0.3057351142734621,-1.3417499200007198e-05,0.3057351142734621,-2.6350202371741417e-06,0.3057351142734621,0.0002201998302827
0.3065292314533932,-9.567045107173823e-06,0.3065292314533932,-1.6636953750890776e-05,0.3065292314533932,-3.031208671879609e-06,0.3065292314533932,0.0001223103092336
0.3073233486333243,-1.4534143874462987e-05,0.3073233486333243,-1.817619790119408e-05,0.3073233486333243,-4.748984351042996e-06,0.3073233486333243,3.007162907515772e-05
0.3081174658132554,-1.5185140328989967e-05,0.3081174658132554,-2.161197778032272e-05,0.3081174658132554,-1.5292703076766437e-06,0.3081174658132554,-5.626711976828654e-05
0.3089115829931864,-1.4997918541129812e-05,0.3089115829931864,-2.425940258815175e-05,0.3089115829931864,2.1624863528245303e-06,0.3089115829931864,-0.0001122344530222
0.3097057001731175,-1.414909035500099e-05,0.3097057001731175,-2.58385303431899e-05,0.3097057001731175,1.500931588165002e-06,0.3097057001731175,-0.0001333009972132
0.3104998173530486,-9.56846260692318e-06,0.3104998173530486,-2.5009854419546725e-05,0.3104998173530486,-1.5097847587856558e-06,0.3104998173530486,-0.0001428380261586
0.3112939345329796,-8.145081887006091e-06,0.3112939345329796,-2.518733337711228e-05,0.3112939345329796,-7.728008167841757e-06,0.3112939345329796,-0.0001407693520388
0.3120880517129107,-7.061352043811234e-06,0.3120880517129107,-2.5087252293056976e-05,0.3120880517129107,-1.4441597118850883e-05,0.3120880517129107,-0.0001280885251347
0.3128821688928418,-6.132208273193396e-06,0.3128821688928418,-2.8128806312028927e-05,0.3128821688928418,-1.735045487894839e-05,0.3128821688928418,-0.0001064178532209
0.3136762860727728,-3.6062400653471584e-06,0.3136762860727728,-2.800026830421781e-05,0.3136762860727728,-1.4445957931567489e-05,0.3136762860727728,-9.696817195437832e-05
0.314470403252704,7.794575678235615e-07,0.314470403252704,-2.313461678664564e-05,0.314470403252704,-1.71882386341825e-05,0.314470403252704,-9.702650551916893e-05
0.315264520432635,-2.299607805046006e-06,0.315264520432635,-2.424931283654769e-05,0.315264520432635,-1.6519641782622166e-05,0.315264520432635,-0.0001090892455544
0.3160586376125661,-5.499522243176094e-06,0.3160586376125661,-2.2296132171886105e-05,0.3160586376125661,-7.237388634538276e-06,0.3160586376125661,-0.0001233889497141
0.3168527547924971,-2.537763330056189e-06,0.3168527547924971,-1.6679157599045204e-05,0.3168527547924971,7.991975784736206e-07,0.3168527547924971,-0.0001228363684165
0.3176468719724282,-1.1163016293444627e-05,0.3176468719724282,-1.35958e-05,0.3176468719724282,7.209417131178212e-07,0.3176468719724282,-0.0001085278646575
0.3184409891523593,-1.8256631146464413e-05,0.3184409891523593,-1.734786506497704e-05,0.3184409891523593,4.289185647655838e-06,0.3184409891523593,-7.317759106529712e-05
0.3192351063322903,-1.659806355579509e-05,0.3192351063322903,-1.82956e-05,0.3192351063322903,1.6889650443127006e-05,0.3192351063322903,-1.4918639485566407e-05
0.3200292235122214,-1.047656249388985e-05,0.3200292235122214,-1.926326429953032e-05,0.3200292235122214,2.169224461403484e-05,0.3200292235122214,4.898651322436901e-05
0.3208233406921525,-6.07288039997112e-06,0.3208233406921525,-2.039798834752156e-05,0.3208233406921525,1.626119737739573e-05,0.3208233406921525,0.0001025193140378
0.3216174578720835,-1.1819866300353152e-05,0.3216174578720835,-2.137646201287689e-05,0.3216174578720835,1.756614102491288e-05,0.3216174578720835,0.0001204099550008
0.3224115750520147,-4.531093325780734e-06,0.3224115750520147,-1.971711795790887e-05,0.3224115750520147,2.4999729427205885e-05,0.3224115750520147,0.0001866830741161
0.3232056922319457,7.651900032993257e-06,0.3232056922319457,-1.9953650413349417e-05,0.3232056922319457,2.167279967006744e-05,0.3232056922319457,0.0002209633231477
0.3239998094118768,3.526614853684155e-06,0.3239998094118768,-2.1652106894543603e-05,0.3239998094118768,1.661819837653163e-05,0.3239998094118768,0.0001379976058824
0.3247939265918079,-1.2137678864451216e-06,0.3247939265918079,-2.384452824059713e-05,0.3247939265918079,8.189577249749956e-06,0.3247939265918079,3.667277384770342e-05
0.3255880437717389,2.140384836068072e-06,0.3255880437717389,-2.469323293674905e-05,0.3255880437717389,-3.8162615888224895e-06,0.3255880437717389,-1.9809952141285072e-05
0.32638216095167,2.0094330624430644e-06,0.32638216095167,-2.560165336113074e-05,0.32638216095167,-8.521209287149213e-06,0.32638216095167,-7.384445615446185e-05
0.3271762781316011,-8.196806273736504e-06,0.3271762781316011,-2.722149873825475e-05,0.3271762781316011,-9.329043208399012e-06,0.3271762781316011,-0.000121696516013
0.3279703953115321,-2.0386998387662603e-05,0.3279703953115321,-2.8593761978275343e-05,0.3279703953115321,-1.2133398992289127e-05,0.3279703953115321,-0.0001406251029274
0.3287645124914632,-7.715943004395402e-06,0.3287645124914632,-2.447678797840331e-05,0.3287645124914632,-8.917789859026601e-06,0.3287645124914632,-0.0001343144077003
0.3295586296713942,1.4345813423057204e-05,0.3295586296713942,-2.2698292459796203e-05,0.3295586296713942,2.162068760165384e-06,0.3295586296713942,-8.934644035514195e-05
0.3303527468513254,1.1780342292754773e-05,0.3303527468513254,-2.4217938778284217e-05,0.3303527468513254,4.097690352731503e-06,0.3303527468513254,-4.9145586450681045e-05
0.3311468640312564,6.469325943585665e-06,0.3311468640312564,-2.6273299913858936e-05,0.3311468640312564,2.6951888880412077e-06,0.3311468640312564,-1.471440545556678e-05
0.3319409812111875,-2.476500929160342e-06,0.3319409812111875,-2.263970144221481e-05,0.3319409812111875,5.023458969791444e-06,0.3319409812111875,4.220143269348296e-05
0.3327350983911186,-3.24929568989561e-06,0.3327350983911186,-2.042868774605582e-05,0.3327350983911186,8.322797529424084e-06,0.3327350983911186,0.000128126679308
0.3335292155710496,-2.468084729294216e-07,0.3335292155710496,-1.96384e-05,0.3335292155710496,-2.8508339477007295e-07,0.3335292155710496,9.14475810599064e-05
0.3343233327509807,-2.775152063765384e-06,0.3343233327509807,-2.0821956188494017e-05,0.3343233327509807,-8.046677617628447e-06,0.3343233327509807,7.852109738691662e-06
0.3351174499309118,-7.909559302060363e-06,0.3351174499309118,-2.16526e-05,0.3351174499309118,-6.328564891567188e-06,0.3351174499309118,-4.966482699034048e-05
0.3359115671108428,-8.02711219546247e-06,0.3359115671108428,-2.386461348180829e-05,0.3359115671108428,-6.605415609075059e-06,0.3359115671108428,-8.965223825433898e-05
0.3367056842907739,-8.12593276040258e-06,0.3367056842907739,-2.4872339789521337e-05,0.3367056842907739,-8.421964479194837e-06,0.3367056842907739,-9.16365025193021e-05
0.337499801470705,-7.553363013517251e-06,0.337499801470705,-2.316364942595125e-05,0.337499801470705,-9.231566982222464e-06,0.337499801470705,-8.375894526666307e-05
0.338293918650636,-8.599118329151838e-06,0.338293918650636,-2.2461883658592456e-05,0.338293918650636,-4.277736897137916e-06,0.338293918650636,-6.068086725538928e-05
0.3390880358305671,-9.962973018743091e-06,0.3390880358305671,-2.092291659929841e-05,0.3390880358305671,-2.8325902984226592e-06,0.3390880358305671,-6.760907397677545e-05
0.3398821530104982,-8.755783734604623e-06,0.3398821530104982,-1.898720341402454e-05,0.3398821530104982,-2.935023795639729e-06,0.3398821530104982,-7.451645653133791e-05
0.3406762701904293,-1.3828133558052612e-05,0.3406762701904293,-1.7100828580857628e-05,0.3406762701904293,-3.168427240601239e-07,0.3406762701904293,-2.378151394067239e-05
0.3414703873703603,-1.78016940777467e-05,0.3414703873703603,-1.6518928939383583e-05,0.3414703873703603,-1.6881340777467015e-06,0.3414703873703603,2.887952596888347e-05
0.3422645045502914,-1.6064900981266323e-05,0.3422645045502914,-1.4484525905461126e-05,0.3422645045502914,-9.382853925803152e-07,0.3422645045502914,7.107559509366839e-05
0.3430586217302225,-1.331939603331811e-05,0.3430586217302225,-1.5588277699711212e-05,0.3430586217302225,-1.67849e-07,0.3430586217302225,7.121792964430235e-05
0.3438527389101535,-1.314151409062052e-05,0.3438527389101535,-2.031804292070531e-05,0.3438527389101535,-3.8003603480812353e-06,0.3438527389101535,2.728976119422209e-05
0.3446468560900846,-1.590412878248495e-05,0.3446468560900846,-2.2758307866503288e-05,0.3446468560900846,-5.065855897278201e-06,0.3446468560900846,-2.6365017691597003e-05
0.3454409732700157,-2.346731072518266e-05,0.3454409732700157,-2.351858068951362e-05,0.3454409732700157,-2.1041485050806748e-06,0.3454409732700157,-6.237640720517382e-05
0.3462350904499467,-2.670699067851612e-05,0.3462350904499467,-2.192011168845936e-05,0.3462350904499467,-3.2620295316973096e-07,0.3462350904499467,-3.5885108183195366e-05
0.3470292076298778,-2.1712668113319028e-05,0.3470292076298778,-1.707111354430362e-05,0.3470292076298778,5.0841005837924e-06,0.3470292076298778,2.577180142579381e-05
0.3478233248098089,-1.2094122493794332e-05,0.3478233248098089,-1.588596995042265e-05,0.3478233248098089,1.0110164621766832e-05,0.3478233248098089,9.541201935751178e-05
0.34861744198974,-4.668876015851982e-06,0.34861744198974,-1.8226550076922263e-05,0.34861744198974,6.802136689694035e-06,0.34861744198974,0.0001200537083201
0.349411559169671,3.386990050150437e-06,0.349411559169671,-1.81277e-05,0.349411559169671,1.1206624832245112e-05,0.349411559169671,9.84271693225963e-05
0.3502056763496021,7.376257799547902e-06,0.3502056763496021,-2.1214502385316904e-05,0.3502056763496021,1.0910709829696302e-05,0.3502056763496021,3.692420703498141e-05
0.3509997935295332,-8.368661948157228e-07,0.3509997935295332,-2.4337565802422368e-05,0.3509997935295332,4.869414853002069e-06,0.3509997935295332,-2.4658480024285874e-05
0.3517939107094642,-3.4860459217325626e-06,0.3517939107094642,-2.2837417967566748e-05,0.3517939107094642,-1.58822491356241e-06,0.3517939107094642,-6.342632680993118e-05
0.3525880278893953,4.7089146037574885e-07,0.3525880278893953,-2.291761513084552e-05,0.3525880278893953,1.0796939108896475e-07,0.3525880278893953,-6.876643996419147e-05
0.3533821450693264,5.211380446295232e-06,0.3533821450693264,-2.16526e-05,0.3533821450693264,-1.4324622049992443e-06,0.3533821450693264,-4.635162026481152e-05
0.3541762622492574,6.54612e-06,0.3541762622492574,-2.0339182660283484e-05,0.3541762622492574,8.173236497487303e-07,0.3541762622492574,-3.1767337671869533e-05
0.3549703794291886,3.467005144898396e-06,0.3549703794291886,-1.9953491181379204e-05,0.3549703794291886,-2.449562820606624e-07,0.3549703794291886,-2.6394851358536727e-05
0.3557644966091196,-1.1144027762702249e-06,0.3557644966091196,-1.9697581910754247e-05,0.3557644966091196,2.8429097732858733e-08,0.3557644966091196,-6.417756838300897e-06
0.3565586137890507,-6.723651969325985e-06,0.3565586137890507,-2.032908085151351e-05,0.3565586137890507,5.064933046779084e-06,0.3565586137890507,5.075700649153393e-05
0.3573527309689818,-1.0475057857112e-05,0.3573527309689818,-2.02890524954696e-05,0.3573527309689818,3.229286321691437e-06,0.3573527309689818,4.6965993125378886e-05
0.3581468481489128,-1.1898136621999716e-05,0.3581468481489128,-2.3113651021802287e-05,0.3581468481489128,4.343262859667188e-06,0.3581468481489128,-2.2071484684114976e-06
0.3589409653288439,-1.0988068910906604e-05,0.3589409653288439,-2.4377547341002525e-05,0.3589409653288439,6.193332496395903e-06,0.3589409653288439,-3.473527994371069e-05
0.3597350825087749,-1.3022550846753716e-05,0.3597350825087749,-2.421919170788342e-05,0.3597350825087749,1.6500383064925678e-06,0.3597350825087749,-5.49782271099625e-05
0.360529199688706,-1.2016113812806073e-05,0.360529199688706,-2.397274418164114e-05,0.360529199688706,2.951694413076123e-06,0.360529199688706,-7.774116006912268e-05
0.3613233168686371,-1.1463000116731826e-05,0.3613233168686371,-2.210775175631238e-05,0.3613233168686371,4.966130233463654e-06,0.3613233168686371,-0.0001002080686738
0.3621174340485681,-9.132367405837584e-06,0.3621174340485681,-2.5106828672128448e-05,0.3621174340485681,3.2679250196383138e-06,0.3621174340485681,-0.0001186426102994
0.3629115512284993,-8.096230492234831e-06,0.3629115512284993,-2.8584030605863705e-05,0.3629115512284993,1.0563993522172448e-06,0.3629115512284993,-0.0001322356637597
0.3637056684084303,-6.289828297685374e-06,0.3637056684084303,-2.76951e-05,0.3637056684084303,-3.74142608391916e-06,0.3637056684084303,-0.0001311306845285
0.3644997855883614,-2.183275668996858e-06,0.3644997855883614,-2.70239773718192e-05,0.3644997855883614,-5.539184454598638e-06,0.3644997855883614,-0.0001200149345867
0.3652939027682925,-1.629002321844931e-06,0.3652939027682925,-2.70237e-05,0.3652939027682925,-3.722780712620276e-06,0.3652939027682925,-0.0001079524675179
0.3660880199482235,-6.832204570483976e-07,0.3660880199482235,-2.6313464945592887e-05,0.3660880199482235,-3.878656285793002e-06,0.3660880199482235,-0.0001034223832895
0.3668821371281546,1.9890640020970258e-07,0.3668821371281546,-2.429931669084677e-05,0.3668821371281546,-6.1402787845242046e-06,0.3668821371281546,-0.0001045608519257
0.3676762543080857,-3.600144240718418e-06,0.3676762543080857,-2.09812e-05,0.3676762543080857,-6.88182e-06,0.3676762543080857,-8.028361384542604e-05
0.3684703714880167,-8.263145258356247e-06,0.3684703714880167,-2.16319757718337e-05,0.3684703714880167,-3.0928089236966784e-06,0.3684703714880167,-2.8757695899241955e-05
0.3692644886679478,-9.88290418118806e-06,0.3692644886679478,-2.1791326659722585e-05,0.3692644886679478,2.1517324465532047e-06,0.3692644886679478,3.4417641507469805e-05
0.3700586058478789,-1.4069431895332154e-05,0.3700586058478789,-1.764599407321023e-05,0.3700586058478789,5.11433435289947e-06,0.3700586058478789,8.549210743293919e-05
0.3708527230278099,-1.49386e-05,0.3708527230278099,-1.5334422817578556e-05,0.3708527230278099,5.87472e-06,0.3708527230278099,0.0001309836438799
0.371646840207741,-1.2866961463122703e-05,0.371646840207741,-1.4306695979077184e-05,0.371646840207741,7.90806265551377e-06,0.371646840207741,0.0001690422510358
0.3724409573876721,-7.633493273791847e-06,0.3724409573876721,-1.5570537279085678e-05,0.3724409573876721,7.811064600877077e-06,0.3724409573876721,0.0002437537382756
0.3732350745676032,-4.158337815430326e-06,0.3732350745676032,-1.738636286970625e-05,0.3732350745676032,6.033097543586296e-06,0.3732350745676032,0.0002264331953414
0.3740291917475342,2.7539625419635514e-06,0.3740291917475342,-1.774269223438775e-05,0.3740291917475342,1.6101179284050057e-06,0.3740291917475342,0.0001218613454748
0.3748233089274653,5.518956440748221e-06,0.3748233089274653,-2.0622763004905436e-05,0.3748233089274653,-1.2734647059655466e-06,0.3748233089274653,5.0617533756406654e-05
0.3756174261073964,-1.4728645887531908e-06,0.3756174261073964,-2.4080845342502707e-05,0.3756174261073964,2.202550654487262e-06,0.3756174261073964,1.4123622719235342e-05
0.3764115432873274,-9.942668355823462e-06,0.3764115432873274,-2.498979996446209e-05,0.3764115432873274,4.6504524219856015e-06,0.3764115432873274,-1.41492008103768e-05
0.3772056604672585,-1.0831435203935317e-05,0.3772056604672585,-2.5256178856273555e-05,0.3772056604672585,5.3910399391655296e-06,0.3772056604672585,-3.919470162225256e-05
0.3779997776471896,-9.56773035505014e-06,0.3779997776471896,-2.4674087644849502e-05,0.3779997776471896,3.861090629687904e-06,0.3779997776471896,-6.058791363702315e-05
0.3787938948271206,-1.1994813464056802e-05,0.3787938948271206,-2.570081538907288e-05,0.3787938948271206,3.6238110893238654e-06,0.3787938948271206,-8.309433206974989e-05
0.3795880120070517,-1.35958e-05,0.3795880120070517,-2.5938950437246542e-05,0.3795880120070517,2.844394135659841e-06,0.3795880120070517,-0.0001204394784596
0.3803821291869828,-1.4130421946871335e-05,0.3803821291869828,-2.4476436092350407e-05,0.3803821291869828,6.829355752571486e-07,0.3803821291869828,-0.0001698168875687
0.3811762463669139,-9.779224313961729e-06,0.3811762463669139,-2.479241772330575e-05,0.3811762463669139,-2.712224774705932e-06,0.3811762463669139,-0.0002133329670269
0.3819703635468449,-2.699409395051089e-06,0.3819703635468449,-2.654858048305084e-05,0.3819703635468449,-8.656578582591314e-06,0.3819703635468449,-0.0002252246221208
0.382764480726776,2.715929528171068e-06,0.382764480726776,-3.006432982634363e-05,0.382764480726776,-1.15816e-05,0.382764480726776,-0.0002161635904899
0.3835585979067071,-2.9319681133384798e-06,0.3835585979067071,-3.13685345268711e-05,0.3835585979067071,-1.15816e-05,0.3835585979067071,-0.0001982315593349
0.3843527150866381,-1.0079981774064792e-05,0.3843527150866381,-2.6118341441297426e-05,0.3843527150866381,-1.3674184457897072e-05,0.3843527150866381,-0.0001687350592091
0.3851468322665692,-5.18770262772694e-06,0.3851468322665692,-2.046810486858686e-05,0.3851468322665692,-1.1268534950323726e-05,0.3851468322665692,-0.0001007662089227
0.3859409494465003,3.782707532760892e-06,0.3859409494465003,-1.5491474935536118e-05,0.3859409494465003,-1.092343441697557e-06,0.3859409494465003,6.424592654538216e-05
0.3867350666264313,-2.6123472271705584e-06,0.3867350666264313,-1.2767093257265794e-05,0.3867350666264313,9.68269008435447e-06,0.3867350666264313,0.0001914241758209
0.3875291838063624,-1.0198993311899994e-05,0.3875291838063624,-1.120640009691585e-05,0.3875291838063624,9.666934664977276e-06,0.3875291838063624,0.0002431115622398
0.3883233009862935,-9.280574280006444e-06,0.3883233009862935,-1.2193246878264288e-05,0.3883233009862935,6.723985500635636e-06,0.3883233009862935,0.0002423615622778
0.3891174181662246,1.4020314470947516e-07,0.3891174181662246,-1.25980877169473e-05,0.3891174181662246,1.0219861284410643e-05,0.3891174181662246,0.0001983986940846
0.3899115353461556,8.343113607450219e-06,0.3899115353461556,-1.546220827466403e-05,0.3899115353461556,1.6113565828505723e-05,0.3899115353461556,0.0001213545349919
0.3907056525260867,5.115638418159934e-06,0.3907056525260867,-1.9556396192791072e-05,0.3907056525260867,1.2531165419132869e-05,0.3907056525260867,8.57572649144547e-05
0.3914997697060178,-6.54205545452986e-06,0.3914997697060178,-2.3665508372853096e-05,0.3914997697060178,3.3926484953459653e-07,0.3914997697060178,0.0001132899539928
0.3922938868859488,-1.700877130961179e-05,0.3922938868859488,-2.40223051160425e-05,0.3922938868859488,-6.62360201464379e-06,0.3922938868859488,6.303362017413685e-05
0.3930880040658799,-2.214421460019105e-05,0.3930880040658799,-2.532579274582679e-05,0.3930880040658799,-4.091161674029381e-06,0.3930880040658799,1.7935170223973013e-05
0.393882121245811,-2.357261911337268e-05,0.393882121245811,-2.4220064915462388e-05,0.393882121245811,1.25308409556453e-06,0.393882121245811,-1.321543918017604e-05
0.394676238425742,-1.202740904367358e-05,0.394676238425742,-2.43381e-05,0.394676238425742,1.8987085513532402e-07,0.394676238425742,-4.010310975050328e-05
0.3954703556056732,4.743593256087639e-06,0.3954703556056732,-2.3036610094514663e-05,0.3954703556056732,-1.6688688050976742e-06,0.3954703556056732,-6.587061882812975e-05
0.3962644727856042,8.34397351037864e-06,0.3962644727856042,-2.2264751123605438e-05,0.3962644727856042,4.6411665436980245e-07,0.3962644727856042,-0.0001098492022933
0.3970585899655353,3.702923898984727e-06,0.3970585899655353,-2.388152567777882e-05,0.3970585899655353,-1.4018051866376077e-06,0.3970585899655353,-0.0001670649783109
0.3978527071454664,-2.1015316757839827e-06,0.3978527071454664,-2.722051851096328e-05,0.3978527071454664,-2.0634311585657263e-06,0.3978527071454664,-0.0001866986546402
0.3986468243253974,-7.316678812748716e-06,0.3986468243253974,-2.7734624654654658e-05,0.3986468243253974,-2.735169406374358e-06,0.3986468243253974,-0.0001501623759283
0.3994409415053285,-5.577929477983881e-06,0.3994409415053285,-2.3252038841199876e-05,0.3994409415053285,7.174972726440248e-07,0.3994409415053285,-5.290861082995928e-05
0.4002350586852595,-8.26241065353259e-06,0.4002350586852595,-1.8159426000434096e-05,0.4002350586852595,7.787211733495952e-06,0.4002350586852595,3.783892589134784e-05
0.4010291758651906,-1.0673386592009675e-05,0.4010291758651906,-1.4336284898177223e-05,0.4010291758651906,1.515479539771245e-05,0.4010291758651906,9.62685980491288e-05
0.4018232930451217,-7.987480647942127e-06,0.4018232930451217,-1.1149219516376625e-05,0.4018232930451217,1.6320291306465586e-05,0.4018232930451217,0.0001162581895092
0.4026174102250527,-5.9929508867727685e-06,0.4026174102250527,-1.3100019919176128e-05,0.4026174102250527,9.329522077526496e-06,0.4026174102250527,7.877393261767269e-05
0.4034115274049838,-9.21194981503525e-06,0.4034115274049838,-1.764417562144093e-05,0.4034115274049838,7.029928011858475e-06,0.4034115274049838,3.549524992079834e-05
0.4042056445849149,-1.150209144717338e-05,0.4042056445849149,-1.861078877516742e-05,0.4042056445849149,2.163635910581769e-06,0.4042056445849149,2.922927083109055e-05
0.404999761764846,-1.7957325680003837e-05,0.404999761764846,-2.1651367236358934e-05,0.404999761764846,-6.8790740688954446e-06,0.404999761764846,7.501366899514568e-05
0.4057938789447771,-2.0281836865583597e-05,0.4057938789447771,-2.327131547096343e-05,0.4057938789447771,-1.195602233394627e-05,0.4057938789447771,7.95391617712398e-05
0.4065879961247081,-1.0145695236912123e-05,0.4065879961247081,-1.958019364702584e-05,0.4065879961247081,-7.310319098237647e-06,0.4065879961247081,4.5348688931042565e-05
0.4073821133046392,-5.773426724884238e-06,0.4073821133046392,-1.9026007269238424e-05,0.4073821133046392,-1.4166128650000615e-06,0.4073821133046392,2.283042219421372e-05
0.4081762304845703,-7.55322e-06,0.4081762304845703,-2.084313316404381e-05,0.4081762304845703,3.502775643168837e-06,0.4081762304845703,-3.185020835014975e-06
0.4089703476645013,-3.2704460187095823e-06,0.4089703476645013,-2.3300026621892415e-05,0.4089703476645013,2.3018126290438963e-06,0.4089703476645013,-4.6850861277462205e-05
0.4097644648444324,-3.1688655331660893e-06,0.4097644648444324,-2.4160615905919326e-05,0.4097644648444324,-1.3123864138770305e-06,0.4097644648444324,-8.293900868374487e-05
0.4105585820243635,-5.775750542094424e-06,0.4105585820243635,-2.4277627581375595e-05,0.4105585820243635,-3.011392995246054e-06,0.4105585820243635,-0.0001197126189578
0.4113526992042945,-5.579313913337483e-06,0.4113526992042945,-2.7152229486703166e-05,0.4113526992042945,-2.9317606611105047e-06,0.4113526992042945,-0.0001593581713988
0.4121468163842256,-3.52483e-06,0.4121468163842256,-2.5227016336624677e-05,0.4121468163842256,-6.466044303059638e-06,0.4121468163842256,-0.0001991037808903
0.4129409335641567,-2.7853849651484985e-06,0.4129409335641567,-2.29953e-05,0.4129409335641567,-7.13974281731257e-06,0.4129409335641567,-0.0002306514429567
0.4137350507440878,-1.5502429669632353e-06,0.4137350507440878,-2.4100201231524228e-05,0.4137350507440878,-4.59225731020626e-06,0.4137350507440878,-0.0002238109606403
0.4145291679240188,-3.760890921141656e-06,0.4145291679240188,-2.63523e-05,0.4145291679240188,-1.1948716970414029e-06,0.4145291679240188,-0.0001754915881325
0.4153232851039499,-8.086709997557217e-06,0.4153232851039499,-2.531684006032553e-05,0.4153232851039499,-2.85344e-06,0.4153232851039499,-0.0001130971279606
0.416117402283881,-1.264848779976772e-05,0.416117402283881,-2.623303215182161e-05,0.416117402283881,-1.6683041144184447e-06,0.416117402283881,-5.350607340562e-05
0.416911519463812,-1.545198043873167e-05,0.416911519463812,-2.828763821966638e-05,0.416911519463812,1.767330219365836e-06,0.416911519463812,6.347945230593075e-06
0.4177056366437431,-1.9164285683030338e-05,0.4177056366437431,-2.3789875930654397e-05,0.4177056366437431,1.0897839699279369e-07,0.4177056366437431,7.564446466100185e-05
0.4184997538236742,-1.96384e-05,0.4184997538236742,-1.6955029247583525e-05,0.4184997538236742,1.1738759551311266e-06,0.4184997538236742,0.0001877854036979
0.4192938710036052,-8.31097322718718e-06,0.4192938710036052,-1.2904515430018155e-05,0.4192938710036052,5.379731507185817e-06,0.4192938710036052,0.0002723362408058
0.4200879881835363,2.51774e-06,0.4200879881835363,-1.5536156356393665e-05,0.4200879881835363,8.440434586779673e-06,0.4200879881835363,0.0002293231682936
0.4208821053634674,-5.703743961978035e-06,0.4208821053634674,-2.16809813384084e-05,0.4208821053634674,9.37210709122556e-06,0.4208821053634674,0.0001029250820467
0.4216762225433985,-2.0952387677209767e-05,0.4216762225433985,-2.4535719305950637e-05,0.4216762225433985,6.3705428094884754e-06,0.4216762225433985,-1.5216668200373238e-05
0.4224703397233295,-1.877475779299964e-05,0.4224703397233295,-2.5799695288782788e-05,0.4224703397233295,3.378446888639528e-06,0.4224703397233295,-0.0001067685393933
0.4232644569032606,-4.98939939932584e-06,0.4232644569032606,-2.6470612456356805e-05,0.4232644569032606,1.2042257757348835e-06,0.4232644569032606,-0.0001406904447423
0.4240585740831917,5.281633937023594e-06,0.4240585740831917,-2.70237e-05,0.4240585740831917,4.3735326496316976e-06,0.4240585740831917,-0.0001085633727312
0.4248526912631227,3.3883969299595327e-06,0.4248526912631227,-2.329401147563317e-05,0.4248526912631227,9.181337093473653e-06,0.4248526912631227,-6.322806280502752e-05
0.4256468084430538,-7.923279366472854e-06,0.4256468084430538,-2.0211208125241752e-05,0.4256468084430538,7.318596205742921e-06,0.4256468084430538,-2.8957727636968305e-05
0.4264409256229849,-1.782116073921547e-05,0.4264409256229849,-2.3508723681624933e-05,0.4264409256229849,1.3356940941681495e-06,0.4264409256229849,3.706692706843876e-05
0.4272350428029159,-1.5345945826314502e-05,0.4272350428029159,-2.047109988272814e-05,0.4272350428029159,-2.7930817268121813e-06,0.4272350428029159,0.0001206532621612
0.428029159982847,-1.28446387337638e-05,0.428029159982847,-1.3516939740075293e-05,0.428029159982847,-1.7283436131999785e-06,0.428029159982847,0.0001911486019382
0.4288232771627781,-1.772281464768565e-05,0.4288232771627781,-8.543383527720629e-06,0.4288232771627781,2.320508939024345e-06,0.4288232771627781,0.0002185465600949
0.4296173943427092,-1.0395265819669923e-05,0.4296173943427092,-1.2644918521603188e-05,0.4296173943427092,5.717034127841852e-06,0.4296173943427092,0.0001290028452402
0.4304115115226402,1.2015492312081971e-05,0.4304115115226402,-2.1297629531225285e-05,0.4304115115226402,6.309148836720775e-06,0.4304115115226402,1.9956662246780048e-05
0.4312056287025713,2.929402265100912e-05,0.4312056287025713,-2.465326822910673e-05,0.4312056287025713,3.821578841493307e-06,0.4312056287025713,-6.235201810860498e-05
0.4319997458825024,2.4006061255104904e-05,0.4319997458825024,-2.4002893105456325e-05,0.4319997458825024,5.046463721689402e-07,0.4319997458825024,-0.000103552290856
0.4327938630624334,8.151806593347198e-06,0.4327938630624334,-2.1750842920797384e-05,0.4327938630624334,-2.088205785651073e-07,0.4327938630624334,-0.0001118779651446
0.4335879802423645,-7.732805386378552e-07,0.4335879802423645,-2.0348583689255423e-05,0.4335879802423645,2.72455312052188e-06,0.4335879802423645,-0.0001087123393068
0.4343820974222956,-1.865540807208633e-05,0.4343820974222956,-2.177051466072512e-05,0.4343820974222956,7.220820354692338e-07,0.4343820974222956,-0.00012290879115
0.4351762146022266,-3.124640029128738e-05,0.4351762146022266,-2.2244874302933127e-05,0.4351762146022266,3.84273605775049e-07,0.4351762146022266,-0.000122092545405
0.4359703317821577,-1.56621186068436e-05,0.4359703317821577,-2.100190127589383e-05,0.4359703317821577,-2.9499409024260885e-07,0.4359703317821577,-0.0001131515752174
0.4367644489620888,9.404872234685988e-06,0.4367644489620888,-2.1099502183326487e-05,0.4367644489620888,1.5488520042393788e-06,0.4367644489620888,-0.0001101014344976
0.4375585661420199,2.10990397691116e-05,0.4375585661420199,-2.188924664206937e-05,0.4375585661420199,6.229729523460623e-06,0.4375585661420199,-9.803536596293566e-05
0.438352683321951,1.693506456665531e-05,0.438352683321951,-2.238181307815524e-05,0.438352683321951,6.586472709160274e-06,0.438352683321951,-7.130537917255349e-05
0.439146800501882,8.228502859837632e-06,0.439146800501882,-2.3410041178262437e-05,0.439146800501882,2.2221065135387232e-06,0.439146800501882,-2.9213770448322544e-05
0.4399409176818131,-3.2420948562633784e-06,0.4399409176818131,-2.2225209280737557e-05,0.4399409176818131,1.84634e-06,0.4399409176818131,1.3721140226671649e-05
0.4407350348617442,-1.008036760906962e-05,0.4407350348617442,-2.336929289393341e-05,0.4407350348617442,1.718098687674324e-06,0.4407350348617442,1.9891248647904583e-05
0.4415291520416752,-3.3287998304018454e-06,0.4415291520416752,-2.419993379275238e-05,0.4415291520416752,-7.793905529396111e-07,0.4415291520416752,-2.3509290341192604e-05
0.4423232692216063,-2.273232464701718e-07,0.4423232692216063,-2.2443455897923588e-05,0.4423232692216063,-5.716825086668449e-06,0.4423232692216063,-6.503767265772658e-05
0.4431173864015373,-1.1149034848246043e-05,0.4431173864015373,-2.4890191059700088e-05,0.4431173864015373,-5.3610388040422845e-06,0.4431173864015373,-8.318566762346244e-05
0.4439115035814684,-2.4160212526732157e-05,0.4439115035814684,-2.6944797127545003e-05,0.4439115035814684,-3.781489939486184e-06,0.4439115035814684,-8.867385105626299e-05
0.4447056207613995,-2.1258922496807057e-05,0.4447056207613995,-2.801025795607635e-05,0.4447056207613995,-7.710673939358068e-06,0.4447056207613995,-5.68145937030828e-05
0.4454997379413306,-1.39339541850628e-05,0.4454997379413306,-2.7695439010001263e-05,0.4454997379413306,-7.5539751282419e-06,0.4454997379413306,3.990968276141903e-05
0.4462938551212617,-4.536596976613712e-06,0.4462938551212617,-1.8146049198224767e-05,0.4462938551212617,-2.302715085786783e-06,0.4462938551212617,0.0001627416355367
0.4470879723011927,4.9424772207455165e-06,0.4470879723011927,-1.3060106956787648e-05,0.4470879723011927,1.6664616198465233e-06,0.4470879723011927,0.0001415462902318
0.4478820894811238,5.015644106855105e-06,0.4478820894811238,-1.7050344025663423e-05,0.4478820894811238,3.821480884272569e-06,0.4478820894811238,3.866110467677264e-05
0.4486762066610549,-9.240197946319846e-06,0.4486762066610549,-2.256098164749385e-05,0.4486762066610549,-6.38888681325219e-08,0.4486762066610549,-6.412078470660596e-05
0.4494703238409859,-1.574905506382627e-05,0.4494703238409859,-2.43381e-05,0.4494703238409859,-4.86763e-06,0.4494703238409859,-9.113713374254408e-05
0.450264441020917,-9.648770110904102e-06,0.450264441020917,-2.1791604022361288e-05,0.450264441020917,-3.3671527316878643e-06,0.450264441020917,3.130475874999724e-07
0.4510585582008481,-3.0119290782457613e-06,0.4510585582008481,-2.0012624546296425e-05,0.4510585582008481,-3.4852081730482237e-06,0.4510585582008481,7.646609976287534e-05
0.4518526753807791,-5.695505798971703e-06,0.4518526753807791,-2.171038739710938e-05,0.4518526753807791,-9.98268233947252e-07,0.4518526753807791,2.800567957769875e-05
0.4526467925607102,-1.1964939849677563e-05,0.4526467925607102,-2.4535222111334423e-05,0.4526467925607102,2.5367829847123468e-06,0.4526467925607102,-9.002304311998035e-06
0.4534409097406413,-1.5410289676415267e-05,0.4534409097406413,-2.4792465001154605e-05,0.4534409097406413,4.512502903369248e-06,0.4534409097406413,-2.615492695334256e-05
0.4542350269205724,-1.9163061423641427e-05,0.4542350269205724,-2.086427680021392e-05,0.4542350269205724,3.42680692824196e-06,0.4542350269205724,2.2692109528059e-05
0.4550291441005034,-1.7348389598210268e-05,0.4550291441005034,-2.208701245728716e-05,0.4550291441005034,3.998435200894866e-06,0.4550291441005034,7.493236190711726e-05
0.4558232612804345,-1.2015960413374617e-05,0.4558232612804345,-1.928585674089444e-05,0.4558232612804345,5.20333e-06,0.4558232612804345,0.0001180387917325
0.4566173784603656,-1.4465401268250975e-05,0.4566173784603656,-1.3439094229540664e-05,0.4566173784603656,5.055196613822875e-06,0.4566173784603656,0.0001443019113198
0.4574114956402966,-2.7941410258685536e-05,0.4574114956402966,-1.4938690674416988e-05,0.4574114956402966,1.2146843956476065e-06,0.4574114956402966,9.957696595334586e-05
0.4582056128202277,-2.9711164077940925e-05,0.4582056128202277,-1.8569643049138028e-05,0.4582056128202277,-3.149313989512077e-06,0.4582056128202277,2.9250110915037333e-05
0.4589997300001588,-1.4441515860974742e-05,0.4589997300001588,-2.1987077509389496e-05,0.4589997300001588,-2.854023506738372e-06,0.4589997300001588,-4.378477606728909e-05
0.4597938471800898,7.15848043210539e-06,0.4597938471800898,-2.157313795350421e-05,0.4597938471800898,6.79866102397226e-07,0.4597938471800898,-8.072597342819338e-05
0.4605879643600209,1.511851631407712e-05,0.4605879643600209,-1.8967e-05,0.4605879643600209,2.655603947653813e-06,0.4605879643600209,-8.273178026173094e-05
0.461382081539952,7.927774143499881e-06,0.461382081539952,-1.916433308855856e-05,0.461382081539952,1.84634e-06,0.461382081539952,-8.55681089621262e-05
0.4621761987198831,-3.398606135340712e-06,0.4621761987198831,-2.1119473799981984e-05,0.4621761987198831,2.950544379954989e-06,0.4621761987198831,-8.96800021899775e-05
0.4629703158998141,-5.905891033341599e-06,0.4629703158998141,-2.3132069553485955e-05,0.4629703158998141,3.5056501030553507e-06,0.4629703158998141,-9.30652407307743e-05
0.4637644330797452,-3.959730085234664e-06,0.4637644330797452,-2.6293159181367093e-05,0.4637644330797452,1.4521716749899371e-06,0.4637644330797452,-8.907207355398581e-05
0.4645585502596763,-3.4620094277923685e-07,0.4645585502596763,-2.436014527843595e-05,0.4645585502596763,4.837311174689737e-07,0.4645585502596763,-7.457637436375632e-05
0.4653526674396073,1.0984910437570913e-07,0.4653526674396073,-2.2282152811301588e-05,0.4653526674396073,9.780951987844988e-07,0.4653526674396073,-3.951575266038281e-05
0.4661467846195384,-6.957926098185842e-06,0.4661467846195384,-2.58779912922435e-05,0.4661467846195384,-5.142161906207189e-06,0.4661467846195384,6.449564428672656e-06
0.4669409017994695,-1.0199957851299274e-05,0.4669409017994695,-2.236393193950301e-05,0.4669409017994695,-4.98969557874606e-06,0.4669409017994695,4.582561090808524e-05
0.4677350189794005,-9.054467633541772e-06,0.4677350189794005,-1.4309742858155584e-05,0.4677350189794005,5.41114186048388e-07,0.4677350189794005,5.970738816770886e-05
0.4685291361593316,-7.948838624969462e-06,0.4685291361593316,-1.5135731624160748e-05,0.4685291361593316,2.428821339793602e-06,0.4685291361593316,2.000370800831816e-05
0.4693232533392627,-5.321836586797408e-06,0.4693232533392627,-2.254534153881878e-05,0.4693232533392627,2.725127850715301e-06,0.4693232533392627,-2.187043697038669e-05
0.4701173705191938,-7.356025196702775e-06,0.4701173705191938,-2.5128850032421147e-05,0.4701173705191938,3.248297266161623e-06,0.4701173705191938,-4.548898708585431e-05
0.4709114876991248,-7.651940237200221e-06,0.4709114876991248,-2.3074243964576517e-05,0.4709114876991248,4.65029189760178e-06,0.4709114876991248,-5.545912379520356e-05
0.4717056048790559,-6.379253707326148e-06,0.4717056048790559,-2.4197651346221403e-05,0.4717056048790559,4.038833390437461e-06,0.4717056048790559,-5.997901809866787e-05
0.472499722058987,-2.854341006034017e-06,0.472499722058987,-2.534511013776112e-05,0.472499722058987,5.049495694482407e-07,0.472499722058987,-7.837759106410251e-05
0.473293839238918,-3.7228724408396103e-06,0.473293839238918,-2.2688981913652496e-05,0.473293839238918,-1.7859568881370502e-06,0.473293839238918,-0.0001071031076841
0.4740879564188491,-9.77101750686333e-07,0.4740879564188491,-2.3092182175411053e-05,0.4740879564188491,-4.118355356079627e-06,0.4740879564188491,-0.0001320423099979
0.4748820735987802,-2.89247764970005e-06,0.4748820735987802,-2.5265783856130103e-05,0.4748820735987802,5.113664933517502e-07,0.4748820735987802,-0.0001507674343337
0.4756761907787112,-3.4651771512995398e-06,0.4756761907787112,-2.647081006392328e-05,0.4756761907787112,-3.620114820516697e-07,0.4756761907787112,-0.0001611696536676
0.4764703079586423,-8.478741264564467e-06,0.4764703079586423,-2.681722189038021e-05,0.4764703079586423,-7.294209679507258e-06,0.4764703079586423,-0.0001486186051003
0.4772644251385734,-8.779128678241221e-06,0.4772644251385734,-2.5157348013111103e-05,0.4772644251385734,-7.791056329713194e-06,0.4772644251385734,-0.0001244983070464
0.4780585423185045,-4.473104119682725e-06,0.4780585423185045,-2.8096761746043382e-05,0.4780585423185045,-4.325076794259179e-06,0.4780585423185045,-0.0001101213777292
0.4788526594984356,-5.064457041933959e-06,0.4788526594984356,-2.667210536199872e-05,0.4788526594984356,6.424742291315819e-06,0.4788526594984356,-6.193254537009117e-05
0.4796467766783666,-7.354761260094517e-06,0.4796467766783666,-2.256106976342382e-05,0.4796467766783666,8.177092055503563e-06,0.4796467766783666,-2.077622544362077e-05
0.4804408938582977,-8.93484126120659e-06,0.4804408938582977,-2.1534291429887595e-05,0.4804408938582977,5.942674707111534e-06,0.4804408938582977,2.284759597841138e-05
0.4812350110382288,-1.3029647905662305e-05,0.4812350110382288,-1.798120224816872e-05,0.4812350110382288,9.229611151959556e-06,0.4812350110382288,0.000112999528385
0.4820291282181598,-2.315117823654701e-05,0.4820291282181598,-1.5373097715467187e-05,0.4820291282181598,1.0298762949065682e-05,0.4820291282181598,0.0001962998827719
0.4828232453980909,-2.8326918537189942e-05,0.4828232453980909,-1.49386e-05,0.4828232453980909,7.178060511248151e-06,0.4828232453980909,0.0002585572360604
0.483617362578022,-1.8491971510825712e-05,0.483617362578022,-1.521461471075912e-05,0.483617362578022,1.1522854238266989e-05,0.483617362578022,0.0003061211243652
0.484411479757953,-9.074129607315912e-06,0.484411479757953,-1.561e-05,0.484411479757953,1.2352022068905949e-05,0.484411479757953,0.0003052013832879
0.4852055969378841,-4.916937088223337e-06,0.4852055969378841,-1.3143682157536615e-05,0.4852055969378841,3.822736817369958e-06,0.4852055969378841,0.0002611713362595
0.4859997141178152,-6.8806873053366745e-06,0.4859997141178152,-1.3091737741176307e-05,0.4859997141178152,-2.1803924425644846e-06,0.4859997141178152,0.0002388535311712
0.4867938312977463,-6.133188770736398e-06,0.4867938312977463,-1.4800499807245234e-05,0.4867938312977463,-6.134676355726141e-07,0.4867938312977463,0.0001919685039463
0.4875879484776773,-5.320112060899908e-06,0.4875879484776773,-1.7540326881371287e-05,0.4875879484776773,8.999219768836188e-08,0.4875879484776773,8.581189744546124e-05
0.4883820656576084,-7.912356991914022e-06,0.4883820656576084,-2.3625769375772007e-05,0.4883820656576084,9.563410524375894e-07,0.4883820656576084,-2.727316112176151e-05
0.4891761828375395,-2.226562380009114e-06,0.4891761828375395,-2.6905205315988444e-05,0.4891761828375395,1.84634e-06,0.4891761828375395,-9.483658659291244e-05
0.4899703000174705,-8.775688428310987e-07,0.4899703000174705,-2.4715325828151792e-05,0.4899703000174705,1.486872857732357e-07,0.4899703000174705,-0.0001274452459969
0.4907644171974016,-1.8069286768586717e-06,0.4907644171974016,-2.4397230545602523e-05,0.4907644171974016,-1.2041542676981153e-06,0.4907644171974016,-0.0001408053375453
0.4915585343773327,-3.41577434891278e-06,0.4915585343773327,-2.46738e-05,0.4915585343773327,-1.214596815180281e-06,0.4915585343773327,-0.0001419901360021
0.4923526515572637,-3.15005889695042e-06,0.4923526515572637,-2.4259413241284293e-05,0.4923526515572637,-7.205977343448097e-07,0.4923526515572637,-0.0001461561768523
0.4931467687371948,-3.3854735594752197e-06,0.4931467687371948,-2.451567655135374e-05,0.4931467687371948,-2.6739497157994123e-06,0.4931467687371948,-0.0001433170392061
0.4939408859171259,-5.519620102410393e-06,0.4939408859171259,-2.4910800380040057e-05,0.4939408859171259,-4.215639897589607e-06,0.4939408859171259,-0.0001318179323638
0.494735003097057,-4.946870258193064e-06,0.494735003097057,-2.356902204483991e-05,0.494735003097057,-4.53193e-06,0.494735003097057,-9.682875404061524e-05
0.495529120276988,-7.197522476329993e-06,0.495529120276988,-2.266945136698164e-05,0.495529120276988,-1.6106327907170854e-06,0.495529120276988,-6.612472721087872e-05
0.4963232374569191,-3.48532053875231e-06,0.4963232374569191,-2.29953e-05,0.4963232374569191,1.6093704737094855e-06,0.4963232374569191,-7.729958915838539e-05
0.4971173546368502,1.0171395859385626e-06,0.4971173546368502,-2.0369495562271263e-05,0.4971173546368502,-2.458937143334301e-06,0.4971173546368502,-0.0001193447019799
0.4979114718167812,-9.575597404892066e-07,0.4979114718167812,-2.186982241495337e-05,0.4979114718167812,-6.526169160750801e-06,0.4979114718167812,-0.0001656051969303
0.4987055889967123,-9.378526809942908e-07,0.4987055889967123,-2.3625533727909947e-05,0.4987055889967123,-7.750433949468136e-06,0.4987055889967123,-0.0001872480694777
0.4994997061766434,-4.865301676887028e-06,0.4994997061766434,-2.601564974469357e-05,0.4994997061766434,-7.050410825782385e-06,0.4994997061766434,-0.0001928581532086
0.5002938233565745,-1.2407410712669014e-05,0.5002938233565745,-2.564125413640045e-05,0.5002938233565745,-1.6315027715210044e-06,0.5002938233565745,-0.0001752584445758
0.5010879405365055,-2.337805489312492e-05,0.5010879405365055,-2.420254263452669e-05,0.5010879405365055,1.106020731941755e-06,0.5010879405365055,-0.0001377767609276
0.5018820577164366,-3.7453890530619504e-05,0.5018820577164366,-2.0409758567895924e-05,0.5018820577164366,-1.1124285881890123e-06,0.5018820577164366,-7.910512661810922e-05
0.5026761748963677,-2.3073065033972247e-05,0.5026761748963677,-2.11391606410633e-05,0.5026761748963677,-3.74119964307373e-06,0.5026761748963677,5.869393341290089e-06
0.5034702920762988,2.4310000186011392e-06,0.5034702920762988,-2.123959514285196e-05,0.5034702920762988,4.052041785605159e-06,0.5034702920762988,7.645589322558916e-05
0.5042644092562298,1.4551746809397355e-06,0.5042644092562298,-1.7762446101743026e-05,0.5042644092562298,9.74546849669497e-06,0.5042644092562298,0.0001699933762026
0.5050585264361609,-7.039013325394509e-06,0.5050585264361609,-1.76242e-05,0.5050585264361609,7.968246562415476e-06,0.5050585264361609,0.0002627728961545
0.505852643616092,2.572672965038489e-06,0.505852643616092,-1.69528e-05,0.505852643616092,8.638440006826055e-06,0.505852643616092,0.000196858325514
0.506646760796023,1.4579546213223476e-05,0.506646760796023,-1.7979332556646753e-05,0.506646760796023,1.1226925811452111e-05,0.506646760796023,0.0001224075052562
0.507440877975954,2.1713679984937817e-05,0.507440877975954,-2.1770726546970485e-05,0.507440877975954,3.375428197687937e-06,0.507440877975954,5.652256433517077e-05
0.5082349951558852,1.4845019578083367e-05,0.5082349951558852,-2.4771457409099597e-05,0.5082349951558852,-7.609362974387925e-06,0.5082349951558852,1.299366957107284e-05
0.5090291123358163,5.816924009988207e-06,0.5090291123358163,-2.649036347694429e-05,0.5090291123358163,-5.79691504489607e-06,0.5090291123358163,-9.558526974978622e-06
0.5098232295157473,4.048623496081482e-07,0.5098232295157473,-2.8838512004195847e-05,0.5098232295157473,-1.3724463599188714e-06,0.5098232295157473,-5.984286943151488e-05
0.5106173466956784,-7.63277113051085e-06,0.5106173466956784,-2.72625233412064e-05,0.5106173466956784,2.9129475872998272e-06,0.5106173466956784,-9.088661464298004e-05
0.5114114638756094,-1.3437539652155896e-05,0.5114114638756094,-2.220555952393923e-05,0.5114114638756094,5.321617220493703e-06,0.5114114638756094,-0.0001019225645614
0.5122055810555405,-9.412349182458214e-06,0.5122055810555405,-2.017284011361306e-05,0.5122055810555405,1.0809350429480482e-05,0.5122055810555405,-0.0001027977876462
0.5129996982354716,3.0166161984575788e-06,0.5129996982354716,-1.79608759378822e-05,0.5129996982354716,1.9970621807650732e-05,0.5129996982354716,-6.497682992840827e-05
0.5137938154154027,-1.6431088808612822e-06,0.5137938154154027,-1.87300609695507e-05,0.5137938154154027,2.0370253677843597e-05,0.5137938154154027,4.577000179632893e-05
0.5145879325953338,-1.6607166428161165e-05,0.5145879325953338,-2.03098e-05,0.5145879325953338,1.346456171921795e-05,0.5145879325953338,0.0001890512391477
0.5153820497752648,-2.85458520747272e-05,0.5153820497752648,-2.03098e-05,0.5153820497752648,4.711548197364345e-06,0.5153820497752648,0.0002323985323232
0.5161761669551959,-3.622195390929875e-05,0.5161761669551959,-2.0862736075811994e-05,0.5161761669551959,7.645635012439564e-07,0.5161761669551959,0.0001539457843709
0.5169702841351269,-3.226092408096684e-05,0.5169702841351269,-1.99741e-05,0.5169702841351269,-9.010845931893865e-06,0.5169702841351269,2.800923539928198e-05
0.5177644013150581,-1.8430027518318612e-05,0.5177644013150581,-2.0368920272572223e-05,0.5177644013150581,-7.792657827288262e-06,0.5177644013150581,-6.263664881495359e-05
0.5185585184949891,5.400669992398369e-07,0.5185585184949891,-2.1118731764491785e-05,0.5185585184949891,-1.0376437905750475e-06,0.5185585184949891,-8.026092088467735e-05
0.5193526356749202,1.5033951667405302e-05,0.5193526356749202,-2.149524702862928e-05,0.5193526356749202,-9.376219506581034e-07,0.5193526356749202,-0.0001025264070122
0.5201467528548512,1.835694802798171e-05,0.5201467528548512,-2.0467943994706896e-05,0.5201467528548512,-8.39246e-07,0.5201467528548512,-0.0001000063976656
0.5209408700347823,1.3172804168719103e-05,0.5209408700347823,-1.93617574667416e-05,0.5209408700347823,-3.324928443085103e-06,0.5209408700347823,-5.8991081063517096e-05
0.5217349872147133,9.82608358237853e-06,0.5217349872147133,-2.196682302341826e-05,0.5217349872147133,-3.7438995365177945e-06,0.5217349872147133,-4.175711359692249e-05
0.5225291043946444,7.037481705785758e-07,0.5225291043946444,-1.9421514364478472e-05,0.5225291043946444,-2.902324586788503e-06,0.5225291043946444,-4.753901735765546e-05
0.5233232215745756,-7.434757413798174e-06,0.5233232215745756,-1.912322179367559e-05,0.5233232215745756,-6.170876465504563e-06,0.5233232215745756,-5.794737551721096e-05
0.5241173387545066,-5.104400180774805e-06,0.5241173387545066,-2.151460805416596e-05,0.5241173387545066,-7.55322e-06,0.5241173387545066,-4.704557085028368e-05
0.5249114559344377,-5.222885517436938e-06,0.5249114559344377,-2.005312614881913e-05,0.5249114559344377,-3.288295542007706e-06,0.5249114559344377,-8.858704286920113e-06
0.5257055731143687,-1.0997048550043416e-05,0.5257055731143687,-2.259784202244705e-05,0.5257055731143687,4.1434173721954564e-07,0.5257055731143687,-2.0260456025233196e-05
0.5264996902942998,-1.695112665877263e-05,0.5264996902942998,-2.36667e-05,0.5264996902942998,-1.670681235992696e-07,0.5264996902942998,-4.782986061900597e-05
0.5272938074742308,-1.2514225458997948e-05,0.5272938074742308,-2.1770896985069276e-05,0.5272938074742308,1.7858651603275349e-06,0.5272938074742308,4.533772405630544e-06
0.528087924654162,-4.7120183044878735e-06,0.528087924654162,-2.03098e-05,0.528087924654162,1.0193328209850688e-06,0.528087924654162,2.4538329951700207e-05
0.528882041834093,-8.036826746170416e-06,0.528882041834093,-2.109902962393092e-05,0.528882041834093,-3.1297604460601845e-08,0.528882041834093,-1.0847603023516792e-05
0.5296761590140241,-1.8131514880065463e-05,0.5296761590140241,-2.382463139236849e-05,0.5296761590140241,5.930646183908408e-07,0.5296761590140241,3.246302550172587e-07
0.5304702761939551,-1.7034574109878422e-05,0.5304702761939551,-2.457577276180829e-05,0.5304702761939551,-3.452624593016001e-07,0.5304702761939551,2.302834089464836e-05
0.5312643933738862,-1.2609178063402696e-05,0.5312643933738862,-2.24632813850001e-05,0.5312643933738862,2.31917055739866e-06,0.5312643933738862,3.165895904033044e-05
0.5320585105538173,-1.189745439336875e-05,0.5320585105538173,-1.926426773317437e-05,0.5320585105538173,2.5971218353541163e-06,0.5320585105538173,5.063753831381378e-05
0.5328526277337483,-1.3358467656857256e-05,0.5328526277337483,-2.1710233310834716e-05,0.5328526277337483,2.921353419673525e-06,0.5328526277337483,4.067807322969416e-05
0.5336467449136795,-9.926621353951784e-06,0.5336467449136795,-2.29953e-05,0.5336467449136795,4.5129902095342425e-06,0.5336467449136795,4.389562410225962e-06
0.5344408620936105,-4.590108095645618e-06,0.5344408620936105,-2.43381e-05,0.5344408620936105,1.7687696679493885e-06,0.5344408620936105,-2.4519978736135733e-05
0.5352349792735416,-7.846997938982395e-06,0.5352349792735416,-2.2681025524532817e-05,0.5352349792735416,7.599890518656041e-07,0.5352349792735416,-4.6130700999807295e-05
0.5360290964534726,-9.42960247354558e-06,0.5360290964534726,-2.062590821138292e-05,0.5360290964534726,-2.4175792376918268e-06,0.5360290964534726,-4.120678196114175e-05
0.5368232136334037,-7.464381641415415e-06,0.5368232136334037,-1.967828785243532e-05,0.5368232136334037,-7.000271144779445e-06,0.5368232136334037,-2.344973405656476e-05
0.5376173308133347,-6.901553812864021e-06,0.5376173308133347,-2.161136656102878e-05,0.5376173308133347,-6.960755251456085e-06,0.5376173308133347,-1.545167913446455e-05
0.5384114479932659,-5.677314071270067e-06,0.5384114479932659,-2.29953e-05,0.5384114479932659,-3.6636236919485833e-06,0.5384114479932659,5.635232517661352e-06
0.539205565173197,-6.3676762219593225e-06,0.539205565173197,-1.9679627910271984e-05,0.539205565173197,-1.67849e-07,0.539205565173197,2.1789828404119893e-05
0.539999682353128,-8.224152349928303e-06,0.539999682353128,-2.1315461775752254e-05,0.539999682353128,-5.03319172237569e-07,0.539999682353128,2.064733055938805e-05
0.5407937995330591,-6.45804471372089e-06,0.5407937995330591,-2.1701815276703096e-05,0.5407937995330591,2.201315171767466e-06,0.5407937995330591,-3.800586948733631e-06
0.5415879167129901,-5.125541351285264e-06,0.5415879167129901,-2.1345923246609883e-05,0.5415879167129901,-1.6484695495715788e-06,0.5415879167129901,-5.60154068962984e-05
0.5423820338929212,-4.9456479692629135e-06,0.5423820338929212,-2.25109285564414e-05,0.5423820338929212,2.236428684295365e-06,0.5423820338929212,-8.566222030737086e-05
0.5431761510728523,-6.919105631484663e-06,0.5431761510728523,-2.40024e-05,0.5431761510728523,5.755355319318249e-06,0.5431761510728523,-6.923984493381903e-05
0.5439702682527834,-6.349595198759272e-06,0.5439702682527834,-2.2267596738247106e-05,0.5439702682527834,2.618677415164756e-06,0.5439702682527834,-5.416330985715442e-05
0.5447643854327144,-5.381430473123437e-06,0.5447643854327144,-2.194813238972632e-05,0.5447643854327144,5.326955307341982e-07,0.5447643854327144,-4.822618104823318e-05
0.5455585026126455,-4.86763e-06,0.5455585026126455,-2.4040816886914012e-05,0.5455585026126455,2.438334641420103e-06,0.5455585026126455,-7.80130348513826e-05
0.5463526197925765,-6.229128059840325e-06,0.5463526197925765,-2.5124762126549968e-05,0.5463526197925765,2.755083809170145e-06,0.5463526197925765,-0.0001197517997445
0.5471467369725076,-7.21752e-06,0.5471467369725076,-2.8721570918464754e-05,0.5471467369725076,2.671339954179064e-07,0.5471467369725076,-0.0001529105962114
0.5479408541524387,-7.21752e-06,0.5479408541524387,-2.469410886589153e-05,0.5479408541524387,5.03548e-07,0.5479408541524387,-0.00016229701152
0.5487349713323698,-7.986822938017826e-06,0.5487349713323698,-2.2047808325350056e-05,0.5487349713323698,-9.323426264141845e-09,0.5487349713323698,-0.0001513466936952
0.5495290885123009,-7.455516214226005e-06,0.5495290885123009,-1.9678519943403955e-05,0.5495290885123009,1.2526010262681778e-06,0.5495290885123009,-0.0001351838657871
0.5503232056922319,-2.735000296642642e-06,0.5503232056922319,-1.6992692979072596e-05,0.5503232056922319,6.526319629196697e-06,0.5503232056922319,-0.0001005638413167
0.551117322872163,-4.255617664660376e-06,0.551117322872163,-1.94406816728037e-05,0.551117322872163,6.032613434966764e-06,0.551117322872163,-4.558391892215809e-05
0.551911440052094,-8.066250577478037e-06,0.551911440052094,-1.979631953900072e-05,0.551911440052094,6.466938228954632e-06,0.551911440052094,1.0132950786378626e-05
0.5527055572320251,-1.085032011762817e-05,0.5527055572320251,-1.9569916635212644e-05,0.5527055572320251,8.363138977243777e-06,0.5527055572320251,0.000105008545748
0.5534996744119562,-1.258823090168976e-05,0.5534996744119562,-2.0309168208634184e-05,0.5534996744119562,5.708394562521416e-06,0.5534996744119562,0.0002361114608495
0.5542937915918873,-1.3199577525991983e-05,0.5542937915918873,-2.000359846770579e-05,0.5542937915918873,6.42507800270242e-06,0.5542937915918873,0.0002749672882801
0.5550879087718184,-1.0599118306870215e-05,0.5550879087718184,-1.6636445615991147e-05,0.5550879087718184,9.50735352755081e-06,0.5550879087718184,0.0002458314720528
0.5558820259517494,-8.278941354329567e-06,0.5558820259517494,-1.8629796244165133e-05,0.5558820259517494,7.303864711278288e-06,0.5558820259517494,0.0001737463534037
0.5566761431316805,-1.3177977350076998e-05,0.5566761431316805,-2.269907259481757e-05,0.5566761431316805,-1.8387314062757665e-06,0.5566761431316805,6.294509321757617e-05
0.5574702603116115,-1.2392192360892884e-05,0.5574702603116115,-2.256159330786905e-05,0.5574702603116115,-8.339239987316379e-06,0.5574702603116115,1.571643888714307e-05
0.5582643774915427,-9.728294053404658e-06,0.5582643774915427,-2.117856123473991e-05,0.5582643774915427,-1.198744450078265e-05,0.5582643774915427,1.4345994042727218e-05
0.5590584946714737,-5.054175198105843e-07,0.5590584946714737,-2.108029949766592e-05,0.5590584946714737,-7.731932470902762e-06,0.5590584946714737,1.0812784871903527e-05
0.5598526118514048,5.813724796840259e-06,0.5598526118514048,-1.9224038923860135e-05,0.5598526118514048,-5.9442252751974985e-06,0.5598526118514048,6.695293471564119e-06
0.5606467290313358,5.7991054725747055e-06,0.5606467290313358,-2.050667555860632e-05,0.5606467290313358,-5.834530972598515e-06,0.5606467290313358,-6.673694219307119e-06
0.5614408462112669,-5.177727988323688e-06,0.5614408462112669,-2.137638175626969e-05,0.5614408462112669,-7.47569506991567e-06,0.5614408462112669,-2.6146049580505978e-05
0.5622349633911979,-1.2418426481639963e-05,0.5622349633911979,-2.1690644031070757e-05,0.5622349633911979,-4.158978532688206e-06,0.5622349633911979,-3.6302011382513976e-05
0.563029080571129,-1.8490916884532105e-05,0.563029080571129,-2.455537967682464e-05,0.563029080571129,-1.1949975515610135e-06,0.563029080571129,-2.8607156769373534e-05
0.5638231977510602,-1.7822346725811128e-05,0.5638231977510602,-2.3746496211419603e-05,0.5638231977510602,-1.3922127964050323e-06,0.5638231977510602,-3.0300521762572412e-05
0.5646173149309912,-8.387350043623078e-07,0.5646173149309912,-2.4731426935304124e-05,0.5646173149309912,9.380670959000936e-07,0.5646173149309912,-5.609197353948386e-05
0.5654114321109223,8.125316866175786e-06,0.5654114321109223,-2.570067194675028e-05,0.5654114321109223,5.163131672524393e-06,0.5654114321109223,-7.139380652278606e-05
0.5662055492908533,7.71305853271489e-06,0.5662055492908533,-2.263896549880333e-05,0.5662055492908533,1.136313822691526e-05,0.5662055492908533,-8.846723904881895e-05
0.5669996664707844,-1.642449670366183e-07,0.5669996664707844,-3.473724932270048e-05,0.5669996664707844,1.2589180539732487e-05,0.5669996664707844,-0.0001280504991487
0.5677937836507154,-1.7087627030315126e-06,0.5677937836507154,-5.075977816910877e-05,0.5677937836507154,9.853572275131351e-06,0.5677937836507154,-0.0001550733093327
0.5685879008306466,-8.39246e-07,0.5685879008306466,-5.259832448226236e-05,0.5685879008306466,1.2214093401654734e-05,0.5685879008306466,-0.0001603561175092
0.5693820180105776,-3.009428912738956e-06,0.5693820180105776,-5.026642401068839e-05,0.5693820180105776,8.84173597563614e-06,0.5693820180105776,-0.0001560571276737
0.5701761351905087,-3.3682222338853365e-06,0.5701761351905087,-5.03053024045409e-05,0.5701761351905087,3.66669380917076e-06,0.5701761351905087,-0.000144451773891
0.5709702523704397,-9.784537505345208e-07,0.5709702523704397,-5.0977151790449686e-05,0.5709702523704397,-2.442240364926952e-07,0.5709702523704397,-0.0001230854600095
0.5717643695503708,-4.155134229142211e-06,0.5717643695503708,-4.803560218790784e-05,0.5717643695503708,-6.011757585110144e-06,0.5717643695503708,-9.88737251676005e-05
0.5725584867303019,-7.473768777310275e-06,0.5725584867303019,-4.58228e-05,0.5725584867303019,-7.23738280567243e-06,0.5725584867303019,-6.145163011994501e-05
0.573352603910233,-1.0257444997031308e-05,0.573352603910233,-4.3221528396430856e-05,0.573352603910233,-5.598368149906445e-06,0.573352603910233,1.544018152184105e-05
0.5741467210901641,-1.0654923198646256e-05,0.5741467210901641,-3.602961052096944e-05,0.5741467210901641,-2.72025338148849e-07,0.5741467210901641,0.000100668037664
