X [s],R BICEPS BRACHII: EMG 1 [V],X [s].1,R DELTOID ANTERIOR: EMG 2 [V],X [s].5,R DELTOID MEDIUS: EMG 6 [V],X [s].6,R DELTOID POSTERIOR: EMG 7 [V]
0.0,-2.56809e-05,0.0,8.07355e-05,0.0,-5.70687e-06,0.0,-1.35958e-05
0.000794117179931,-2.8583752961132603e-05,0.000794117179931,7.477188684602411e-05,0.000794117179931,-3.682813729031372e-06,0.000794117179931,-1.3319341336167224e-05
0.0015882343598621,-2.4575066702084192e-05,0.0015882343598621,6.120571517579312e-05,0.0015882343598621,2.1622905351223832e-06,0.0015882343598621,-7.908668288405542e-06
0.0023823515397932,-2.125769013966228e-05,0.0023823515397932,2.1830138647834485e-05,0.0023823515397932,5.87472e-06,0.0023823515397932,-2.774458027932456e-06
0.0031764687197242,-1.3872266808336772e-05,0.0031764687197242,-5.398839209296947e-05,0.0031764687197242,8.086378360552363e-06,0.0031764687197242,-2.734956648957903e-06
0.0039705858996553,-6.625146888402808e-06,0.0039705858996553,-0.0001123306942554,0.0039705858996553,1.05745e-05,0.0039705858996553,-9.92277611113109e-06
0.0047647030795864,-2.0635679563183766e-06,0.0047647030795864,-0.0001131998761155,0.0047647030795864,1.0001839892763597e-05,0.0047647030795864,-1.62814e-05
0.0055588202595174,3.3470672187994784e-06,0.0055588202595174,-9.637524659520304e-05,0.0055588202595174,9.073735768903568e-06,0.0055588202595174,-1.5017606151228535e-05
0.0063529374394485,5.400790125273111e-06,0.0063529374394485,-6.30819449259309e-05,0.0063529374394485,6.161064776016923e-06,0.0063529374394485,-1.3704375971686434e-05
0.0071470546193796,9.636471527268674e-06,0.0071470546193796,-1.8414241172224136e-05,0.0071470546193796,-3.0705749323756413e-06,0.0071470546193796,-1.5846955248864683e-05
0.0079411717993107,1.881882460155283e-05,0.0079411717993107,-3.248370718557141e-06,0.0079411717993107,-9.646392656591388e-06,0.0079411717993107,-1.726875418880262e-05
0.0087352889792417,2.643126266548596e-05,0.0087352889792417,-4.19623e-06,0.0087352889792417,-9.883380500223264e-06,0.0087352889792417,-1.438573213328182e-05
0.0095294061591728,2.704345005312629e-05,0.0095294061591728,6.585591404203727e-06,0.0095294061591728,-4.719542190588533e-06,0.0095294061591728,-9.42917978552719e-06
0.0103235233391039,2.3232504722127815e-05,0.0103235233391039,4.176358199422093e-06,0.0103235233391039,-3.761726283026298e-06,0.0103235233391039,-9.68585637731682e-06
0.0111176405190349,1.5195255244681674e-05,0.0111176405190349,-2.070492976628068e-05,0.0111176405190349,-5.460049300709111e-06,0.0111176405190349,-9.942590349645444e-06
0.011911757698966,1.649893798938298e-05,0.011911757698966,-2.575989114373724e-05,0.011911757698966,-1.3722304818255572e-06,0.011911757698966,-9.389748074881342e-06
0.0127058748788971,2.2264794629655905e-05,0.0127058748788971,-2.408137897479664e-05,0.0127058748788971,2.83342399507814e-06,0.0127058748788971,-1.0712782612907556e-05
0.0134999920588282,1.7288568722269556e-05,0.0134999920588282,-2.8534356355674632e-05,0.0134999920588282,7.888864185494818e-06,0.0134999920588282,-8.89603290725259e-06
0.0142941092387592,1.4365920147257817e-05,0.0142941092387592,-3.683781227500765e-05,0.0142941092387592,8.283790589031261e-06,0.0142941092387592,-8.69856970548437e-06
0.0150882264186903,9.508708488105608e-06,0.0150882264186903,-4.104402176563077e-05,0.0150882264186903,4.107570876724544e-06,0.0150882264186903,-9.56741e-06
0.0158823435986214,-1.6879092331332092e-06,0.0158823435986214,-4.44403725904337e-05,0.0158823435986214,3.426012199585956e-06,0.0158823435986214,-9.646366615850548e-06
0.0166764607785524,-1.8039040839359538e-05,0.0166764607785524,-4.118255151171033e-05,0.0166764607785524,7.13857309326036e-06,0.0166764607785524,-1.0791728951063667e-05
0.0174705779584835,-2.884026630000217e-05,0.0174705779584835,-3.746003529016124e-05,0.0174705779584835,8.718298121428416e-06,0.0174705779584835,-1.2963847514286337e-05
0.0182646951384146,-3.706468278251529e-05,0.0182646951384146,-4.495355284982837e-05,0.0182646951384146,7.573058277310906e-06,0.0182646951384146,-1.4504090556170502e-05
0.0190588123183456,-4.363094188489333e-05,0.0190588123183456,-6.110748248358504e-05,0.0190588123183456,5.124358469203568e-06,0.0190588123183456,-1.6854045491607407e-05
0.0198529294982767,-4.234727227108182e-05,0.0198529294982767,-7.718089282632716e-05,0.0198529294982767,2.7546706441610734e-06,0.0198529294982767,-1.6538026610402683e-05
0.0206470466782078,-3.859581858486852e-05,0.0206470466782078,-7.358691749328313e-05,0.0206470466782078,4.275098495296021e-06,0.0206470466782078,-1.539274814151315e-05
0.0214411638581389,-3.178292790444419e-05,0.0214411638581389,-5.666502762006511e-05,0.0214411638581389,5.479828836666612e-06,0.0214411638581389,-1.451409531581e-05
0.0222352810380699,-2.5562364895036228e-05,0.0222352810380699,-3.6047973061210034e-05,0.0222352810380699,3.7617720978726697e-06,0.0222352810380699,-1.3220597886771103e-05
0.023029398218001,-2.9294567556408112e-05,0.023029398218001,-2.5720741487649337e-05,0.023029398218001,4.136960961588342e-06,0.023029398218001,-1.4227683778204054e-05
0.0238235153979321,-3.097327159269455e-05,0.0238235153979321,-2.007283952541576e-05,0.0238235153979321,3.9101409170933e-06,0.0238235153979321,-1.5451955031702333e-05
0.0246176325778631,-2.4298637224019865e-05,0.0246176325778631,-1.904599437544005e-05,0.0246176325778631,-1.8068284497671465e-06,0.0246176325778631,-1.7466215693995036e-05
0.0254117497577942,-1.7387083975226073e-05,0.0254117497577942,-1.711082336376684e-05,0.0254117497577942,-3.99874049690326e-06,0.0254117497577942,-1.977661049690326e-05
0.0262058669377253,-1.4790530848896935e-05,0.0262058669377253,-1.0653542240928615e-05,0.0262058669377253,-1.4832934946589425e-07,0.0262058669377253,-1.568918219985744e-05
0.0269999841176564,-1.3931517178861446e-05,0.0269999841176564,-9.567399730926914e-06,0.0269999841176564,1.174951453711593e-06,0.0269999841176564,-1.2253068722269557e-05
0.0277941012975874,-8.500950481685233e-06,0.0277941012975874,-2.8978059160168205e-05,0.0277941012975874,-1.2144647303758532e-06,0.0277941012975874,-1.0051203515649732e-05
0.0285882184775185,-2.261612803361706e-06,0.0285882184775185,-4.290051141210382e-05,0.0285882184775185,-1.6292921119204522e-06,0.0285882184775185,-1.1067925536880434e-05
0.0293823356574496,7.375054198946041e-06,0.0293823356574496,-3.358035579479421e-05,0.0293823356574496,1.2933595072341664e-06,0.0293823356574496,-1.49386e-05
0.0301764528373806,2.0230809968224867e-05,0.0301764528373806,-1.1977656275412809e-05,0.0301764528373806,2.458498748676036e-06,0.0301764528373806,-1.1897553764563605e-05
0.0309705700173117,3.154549844713247e-05,0.0309705700173117,1.6499137654273155e-05,0.0309705700173117,2.389462311743992e-06,0.0309705700173117,-1.0278229318183089e-05
0.0317646871972428,3.5327528321163784e-05,0.0317646871972428,2.775471703807655e-05,0.0317646871972428,1.3624077113703554e-06,0.0317646871972428,-1.2825573375603112e-05
0.0325588043771738,2.6135302456289312e-05,0.0325588043771738,1.5037073711157627e-05,0.0325588043771738,2.2017966285343176e-06,0.0325588043771738,-1.3911743371465684e-05
0.0333529215571049,6.842008782992177e-06,0.0333529215571049,3.659593164166866e-07,0.0333529215571049,7.894855383213908e-08,0.0333529215571049,-1.3813028951063668e-05
0.034147038737036,6.328182879166108e-06,0.034147038737036,-1.4267282745800793e-05,0.034147038737036,-1.51064e-06,0.034147038737036,-1.44648303413706e-05
0.0349411559169671,1.3674826964187947e-05,0.0349411559169671,-3.30456806737253e-05,0.0349411559169671,-1.4613204257288398e-06,0.0349411559169671,-1.1542144011489334e-05
0.0357352730968981,1.1482859278440066e-05,0.0357352730968981,-4.248562306416773e-05,0.0357352730968981,6.121685751327414e-07,0.0357352730968981,-1.1423627147706624e-05
0.0365293902768292,7.652062516295049e-06,0.0365293902768292,-4.187367180343241e-05,0.0365293902768292,2.6757052189252134e-06,0.0365293902768292,-1.4484354738502332e-05
0.0373235074567603,1.0173668890805745e-06,0.0373235074567603,-3.75292077704568e-05,0.0373235074567603,2.636165234089958e-06,0.0373235074567603,-1.4524111680685148e-05
0.0381176246366913,-6.111602516471651e-06,0.0381176246366913,-3.1427315725474494e-05,0.0381176246366913,5.262518553200269e-06,0.0381176246366913,-9.922925053513806e-06
0.0389117418166224,-1.5985369118005614e-05,0.0389117418166224,-2.9097174165022197e-05,0.0389117418166224,5.479758330263912e-06,0.0389117418166224,-8.22461e-06
0.0397058589965535,-2.1533745758082765e-05,0.0397058589965535,-2.6214104476354583e-05,0.0397058589965535,5.00593552033074e-06,0.0397058589965535,-9.606691879047572e-06
0.0404999761764846,-2.4673748458297824e-05,0.0404999761764846,-2.7023638385561477e-05,0.0404999761764846,2.350001673176264e-06,0.0404999761764846,-1.2924296916595648e-05
0.0412940933564156,-2.4199863201938815e-05,0.0412940933564156,-3.456676438663559e-05,0.0412940933564156,-1.67849e-07,0.0412940933564156,-1.4642405197091774e-05
0.0420882105363467,-2.271893627475145e-05,0.0420882105363467,-4.15771634867288e-05,0.0420882105363467,-1.67849e-07,0.0420882105363467,-1.62814e-05
0.0428823277162778,-2.1376327904444188e-05,0.0428823277162778,-4.6039698543879015e-05,0.0428823277162778,1.411744653333554e-06,0.0428823277162778,-1.5155897673333224e-05
0.0436764448962088,-1.7920434890898813e-05,0.0436764448962088,-5.634749798371807e-05,0.0436764448962088,3.465584786698944e-06,0.0436764448962088,-1.5096559065460712e-05
0.0444705620761399,-1.9539502991239856e-05,0.0444705620761399,-6.857151834290768e-05,0.0444705620761399,3.840829145360042e-06,0.0444705620761399,-1.4306774544207446e-05
0.045264679256071,-1.967818347990476e-05,0.045264679256071,-8.480305060700404e-05,0.045264679256071,3.662850038207712e-06,0.045264679256071,-1.3339052065011906e-05
0.046058796436002,-1.6044511776950558e-05,0.046058796436002,-8.7883933795135e-05,0.046058796436002,7.098946456350284e-06,0.046058796436002,-1.3911737644609888e-05
0.0468529136159331,-1.7821692896831465e-05,0.0468529136159331,-8.32643127286683e-05,0.0468529136159331,2.833607802598613e-06,0.0468529136159331,-1.4484423224207869e-05
0.0476470307958642,-1.7584979873190664e-05,0.0476470307958642,-5.553853881880321e-05,0.0476470307958642,-2.10282343900778e-06,0.0476470307958642,-1.6320620126809335e-05
0.0484411479757953,-1.3793186338583274e-05,0.0484411479757953,-2.212816022493121e-05,0.0484411479757953,-3.52483e-06,0.0484411479757953,-1.7397390987421384e-05
0.0492352651557263,-1.5550739234987584e-05,0.0492352651557263,-3.288087710489011e-06,0.0492352651557263,-4.038245693995034e-06,0.0492352651557263,-9.78467425319121e-06
0.0500293823356574,-1.466224304020356e-05,0.0500293823356574,1.951707853840544e-05,0.0500293823356574,-4.551711013401187e-06,0.0500293823356574,-5.97348076005089e-06
0.0508234995155885,-1.2253e-05,0.0508234995155885,5.7768844492861376e-05,0.0508234995155885,-3.6728472254729615e-06,0.0508234995155885,-4.472723109810815e-06
0.0516176166955195,-1.2253e-05,0.0516176166955195,0.0001073929180165,0.0516176166955195,-5.400753644255089e-06,0.0516176166955195,-5.973375995593137e-06
0.0524117338754506,-1.1048421950614851e-05,0.0524117338754506,0.0001507962930504,0.0524117338754506,-9.863684611276266e-06,0.0524117338754506,-1.0949750463120829e-05
0.0532058510553817,-1.1137502890956718e-05,0.0532058510553817,0.0001652721366774,0.0532058510553817,-8.857127637913185e-06,0.0532058510553817,-1.1354663346807617e-05
0.0539999682353128,-6.882037622567399e-06,0.0539999682353128,0.0001549256983092,0.0539999682353128,-1.6821551747445685e-07,0.0539999682353128,-8.560435993557034e-06
0.0547940854152438,-3.6828236978889615e-06,0.0547940854152438,9.900462947706124e-05,0.0547940854152438,7.997576304859669e-07,0.0547940854152438,-8.550432293848841e-06
0.0555882025951749,3.449892613332071e-07,0.0555882025951749,2.9891481465982563e-05,0.0555882025951749,-2.8826569022035675e-06,0.0555882025951749,-9.034186135768484e-06
0.056382319775106,4.61085343073293e-06,0.056382319775106,-5.991659821215127e-05,0.056382319775106,-3.959460883306583e-06,0.056382319775106,-1.0623733556988691e-05
0.057176436955037,5.479777294964443e-06,0.057176436955037,-0.0001177598556294,0.057176436955037,-3.287820944907074e-06,0.057176436955037,-1.3358789179857771e-05
0.0579705541349681,6.74350410508254e-06,0.0579705541349681,-0.0001371723745545,0.0579705541349681,-3.84084059661164e-06,0.0579705541349681,-1.329947880677672e-05
0.0587646713148992,6.23033699906868e-06,0.0587646713148992,-0.0001373513846264,0.0587646713148992,-1.7873101905739435e-06,0.0587646713148992,-1.5136321971063336e-05
0.0595587884948302,3.939602328983623e-06,0.0595587884948302,-0.000108460725077,0.0595587884948302,1.392032213158425e-06,0.0595587884948302,-1.2332072328983624e-05
0.0603529056747613,3.18914e-06,0.0603529056747613,-5.635341090950642e-05,0.0603529056747613,3.623568524120369e-06,0.0603529056747613,-1.1028682502647929e-05
0.0611470228546924,4.600941921891524e-06,0.0611470228546924,1.989382020945233e-05,0.0611470228546924,5.677050315902174e-06,0.0611470228546924,-1.000194160598935e-05
0.0619411400346235,5.16389691891252e-06,0.0619411400346235,8.219267585695662e-05,0.0619411400346235,6.4475378846075e-06,0.0619411400346235,-9.823983845120633e-06
0.0627352572145545,1.3231672624173178e-06,0.0627352572145545,0.0001141867282263,0.0627352572145545,3.5841270460629542e-06,0.0627352572145545,-1.1117587173786774e-05
0.0635293743944856,-7.325795515649179e-06,0.0635293743944856,8.800722742547998e-05,0.0635293743944856,3.732077249325189e-06,0.0635293743944856,-9.42924340218523e-06
0.0643234915744167,-1.7110216286667416e-05,0.0643234915744167,3.304839553287996e-05,0.0643234915744167,5.87472e-06,0.0643234915744167,-8.520614053152984e-06
0.0651176087543477,-2.2758232227995417e-05,0.0651176087543477,-2.358619212956313e-05,0.0651176087543477,5.282355337096548e-06,0.0651176087543477,-1.1235896228394756e-05
0.0659117259342788,-2.473304464505869e-05,0.0659117259342788,-8.124659023983426e-05,0.0659117259342788,3.870399193676639e-06,0.0659117259342788,-1.2371489290117377e-05
0.0667058431142099,-2.271912866095484e-05,0.0667058431142099,-0.0001180166493079,0.0667058431142099,3.287822846421337e-06,0.0667058431142099,-1.620211471673823e-05
0.067499960294141,-1.963857180567391e-05,0.067499960294141,-0.0001310896662627,0.067499960294141,4.531844097163046e-06,0.067499960294141,-1.6784971589962324e-05
0.068294077474072,-1.5728544437448042e-05,0.068294077474072,-0.0001192432156268,0.068294077474072,6.605329195343123e-06,0.068294077474072,-1.49386e-05
0.0690881946540031,-1.0555052071326051e-05,0.0690881946540031,-0.0001142458549372,0.0690881946540031,8.59971561336902e-06,0.0690881946540031,-1.540272380718372e-05
0.0698823118339342,-9.863645186824112e-06,0.0698823118339342,-0.0001067827827915,0.0698823118339342,9.597164040212667e-06,0.0698823118339342,-1.7110623954042666e-05
0.0706764290138652,-7.355885689910943e-06,0.0706764290138652,-8.39163973846974e-05,0.0706764290138652,5.795910788473759e-06,0.0706764290138652,-1.801915843189136e-05
0.0714705461937963,-5.53903e-06,0.0714705461937963,-5.956692705366446e-05,0.0714705461937963,4.53193e-06,0.0714705461937963,-1.66171e-05
0.0722646633737274,-4.768751833900925e-06,0.0722646633737274,-3.829987117281175e-05,0.0722646633737274,6.2893606113003086e-06,0.0722646633737274,-1.4909060229361877e-05
0.0730587805536585,-8.856236182496393e-06,0.0730587805536585,-3.871377465163004e-05,0.0730587805536585,5.598350838272969e-06,0.0730587805536585,-1.3635347618203408e-05
0.0738528977335895,-6.368490498134099e-06,0.0738528977335895,-5.39179682556172e-05,0.0738528977335895,2.221565847435531e-06,0.0738528977335895,-1.3161376459007447e-05
0.0746470149135206,-4.9424471452096246e-08,0.0746470149135206,-6.418738022065542e-05,0.0746470149135206,1.3525778511349395e-06,0.0746470149135206,-1.367457068076346e-05
0.0754411320934517,-8.39246e-07,0.0754411320934517,-5.881722348248989e-05,0.0754411320934517,2.5571616273758727e-06,0.0754411320934517,-1.5965410813687935e-05
0.0762352492733827,-2.3794197717549934e-06,0.0762352492733827,-5.289235256847537e-05,0.0762352492733827,6.221844784017706e-07,0.0762352492733827,-1.4227828853712596e-05
0.0770293664533138,-1.079138179953819e-05,0.0770293664533138,-5.040505575733006e-05,0.0770293664533138,-4.117019631346957e-06,0.0770293664533138,-1.1068148042047808e-05
0.0778234836332449,-1.5689015662000402e-05,0.0778234836332449,-2.9611806499586283e-05,0.0778234836332449,-8.343000872955176e-06,0.0778234836332449,-1.2075413690567236e-05
0.078617600813176,-1.2608670855319818e-05,0.078617600813176,2.2746518487506336e-05,0.078617600813176,-1.0228859863494822e-05,0.078617600813176,-1.3022986096453457e-05
0.079411717993107,-1.0100566595673557e-05,0.079411717993107,6.940844541665538e-05,0.079411717993107,-1.0120339499539788e-05,0.079411717993107,-1.6538099787020667e-05
0.0802058351730381,-7.751042554294052e-06,0.0802058351730381,0.0001037585000494,0.0802058351730381,-8.076592850630248e-06,0.0802058351730381,-1.4543879762931042e-05
0.0809999523529692,-3.1894492481659213e-06,0.0809999523529692,0.0001225293376034,0.0809999523529692,-8.22455845932139e-06,0.0809999523529692,-1.2924468722269569e-05
0.0817940695329002,5.469695378567773e-06,0.0817940695329002,9.943850833832176e-05,0.0817940695329002,-6.249988298452368e-06,0.0817940695329002,-1.0831292689220766e-05
0.0825881867128313,8.679051271772436e-06,0.0825881867128313,5.295495101423199e-05,0.0825881867128313,-2.498316589715545e-06,0.0825881867128313,-6.566642046755023e-06
0.0833823038927624,6.368594997717279e-06,0.0833823038927624,7.97098469364381e-06,0.0833823038927624,-6.814456584790398e-07,0.0833823038927624,-4.432930394765022e-06
0.0841764210726934,4.6208262381207305e-06,0.0841764210726934,-1.981492311438497e-05,0.0841764210726934,1.6092847773237766e-06,0.0841764210726934,-7.316163365011384e-06
0.0849705382526245,6.456940710622855e-06,0.0849705382526245,-3.413240374643988e-05,0.0849705382526245,2.162373499114837e-06,0.0849705382526245,-8.796992167262477e-06
0.0857646554325556,1.3101323266667789e-05,0.0857646554325556,-4.807304008645489e-05,0.0857646554325556,1.6485493066671152e-06,0.0857646554325556,-1.3161204653333556e-05
0.0865587726124866,2.0427925104467463e-05,0.0865587726124866,-5.245789519246783e-05,0.0865587726124866,4.136891981330229e-06,0.0865587726124866,-1.203597721574502e-05
0.0873528897924177,2.617446043640476e-05,0.0873528897924177,-4.39769234713312e-05,0.0873528897924177,5.183548130921428e-06,0.0873528897924177,-8.244391869078573e-06
0.0881470069723488,2.9018341478297488e-05,0.0881470069723488,-4.448974302029118e-05,0.0881470069723488,4.857850739148744e-06,0.0881470069723488,-9.033984501396996e-06
0.0889411241522799,2.83665e-05,0.0889411241522799,-5.2378189397234894e-05,0.0889411241522799,3.821120413320716e-06,0.0889411241522799,-1.0989020347328588e-05
0.0897352413322109,2.708304666784937e-05,0.0897352413322109,-5.798676104050892e-05,0.0897352413322109,3.18914e-06,0.0897352413322109,-1.3536453332150633e-05
0.090529358512142,1.882945367156001e-05,0.090529358512142,-5.79872744941633e-05,0.090529358512142,3.1495045608230464e-06,0.090529358512142,-1.4346147633886242e-05
0.0913234756920731,1.0515310290378202e-05,0.0913234756920731,-5.497578220319037e-05,0.0913234756920731,5.993099419243598e-06,0.0913234756920731,-1.5096730871134603e-05
0.0921175928720041,1.038693175770033e-05,0.0921175928720041,-5.810509265185622e-05,0.0921175928720041,5.361427665738981e-06,0.0921175928720041,-1.411906824229967e-05
0.0929117100519352,-1.9052318671221604e-06,0.0929117100519352,-6.94788624697536e-05,0.0929117100519352,4.462810434408878e-06,0.0929117100519352,-1.5412539131182244e-05
0.0937058272318663,-1.833424065376017e-05,0.0937058272318663,-6.963817744398291e-05,0.0937058272318663,6.82230155649097e-06,0.0937058272318663,-1.2746854533362522e-05
0.0944999444117974,-1.9974300439952863e-05,0.0944999444117974,-5.656631419442982e-05,0.0944999444117974,8.224569912009427e-06,0.0944999444117974,-1.2588619824018854e-05
0.0952940615917284,-1.485972705035556e-05,0.0952940615917284,-4.21905152099908e-05,0.0952940615917284,6.50668352517778e-06,0.0952940615917284,-1.4543581966429626e-05
0.0960881787716595,-2.311172750055e-05,0.0960881787716595,-2.9018879226444623e-05,0.0960881787716595,7.296292750055e-06,0.0960881787716595,-1.4642887313592386e-05
0.0968822959515906,-3.8554978946045474e-05,0.0968822959515906,-2.234394711120801e-05,0.0968822959515906,6.941409431400108e-06,0.0968822959515906,-1.1542155465200931e-05
0.0976764131315216,-4.779716137276468e-05,0.0976764131315216,-2.0803297444158927e-05,0.0976764131315216,3.9001245996103e-06,0.0976764131315216,-1.207519034319117e-05
0.0984705303114527,-4.8528055049633546e-05,0.0984705303114527,-2.350865640572357e-05,0.0984705303114527,6.026036775792823e-07,0.0984705303114527,-1.3635110099267088e-05
0.0992646474913838,-5.65641956790082e-05,0.0992646474913838,-2.029072463586309e-05,0.0992646474913838,6.893729717548353e-08,0.0992646474913838,-1.3990936192532786e-05
0.1000587646713148,-6.219350210754703e-05,0.1000587646713148,-1.486109378302395e-05,0.1000587646713148,5.231973560475681e-07,0.1000587646713148,-1.167001970236777e-05
0.1008528818512459,-5.913230271638284e-05,0.1008528818512459,-1.6970564329523157e-05,0.1008528818512459,2.833691854601755e-06,0.1008528818512459,-1.3418058280188109e-05
0.101646999031177,-5.103807872174812e-05,0.101646999031177,-2.6601049001577337e-05,0.101646999031177,1.135963559984004e-06,0.101646999031177,-1.3832593439854322e-05
0.1024411162111081,-3.437575842046542e-05,0.1024411162111081,-3.923854064035158e-05,0.1024411162111081,-5.039271153632812e-08,0.1024411162111081,-1.3517495380051712e-05
0.1032352333910391,-1.3756853317494473e-05,0.1032352333910391,-3.87843915103916e-05,0.1032352333910391,1.5897143575711326e-06,0.1032352333910391,-1.1739748715142264e-05
0.1040293505709702,2.4987625742517044e-06,0.1040293505709702,-2.352422666939876e-05,0.1040293505709702,-1.8761895562343716e-06,0.1040293505709702,-1.09102e-05
0.1048234677509013,6.9798854594199815e-06,0.1048234677509013,-2.5473639586173416e-06,0.1048234677509013,-6.290578676320808e-06,0.1048234677509013,-1.3162034540580018e-05
0.1056175849308323,3.799818014809231e-06,0.1056175849308323,2.2695710670223298e-05,0.1056175849308323,-8.521025830710604e-06,0.1056175849308323,-1.5008195427859216e-05
0.1064117021107634,2.05349710134421e-06,0.1064117021107634,3.518103233718605e-05,0.1064117021107634,-7.898477721640581e-06,0.1064117021107634,-1.821698579731158e-05
0.1072058192906945,4.848274065954059e-06,0.1072058192906945,2.0190631619263715e-05,0.1072058192906945,-6.249798839859018e-06,0.1072058192906945,-1.7031551795017363e-05
0.1079999364706256,9.902733877216092e-06,0.1079999364706256,-3.104737442807685e-05,0.1079999364706256,-4.532067297066434e-06,0.1079999364706256,-1.3596074594132867e-05
0.1087940536505566,8.561428756757201e-06,0.1087940536505566,-7.208568653429694e-05,0.1087940536505566,5.714148141930601e-07,0.1087940536505566,-1.454313428380105e-05
0.1095881708304877,-2.532724976382042e-06,0.1095881708304877,-8.074338588627935e-05,0.1095881708304877,3.642344415845191e-06,0.1095881708304877,-1.4032182945908306e-05
0.1103822880104188,-1.402691685177111e-05,0.1103822880104188,-5.7355293993361965e-05,0.1103822880104188,5.72646622053505e-06,0.1103822880104188,-1.02388e-05
0.1111764051903498,-1.4802701498703644e-05,0.1111764051903498,-1.6665275227556383e-05,0.1111764051903498,5.046128727147074e-06,0.1111764051903498,-1.0791199666954744e-05
0.1119705223702809,4.150525471008223e-06,0.1119705223702809,1.389435804776098e-05,0.1119705223702809,3.061374305920151e-06,0.1119705223702809,-1.0929682659670876e-05
0.112764639550212,3.142706152632103e-05,0.112764639550212,3.0223951617010847e-05,0.112764639550212,1.3329056523870243e-06,0.112764639550212,-9.172495869032438e-06
0.1135587567301431,5.41589941801318e-05,0.1135587567301431,4.400317469031262e-05,0.1135587567301431,3.110468467174496e-06,0.1135587567301431,-8.837006350380872e-06
0.1143528739100741,6.537229305520103e-05,0.1143528739100741,3.508586024122452e-05,0.1143528739100741,3.3175075907728098e-06,0.1143528739100741,-1.1018838127960111e-05
0.1151469910900052,4.867198506518043e-05,0.1151469910900052,2.0317958940380985e-05,0.1151469910900052,5.479054368617518e-06,0.1151469910900052,-9.784712539776654e-06
0.1159411082699363,1.0505231455252854e-05,0.1159411082699363,1.8237761155440487e-05,0.1159411082699363,6.073427629159935e-06,0.1159411082699363,-1.120530482795919e-05
0.1167352254498673,-1.5093642206322514e-05,0.1167352254498673,2.9054290396971915e-05,0.1167352254498673,3.86053e-06,0.1167352254498673,-1.3003480078282237e-05
0.1175293426297984,-1.3199885000800112e-05,0.1175293426297984,3.0791196701136536e-05,0.1175293426297984,7.00047238345577e-06,0.1175293426297984,-1.024831976981992e-05
0.1183234598097295,1.1119638408525789e-07,0.1183234598097295,4.121802422331373e-06,0.1183234598097295,8.06574574013736e-06,0.1183234598097295,-7.000625828867801e-06
0.1191175769896605,6.013971658871848e-06,0.1191175769896605,-2.084017821090571e-05,0.1191175769896605,5.360488438825059e-06,0.1191175769896605,-8.14603136578113e-06
0.1199116941695916,8.765413016872201e-07,0.1199116941695916,-3.3365253606756306e-05,0.1199116941695916,6.150940934486363e-06,0.1199116941695916,-6.762861868972726e-06
0.1207058113495227,-1.083199331760526e-05,0.1207058113495227,-3.646389098239092e-05,0.1207058113495227,1.5728498629568832e-07,0.1207058113495227,-7.523815348629193e-06
0.1214999285294538,-2.316214453647025e-05,0.1214999285294538,-2.7024901944549854e-05,0.1214999285294538,-1.0237950479002506e-05,0.1214999285294538,-1.1748988118002892e-05
0.1222940457093848,-3.0231278379365643e-05,0.1222940457093848,-8.476783690479205e-06,0.1222940457093848,-1.1473559195718127e-05,0.1222940457093848,-1.0851610003017652e-05
0.1230881628893159,-3.314462181898942e-05,0.1230881628893159,-5.7146186979430906e-06,0.1230881628893159,-6.173151381065139e-06,0.1230881628893159,-1.1857614545992948e-05
0.123882280069247,-3.50805e-05,0.123882280069247,-1.1127303636609191e-05,0.123882280069247,-2.85344e-06,0.123882280069247,-1.082338172838018e-05
0.124676397249178,-3.314714121063612e-05,0.124676397249178,-2.131931119540274e-05,0.124676397249178,-1.1962802598476557e-06,0.124676397249178,-8.343621774467462e-06
0.1254705144291091,-2.5722187081383664e-05,0.1254705144291091,-2.895651257461138e-05,0.1254705144291091,-8.781866754890468e-07,0.1254705144291091,-1.2192241700367668e-05
0.1262646316090402,-2.185006089320188e-05,0.1262646316090402,-3.606816154663355e-05,0.1262646316090402,-3.3668781416448086e-06,0.1262646316090402,-1.6123445789035174e-05
0.1270587487889713,-1.841364169732045e-05,0.1270587487889713,-4.1239780992536575e-05,0.1270587487889713,-2.85344e-06,0.1270587487889713,-1.497794723244015e-05
0.1278528659689023,-1.5866770905800825e-05,0.1278528659689023,-3.465250667776103e-05,0.1278528659689023,-7.039675247926569e-06,0.1278528659689023,-1.7031729094199175e-05
0.1286469831488334,-1.3339573730501276e-05,0.1286469831488334,-1.770144876296282e-05,0.1286469831488334,-9.311177257020606e-06,0.1286469831488334,-1.817721474610025e-05
0.1294411003287645,-8.619004066879025e-06,0.1294411003287645,-2.185373996760035e-05,0.1294411003287645,-4.691548382165697e-06,0.1294411003287645,-1.5887005933120974e-05
0.1302352175086955,-1.1620315963900787e-05,0.1302352175086955,-4.0328694289186375e-05,0.1302352175086955,-3.066632025277988e-07,0.1302352175086955,-1.391214319597333e-05
0.1310293346886266,-1.4089505697364733e-05,0.1310293346886266,-4.848834592501753e-05,0.1310293346886266,1.313260268042411e-06,0.1310293346886266,-1.1778982907905804e-05
0.1318234518685577,-1.3477005612554404e-05,0.1318234518685577,-4.635717026658826e-05,0.1318234518685577,1.965134387445593e-06,0.1318234518685577,-1.02388e-05
0.1326175690484888,-1.29244e-05,0.1326175690484888,-5.316658171457504e-05,0.1326175690484888,4.888966088023603e-06,0.1326175690484888,-1.0831608729366376e-05
0.1334116862284198,-1.4652756527470733e-05,0.1334116862284198,-6.581021638418276e-05,0.1334116862284198,5.755790686752879e-06,0.1334116862284198,-1.485034032721385e-05
0.1342058034083509,-1.6182636765196973e-05,0.1342058034083509,-7.717544235774205e-05,0.1342058034083509,5.40085352759727e-06,0.1342058034083509,-1.5214947060787898e-05
0.134999920588282,-1.3931843242666115e-05,0.134999920588282,-8.375633771363466e-05,0.134999920588282,7.888566759037999e-06,0.134999920588282,-1.2588986035555097e-05
0.135794037768213,-9.489274425038468e-06,0.135794037768213,-9.5196440496194e-05,0.135794037768213,1.1324032629537192e-05,0.135794037768213,-1.29244e-05
0.1365881549481441,-8.105222049071968e-06,0.1365881549481441,-0.0001142289065781,0.1365881549481441,1.46029e-05,0.1365881549481441,-1.3299222864269647e-05
0.1373822721280752,-1.6114017579855166e-05,0.1373822721280752,-0.0001293026088906,0.1373822721280752,1.2560606796211966e-05,0.1373822721280752,-1.3634980975042685e-05
0.1381763893080062,-3.1085644625213626e-05,0.1381763893080062,-0.0001331882888706,0.1381763893080062,1.1630394511726635e-05,0.1381763893080062,-1.448387678411033e-05
0.1389705064879373,-3.8357218995719154e-05,0.1389705064879373,-0.0001085324624599,0.1389705064879373,1.0693700557933805e-05,0.1389705064879373,-1.4247740223173522e-05
0.1397646236678684,-3.997787169137211e-05,0.1397646236678684,-6.892480548414536e-05,0.1397646236678684,6.743694043811337e-06,0.1397646236678684,-1.2825614154313944e-05
0.1405587408477994,-3.46452521908054e-05,0.1405587408477994,-2.479023023851739e-05,0.1405587408477994,3.3072155091843738e-06,0.1405587408477994,-1.5807944555363513e-05
0.1413528580277305,-2.764593153497736e-05,0.1413528580277305,1.9917526054094185e-05,0.1413528580277305,-3.445636677809337e-06,0.1413528580277305,-1.736753204993412e-05
0.1421469752076616,-2.3035960533738897e-05,0.1421469752076616,7.61612747131609e-05,0.1421469752076616,-7.1185790417721125e-06,0.1421469752076616,-1.561e-05
0.1429410923875927,-1.4508304134453166e-05,0.1429410923875927,0.0001235120187998,0.1429410923875927,-6.842702088108107e-06,0.1429410923875927,-1.488969969697518e-05
0.1437352095675237,-3.447499603235259e-06,0.1437352095675237,0.0001398166589631,0.1437352095675237,-7.236853921182253e-06,0.1437352095675237,-1.4484250940354024e-05
0.1445293267474548,3.209233412689756e-06,0.1445293267474548,0.0001468078899729,0.1445293267474548,-7.237220046692743e-06,0.1445293267474548,-1.399060014007823e-05
0.1453234439273859,1.0792735728661048e-05,0.1453234439273859,0.0001170335065911,0.1453234439273859,-7.158128526988307e-06,0.1453234439273859,-1.1719713109409107e-05
0.146117561107317,1.4367091790016988e-05,0.146117561107317,4.028772436310833e-05,0.146117561107317,-7.474617263338994e-06,0.146117561107317,-1.039600547332201e-05
0.146911678287248,2.05283560119365e-05,0.146911678287248,-2.41556876293063e-05,0.146911678287248,-9.093588066729395e-06,0.146911678287248,-1.0357716381363018e-05
0.1477057954671791,2.7853187508946588e-05,0.1477057954671791,-4.4067919141731086e-05,0.1477057954671791,-7.6320679311021e-06,0.1477057954671791,-1.1147142498210682e-05
0.1484999126471102,2.9373537072177897e-05,0.1484999126471102,-2.8368873070008095e-05,0.1484999126471102,-5.539155853769681e-06,0.1484999126471102,-1.1917111216533692e-05
0.1492940298270412,2.5860403537090285e-05,0.1492940298270412,-1.1793855154916776e-05,0.1492940298270412,-4.492880884272571e-06,0.1492940298270412,-1.2489816371909144e-05
0.1500881470069723,1.87321377372784e-05,0.1500881470069723,5.983316715249479e-06,0.1500881470069723,-1.2346508524748592e-06,0.1500881470069723,-1.2273535229049877e-05
0.1508822641869034,1.7618767444774955e-05,0.1508822641869034,2.494968049127624e-05,0.1508822641869034,-3.1668407692600348e-06,0.1508822641869034,-1.083184951594205e-05
0.1516763813668344,3.2325993497042135e-05,0.1516763813668344,3.245096654555378e-05,0.1516763813668344,-5.262847328655939e-06,0.1516763813668344,-8.719803534675622e-06
0.1524704985467655,4.633482814482846e-05,0.1524704985467655,1.406088414852008e-05,0.1524704985467655,-2.478843329191417e-06,0.1524704985467655,-8.085937213438052e-06
0.1532646157266966,4.528990121802604e-05,0.1532646157266966,-1.0357930740109071e-05,0.1532646157266966,1.0364668353513508e-06,0.1532646157266966,-8.48134433593981e-06
0.1540587329066277,3.740966131595987e-05,0.1540587329066277,-3.191069024557772e-05,0.1540587329066277,7.336684681666694e-06,0.1540587329066277,-9.488669671010032e-06
0.1548528500865587,2.218643411457021e-05,0.1548528500865587,-5.967690475869888e-05,0.1548528500865587,1.1443277411249752e-05,0.1548528500865587,-1.004142905864458e-05
0.1556469672664898,9.549834821086764e-06,0.1556469672664898,-8.099413409946496e-05,0.1556469672664898,1.2806026212127672e-05,0.1556469672664898,-8.698105151489311e-06
0.1564410844464209,-4.033212048855063e-06,0.1564410844464209,-9.053031114356536e-05,0.1564410844464209,1.116768710827097e-05,0.1564410844464209,-1.233121289172903e-05
0.157235201626352,-1.7385055191689283e-05,0.157235201626352,-9.037250839332282e-05,0.157235201626352,9.261600744850565e-06,0.157235201626352,-1.308259448083107e-05
0.158029318806283,-2.576004830348272e-05,0.158029318806283,-8.396231649747694e-05,0.158029318806283,9.23171e-06,0.158029318806283,-1.1621022976229905e-05
0.1588234359862141,-2.698247097239269e-05,0.1588234359862141,-7.321737474502733e-05,0.1588234359862141,7.39444836234665e-06,0.1588234359862141,-1.1562173225814422e-05
0.1596175531661451,-1.6553358723264962e-05,0.1596175531661451,-5.9352913778368026e-05,0.1596175531661451,3.503594468954523e-06,0.1596175531661451,-1.2549392898655772e-05
0.1604116703460762,-4.708536099894884e-06,0.1604116703460762,-4.210618324887715e-05,0.1604116703460762,5.822282956983111e-07,0.1604116703460762,-1.1857855332568602e-05
0.1612057875260073,-5.460137670986512e-06,0.1612057875260073,-2.9912563102864648e-05,0.1612057875260073,1.2342513101021564e-06,0.1612057875260073,-1.1660489387346262e-05
0.1619999047059384,-7.217451351466773e-06,0.1619999047059384,-2.23246396581846e-05,0.1619999047059384,2.5176713514667727e-06,0.1619999047059384,-7.553769184175942e-06
0.1627940218858694,-1.1303141251406728e-05,0.1627940218858694,-3.3092035636049776e-05,0.1627940218858694,1.9452293611045515e-06,0.1627940218858694,-1.0652566779138588e-05
0.1635881390658005,-2.1795775963497373e-05,0.1635881390658005,-4.804169594034748e-05,0.1635881390658005,3.642241222281623e-06,0.1635881390658005,-1.15816e-05
0.1643822562457316,-3.070251302868594e-05,0.1643822562457316,-5.1658039729722285e-05,0.1643822562457316,3.6059293582017383e-06,0.1643822562457316,-1.3869986563106878e-05
0.1651763734256627,-3.827557730886168e-05,0.1651763734256627,-4.621470138742984e-05,0.1651763734256627,-9.45174577218189e-07,0.1651763734256627,-1.7050407802531907e-05
0.1659704906055937,-4.558433157493048e-05,0.1659704906055937,-3.3900844679869646e-05,0.1659704906055937,-1.2442926190114414e-06,0.1659704906055937,-1.811803155300898e-05
0.1667646077855248,-4.807413207207192e-05,0.1667646077855248,-2.954156631212929e-05,0.1667646077855248,-6.813268189313074e-07,0.1667646077855248,-1.5886600283254466e-05
0.1675587249654559,-4.47660448915672e-05,0.1675587249654559,-3.485072942316548e-05,0.1675587249654559,4.641665454455665e-07,0.1675587249654559,-1.49189091847388e-05
0.1683528421453869,-4.272275690100645e-05,0.1683528421453869,-3.464855950888318e-05,0.1683528421453869,6.917270131964787e-08,0.1683528421453869,-1.3398445520805162e-05
0.169146959325318,-3.678034723197905e-05,0.169146959325318,-2.6558811081992607e-05,0.169146959325318,-1.7376740274293195e-06,0.169146959325318,-1.3180540274293197e-05
0.1699410765052491,-3.0146130120977407e-05,0.1699410765052491,-2.3963167977762296e-05,0.1699410765052491,-1.924529959674197e-06,0.1699410765052491,-1.6913705020162902e-05
0.1707351936851801,-2.1990226775566087e-05,0.1707351936851801,-2.080543359876449e-05,0.1707351936851801,-3.958923472978753e-06,0.1707351936851801,-1.3715429611266446e-05
0.1715293108651112,-1.2233076677770278e-05,0.1715293108651112,-5.0617949396243056e-06,0.1715293108651112,-5.223052929537139e-06,0.1715293108651112,-1.2845508281851446e-05
0.1723234280450423,-4.906429842052575e-06,0.1723234280450423,1.3843325140044907e-05,0.1723234280450423,-4.136849968410515e-06,0.1723234280450423,-1.580635974728412e-05
0.1731175452249733,-1.7465158350770854e-06,0.1731175452249733,1.7368943066801697e-05,0.1731175452249733,-3.1195709148243675e-06,0.1731175452249733,-1.1817477006147516e-05
0.1739116624049044,8.503298034792901e-06,0.1739116624049044,7.017070538369742e-06,0.1739116624049044,-1.875239911075823e-06,0.1739116624049044,-1.4109799604211992e-05
0.1747057795848355,1.9776761121464027e-05,0.1747057795848355,-9.338707836914534e-06,0.1747057795848355,4.018560178809502e-06,0.1747057795848355,-1.3437769821190498e-05
0.1754998967647666,2.6687256307556888e-05,0.1754998967647666,-2.4672130652461083e-05,0.1754998967647666,5.20333e-06,0.1754998967647666,-1.1749511564943208e-05
0.1762940139446976,2.708358037647304e-05,0.1762940139446976,-3.508463443313202e-05,0.1762940139446976,4.2456775470591295e-06,0.1762940139446976,-1.19173e-05
0.1770881311246287,2.045189164840126e-05,0.1770881311246287,-5.189999932990268e-05,0.1770881311246287,3.998514340941651e-06,0.1770881311246287,-1.3664771618736994e-05
0.1778822483045598,1.2474017742612265e-05,0.1778822483045598,-5.593359044622876e-05,0.1778822483045598,6.32791132800468e-06,0.1778822483045598,-1.343914489599376e-05
0.1786763654844909,5.88790730935273e-06,0.1786763654844909,-4.20259736702658e-05,0.1786763654844909,6.112835080312508e-06,0.1786763654844909,-1.0734099369065372e-05
0.1794704826644219,1.9656263686003103e-06,0.1794704826644219,-1.4271965863643462e-05,0.1794704826644219,4.176804547440124e-06,0.1794704826644219,-1.173839400046172e-05
0.180264599844353,-9.971530341192113e-07,0.180264599844353,2.025078897060285e-05,0.180264599844353,3.86053e-06,0.180264599844353,-1.69528e-05
0.181058717024284,1.9653791424373246e-06,0.181058717024284,2.7953135710936563e-05,0.181058717024284,3.5445265482749086e-06,0.181058717024284,-1.3792765482749088e-05
0.1818528342042151,8.40209373794228e-06,0.1818528342042151,2.4752604898564604e-05,0.1818528342042151,3.070622886785008e-06,0.1818528342042151,-9.133044226429983e-06
0.1826469513841462,9.587810755689098e-06,0.1826469513841462,2.783382057078397e-05,0.1826469513841462,2.933021916611563e-06,0.1826469513841462,-9.8633299079572e-06
0.1834410685640773,4.336513013071249e-06,0.1834410685640773,3.521856493476636e-05,0.1834410685640773,-9.76037949062092e-07,0.1834410685640773,-1.1956383513809682e-05
0.1842351857440083,-3.645972081142754e-07,0.1842351857440083,2.3692377163833896e-05,0.1842351857440083,-4.215497629178124e-06,0.1842351857440083,-1.2460366123564364e-05
0.1850293029239394,-6.022890140320873e-06,0.1850293029239394,3.857750240684623e-06,0.1850293029239394,-4.057981556438991e-06,0.1850293029239394,-1.2647933505944194e-05
0.1858234201038705,-1.0357548621756796e-05,0.1858234201038705,-1.2995057636952933e-05,0.1858234201038705,-2.85344e-06,0.1858234201038705,-1.3417677067364809e-05
0.1866175372838016,-8.835538800360186e-06,0.1866175372838016,-2.585742394584617e-05,0.1866175372838016,-2.2606771347432554e-06,0.1866175372838016,-1.1847702274635113e-05
0.1874116544637326,-4.748786529246872e-06,0.1874116544637326,-2.708258437297659e-05,0.1874116544637326,7.412327024471336e-07,0.1874116544637326,-1.0119962414289102e-05
0.1882057716436637,-6.013028658571752e-06,0.1882057716436637,-2.23239e-05,0.1882057716436637,2.5572190917553816e-06,0.1882057716436637,-8.461569697251795e-06
0.1889998888235948,-1.4266078743009953e-05,0.1889998888235948,-2.7693949420601976e-05,0.1889998888235948,1.84634e-06,0.1889998888235948,-7.721190132547362e-06
0.1897940060035258,-1.561e-05,0.1897940060035258,-4.225315557904612e-05,0.1897940060035258,1.84634e-06,0.1897940060035258,-1.017889963757958e-05
0.1905881231834569,-1.845207164756765e-05,0.1905881231834569,-5.5573117434213664e-05,0.1905881231834569,1.3726613920720585e-06,0.1905881231834569,-1.4966319008579622e-05
0.191382240363388,-1.926354195701213e-05,0.191382240363388,-6.343679400748166e-05,0.191382240363388,5.81863152808201e-07,0.191382240363388,-1.799905804298787e-05
0.192176357543319,-1.910504162182176e-05,0.192176357543319,-6.826762028046968e-05,0.192176357543319,2.2796020368430107e-06,0.192176357543319,-1.7467103472367743e-05
0.1929704747232501,-1.7940485988862334e-05,0.1929704747232501,-7.776973620825173e-05,0.1929704747232501,3.5054212780194837e-06,0.1929704747232501,-1.4425342994431168e-05
0.1937645919031812,-1.76242e-05,0.1937645919031812,-7.913590316856161e-05,0.1937645919031812,3.9689997567441455e-06,0.1937645919031812,-1.3773602996146205e-05
0.1945587090831123,-1.76242e-05,0.1945587090831123,-6.73928807178577e-05,0.1945587090831123,4.86763e-06,0.1945587090831123,-1.168011140644308e-05
0.1953528262630433,-1.7861245692457374e-05,0.1953528262630433,-5.428000690056606e-05,0.1953528262630433,4.038314269343031e-06,0.1953528262630433,-1.09102e-05
0.1961469434429744,-1.5867134310763543e-05,0.1961469434429744,-4.066794578610396e-05,0.1961469434429744,3.051407170340578e-06,0.1961469434429744,-1.1265269766493648e-05
0.1969410606229055,-1.383381988054434e-05,0.1969410606229055,-2.8769285958908823e-05,0.1969410606229055,-2.655285957016708e-07,0.1969410606229055,-1.3615336023891132e-05
0.1977351778028366,-1.2253e-05,0.1977351778028366,-1.1301395953704082e-05,0.1977351778028366,-1.5897544025488324e-06,0.1977351778028366,-1.4188085597451169e-05
0.1985292949827676,-6.822571379900383e-06,0.1985292949827676,1.1722755281838398e-05,0.1985292949827676,-3.455713767808687e-07,0.1985292949827676,-1.1640837437144665e-05
0.1993234121626987,-5.3814340020005465e-06,0.1993234121626987,2.6484698740728525e-05,0.1993234121626987,1.6887457705018916e-06,0.1993234121626987,-9.329935639330812e-06
0.2001175293426297,-6.803171399229327e-06,0.2001175293426297,3.180214566659432e-05,0.2001175293426297,1.332237201541345e-06,0.2001175293426297,-7.631867429358685e-06
0.2009116465225608,-8.619720269349147e-06,0.2009116465225608,2.6705698695132617e-05,0.2009116465225608,-2.834109788501416e-06,0.2009116465225608,-1.0752734923175987e-05
0.2017057637024919,-6.091946383278864e-06,0.2017057637024919,1.3941875896213004e-05,0.2017057637024919,-8.590001849647489e-07,0.2017057637024919,-1.098919552274787e-05
0.202499880882423,-4.19623e-06,0.202499880882423,-5.535948104668155e-06,0.202499880882423,3.8599293278904005e-06,0.202499880882423,-7.218120672109599e-06
0.203293998062354,-6.486196705695522e-06,0.203293998062354,-1.4189570223102791e-05,0.203293998062354,-7.688437451856537e-07,0.203293998062354,-7.355406879708646e-06
0.2040881152422851,-8.09586931237138e-06,0.2040881152422851,-1.7546283338457586e-05,0.2040881152422851,-1.0576157618905498e-06,0.2040881152422851,-9.981324514737547e-06
0.2048822324222162,-9.13092269355621e-06,0.2048822324222162,-8.779051714315008e-06,0.2048822324222162,-5.20218740107503e-07,0.2048822324222162,-1.2784461549870715e-05
0.2056763496021472,-1.2567158730997993e-05,0.2056763496021472,1.235296476124865e-05,0.2056763496021472,-5.398401855224698e-06,0.2056763496021472,-1.2886401057501674e-05
0.2064704667820783,-9.806092440409344e-06,0.2064704667820783,1.0619307868136046e-05,0.2064704667820783,-4.473722290853563e-06,0.2064704667820783,-1.1797956424288696e-05
0.2072645839620094,-6.092005828176308e-06,0.2072645839620094,-7.13846184149973e-06,0.2072645839620094,-4.433058343647385e-06,0.2072645839620094,-1.4681842781215796e-05
0.2080587011419405,-6.496849964244236e-06,0.2080587011419405,-1.7680439333735624e-05,0.2080587011419405,-4.413350035755764e-06,0.2080587011419405,-1.4622608014302304e-05
0.2088528183218715,-7.434691420757591e-06,0.2088528183218715,-2.4293765638356503e-05,0.2088528183218715,-8.790172977445529e-07,0.2088528183218715,-1.308270005469686e-05
0.2096469355018026,-7.434869144182485e-06,0.2096469355018026,-4.201315378897123e-05,0.2096469355018026,1.5299925674525426e-06,0.2096469355018026,-1.1620305134905084e-05
0.2104410526817337,-5.460908836490229e-06,0.2104410526817337,-6.314230887429611e-05,0.2104410526817337,1.2530611635097717e-06,0.2104410526817337,-1.49386e-05
0.2112351698616647,-3.683070246519913e-06,0.2112351698616647,-6.681437523950592e-05,0.2112351698616647,4.57037137079027e-06,0.2112351698616647,-1.416886036977987e-05
0.2120292870415958,-6.960762946422144e-06,0.2120292870415958,-6.990452089628315e-05,0.2120292870415958,1.7674018772742997e-06,0.2120292870415958,-1.5728456865490642e-05
0.2128234042215269,-1.025828575303578e-05,0.2128234042215269,-6.415401404376367e-05,0.2128234042215269,-1.51064e-06,0.2128234042215269,-1.61820759291018e-05
0.2136175214014579,-7.789199028811504e-06,0.2136175214014579,-5.028873777224373e-05,0.2136175214014579,-2.879987825418276e-08,0.2136175214014579,-1.49386e-05
0.214411638581389,-5.005780598339115e-06,0.214411638581389,-3.566964607069137e-05,0.214411638581389,2.2414388033217705e-06,0.214411638581389,-1.851314288397061e-05
0.2152057557613201,-3.406402247217914e-06,0.2152057557613201,-1.653103341243159e-05,0.2152057557613201,2.71519767344155e-06,0.2152057557613201,-1.68343693062338e-05
0.2159998729412512,1.6739134611112737e-07,0.2159998729412512,6.542257357729133e-06,0.2159998729412512,3.52473847134896e-06,0.2159998729412512,-1.4602991531377625e-05
0.2167939901211822,-2.259968008913129e-06,0.2167939901211822,2.0805756338886582e-05,0.2167939901211822,2.0441645863187583e-06,0.2167939901211822,-1.2392344637781e-05
0.2175881073011133,-3.248899826033383e-06,0.2175881073011133,2.1953899252483537e-05,0.2175881073011133,1.07607946111583e-06,0.2175881073011133,-9.588098564010434e-06
0.2183822244810444,-2.4869018532437194e-06,0.2183822244810444,1.1010073116232036e-05,0.2183822244810444,1.2532331539209097e-06,0.2183822244810444,-8.935156576960455e-06
0.2191763416609755,-4.0771381355771296e-06,0.2191763416609755,-1.0201678062681722e-06,0.2191763416609755,3.917487282198336e-06,0.2191763416609755,-8.403247796634305e-06
0.2199704588409065,-4.522234435853373e-06,0.2199704588409065,-2.71530528826862e-05,0.2199704588409065,5.519634160523077e-06,0.2199704588409065,-6.88182e-06
0.2207645760208376,-4.551881757981175e-06,0.2207645760208376,-8.063595568739758e-05,0.2207645760208376,3.574276760659697e-06,0.2207645760208376,-1.1284933544542357e-05
0.2215586932007686,-2.8928669073890738e-06,0.2215586932007686,-0.0001137637962009,0.2215586932007686,3.821103092610926e-06,0.2215586932007686,-1.35958e-05
0.2223528103806997,-3.307670781296549e-06,0.2223528103806997,-0.0001114672303764,0.2223528103806997,4.847727063231688e-06,0.2223528103806997,-1.35958e-05
0.2231469275606308,-4.017552334302846e-06,0.2231469275606308,-9.734181353378874e-05,0.2231469275606308,4.256572542893335e-06,0.2231469275606308,-1.5234445180390124e-05
0.2239410447405619,-6.8232463264088525e-06,0.2239410447405619,-6.817085075716099e-05,0.2239410447405619,-9.951310563772777e-08,0.2239410447405619,-1.62814e-05
0.2247351619204929,-4.591856862814869e-06,0.2247351619204929,-2.198403157663366e-05,0.2247351619204929,2.546537293214092e-06,0.2247351619204929,-1.49985292198552e-05
0.225529279100424,-6.664548261935123e-06,0.225529279100424,2.226976862626025e-05,0.225529279100424,2.735006443624972e-06,0.225529279100424,-1.2095034347612975e-05
0.2263233962803551,-5.755023474497607e-06,0.2263233962803551,5.978414612259965e-05,0.2263233962803551,-1.0766735340840438e-06,0.2263233962803551,-1.3438171446235268e-05
0.2271175134602862,-1.667983065651003e-06,0.2271175134602862,7.260008515249667e-05,0.2271175134602862,-2.7747684671744983e-06,0.2271175134602862,-1.397083576641275e-05
0.2279116306402172,-4.433783464647357e-06,0.2279116306402172,6.726654715655127e-05,0.2279116306402172,-2.695280828382108e-06,0.2279116306402172,-1.540274492562022e-05
0.2287057478201483,-7.94810947401501e-06,0.2287057478201483,3.0494366078895228e-05,0.2287057478201483,-3.456328341152358e-07,0.2287057478201483,-1.371439206663622e-05
0.2294998650000794,-1.0406262354012751e-05,0.2294998650000794,-1.66099397238643e-05,0.2294998650000794,3.1884592371171102e-06,0.2294998650000794,-1.0910394504177453e-05
0.2302939821800104,-1.0111441464233308e-05,0.2302939821800104,-1.5685330898714225e-05,0.2302939821800104,5.577968868100505e-06,0.2302939821800104,-1.2489781973826908e-05
0.2310880993599415,-9.378891369758518e-06,0.2310880993599415,-8.254098964890454e-06,0.2310880993599415,7.0289849311038975e-06,0.2310880993599415,-1.1029754364452686e-05
0.2318822165398726,-8.977295680293244e-06,0.2318822165398726,-3.385261066220271e-05,0.2318822165398726,8.56031e-06,0.2318822165398726,-8.22461e-06
0.2326763337198036,-5.254713970042016e-06,0.2326763337198036,-6.671883103307595e-05,0.2326763337198036,8.698384173538729e-06,0.2326763337198036,-8.22461e-06
0.2334704508997347,-6.229799686871063e-06,0.2334704508997347,-7.434082728598578e-05,0.2334704508997347,4.593192299500986e-06,0.2334704508997347,-9.448003928531742e-06
0.2342645680796658,-3.249058389844771e-06,0.2342645680796658,-4.020633243656721e-05,0.2342645680796658,-6.414349226399318e-07,0.2342645680796658,-1.1996231339793606e-05
0.2350586852595969,7.800878527177187e-07,0.2350586852595969,2.080398983668735e-05,0.2350586852595969,-4.235903965270576e-06,0.2350586852595969,-1.2253e-05
0.2358528024395279,5.922101946686893e-07,0.2358528024395279,7.394592473163654e-05,0.2358528024395279,-9.17194665483235e-06,0.2358528024395279,-1.2470159954730189e-05
0.236646919619459,2.0830187795801945e-06,0.236646919619459,0.000106052520037,0.236646919619459,-1.1798960610209903e-05,0.236646919619459,-1.2687721220419806e-05
0.2374410367993901,3.070086480688519e-06,0.2374410367993901,9.781164386243992e-05,0.2374410367993901,-1.012168763233639e-05,0.2374410367993901,-1.1562081175149971e-05
0.2382351539793211,3.86053e-06,0.2382351539793211,4.35729622016818e-05,0.2382351539793211,-6.172077803035665e-06,0.2382351539793211,-9.449928595564263e-06
0.2390292711592522,-5.626098376557601e-07,0.2390292711592522,-7.113118912271513e-06,0.2390292711592522,-1.7279431648542068e-06,0.2390292711592522,-9.35010495298992e-06
0.2398233883391833,-6.922633600427603e-06,0.2398233883391833,-3.9743707863455245e-05,0.2398233883391833,1.4123457121359418e-06,0.2398233883391833,-9.586881429915036e-06
0.2406175055191144,-1.4980536009176936e-05,0.2406175055191144,-6.680805043150235e-05,0.2406175055191144,1.6286644982793245e-06,0.2406175055191144,-9.488727001147116e-06
0.2414116226990454,-2.907901045520296e-05,0.2414116226990454,-8.423338589957257e-05,0.2414116226990454,1.6984768903579787e-06,0.2414116226990454,-1.2826203485067652e-05
0.2422057398789765,-3.565318262930662e-05,0.2422057398789765,-9.03688132942896e-05,0.2422057398789765,5.0255139128243325e-06,0.2422057398789765,-1.736740812994624e-05
0.2429998570589076,-3.3234869307861874e-05,0.2429998570589076,-9.21492e-05,0.2429998570589076,7.552808108800677e-06,0.2429998570589076,-1.594631783679898e-05
0.2437939742388386,-3.315470533598583e-05,0.2437939742388386,-8.121560234935097e-05,0.2437939742388386,7.849988330769825e-06,0.2437939742388386,-1.5511076240813204e-05
0.2445880914187697,-2.876664215841057e-05,0.2445880914187697,-6.809568253504052e-05,0.2445880914187697,6.288587027619384e-06,0.2445880914187697,-1.4524732972380616e-05
0.2453822085987008,-1.7389389334401787e-05,0.2453822085987008,-7.749488036644824e-05,0.2453822085987008,7.810640943910246e-06,0.2453822085987008,-1.4493708495281132e-05
0.2461763257786318,-1.616228525273271e-05,0.2461763257786318,-8.62221942682915e-05,0.2461763257786318,6.38909212090094e-06,0.2461763257786318,-1.3005601615435526e-05
0.2469704429585629,-1.2788822281857864e-05,0.2469704429585629,-6.597731885091912e-05,0.2469704429585629,3.733031736215533e-06,0.2469704429585629,-1.1145838859071067e-05
0.247764560138494,-4.789238969792199e-06,0.247764560138494,-4.23479895381233e-05,0.247764560138494,-7.697870240929945e-07,0.247764560138494,-1.6715479149574074e-05
0.2485586773184251,-1.8759278200151465e-06,0.2485586773184251,-2.718709487019849e-05,0.2485586773184251,-9.181465008229936e-07,0.2485586773184251,-1.8285734455405536e-05
0.2493527944983561,-9.777282880931955e-07,0.2493527944983561,-2.54410090238424e-05,0.2493527944983561,-1.1550054901903255e-06,0.2493527944983561,-1.7298436323930836e-05
0.2501469116782872,1.4502144342252478e-06,0.2501469116782872,-3.365905319309891e-05,0.2501469116782872,-6.02579743941921e-07,0.2501469116782872,-1.773285079652345e-05
0.2509410288582183,8.91154507178725e-06,0.2509410288582183,-3.987909189943054e-05,0.2509410288582183,5.425737186599428e-07,0.2509410288582183,-1.6222860724491163e-05
0.2517351460381494,1.8964466148315044e-05,0.2517351460381494,-3.735313053936905e-05,0.2517351460381494,9.183818709645394e-07,0.2517351460381494,-1.5145980429602394e-05
0.2525292632180804,2.5897850531577926e-05,0.2525292632180804,-3.417202307395144e-05,0.2525292632180804,3.35698e-07,0.2525292632180804,-1.5294091578070346e-05
0.2533233803980115,2.8108742926771225e-05,0.2533233803980115,-3.018666231663572e-05,0.2533233803980115,-9.57936353953936e-07,0.2533233803980115,-1.1778236109236676e-05
0.2541174975779426,2.030729123053157e-05,0.2541174975779426,-2.0509636965861044e-05,0.2541174975779426,-6.215887596443715e-07,0.2541174975779426,-9.271057232440151e-06
0.2549116147578736,2.127796318431415e-05,0.2549116147578736,-1.395031409285034e-05,0.2549116147578736,-7.010790257820882e-07,0.2549116147578736,-1.1799065490847197e-05
0.2557057319378047,2.844522801447637e-05,0.2557057319378047,-1.1937698221498896e-05,0.2557057319378047,-1.51064e-06,0.2557057319378047,-1.181858836232033e-05
0.2564998491177358,3.3401239145423605e-05,0.2564998491177358,-8.561188341186807e-06,0.2564998491177358,1.1740704583883183e-06,0.2564998491177358,-9.232470851338585e-06
0.2572939662976669,2.9217953906406123e-05,0.2572939662976669,-4.813213537191702e-07,0.2572939662976669,2.715598984401021e-06,0.2572939662976669,-6.033674514041212e-06
0.2580880834775979,1.840160148565509e-05,0.2580880834775979,6.623953897656476e-06,0.2580880834775979,1.84634e-06,0.2580880834775979,-7.176065490693838e-06
0.258882200657529,3.944991895541943e-06,0.258882200657529,5.322589989384702e-06,0.258882200657529,2.7916444798299074e-06,0.258882200657529,-1.0043154276008793e-05
0.2596763178374601,-2.5745682118506653e-06,0.2596763178374601,-2.084625663761397e-06,0.2596763178374601,6.248306302571599e-06,0.2596763178374601,-7.317702150256027e-06
0.2604704350173911,-1.0216135453589683e-05,0.2604704350173911,-8.439443856190356e-06,0.2604704350173911,4.809554876225145e-06,0.2604704350173911,-9.999888731828156e-06
0.2612645521973222,-2.141349334045706e-05,0.2612645521973222,-1.0752153599081306e-05,0.2612645521973222,1.3928457180974048e-06,0.2612645521973222,-1.37636e-05
0.2620586693772533,-4.359211329148291e-05,0.2620586693772533,-1.5132299325305864e-05,0.2620586693772533,-4.650590177827016e-06,0.2620586693772533,-1.2341786319830396e-05
0.2628527865571843,-5.865804244351385e-05,0.2628527865571843,-2.19676728522764e-05,0.2628527865571843,-3.6832970476087176e-06,0.2628527865571843,-1.146304848870277e-05
0.2636469037371154,-3.988715528869451e-05,0.2636469037371154,-1.991466931749113e-05,0.2636469037371154,-1.4856563863663925e-07,0.2636469037371154,-1.049605579164224e-05
0.2644410209170465,-1.1195530745256626e-05,0.2644410209170465,-1.23810874631866e-05,0.2644410209170465,1.963383571840792e-06,0.2644410209170465,-9.60642413655027e-06
0.2652351380969776,7.4305577938785775e-06,0.2652351380969776,-1.2045045183312088e-05,0.2652351380969776,3.86053e-06,0.2652351380969776,-1.0751913987791304e-05
0.2660292552769086,1.46029e-05,0.2660292552769086,-8.737680245366554e-06,0.2660292552769086,3.100264245126852e-06,0.2660292552769086,-1.1739548490253705e-05
0.2668233724568397,9.1902267391595e-06,0.2668233724568397,-2.778817425062662e-06,0.2668233724568397,4.53193e-06,0.2668233724568397,-1.23123399866118e-05
0.2676174896367708,-4.180157587262787e-06,0.2676174896367708,8.606737514937707e-07,0.2676174896367708,3.346550689549619e-06,0.2676174896367708,-1.1996005930907748e-05
0.2684116068167018,-1.971906171761196e-05,0.2684116068167018,-1.0991834039944966e-05,0.2684116068167018,-6.816037568152326e-07,0.2684116068167018,-1.397138528724236e-05
0.2692057239966329,-2.978846457200411e-05,0.2692057239966329,-2.261321384713611e-05,0.2692057239966329,-2.18204e-06,0.2692057239966329,-1.679468536783595e-05
0.269999841176564,-2.0983717078802565e-05,0.269999841176564,-3.172185631514544e-05,0.269999841176564,-1.5108688284440767e-06,0.269999841176564,-1.6617443242666115e-05
0.270793958356495,-1.1238710804731092e-05,0.270793958356495,-3.820178786657782e-05,0.270793958356495,-1.3127713178508734e-06,0.270793958356495,-1.2026793777803302e-05
0.2715880755364261,-5.067808224768196e-06,0.2715880755364261,-4.325401510195741e-05,0.2715880755364261,-1.495282380924014e-07,0.2715880755364261,-1.4522313699908126e-05
0.2723821927163572,-1.5964299644641835e-07,0.2723821927163572,-4.712544999770936e-05,0.2723821927163572,1.253187289811242e-06,0.2723821927163572,-1.5117805420377517e-05
0.2731763098962882,1.7272023698883245e-06,0.2731763098962882,-6.155665999231444e-05,0.2731763098962882,2.398602369888324e-06,0.2731763098962882,-1.3103106445167511e-05
0.2739704270762193,-4.192815005868052e-06,0.2739704270762193,-9.264778571778062e-05,0.2739704270762193,2.8147445629258786e-06,0.2739704270762193,-1.2569354637395596e-05
0.2747645442561504,-1.538135239571192e-05,0.2747645442561504,-0.0001064660110486,0.2747645442561504,2.793937271075976e-06,0.2747645442561504,-1.2825442532980933e-05
0.2755586614360815,-2.538485568869834e-05,0.2755586614360815,-8.961444109952331e-05,0.2755586614360815,4.166624980943728e-06,0.2755586614360815,-1.4227726641258304e-05
0.2763527786160125,-2.70237e-05,0.2763527786160125,-5.859245962601922e-05,0.2763527786160125,5.637609043020751e-06,0.2763527786160125,-1.3507168013301684e-05
0.2771468957959436,-2.708287871857837e-05,0.2771468957959436,-3.406323991607185e-05,0.2771468957959436,3.822000380146701e-06,0.2771468957959436,-1.1492210044417676e-05
0.2779410129758747,-2.5544388619337687e-05,0.2779410129758747,-2.500874144091956e-05,0.2779410129758747,1.0189281553772097e-06,0.2779410129758747,-1.5332804877426706e-05
0.2787351301558057,-2.2176557482059728e-05,0.2787351301558057,-1.2692899809017674e-05,0.2787351301558057,-3.0499399968291517e-06,0.2787351301558057,-1.5768297453630942e-05
0.2795292473357368,-1.8848686152286905e-05,0.2795292473357368,4.0593767520887e-06,0.2795292473357368,-3.811285011479281e-06,0.2795292473357368,-1.462271446091476e-05
0.2803233645156679,-1.635945734099323e-05,0.2803233645156679,2.2114884446206904e-05,0.2803233645156679,-3.3671410302231545e-06,0.2803233645156679,-1.561e-05
0.2811174816955989,-1.1225069587740531e-05,0.2811174816955989,5.150087626247198e-05,0.2811174816955989,-2.418191018368748e-06,0.2811174816955989,-1.4128293492337835e-05
0.2819115988755301,-1.2707382946369451e-05,0.2819115988755301,7.469572713995643e-05,0.2819115988755301,-1.4911469758843867e-06,0.2819115988755301,-1.0929696317038183e-05
0.2827057160554611,-1.1266001223607695e-05,0.2827057160554611,6.444797852246892e-05,0.2827057160554611,-4.808227832304913e-06,0.2827057160554611,-1.0051164958129503e-05
0.2834998332353922,-8.224850269866245e-06,0.2834998332353922,4.532312925599308e-05,0.2834998332353922,-7.552619325334388e-06,0.2834998332353922,-1.0910019815493514e-05
0.2842939504153233,-6.231610812989419e-06,0.2842939504153233,2.9765177796006423e-05,0.2842939504153233,-7.277580885608652e-06,0.2842939504153233,-1.5825572334176903e-05
0.2850880675952543,-3.938645430496008e-06,0.2850880675952543,1.626702976669744e-05,0.2850880675952543,-6.399035331087991e-06,0.2850880675952543,-1.774384609267199e-05
0.2858821847751854,-4.945865823783785e-06,0.2858821847751854,1.0377100136744256e-05,0.2858821847751854,-2.69696835243243e-06,0.2858821847751854,-1.4821246264324324e-05
0.2866763019551165,-5.53903e-06,0.2866763019551165,1.488130306150509e-05,0.2866763019551165,-2.3390163926992343e-06,0.2866763019551165,-1.1998621750368453e-05
0.2874704191350475,-2.776099603235184e-06,0.2874704191350475,3.0232566274054264e-05,0.2874704191350475,-1.1169429956210283e-06,0.2874704191350475,-5.984573524417456e-06
0.2882645363149786,5.951981101666616e-08,0.2882645363149786,3.920834054006809e-05,0.2882645363149786,1.2538484569491866e-06,0.2882645363149786,-5.696844563333674e-06
0.2890586534949096,-4.7887007861478095e-06,0.2890586534949096,2.3460543036962283e-05,0.2890586534949096,1.51064e-06,0.2890586534949096,-7.632229144269407e-06
0.2898527706748408,-8.007472977324632e-06,0.2898527706748408,-1.893019083287012e-06,0.2898527706748408,3.909135247229438e-06,0.2898527706748408,-7.908905400160452e-06
0.2906468878547718,-8.243859373205851e-06,0.2906468878547718,-3.4764826813471104e-05,0.2906468878547718,8.066384686602926e-06,0.2906468878547718,-5.973790608999429e-06
0.2914410050347029,-1.0394767142361389e-05,0.2914410050347029,-7.759816174708084e-05,0.2914410050347029,7.139536428819306e-06,0.2914410050347029,-6.288403571180694e-06
0.292235122214634,-1.407881677559245e-05,0.292235122214634,-9.44381207454927e-05,0.292235122214634,3.822370864427661e-06,0.292235122214634,-9.09248567273306e-06
0.293029239394565,-1.80583593418206e-05,0.293029239394565,-0.0001020440039676,0.293029239394565,2.991546441786505e-06,0.293029239394565,-1.09102e-05
0.2938233565744961,-2.0704828545189587e-05,0.2938233565744961,-0.0001239679710805,0.2938233565744961,5.10494241344988e-06,0.2938233565744961,-1.1848569616810807e-05
0.2946174737544272,-2.157387113703749e-05,0.2946174737544272,-0.0001253478186702,0.2946174737544272,7.692089015201155e-06,0.2946174737544272,-1.5018425332334685e-05
0.2954115909343582,-2.0665024982106827e-05,0.2954115909343582,-0.0001086350800737,0.2954115909343582,7.691400880097374e-06,0.2954115909343582,-1.69528e-05
0.2962057081142893,-1.9164388877277048e-05,0.2962057081142893,-9.62446839667838e-05,0.2962057081142893,5.756567430851251e-06,0.2962057081142893,-1.6084011122722952e-05
0.2969998252942204,-2.0309548288711587e-05,0.2969998252942204,-7.771905910968791e-05,0.2969998252942204,2.5182434188277736e-06,0.2969998252942204,-1.561e-05
0.2977939424741515,-1.936278676496646e-05,0.2977939424741515,-4.216033337160474e-05,0.2977939424741515,1.0955857361886193e-07,0.2977939424741515,-1.8709019852550305e-05
0.2985880596540825,-1.4823974330362436e-05,0.2985880596540825,1.1218852143161566e-05,0.2985880596540825,-1.984272743818274e-06,0.2985880596540825,-1.8415269024726902e-05
0.2993821768340136,-7.540150364910342e-06,0.2993821768340136,9.16040242414049e-05,0.2993821768340136,-2.0255919835429464e-06,0.2993821768340136,-1.446925385346107e-05
0.3001762940139447,4.691130559036287e-06,0.3001762940139447,0.0001553028910958,0.3001762940139447,1.2316405611439052e-06,0.3001762940139447,-6.768420297557444e-06
0.3009704111938757,1.6298894457709426e-05,0.3009704111938757,0.0001474436380637,0.3009704111938757,2.903545948213818e-06,0.3009704111938757,-3.918502151486213e-06
0.3017645283738068,2.2263709330913983e-05,0.3017645283738068,6.81829452942112e-05,0.3017645283738068,4.447341991250695e-07,0.3017645283738068,-8.855829539510289e-06
0.3025586455537379,2.755686298221216e-05,0.3025586455537379,-3.2996119692031027e-06,0.3025586455537379,-3.998749487245635e-06,0.3025586455537379,-1.4069718546017376e-05
0.3033527627336689,2.9255031289661665e-05,0.3033527627336689,-3.248651876777052e-05,0.3033527627336689,-5.10476742067667e-06,0.3033527627336689,-1.9164125158646666e-05
0.3041468799136,3.290660724721555e-05,0.3041468799136,-4.7639508762780666e-05,0.3041468799136,-3.782145987773775e-06,0.3041468799136,-1.7269267825835335e-05
0.3049409970935311,3.727224798280402e-05,0.3049409970935311,-6.677616882867677e-05,0.3049409970935311,-1.432679883398451e-06,0.3049409970935311,-1.4476211058507063e-05
0.3057351142734621,3.576285288385872e-05,0.3057351142734621,-8.888364090447009e-05,0.3057351142734621,6.017666743184554e-07,0.3057351142734621,-1.2292568293804817e-05
0.3065292314533932,3.0124349375036875e-05,0.3065292314533932,-8.86923619618767e-05,0.3065292314533932,2.635991936064326e-06,0.3065292314533932,-1.4306467453853623e-05
0.3073233486333243,2.384329812868151e-05,0.3073233486333243,-7.10902251856711e-05,0.3073233486333243,4.4726071755214975e-06,0.3073233486333243,-1.5254063053128989e-05
0.3081174658132554,1.508461357805828e-05,0.3081174658132554,-6.176038456915581e-05,0.3081174658132554,4.19623e-06,0.3081174658132554,-1.1817820986969902e-05
0.3089115829931864,6.762855884949133e-06,0.3089115829931864,-5.6110217882582686e-05,0.3089115829931864,6.388379739884207e-06,0.3089115829931864,-6.920929061361399e-06
0.3097057001731175,2.1229851775004954e-06,0.3097057001731175,-4.409479734640021e-05,0.3097057001731175,8.461621294375125e-06,0.3097057001731175,-4.788359293960587e-06
0.3104998173530486,-8.384565473552671e-07,0.3104998173530486,-3.239726279697818e-05,0.3104998173530486,7.553483148791197e-06,0.3104998173530486,-7.720477906401014e-06
0.3112939345329796,-8.99127005484785e-06,0.3112939345329796,-3.49245007880211e-05,0.3112939345329796,4.2174940221429575e-06,0.3112939345329796,-9.842993250623074e-06
0.3120880517129107,-1.6386813070253634e-05,0.3120880517129107,-5.0706475223626745e-05,0.3120880517129107,4.352392064827755e-06,0.3120880517129107,-1.1758538070206502e-05
0.3128821688928418,-2.200454636355637e-05,0.3128821688928418,-7.666270620435031e-05,0.3128821688928418,6.163185712667591e-06,0.3128821688928418,-1.4501838675187094e-05
0.3136762860727728,-2.5226028045621678e-05,0.3136762860727728,-0.0001040277660216,0.3136762860727728,2.3230260425363208e-06,0.3136762860727728,-1.6557514022810838e-05
0.314470403252704,-2.639092207667571e-05,0.314470403252704,-9.193038310494052e-05,0.314470403252704,3.6466491369506017e-07,0.314470403252704,-1.835353311501357e-05
0.315264520432635,-2.909668507763494e-05,0.315264520432635,-4.399036896386181e-05,0.315264520432635,1.490528062107953e-06,0.315264520432635,-2.0191442725590137e-05
0.3160586376125661,-3.164448448635219e-05,0.3160586376125661,-9.025924316372964e-06,0.3160586376125661,2.8336861215880467e-06,0.3160586376125661,-1.9016381753837684e-05
0.3168527547924971,-3.3619125556647935e-05,0.3168527547924971,-1.7135695612102185e-05,0.3168527547924971,1.8663633300561896e-06,0.3168527547924971,-1.8058451113295877e-05
0.3176468719724282,-3.17235e-05,0.3176468719724282,-5.206239725909529e-05,0.3176468719724282,2.970233897096294e-06,0.3176468719724282,-1.7822380033168536e-05
0.3184409891523593,-3.27306e-05,0.3184409891523593,-8.062779014371025e-05,0.3184409891523593,5.757814019805114e-06,0.3184409891523593,-1.699176885353559e-05
0.3192351063322903,-3.27306e-05,0.3192351063322903,-8.637416546135303e-05,0.3192351063322903,2.193065919933808e-06,0.3192351063322903,-1.634152944474386e-05
0.3200292235122214,-2.917684149626941e-05,0.3200292235122214,-6.13218639891003e-05,0.3200292235122214,-6.90379998038271e-08,0.3200292235122214,-1.183876953331605e-05
0.3208233406921525,-1.9716628962326217e-05,0.3208233406921525,-1.9368977341454483e-05,0.3208233406921525,-3.84914322555536e-07,0.3208233406921525,-8.105977559432885e-06
0.3216174578720835,-1.7249124102491288e-05,0.3216174578720835,1.171422654891754e-05,0.3216174578720835,-1.284733370810853e-07,0.3216174578720835,-9.923795165828276e-06
0.3224115750520147,-1.4977764624487425e-05,0.3224115750520147,2.3371513520066795e-05,0.3224115750520147,-6.368757146394932e-06,0.3224115750520147,-1.438581415020503e-05
0.3232056922319457,-6.033330207902011e-06,0.3232056922319457,4.136501172615048e-05,0.3232056922319457,-7.672169125735454e-06,0.3232056922319457,-1.1266173213506416e-05
0.3239998094118768,-2.8535772970664538e-06,0.3239998094118768,7.032091034941982e-05,0.3239998094118768,-2.854538372441758e-06,0.3239998094118768,-7.050425129775623e-06
0.3247939265918079,-2.705002764096469e-06,0.3247939265918079,0.0001026981830726,0.3247939265918079,-2.715656314538041e-06,0.3247939265918079,-4.1185789436141245e-06
0.3255880437717389,-5.299596113858969e-06,0.3255880437717389,9.840749545733555e-05,0.3255880437717389,-1.409136802496687e-06,0.3255880437717389,-3.129278447113585e-06
0.32638216095167,-7.869360808326256e-06,0.32638216095167,7.19713373978799e-05,0.32638216095167,-8.240815250905437e-06,0.32638216095167,-6.265725963756223e-06
0.3271762781316011,-7.583015848950123e-06,0.3271762781316011,6.798224713019847e-05,0.3271762781316011,-1.1462416604199509e-05,0.3271762781316011,-1.1992784796144928e-05
0.3279703953115321,-3.409037705959133e-06,0.3279703953115321,0.0001042370180802,0.3279703953115321,-9.312707101332609e-06,0.3279703953115321,-1.2214400806168698e-05
0.3287645124914632,5.517240140973398e-06,0.3287645124914632,0.000150025946973,0.3287645124914632,-2.2223117565209597e-06,0.3287645124914632,-1.15816e-05
0.3295586296713942,1.6281186605763413e-05,0.3295586296713942,0.0001479277105291,0.3295586296713942,-1.67849e-07,0.3295586296713942,-1.1265659611425682e-05
0.3303527468513254,1.7762820705463005e-05,0.3303527468513254,8.937165323060517e-05,0.3303527468513254,-1.9448796472684965e-06,0.3303527468513254,-1.09102e-05
0.3311468640312564,1.6380501482611722e-05,0.3311468640312564,-1.5923351906215312e-05,0.3311468640312564,-4.843499858964162e-07,0.3311468640312564,-1.2291395552164827e-05
0.3319409812111875,1.271013494894635e-05,0.3319409812111875,-9.955708770037905e-05,0.3319409812111875,-3.064801334412281e-07,0.3319409812111875,-1.5687914775016272e-05
0.3327350983911186,5.127271037750302e-06,0.3327350983911186,-0.0001438922427996,0.3327350983911186,1.7070124646041804e-06,0.3327350983911186,-1.69528e-05
0.3335292155710496,-1.470922724274733e-06,0.3335292155710496,-0.0001458206942426,0.3335292155710496,3.662894955897808e-06,0.3335292155710496,-1.5471940339905387e-05
0.3343233327509807,-3.940007914596599e-06,0.3343233327509807,-0.0001149408807611,0.3343233327509807,6.54612e-06,0.3343233327509807,-1.4029954467774952e-05
0.3351174499309118,-9.13421323737341e-06,0.3351174499309118,-6.919493499095121e-05,0.3351174499309118,4.76821861001461e-06,0.3351174499309118,-1.0553853044179167e-05
0.3359115671108428,-1.3181193413612588e-05,0.3359115671108428,-5.3978023129962034e-05,0.3359115671108428,5.0455109440615015e-06,0.3359115671108428,-8.955305609075059e-06
0.3367056842907739,-1.5490995156376774e-05,0.3367056842907739,-5.937050627811297e-05,0.3367056842907739,9.33038723959742e-06,0.3367056842907739,-9.764761539747724e-06
0.337499801470705,-2.131532680444708e-05,0.337499801470705,-4.6498887050966624e-05,0.337499801470705,7.88962508888769e-06,0.337499801470705,-1.0574356982222465e-05
0.338293918650636,-2.346877221943456e-05,0.338293918650636,-3.812174620816387e-05,0.338293918650636,2.0656120645584813e-06,0.338293918650636,-1.235196389028272e-05
0.3390880358305671,-2.574987831387574e-05,0.3390880358305671,-4.100653319859682e-05,0.3390880358305671,2.8507680223085035e-06,0.3390880358305671,-1.0457463615313012e-05
0.3398821530104982,-2.5247468373311605e-05,0.3398821530104982,-3.91089e-05,0.3398821530104982,6.467930040325802e-06,0.3398821530104982,-8.107326225069575e-06
0.3406762701904293,-2.1606964018830037e-05,0.3406762701904293,-5.364637472011885e-05,0.3406762701904293,4.080061445655891e-06,0.3406762701904293,-7.631673872082993e-06
0.3414703873703603,-1.671744145577309e-05,0.3414703873703603,-8.155246333356121e-05,0.3414703873703603,2.874759560056436e-07,0.3414703873703603,-9.20084857673736e-06
0.3422645045502914,-1.0684461198766426e-05,0.3422645045502914,-8.208014039283912e-05,0.3422645045502914,-1.35287026172021e-06,0.3422645045502914,-1.2607973334056382e-05
0.3430586217302225,-4.532084838954649e-06,0.3430586217302225,-6.23830452610269e-05,0.3430586217302225,4.24486975510517e-07,0.3430586217302225,-1.2973810417198448e-05
0.3438527389101535,-4.451350360399741e-07,0.3438527389101535,-3.65932802412548e-05,0.3438527389101535,2.73485409062052e-06,0.3438527389101535,-1.2015828181241038e-05
0.3446468560900846,3.345791155976265e-06,0.3446468560900846,-1.5146468414404697e-05,0.3446468560900846,1.935862660118426e-06,0.3446468560900846,-1.33975741027218e-05
0.3454409732700157,4.315397598149051e-06,0.3454409732700157,-1.8454355087884416e-05,0.3454409732700157,1.1359945425754989e-06,0.3454409732700157,-1.624245407851924e-05
0.3462350904499467,2.4987469629098474e-06,0.3462350904499467,-3.5982629713707016e-05,0.3462350904499467,1.5296325653753453e-06,0.3462350904499467,-1.3814341312596796e-05
0.3470292076298778,-9.574155963117407e-07,0.3470292076298778,-3.474445737389242e-05,0.3470292076298778,3.603787082993549e-06,0.3470292076298778,-1.2213256663948394e-05
0.3478233248098089,-4.670673532134601e-06,0.3478233248098089,-2.898091255659613e-05,0.3478233248098089,4.492756545099069e-06,0.3478233248098089,-1.4780816987035531e-05
0.34861744198974,-8.067061719146188e-06,0.34861744198974,-2.9985417441062493e-05,0.34861744198974,6.467345272927822e-06,0.34861744198974,-1.5017374727072176e-05
0.349411559169671,-7.632139668421493e-06,0.349411559169671,-3.227676142495463e-05,0.349411559169671,3.14949138232629e-06,0.349411559169671,-1.3200815856952398e-05
0.3502056763496021,-5.736370073891126e-06,0.3502056763496021,-3.8116124004666e-05,0.3502056763496021,2.379383013167461e-06,0.3502056763496021,-1.3161428493416267e-05
0.3509997935295332,-7.552625046045512e-06,0.3509997935295332,-4.179409935181678e-05,0.3509997935295332,2.5178887384886216e-06,0.3509997935295332,-1.2253297476977245e-05
0.3517939107094642,-6.221113681537573e-06,0.3517939107094642,-3.8179938291899264e-05,0.3517939107094642,6.520030245760313e-07,0.3517939107094642,-1.463098270778915e-05
0.3525880278893953,-7.235664950690748e-06,0.3525880278893953,-3.677842266371874e-05,0.3525880278893953,1.52879259394141e-06,0.3525880278893953,-1.7327485258278488e-05
0.3533821450693264,-8.068254177116471e-06,0.3533821450693264,-3.6305203277280336e-05,0.3533821450693264,2.21307763611808e-06,0.3533821450693264,-1.7331024826773992e-05
0.3541762622492574,-5.501343921124093e-06,0.3541762622492574,-3.245375353936519e-05,0.3541762622492574,1.17494e-06,0.3541762622492574,-1.3035714667477392e-05
0.3549703794291886,-6.565396714071273e-06,0.3549703794291886,-2.9512978424827728e-05,0.3549703794291886,-4.819155548841051e-08,0.3549703794291886,-1.2646530142213818e-05
0.3557644966091196,-5.795842496318955e-06,0.3557644966091196,-3.0005209553771235e-05,0.3557644966091196,-3.2083969905589494e-06,0.3557644966091196,-1.5116540293212626e-05
0.3565586137890507,-6.170878434044577e-06,0.3565586137890507,-3.2571187009464606e-05,0.3565586137890507,-3.732222154906197e-06,0.3565586137890507,-1.3813030638386611e-05
0.3573527309689818,-7.197445072820614e-06,0.3573527309689818,-3.12510712567956e-05,0.3573527309689818,1.766045237016726e-06,0.3573527309689818,-1.3812908357606871e-05
0.3581468481489128,-7.574030663948918e-06,0.3581468481489128,-2.9965989640828594e-05,0.3581468481489128,6.052151689000142e-06,0.3581468481489128,-1.5293463378000285e-05
0.3589409653288439,-5.558496647827106e-06,0.3589409653288439,-3.342185620432744e-05,0.3589409653288439,3.782661668992941e-06,0.3589409653288439,-1.69138655445467e-05
0.3597350825087749,-5.87472e-06,0.3597350825087749,-3.2870533168466315e-05,0.3597350825087749,3.5438001544160683e-06,0.3597350825087749,-1.4742298306492567e-05
0.360529199688706,-5.400999368027937e-06,0.360529199688706,-1.8729429946085485e-05,0.360529199688706,2.419475586923877e-06,0.360529199688706,-1.35958e-05
0.3613233168686371,-4.650529883268173e-06,0.3613233168686371,9.24898871244037e-07,0.3613233168686371,-1.5302412057886286e-06,0.3613233168686371,-1.3200800058365914e-05
0.3621174340485681,-6.981162594162416e-06,0.3621174340485681,1.3495482256144504e-05,0.3621174340485681,1.5311968704473098e-06,0.3621174340485681,-1.29244e-05
0.3629115512284993,-9.172437322979777e-06,0.3629115512284993,1.148223878827259e-05,0.3629115512284993,4.255502677020225e-06,0.3629115512284993,-1.180856821379486e-05
0.3637056684084303,-6.733821339644954e-06,0.3637056684084303,2.5925380039126247e-06,0.3637056684084303,2.597145358579817e-06,0.3637056684084303,-8.89601e-06
0.3644997855883614,-6.881588311200381e-06,0.3644997855883614,2.181069203177182e-06,0.3644997855883614,8.394004564390809e-07,0.3644997855883614,-9.567101081600508e-06
0.3652939027682925,-4.079912310136114e-06,0.3652939027682925,4.443023584474185e-06,0.3652939027682925,3.657988281220067e-07,0.3652939027682925,-7.869530086137642e-06
0.3660880199482235,-3.9566685220423285e-06,0.3660880199482235,3.05321765662654e-06,0.3660880199482235,-6.414512571586004e-07,0.3660880199482235,-1.0119022207043226e-05
0.3668821371281546,-6.428870622810269e-06,0.3668821371281546,-1.035751688505766e-06,0.3668821371281546,-7.21996040690612e-07,0.3668821371281546,-9.926134218001174e-06
0.3676762543080857,-4.986847720067076e-06,0.3676762543080857,-6.961760631109133e-06,0.3676762543080857,-1.2125976530567962e-06,0.3676762543080857,-7.001037720067076e-06
0.3684703714880167,-4.591773409188719e-06,0.3684703714880167,-1.6059504116446412e-05,0.3684703714880167,-4.392977908973537e-06,0.3684703714880167,-7.591745258356247e-06
0.3692644886679478,-5.113381910942208e-06,0.3692644886679478,-2.141478043723376e-05,0.3692644886679478,-2.2618858845144903e-06,0.3692644886679478,-1.0692822946735012e-05
0.3700586058478789,-7.869133778654767e-06,0.3700586058478789,-2.8559584128835225e-05,0.3700586058478789,1.717791438911762e-06,0.3700586058478789,-9.814369598353344e-06
0.3708527230278099,-5.677715968789316e-06,0.3708527230278099,-2.9199705189716432e-05,0.3708527230278099,5.715941904990113e-06,0.3708527230278099,-9.211617873779429e-06
0.371646840207741,-6.012154715166804e-06,0.371646840207741,-2.021158637619972e-05,0.371646840207741,5.855577344486229e-06,0.371646840207741,-1.2844410298265164e-05
0.3724409573876721,-7.10075161145123e-06,0.3724409573876721,-1.0120236863926417e-05,0.3724409573876721,4.473545515861232e-06,0.3724409573876721,-1.4247738505287076e-05
0.3732350745676032,-3.92077385896574e-06,0.3732350745676032,-1.540686042429356e-05,0.3732350745676032,2.242281500050882e-06,0.3732350745676032,-1.4188011228206851e-05
0.3740291917475342,-3.031237275435088e-06,0.3740291917475342,-3.9622891000591465e-05,0.3740291917475342,2.004242724564912e-06,0.3740291917475342,-1.42672e-05
0.3748233089274653,-2.2413342209229628e-06,0.3748233089274653,-7.29918212340644e-05,0.3748233089274653,3.949471331384444e-06,0.3748233089274653,-1.4425017337231113e-05
0.3756174261073964,-3.5547852701598283e-06,0.3756174261073964,-8.616781186252255e-05,0.3756174261073964,3.1788841446219245e-06,0.3756174261073964,-1.2558701771632766e-05
0.3764115432873274,-7.395297750327062e-06,0.3764115432873274,-7.082050149259206e-05,0.3764115432873274,1.569901210992801e-06,0.3764115432873274,-1.6518444843971202e-05
0.3772056604672585,-8.421930081112627e-06,0.3772056604672585,-5.396156271508785e-05,0.3772056604672585,3.2974072435686324e-06,0.3772056604672585,-1.8572359837774745e-05
0.3779997776471896,-8.89601e-06,0.3779997776471896,-5.790569884120396e-05,0.3779997776471896,5.538469370312096e-06,0.3779997776471896,-1.4939881439286637e-05
0.3787938948271206,-6.903284676768723e-06,0.3787938948271206,-5.3482723025661885e-05,0.3787938948271206,7.295026412555144e-06,0.3787938948271206,-1.0733705446619332e-05
0.3795880120070517,-3.644640724840844e-06,0.3795880120070517,-4.405414956275346e-05,0.3795880120070517,8.404324033368716e-06,0.3795880120070517,-1.0988195037208191e-05
0.3803821291869828,-2.1429622192040065e-06,0.3803821291869828,-4.265491664260592e-05,0.3803821291869828,2.126963821736017e-06,0.3803821291869828,-1.2846244438408012e-05
0.3811762463669139,-2.674596257766013e-06,0.3811762463669139,-2.2717380553261463e-05,0.3811762463669139,-2.8707762874061345e-07,0.3811762463669139,-1.073457131495046e-05
0.3819703635468449,-2.3017554219329514e-06,0.3819703635468449,-8.645382756442046e-06,0.3819703635468449,1.4122746265798854e-06,0.3819703635468449,-9.922358544455428e-06
0.382764480726776,7.310607930369718e-07,0.382764480726776,1.5110186493362324e-05,0.382764480726776,-1.8847533583715785e-06,0.382764480726776,-1.0159931588028513e-05
0.3835585979067071,-3.484964413110435e-06,0.3835585979067071,6.713451538915975e-05,0.3835585979067071,-7.67130320029943e-06,0.3835585979067071,-9.587191954188149e-06
0.3843527150866381,-1.138256312354128e-05,0.3843527150866381,0.000126658063592,0.3843527150866381,-1.6832144048429463e-05,0.3843527150866381,-1.1659984457897071e-05
0.3851468322665692,-1.4148923673360656e-05,0.3851468322665692,0.0001741755702801,0.3851468322665692,-2.23239e-05,0.3851468322665692,-1.3181815240389544e-05
0.3859409494465003,-1.0973520495326135e-05,0.3859409494465003,0.0001820371446209,0.3859409494465003,-2.0942288476601453e-05,0.3859409494465003,-1.1010001936262594e-05
0.3867350666264313,-2.6985526693933986e-06,0.3867350666264313,0.0001621431858348,0.3867350666264313,-1.82577559400341e-05,0.3867350666264313,-9.9031e-06
0.3875291838063624,1.0170458182553069e-06,0.3875291838063624,0.0001190244613512,0.3875291838063624,-1.0447115672918596e-05,0.3875291838063624,-1.2055291011561364e-05
0.3883233009862935,-4.739037498940606e-07,0.3883233009862935,5.935923536008272e-05,0.3883233009862935,-4.946146763996798e-06,0.3883233009862935,-1.1956557498940606e-05
0.3891174181662246,-7.801393908947238e-07,0.3891174181662246,-1.832037739346154e-05,0.3891174181662246,4.846065801289181e-07,0.3891174181662246,-9.093031639083296e-06
0.3899115353461556,-3.97903360745022e-06,0.3899115353461556,-0.0001123976645562,0.3899115353461556,2.813952308724043e-06,0.3899115353461556,-1.0614028224898308e-05
0.3907056525260867,-6.772202966754815e-06,0.3907056525260867,-0.0001565696057865,0.3907056525260867,3.6234843075426255e-06,0.3907056525260867,-1.3645112459951305e-05
0.3914997697060178,-1.292282394903337e-05,0.3914997697060178,-0.0001257335981536,0.3914997697060178,5.202666397512186e-06,0.3914997697060178,-1.2589280627467184e-05
0.3922938868859488,-1.2648947289350218e-05,0.3922938868859488,-5.629972198907714e-05,0.3922938868859488,5.913462481656456e-06,0.3922938868859488,-1.414670542129956e-05
0.3930880040658799,-8.464273205835319e-06,0.3930880040658799,-2.785035803338568e-05,0.3930880040658799,6.8219052254447495e-06,0.3930880040658799,-1.7210522161832876e-05
0.393882121245811,-5.499957952217736e-06,0.393882121245811,-3.393315788041925e-05,0.393882121245811,9.161538955557904e-06,0.393882121245811,-1.336136771330641e-05
0.394676238425742,-4.651170602911572e-06,0.394676238425742,-4.396682468123822e-05,0.394676238425742,1.0455259397088428e-05,0.394676238425742,-1.2133759397088427e-05
0.3954703556056732,-2.577612012744185e-06,0.3954703556056732,-3.84271001040494e-05,0.3954703556056732,1.3456813584706978e-05,0.3954703556056732,-9.173978117187026e-06
0.3962644727856042,-5.478277596721928e-06,0.3962644727856042,-2.027120198549502e-05,0.3962644727856042,1.3833443452060786e-05,0.3962644727856042,-9.94147187214215e-06
0.3970585899655353,-1.0139859206992088e-05,0.3970585899655353,-1.955608224179253e-05,0.3970585899655353,7.52423415941841e-06,0.3970585899655353,-1.5096205511552169e-05
0.3978527071454664,-9.9031e-06,0.3978527071454664,-3.120051771558846e-05,0.3978527071454664,2.7549576828685475e-06,0.3978527071454664,-1.5758766293786845e-05
0.3986468243253974,-1.3199164749005135e-05,0.3986468243253974,-5.251531241089783e-05,0.3986468243253974,1.6994045535419866e-06,0.3986468243253974,-1.35958e-05
0.3994409415053285,-1.76242e-05,0.3994409415053285,-6.48392195577866e-05,0.3994409415053285,-1.471740290261235e-06,0.3994409415053285,-1.4977500057371092e-05
0.4002350586852595,-1.608520127929232e-05,0.4002350586852595,-7.23583525232709e-05,0.4002350586852595,6.997420236656351e-07,0.4002350586852595,-1.484050063964616e-05
0.4010291758651906,-1.3635634867429182e-05,0.4010291758651906,-8.342109334307626e-05,0.4010291758651906,4.136482995511479e-06,0.4010291758651906,-1.260861743371459e-05
0.4018232930451217,-1.1305182779500764e-05,0.4018232930451217,-8.933273153789027e-05,0.4018232930451217,6.170782037692507e-06,0.4018232930451217,-1.3743998119026032e-05
0.4026174102250527,-1.1877889704409076e-05,0.4026174102250527,-8.563621285952997e-05,0.4026174102250527,3.721881477954614e-06,0.4026174102250527,-1.4286899277927188e-05
0.4034115274049838,-9.448929324433756e-06,0.4034115274049838,-7.765444431995547e-05,0.4034115274049838,2.51774e-06,0.4034115274049838,-1.649858171606161e-05
0.4042056445849149,-7.830018640477636e-06,0.4042056445849149,-7.154804668270025e-05,0.4042056445849149,1.7874474650403465e-06,0.4042056445849149,-1.5353808552826618e-05
0.404999761764846,-3.526546208218433e-06,0.404999761764846,-6.41207884566032e-05,0.404999761764846,5.037196203106091e-07,0.404999761764846,-1.2924914863999233e-05
0.4057938789447771,-5.03548e-07,0.4057938789447771,-5.7926638677408575e-05,0.4057938789447771,-6.412617739494829e-07,0.4057938789447771,-1.4878329778595029e-05
0.4065879961247081,-2.877009456315387e-07,0.4065879961247081,-4.898876371312607e-05,0.4065879961247081,-4.855105303890173e-07,0.4065879961247081,-1.5136413120291354e-05
0.4073821133046392,-2.850468969513262e-07,0.4073821133046392,-3.721669096142363e-05,0.4073821133046392,4.618009882268506e-06,0.4073821133046392,-1.4723729450138142e-05
0.4081762304845703,-6.227986233977869e-07,0.4081762304845703,-2.2382606576221906e-05,0.4081762304845703,5.441832312497489e-06,0.4081762304845703,-1.0193472575732634e-05
0.4089703476645013,-2.0312264347897368e-06,0.4089703476645013,-1.8551216774160053e-05,0.4089703476645013,2.7957424412832443e-06,0.4089703476645013,-7.749911136143093e-06
0.4097644648444324,-7.769516444813904e-06,0.4097644648444324,-2.765385002325828e-05,0.4097644648444324,-4.539829860177079e-07,0.4097644648444324,-1.0989056970549273e-05
0.4105585820243635,-9.251504009507893e-06,0.4105585820243635,-3.965412238359746e-05,0.4105585820243635,-8.39246e-07,0.4105585820243635,-1.0298182028523677e-05
0.4113526992042945,-7.375298138328018e-06,0.4113526992042945,-5.59262570229745e-05,0.4113526992042945,-1.67849e-07,0.4113526992042945,-1.0672970851104024e-05
0.4121468163842256,-9.685671337678934e-06,0.4121468163842256,-6.20944618104642e-05,0.4121468163842256,-7.209818439746712e-07,0.4121468163842256,-1.2962589163671563e-05
0.4129409335641567,-9.84476769220086e-06,0.4129409335641567,-4.923921801679599e-05,0.4129409335641567,2.634405194814712e-06,0.4129409335641567,-1.4880267112984427e-05
0.4137350507440878,-7.870041376279789e-06,0.4137350507440878,-4.1301524076356825e-05,0.4137350507440878,5.044918132147059e-06,0.4137350507440878,-1.3162017801779413e-05
0.4145291679240188,-3.9601790788583446e-06,0.4145291679240188,-5.96256437235373e-05,0.4145291679240188,7.49342867141526e-06,0.4145291679240188,-1.19372288751368e-05
0.4153232851039499,-3.3276547045423416e-06,0.4153232851039499,-8.606052458087258e-05,0.4153232851039499,8.836732941210362e-06,0.4153232851039499,-1.1305177058789638e-05
0.416117402283881,-6.724157059725988e-06,0.416117402283881,-9.534940177226758e-05,0.416117402283881,7.671466911669401e-06,0.416117402283881,-1.3359303828372331e-05
0.416911519463812,-6.565902967723607e-06,0.416911519463812,-8.231402625415984e-05,0.416911519463812,1.49098147502857e-06,0.416911519463812,-1.561e-05
0.4177056366437431,-2.794568633939326e-06,0.4177056366437431,-4.49102250962413e-05,0.4177056366437431,-2.379325683030337e-06,0.4177056366437431,-1.4741314316969662e-05
0.4184997538236742,-1.678578671022061e-06,0.4184997538236742,1.0220329186316447e-05,0.4184997538236742,-2.85344e-06,0.4184997538236742,-1.2925109368176485e-05
0.4192938710036052,-2.044336576729943e-06,0.4192938710036052,8.870471856020519e-05,0.4192938710036052,-2.85344e-06,0.4192938710036052,-1.0634793153459886e-05
0.4200879881835363,-3.147203919591663e-06,0.4200879881835363,0.0001570313881607,0.4200879881835363,-2.457802293389836e-06,0.4200879881835363,-9.834163533925306e-06
0.4208821053634674,-8.849578144522007e-06,0.4208821053634674,0.0001853714185167,0.4208821053634674,-5.101992326973126e-06,0.4208821053634674,-1.1737842327019552e-05
0.4216762225433985,-1.7184687342586598e-05,0.4216762225433985,0.0001726947335009,0.4216762225433985,-9.09035783331664e-06,0.4216762225433985,-1.154405871438977e-05
0.4224703397233295,-2.0664719506960197e-05,0.4224703397233295,0.0001160057380207,0.4224703397233295,-1.1226680493039804e-05,0.4224703397233295,-8.047150246519903e-06
0.4232644569032606,-1.96789900012945e-05,0.4232644569032606,4.991759445476808e-05,0.4232644569032606,-9.764547520037807e-06,0.4232644569032606,-1.1422721379645292e-05
0.4240585740831917,-1.76242e-05,0.4240585740831917,1.72219997467501e-05,0.4240585740831917,-1.182820410767602e-05,0.4240585740831917,-1.3566097437194255e-05
0.4248526912631227,-2.1237411256277968e-05,0.4248526912631227,2.55944234544838e-06,0.4248526912631227,-1.1503301537308452e-05,0.4248526912631227,-1.0713281229846762e-05
0.4256468084430538,-1.9659357184398604e-05,0.4256468084430538,8.460094006788472e-06,0.4256468084430538,-6.5880666419438015e-06,0.4256468084430538,-9.62653956379912e-06
0.4264409256229849,-1.4350198685444324e-05,0.4264409256229849,3.0202755569216774e-05,0.4264409256229849,-1.4717632221111352e-06,0.4264409256229849,-1.0316554250632515e-05
0.4272350428029159,-7.1609551364577565e-06,0.4272350428029159,2.86488469424614e-05,0.4272350428029159,-3.262716013961762e-07,0.4272350428029159,-1.15816e-05
0.428029159982847,-2.5775556526810723e-06,0.428029159982847,3.900687085569071e-06,0.428029159982847,2.300039208602376e-06,0.428029159982847,-1.15816e-05
0.4288232771627781,1.3330905938278774e-06,0.4288232771627781,-2.6874767020634755e-05,0.4288232771627781,3.6234464132900034e-06,0.4288232771627781,-1.1700142676157174e-05
0.4296173943427092,3.1497182383816603e-06,0.4296173943427092,-5.374064426738931e-05,0.4296173943427092,3.1102964767633207e-06,0.4296173943427092,-1.2993651467530205e-05
0.4304115115226402,7.967719782277016e-06,0.4304115115226402,-8.165521065851085e-05,0.4304115115226402,3.742105188202028e-06,0.4304115115226402,-1.35365846531169e-05
0.4312056287025713,1.412877421700304e-05,0.4312056287025713,-0.0001002984425368,0.4312056287025713,1.5694884340060806e-06,0.4312056287025713,-1.3397655896518222e-05
0.4319997458825024,1.46029e-05,0.4319997458825024,-9.953632564876403e-05,0.4319997458825024,4.530831628921693e-06,0.4319997458825024,-1.6616184686223774e-05
0.4327938630624334,1.38324959786213e-05,0.4327938630624334,-8.958073569366114e-05,0.4327938630624334,4.0972259786213e-06,0.4327938630624334,-1.53346160855148e-05
0.4335879802423645,1.2157096690549971e-05,0.4335879802423645,-7.695187941819034e-05,0.4335879802423645,3.86053e-06,0.4335879802423645,-1.445601551660568e-05
0.4343820974222956,6.573117322541716e-06,0.4343820974222956,-6.841435310728877e-05,0.4343820974222956,3.634098890273686e-06,0.4343820974222956,-1.2018670907553042e-05
0.4351762146022266,-2.048337794568814e-06,0.4351762146022266,-7.147442481463459e-05,0.4351762146022266,4.293381922154371e-06,0.4351762146022266,-1.0790925072821844e-05
0.4359703317821577,-6.248840844986305e-06,0.4359703317821577,-7.437790127589382e-05,0.4359703317821577,3.822119155013694e-06,0.4359703317821577,-1.3950708065538026e-05
0.4367644489620888,-1.1342637407779022e-05,0.4367644489620888,-6.600619360363256e-05,0.4367644489620888,2.004031058254146e-06,0.4367644489620888,-1.416803658738122e-05
0.4375585661420199,-2.094059596482913e-05,0.4375585661420199,-5.471597387447384e-05,0.4375585661420199,3.4654141633695136e-06,0.4375585661420199,-1.541239473657424e-05
0.438352683321951,-2.885873959524621e-05,0.438352683321951,-4.283525580360555e-05,0.438352683321951,5.508756351552795e-06,0.438352683321951,-1.1859208323803032e-05
0.439146800501882,-3.342106018375353e-05,0.439146800501882,-3.91089e-05,0.439146800501882,8.361923578338043e-06,0.439146800501882,-9.390029908123234e-06
0.4399409176818131,-3.8232482122716833e-05,0.4399409176818131,-4.0570061012071615e-05,0.4399409176818131,1.0248519309196588e-05,0.4399409176818131,-9.625707910058323e-06
0.4407350348617442,-5.197838299163246e-05,0.4407350348617442,-4.467553799848557e-05,0.4407350348617442,9.252497628136576e-06,0.4407350348617442,-1.2369878372559466e-05
0.4415291520416752,-5.593370351596235e-05,0.4415291520416752,-3.895130275651429e-05,0.4415291520416752,8.026837660194725e-06,0.4415291520416752,-1.5096474121009411e-05
0.4423232692216063,-5.075924697422298e-05,0.4423232692216063,-2.663734718338868e-05,0.4423232692216063,8.204718061229161e-06,0.4423232692216063,-1.3970871913162684e-05
0.4431173864015373,-4.242532816925321e-05,0.4431173864015373,-1.94032951156748e-05,0.4431173864015373,4.768493793306421e-06,0.4431173864015373,-1.2292427494632067e-05
0.4439115035814684,-2.7557485965880012e-05,0.4439115035814684,-1.4780431463023749e-05,0.4439115035814684,2.53757617965806e-06,0.4439115035814684,-1.2529496119144242e-05
0.4447056207613995,-7.606064199179607e-06,0.4447056207613995,-1.5130505692534457e-05,0.4447056207613995,-1.2337697391026326e-06,0.4447056207613995,-1.09102e-05
0.4454997379413306,9.05895165124399e-06,0.4454997379413306,-2.165056593999241e-05,0.4454997379413306,-1.5110175669327387e-06,0.4454997379413306,-1.057468878346637e-05
0.4462938551212617,1.9100014666544844e-05,0.4462938551212617,-1.5589141772748675e-05,0.4462938551212617,-2.173535822609653e-07,0.4462938551212617,-1.0376480491215246e-05
0.4470879723011927,2.644815744534033e-05,0.4470879723011927,-3.989104482853352e-06,0.4470879723011927,-1.1149828971763578e-06,0.4470879723011927,-1.2804478722670164e-05
0.4478820894811238,3.203589292581945e-05,0.4478820894811238,1.0985097342054995e-05,0.4478820894811238,-2.712984415422508e-06,0.4478820894811238,-1.4384347347182294e-05
0.4486762066610549,3.5789384078499195e-05,0.4486762066610549,1.7682973410024604e-05,0.4486762066610549,-3.920173184300162e-06,0.4486762066610549,-1.52743e-05
0.4494703238409859,4.461206059170631e-05,0.4494703238409859,3.2001239908322955e-06,0.4494703238409859,-2.49854337588418e-06,0.4494703238409859,-1.412814493617373e-05
0.450264441020917,5.017802950269752e-05,0.450264441020917,-7.040082134555823e-06,0.450264441020917,-2.8241904789601275e-06,0.450264441020917,-1.669593980841595e-05
0.4510585582008481,4.534951208548997e-05,0.4510585582008481,-3.844018944070931e-06,0.4510585582008481,6.609459492637288e-07,0.4510585582008481,-1.6321022417097995e-05
0.4518526753807791,4.351335530230686e-05,0.4518526753807791,-9.757591340315402e-07,0.4518526753807791,3.070508226510892e-06,0.4518526753807791,-1.5175863546978216e-05
0.4526467925607102,3.506544676858436e-05,0.4526467925607102,-8.677397864022823e-06,0.4526467925607102,3.1605690453521405e-06,0.4526467925607102,-1.4503695323141564e-05
0.4534409097406413,2.3710999337579717e-05,0.4534409097406413,-1.948996779515184e-05,0.4534409097406413,-1.1139484527650377e-06,0.4534409097406413,-1.6675381289892257e-05
0.4542350269205724,1.511984644089643e-05,0.4542350269205724,-2.523473309812164e-05,0.4542350269205724,-1.8275323842390484e-06,0.4542350269205724,-1.6085338576358572e-05
0.4550291441005034,-4.03285709627272e-06,0.4550291441005034,-2.822799839885759e-05,0.4550291441005034,1.6485452008948658e-06,0.4550291441005034,-1.3753668400298288e-05
0.4558232612804345,-3.715489697349472e-05,0.4558232612804345,-3.401052907388196e-05,0.4558232612804345,2.7547778213618565e-06,0.4558232612804345,-1.4286859084676776e-05
0.4566173784603656,-5.893636930885621e-05,0.4566173784603656,-3.261310011546375e-05,0.4566173784603656,5.638121808782256e-06,0.4566173784603656,-1.35958e-05
0.4574114956402966,-5.586462708281161e-05,0.4574114956402966,-3.140753085462894e-05,0.4574114956402966,6.54612e-06,0.4574114956402966,-1.2233308865917027e-05
0.4582056128202277,-4.171851138982735e-05,0.4582056128202277,-3.334034304913803e-05,0.4582056128202277,6.743371284948126e-06,0.4582056128202277,-1.051570036801386e-05
0.4589997300001588,-2.769937909190397e-05,0.4589997300001588,-3.843540430181056e-05,0.4589997300001588,9.062790232817997e-06,0.4589997300001588,-9.735162747911274e-06
0.4597938471800898,-1.5576109748121538e-05,0.4597938471800898,-4.8213314384353525e-05,0.4597938471800898,8.185956462218231e-06,0.4597938471800898,-1.0673515487406076e-05
0.4605879643600209,-7.793102525529927e-06,0.4605879643600209,-5.55514716291038e-05,0.4605879643600209,4.771816632290359e-06,0.4605879643600209,-1.0178827895307624e-05
0.461382081539952,-5.320458985097359e-06,0.461382081539952,-4.944867464749862e-05,0.461382081539952,2.2991701481412284e-06,0.461382081539952,-1.1386383086431286e-05
0.4621761987198831,-7.866718346783989e-06,0.4621761987198831,-3.626477771142212e-05,0.4621761987198831,3.7412339668289992e-06,0.4621761987198831,-8.246801653216012e-06
0.4629703158998141,-2.395420143290866e-06,0.4629703158998141,-1.6767771144549472e-05,0.4629703158998141,-2.9469730255189917e-06,0.4629703158998141,-9.80240285367858e-06
0.4637644330797452,1.4203488543441976e-05,0.4637644330797452,6.984075329034842e-07,0.4637644330797452,-9.892937568807194e-06,0.4637644330797452,-1.2746368175409793e-05
0.4645585502596763,2.828605013035272e-05,0.4645585502596763,1.0965176005289784e-05,0.4645585502596763,-8.985188598300252e-06,0.4645585502596763,-1.4207749175311822e-05
0.4653526674396073,3.415161246748582e-05,0.4653526674396073,1.2648948667555624e-05,0.4653526674396073,-8.777372493497164e-06,0.4653526674396073,-1.4070350026011343e-05
0.4661467846195384,3.9009683857114266e-05,0.4661467846195384,1.1621113951524944e-05,0.4661467846195384,-9.359461299142952e-06,0.4661467846195384,-1.4305251571342804e-05
0.4669409017994695,2.9229308513418223e-05,0.4669409017994695,6.625691736865094e-06,0.4669409017994695,-1.0161115124065229e-05,0.4669409017994695,-1.6155158243822736e-05
0.4677350189794005,5.686883230404488e-06,0.4677350189794005,-9.458852825098162e-06,0.4677350189794005,-8.639538816770886e-06,0.4677350189794005,-1.3714631424617636e-05
0.4685291361593316,-2.280073128214964e-05,0.4685291361593316,-4.479387957374033e-05,0.4685291361593316,-7.948838624969462e-06,0.4685291361593316,-1.3684692172669844e-05
0.4693232533392627,-5.74740410349888e-05,0.4693232533392627,-7.325787198139236e-05,0.4693232533392627,-2.8434108598343404e-06,0.4693232533392627,-1.3872245824054738e-05
0.4701173705191938,-7.094151039340556e-05,0.4701173705191938,-5.3480354187328754e-05,0.4701173705191938,1.965126656235088e-06,0.4701173705191938,-1.1818233763956667e-05
0.4709114876991248,-6.99538166791969e-05,0.4709114876991248,-2.0802817598447507e-05,0.4709114876991248,2.043780474400445e-06,0.4709114876991248,-9.64648445825456e-06
0.4717056048790559,-5.976676199187175e-05,0.4717056048790559,-4.915681276041678e-06,0.4717056048790559,3.839633219125079e-06,0.4717056048790559,-6.585960271618875e-06
0.472499722058987,-4.649900539732489e-05,0.472499722058987,9.89716735711086e-06,0.472499722058987,8.55890843174464e-06,0.472499722058987,-5.539230218924138e-06
0.473293839238918,-2.3521946642373184e-05,0.473293839238918,2.7281665212185603e-05,0.473293839238918,5.403796915020384e-06,0.473293839238918,-4.3338875591603895e-06
0.4740879564188491,-2.2904228457153743e-06,0.4740879564188491,2.835973054407232e-05,0.4740879564188491,3.000239644650783e-06,0.4740879564188491,-9.327471610531342e-06
0.4748820735987802,1.1003914146700548e-05,0.4748820735987802,9.691391480642363e-06,0.4748820735987802,4.1181547005999e-06,0.4748820735987802,-9.40344114042267e-06
0.4756761907787112,1.2334882380056636e-05,0.4756761907787112,-1.429720346172319e-05,0.4756761907787112,2.696702100145214e-06,0.4756761907787112,-6.05368387716713e-06
0.4764703079586423,7.179167803035627e-06,0.4764703079586423,-3.118599414703496e-05,0.4764703079586423,-7.193295390422428e-07,0.4764703079586423,-9.732844542717677e-06
0.4772644251385734,1.069138366993772e-05,0.4772644251385734,-1.699820884766144e-05,0.4772644251385734,1.0805004966030736e-07,0.4772644251385734,-1.2016514899018684e-05
0.4780585423185045,1.5787118603388364e-05,0.4780585423185045,1.0557512076692556e-05,0.4780585423185045,1.796783904046638e-06,0.4780585423185045,-1.0298268023729362e-05
0.4788526594984356,2.676348407268012e-05,0.4788526594984356,2.5743697257229585e-05,0.4788526594984356,2.378867041933959e-06,0.4788526594984356,-9.73526e-06
0.4796467766783666,3.96483424457749e-05,0.4796467766783666,7.261102298794256e-06,0.4796467766783666,4.768402391086811e-06,0.4796467766783666,-1.02388e-05
0.4804408938582977,3.353817243816186e-05,0.4804408938582977,-2.544241742038846e-05,0.4804408938582977,4.53193e-06,0.4804408938582977,-9.922515630603296e-06
0.4812350110382288,5.84558113313014e-06,0.4812350110382288,-4.660440573403692e-05,0.4812350110382288,4.01899907496394e-06,0.4812350110382288,-1.02388e-05
0.4820291282181598,-7.294436184976298e-06,0.4820291282181598,-5.87761819163175e-05,0.4820291282181598,4.3341008766282985e-06,0.4820291282181598,-1.0554513917752198e-05
0.4828232453980909,-1.596549073140503e-05,0.4828232453980909,-6.803236207670457e-05,0.4828232453980909,3.3865441230493348e-06,0.4828232453980909,-1.3161393820936684e-05
0.483617362578022,-1.76242e-05,0.483617362578022,-7.082114413227735e-05,0.483617362578022,-1.1950848006115772e-06,0.483617362578022,-1.4859710612653732e-05
0.484411479757953,-1.5215130517226488e-05,0.484411479757953,-7.26392177446815e-05,0.484411479757953,-2.201966293066217e-06,0.484411479757953,-1.6676269482773513e-05
0.4852055969378841,-1.3023014176446674e-05,0.4852055969378841,-6.544084317682787e-05,0.4852055969378841,2.0435683528933493e-06,0.4852055969378841,-1.568971494131995e-05
0.4859997141178152,-1.4937570272001694e-05,0.4859997141178152,-4.918654935339215e-05,0.4859997141178152,2.853234054400339e-06,0.4859997141178152,-1.2925223782398644e-05
0.4867938312977463,-2.9325093942207333e-05,0.4867938312977463,-2.5471579464702507e-05,0.4867938312977463,2.51774e-06,0.4867938312977463,-1.2943674319172582e-05
0.4875879484776773,-4.189913052498278e-05,0.4875879484776773,-8.502196681340892e-06,0.4875879484776773,4.856825195706697e-07,0.4875879484776773,-1.4345057444879188e-05
0.4883820656576084,-4.507333616662735e-05,0.4883820656576084,-9.131790768323688e-06,0.4883820656576084,-1.9908698921924778e-07,0.4883820656576084,-1.4860536166627349e-05
0.4891761828375395,-4.089156673171162e-05,0.4891761828375395,-1.879926880719857e-05,0.4891761828375395,1.115280719881943e-06,0.4891761828375395,-1.3163041385733811e-05
0.4899703000174705,-3.1234501601206446e-05,0.4899703000174705,-3.68097757160342e-05,0.4899703000174705,1.7767867248868958e-06,0.4899703000174705,-1.3120993449773791e-05
0.4907644171974016,-2.1912215846997447e-05,0.4907644171974016,-3.969159537454444e-05,0.4907644171974016,6.027792351562921e-07,0.4907644171974016,-1.3516977353717342e-05
0.4915585343773327,-1.2550426113852106e-05,0.4915585343773327,-4.057817898905218e-05,0.4915585343773327,-7.995893620172848e-07,0.4915585343773327,-1.231248522277042e-05
0.4923526515572637,-4.277220601612329e-06,0.4923526515572637,-3.576215020366603e-05,0.4923526515572637,-2.6161420549395744e-06,0.4923526515572637,-1.1344302054939571e-05
0.4931467687371948,-2.2200192532697357e-06,0.4931467687371948,-1.4961777491884067e-05,0.4931467687371948,-4.19623e-06,0.4931467687371948,-1.4503660925059354e-05
0.4939408859171259,-6.614054641563623e-06,0.4939408859171259,-5.883552517814213e-06,0.4939408859171259,-4.877334948794803e-06,0.4939408859171259,-1.35958e-05
0.494735003097057,-8.105751973158966e-06,0.494735003097057,-2.3528085062810903e-05,0.494735003097057,-4.3943306454826585e-06,0.494735003097057,-1.5391018192648555e-05
0.495529120276988,-1.0612371393993092e-05,0.495529120276988,-1.5690969546209404e-05,0.495529120276988,-4.5119324763299935e-06,0.495529120276988,-1.5827843809175015e-05
0.4963232374569191,-1.9322456407138525e-05,0.4963232374569191,1.7478862765015867e-05,0.4963232374569191,-3.2878608266599444e-06,0.4963232374569191,-1.3477314530953825e-05
0.4971173546368502,-1.949995213343431e-05,0.4971173546368502,4.798398706052528e-05,0.4971173546368502,-1.8857904266868616e-06,0.4971173546368502,-1.2628150426686862e-05
0.4979114718167812,-1.3240851899523664e-05,0.4979114718167812,7.179012399426649e-05,0.4979114718167812,-1.313210991626972e-06,0.4979114718167812,-1.3694485098614816e-05
0.4987055889967123,-6.68568428135172e-06,0.4987055889967123,7.754987679533942e-05,0.4987055889967123,-1.0364611244272489e-06,0.4987055889967123,-1.1661349339402252e-05
0.4994997061766434,5.005846855210593e-07,0.4994997061766434,7.100305076591928e-05,0.4994997061766434,-2.85259333475702e-06,0.4994997061766434,-1.02388e-05
0.5002938233565745,3.86053e-06,0.5002938233565745,4.362796582147447e-05,0.5002938233565745,-5.204404797526728e-08,0.5002938233565745,-1.09102e-05
0.5010879405365055,3.326982642364587e-06,0.5010879405365055,-2.065724285433975e-06,0.5010879405365055,5.005476748612684e-06,0.5010879405365055,-1.3475786994450737e-05
0.5018820577164366,1.2219245488336164e-06,0.5018820577164366,-5.0232879296151776e-05,0.5018820577164366,3.821503816327438e-06,0.5018820577164366,-1.4150121448982314e-05
0.5026761748963677,-5.871110206634451e-06,0.5026761748963677,-9.056943699152048e-05,0.5026761748963677,2.4207024912152787e-06,0.5026761748963677,-1.1879930335722522e-05
0.5034702920762988,-4.987598139170017e-06,0.5034702920762988,-0.0001178260233876,0.5034702920762988,1.17494e-06,0.5034702920762988,-1.2329603433708277e-05
0.5042644092562298,-2.62574689166239e-06,0.5042644092562298,-0.0001232942921103,0.5042644092562298,1.4318230744284268e-06,0.5042644092562298,-1.551075077671472e-05
0.5050585264361609,-6.68347918479064e-06,0.5050585264361609,-0.0001002263671577,0.5050585264361609,2.280470507886459e-06,0.5050585264361609,-1.659726585939613e-05
0.505852643616092,-8.283937352771984e-06,0.505852643616092,-6.941604232805153e-05,0.505852643616092,2.8925032361400816e-06,0.505852643616092,-1.59457e-05
0.506646760796023,-8.678534729515963e-06,0.506646760796023,-4.373361948908246e-05,0.506646760796023,4.7494052704840375e-06,0.506646760796023,-1.5827475270484036e-05
0.507440877975954,-8.934818329151681e-06,0.507440877975954,-1.288687608035684e-05,0.507440877975954,3.111523341696637e-06,0.507440877975954,-1.4860983341696636e-05
0.5082349951558852,-1.05932184450023e-05,0.5082349951558852,-3.167767886382418e-06,0.5082349951558852,2.1027940210958314e-06,0.5082349951558852,-1.2313529894520842e-05
0.5090291123358163,-1.2568691034907863e-05,0.5090291123358163,-3.247053425712563e-05,0.5090291123358163,3.18914e-06,0.5090291123358163,-1.09102e-05
0.5098232295157473,-1.2253e-05,0.5098232295157473,-6.789627833012863e-05,0.5098232295157473,2.7942029861880293e-06,0.5098232295157473,-1.048565330219146e-05
0.5106173466956784,-1.166051231940117e-05,0.5106173466956784,-6.905364614269194e-05,0.5106173466956784,3.406462696238121e-06,0.5106173466956784,-9.034111260311562e-06
0.5114114638756094,-7.988029678069032e-06,0.5114114638756094,-3.824034916807332e-05,0.5114114638756094,4.7293532753593165e-06,0.5114114638756094,-1.027796704657165e-05
0.5122055810555405,-2.538808476539125e-06,0.5122055810555405,7.839562522702305e-06,0.5122055810555405,3.2982720955501305e-06,0.5122055810555405,-1.2490097289580782e-05
0.5129996982354716,5.1998518212495685e-06,0.5129996982354716,2.601328186934398e-05,0.5129996982354716,1.8466660805327435e-06,0.5129996982354716,-1.0911069548087315e-05
0.5137938154154027,1.1323069483234607e-05,0.5137938154154027,1.8749013704482163e-05,0.5137938154154027,1.945378419460899e-06,0.5137938154154027,-1.09102e-05
0.5145879325953338,1.136593593760399e-05,0.5145879325953338,4.900118464232286e-06,0.5145879325953338,-8.748572286972446e-07,0.5145879325953338,-1.09102e-05
0.5153820497752648,8.326188458407277e-06,0.5153820497752648,-1.1458388642000478e-05,0.5153820497752648,-3.3687493597251034e-06,0.5153820497752648,-1.1659640901317827e-05
0.5161761669551959,5.718043586033933e-06,0.5161761669551959,-2.350864367148136e-05,0.5161761669551959,-1.0779320849028863e-06,0.5161761669551959,-1.2253e-05
0.5169702841351269,3.822256451057804e-06,0.5169702841351269,-2.8010006266833e-05,0.5169702841351269,-8.39246e-07,0.5169702841351269,-9.56741e-06
0.5177644013150581,-1.4288238171995306e-06,0.5177644013150581,-2.017352430808002e-05,0.5177644013150581,2.4665997009374014e-07,0.5177644013150581,-1.2883489638884083e-05
0.5185585184949891,-1.1382367066076706e-05,0.5185585184949891,-1.8212774704704807e-05,0.5185585184949891,1.1352607255650422e-06,0.5185585184949891,-1.49386e-05
0.5193526356749202,-1.4997912545695466e-05,0.5193526356749202,-2.325232351431464e-05,0.5193526356749202,2.18204e-06,0.5193526356749202,-1.3200752107137853e-05
0.5201467528548512,-9.60035197902111e-06,0.5201467528548512,-2.1455608429757457e-05,0.5201467528548512,1.17494e-06,0.5201467528548512,-1.653679498251143e-05
0.5209408700347823,-3.899326863124376e-06,0.5209408700347823,-1.86709318999438e-05,0.5209408700347823,2.437182364179634e-06,0.5209408700347823,-1.5148207305594728e-05
0.5217349872147133,-6.583508763866895e-06,0.5217349872147133,-1.6578978921201756e-05,0.5217349872147133,3.86053e-06,0.5217349872147133,-1.219466914470667e-05
0.5225291043946444,-8.264655514840133e-06,0.5225291043946444,-1.5886085861766864e-05,0.5225291043946444,4.216250406514544e-06,0.5225291043946444,-1.198618320416931e-05
0.5233232215745756,-5.53903e-06,0.5233232215745756,-1.999073819361565e-05,0.5233232215745756,1.3329475322264397e-06,0.5233232215745756,-1.2805937413798177e-05
0.5241173387545066,-5.835259282796413e-06,0.5241173387545066,-1.9707375420050495e-05,0.5241173387545066,-3.851627920615322e-07,0.5241173387545066,-1.0771809463571215e-05
0.5249114559344377,-5.144194915308731e-06,0.5249114559344377,-2.565110700429975e-05,0.5249114559344377,-3.514827975091303e-06,0.5249114559344377,-1.4039743429110543e-05
0.5257055731143687,-3.149227995160485e-06,0.5257055731143687,-3.791636686104889e-05,0.5257055731143687,-1.9848460451888613e-06,0.5257055731143687,-1.4168603022594433e-05
0.5264996902942998,-6.879812037049469e-06,0.5264996902942998,-4.581999552239072e-05,0.5264996902942998,-1.6874142495037067e-07,0.5264996902942998,-1.4266976892267046e-05
0.5272938074742308,-5.029770157653992e-06,0.5272938074742308,-4.560544403565227e-05,0.5272938074742308,-3.054605801637674e-07,0.5272938074742308,-1.3755320762373256e-05
0.528087924654162,2.828959285117712e-06,0.528087924654162,-4.067791455250492e-05,0.528087924654162,3.834876138442225e-07,0.528087924654162,-1.197732943482929e-05
0.528882041834093,1.2658579635259866e-05,0.528882041834093,-2.748277782051809e-05,0.528882041834093,6.441733415257041e-07,0.528882041834093,-1.2885385282354744e-05
0.5296761590140241,1.857162249143325e-05,0.5296761590140241,-1.1660856598239786e-05,0.5296761590140241,-1.1152635580553848e-06,0.5296761590140241,-1.1760632525700256e-05
0.5304702761939551,9.357002838385426e-06,0.5304702761939551,-3.073309316823351e-06,0.5304702761939551,1.3714847924357402e-06,0.5304702761939551,-1.2804369938956431e-05
0.5312643933738862,5.97090208309597e-06,0.5312643933738862,-7.234364607408782e-06,0.5312643933738862,1.9251454841493254e-06,0.5312643933738862,-1.2658781574665178e-05
0.5320585105538173,1.3041798918227133e-05,0.5320585105538173,-2.2823548985934384e-05,0.5320585105538173,2.813748786737499e-06,0.5320585105538173,-1.093004560663125e-05
0.5328526277337483,1.3043066171571373e-05,0.5328526277337483,-4.119636085004693e-05,0.5328526277337483,5.162726505459212e-06,0.5328526277337483,-1.15816e-05
0.5336467449136795,1.13664040452316e-05,0.5336467449136795,-4.402651638118703e-05,0.5336467449136795,4.257627413487307e-06,0.5336467449136795,-1.0555560209534242e-05
0.5344408620936105,1.6002619319409814e-06,0.5344408620936105,-3.520030975874692e-05,0.5344408620936105,2.6631846614346125e-06,0.5344408620936105,-9.625587517966186e-06
0.5352349792735416,-1.429996685280092e-05,0.5352349792735416,-1.771464002058379e-05,0.5352349792735416,6.445906549164842e-06,0.5352349792735416,-9.80517990001927e-06
0.5360290964534726,-3.0100254128887147e-05,0.5360290964534726,4.293310144806143e-06,0.5360290964534726,4.612056795027794e-06,0.5360290964534726,-1.071230222809505e-05
0.5368232136334037,-4.408489151582496e-05,0.5368232136334037,1.6274706508599563e-05,0.5368232136334037,3.850973844928725e-07,0.5368232136334037,-1.09102e-05
0.5376173308133347,-5.117449136844762e-05,0.5376173308133347,1.6580031906811808e-05,0.5376173308133347,-1.67849e-07,0.5376173308133347,-1.09102e-05
0.5384114479932659,-4.961470552534448e-05,0.5384114479932659,7.020398991936395e-06,0.5384114479932659,-1.51064e-06,0.5384114479932659,-1.3911459046659696e-05
0.539205565173197,-3.40008940023661e-05,0.539205565173197,-9.059435661344397e-06,0.539205565173197,-4.049570492966801e-07,0.539205565173197,-1.407001751121627e-05
0.539999682353128,-7.563974855074122e-06,0.539999682353128,-2.5003336242999024e-05,0.539999682353128,8.385595180759983e-07,0.539999682353128,-1.1750658590524704e-05
0.5407937995330591,1.421795945095632e-05,0.5407937995330591,-3.730229923048641e-05,0.5407937995330591,5.03548e-07,0.5407937995330591,-1.4344300687069865e-05
0.5415879167129901,1.887146360342737e-05,0.5415879167129901,-3.692054322744302e-05,0.5415879167129901,3.657188610019976e-07,0.5415879167129901,-1.4525111351285264e-05
0.5423820338929212,1.347877304610563e-05,0.5423820338929212,-3.466530680840253e-05,0.5423820338929212,4.6699137251889216e-08,0.5423820338929212,-1.4228191015368545e-05
0.5431761510728523,1.0104557285626785e-05,0.5431761510728523,-3.91379646244622e-05,0.5431761510728523,2.9205654682496207e-06,0.5431761510728523,-1.2275399375667172e-05
0.5439702682527834,-1.0686425557464602e-06,0.5439702682527834,-6.628035099604142e-05,0.5439702682527834,2.5777693322993934e-06,0.5439702682527834,-1.0277037783594516e-05
0.5447643854327144,-1.6315970376126497e-05,0.5447643854327144,-0.0001174948627914,0.5447643854327144,3.3467371795496807e-06,0.5447643854327144,-1.4118210672106678e-05
0.5455585026126455,-2.804887856568041e-05,0.5455585026126455,-0.0001405633234918,0.5455585026126455,5.123924641420103e-06,0.5455585026126455,-1.4958451339644974e-05
0.5463526197925765,-2.828845952292536e-05,0.5463526197925765,-0.0001382446757469,0.5463526197925765,5.213487856877608e-06,0.5463526197925765,-1.407048761834029e-05
0.5471467369725076,-2.495273222572654e-05,0.5471467369725076,-0.0001187335600266,0.5471467369725076,4.709241295712244e-06,0.5471467369725076,-1.3160815060949655e-05
0.5479408541524387,-2.082610427572212e-05,0.5479408541524387,-7.063158163440035e-05,0.5479408541524387,4.838549551697897e-06,0.5479408541524387,-1.296317393106947e-05
0.5487349713323698,-1.5731231410374602e-05,0.5487349713323698,-9.996542047783297e-06,0.5487349713323698,3.7229878525936496e-06,0.5487349713323698,-1.333936314103746e-05
0.5495290885123009,-1.0990377858905404e-05,0.5495290885123009,5.728858828605034e-05,0.5495290885123009,1.728601044279121e-06,0.5495290885123009,-1.3674690670309197e-05
0.5503232056922319,-4.502686476578548e-06,0.5503232056922319,0.0001105391800327,0.5503232056922319,-2.5373573460014244e-06,0.5503232056922319,-1.3635400741606603e-05
0.551117322872163,5.815866155664911e-06,0.551117322872163,0.0001380301708278,0.551117322872163,-4.788683282516619e-06,0.551117322872163,-1.0475640152450145e-05
0.551911440052094,1.3496548610545688e-05,0.551911440052094,0.0001481121365076,0.551911440052094,-7.868844501159825e-06,0.551911440052094,-9.962216272205193e-06
0.5527055572320251,1.6635798579646786e-05,0.5527055572320251,0.0001143632508534,0.5527055572320251,-1.2764626136537348e-05,0.5527055572320251,-9.508760891202216e-06
0.5534996744119562,1.963746180337952e-05,0.5534996744119562,8.343078740487547e-05,0.5534996744119562,-1.3597207294930724e-05,0.5534996744119562,-6.882992738788735e-06
0.5542937915918873,2.1267357437156728e-05,0.5542937915918873,6.377192511471652e-05,0.5542937915918873,-7.712795141791567e-06,0.5542937915918873,-7.4046365722469934e-06
0.5550879087718184,1.6602799004293312e-05,0.5550879087718184,3.519770742717648e-05,0.5550879087718184,-7.948966472449191e-06,0.5550879087718184,-9.447301160666603e-06
0.5558820259517494,6.5586405692913966e-06,0.5558820259517494,8.413107730602748e-06,0.5558820259517494,-4.4775986456704335e-06,0.5558820259517494,-1.1401913006471197e-05
0.5566761431316805,-6.9413046874140345e-06,0.5566761431316805,-2.5107266766790616e-05,0.5566761431316805,1.454164337192603e-07,0.5566761431316805,-1.3416733150033e-05
0.5574702603116115,-1.7539570984238395e-05,0.5574702603116115,-4.364191570820887e-05,0.5574702603116115,1.5297450927380777e-06,0.5574702603116115,-1.4029730242333774e-05
0.5582643774915427,-2.382428808545444e-05,0.5582643774915427,-5.241859027394656e-05,0.5582643774915427,3.5831078664796235e-06,0.5582643774915427,-1.49386e-05
0.5590584946714737,-1.9284707247413626e-05,0.5590584946714737,-5.04457969859955e-05,0.5590584946714737,6.1309923008779326e-06,0.5590584946714737,-1.620197170936549e-05
0.5598526118514048,-1.2531021100789994e-05,0.5598526118514048,-5.26098993705175e-05,0.5598526118514048,4.887962912796248e-06,0.5598526118514048,-1.5531988187993745e-05
0.5606467290313358,-6.588697270035887e-06,0.5606467290313358,-6.288207704822319e-05,0.5606467290313358,4.118223708885868e-06,0.5606467290313358,-1.3832203594922362e-05
0.5614408462112669,-3.291176001157105e-07,0.5614408462112669,-6.940105607935814e-05,0.5614408462112669,3.2666643527464527e-06,0.5614408462112669,-1.5571237534957836e-05
0.5622349633911979,2.2613088617486028e-06,0.5622349633911979,-6.273177494848051e-05,0.5622349633911979,5.814078052557604e-06,0.5622349633911979,-1.3400013170491618e-05
0.563029080571129,-2.19948064641194e-06,0.563029080571129,-5.245855612189569e-05,0.563029080571129,5.894779432080938e-06,0.563029080571129,-1.2253e-05
0.5638231977510602,-9.014206611259087e-06,0.5638231977510602,-5.1330209471451e-05,0.5638231977510602,5.963541196451333e-06,0.5638231977510602,-1.0673345240030018e-05
0.5646173149309912,-1.6508679957907042e-05,0.5646173149309912,-5.810142458061664e-05,0.5646173149309912,6.2301595458776746e-06,0.5646173149309912,-9.86362208426764e-06
0.5654114321109223,-2.070460068660906e-05,0.5654114321109223,-6.410835247924747e-05,0.5654114321109223,4.0189338204332735e-06,0.5654114321109223,-1.3042601373218118e-05
0.5662055492908533,-2.055623476319157e-05,0.5662055492908533,-6.101183800478671e-05,0.5662055492908533,1.5306203324533889e-06,0.5662055492908533,-1.39315e-05
0.5669996664707844,-2.3329438281655807e-05,0.5669996664707844,-5.790907866818565e-05,0.5669996664707844,1.845859460267511e-06,0.5669996664707844,-1.3596040269866245e-05
0.5677937836507154,-2.5856993242421217e-05,0.5677937836507154,-4.878457698354781e-05,0.5677937836507154,-1.0730436447051385e-07,0.5677937836507154,-1.3496738648484245e-05
0.5685879008306466,-2.4126094482668518e-05,0.5685879008306466,-3.923801904104796e-05,0.5685879008306466,-8.993071172269622e-07,0.5685879008306466,-1.4207136167088404e-05
0.5693820180105776,-1.7468209925583396e-05,0.5693820180105776,-3.978905197862321e-05,0.5693820180105776,3.35698e-07,0.5693820180105776,-1.4228202481395849e-05
0.5701761351905087,-1.62814e-05,0.5701761351905087,-4.23869650636394e-05,0.5701761351905087,4.737006646499779e-07,0.5701761351905087,-1.4759515987899869e-05
0.5709702523704397,-1.5394415871710026e-05,0.5709702523704397,-3.854177685674534e-05,0.5709702523704397,2.7142304769739843e-06,0.5709702523704397,-1.564818730263198e-05
0.5717643695503708,-1.0478568185747645e-05,0.5717643695503708,-3.100366058013662e-05,0.5717643695503708,2.5382867119358648e-06,0.5717643695503708,-1.6795223355967935e-05
0.5725584867303019,-2.4601180960475973e-06,0.5725584867303019,-3.074363470292042e-05,0.5725584867303019,8.789712563349308e-07,0.5725584867303019,-1.5649725611344863e-05
