X [s].2,L DELTOID ANTERIOR: EMG 3 [V],X [s].3,L BICEPS BRACHII: EMG 4 [V],X [s].4,L DELTOID POSTERIOR: EMG 5 [V],X [s].7,L DELTOID MEDIUS: EMG 8 [V]
0.0,-6.21042e-06,0.0,-1.52743e-05,0.0,-2.76951e-05,0.0,-1.51064e-05
0.000794117179931,-5.203331040000627e-06,0.000794117179931,-1.5777799480046155e-05,0.000794117179931,-2.7023700693340635e-05,0.000794117179931,-1.560999947994289e-05
0.0015882343598621,-3.860539537044833e-06,0.0015882343598621,-1.2924420265865152e-05,0.0015882343598621,-2.2995328611134495e-05,0.0015882343598621,-1.4938604768522416e-05
0.0023823515397932,-3.5248339055199306e-06,0.0023823515397932,-1.0238799349080013e-05,0.0023823515397932,-1.4938585679799037e-05,0.0023823515397932,-1.6952798698160025e-05
0.0031764687197242,-5.539026752718292e-06,0.0031764687197242,-9.903100541213618e-06,0.0031764687197242,-7.553231906667352e-06,0.0031764687197242,-1.6281401082427235e-05
0.0039705858996553,-3.692689533409736e-06,0.0039705858996553,-1.0238798266652774e-05,0.0039705858996553,-9.903087866672697e-06,0.0039705858996553,-1.4602908666736124e-05
0.0047647030795864,-6.546095133500081e-06,0.0047647030795864,-1.0910194149038337e-05,0.0047647030795864,-1.4267161968749194e-05,0.0047647030795864,-1.4938597074519168e-05
0.0055588202595174,-7.553219451468148e-06,0.0055588202595174,-1.258870043882548e-05,0.0055588202595174,-2.433810438825481e-05,0.0055588202595174,-1.6281399780587258e-05
0.0063529374394485,-5.874725412136181e-06,0.0063529374394485,-1.3931495670291056e-05,0.0063529374394485,-3.776605670291056e-05,0.0063529374394485,-1.5610002164854472e-05
0.0071470546193796,-8.224594078141855e-06,0.0071470546193796,-1.2253011372804214e-05,0.0071470546193796,-5.018681584192637e-05,0.0071470546193796,-1.7120589764814986e-05
0.0079411717993107,-5.874744266757879e-06,0.0079411717993107,-1.1078112132914234e-05,0.0079411717993107,-6.529324399874978e-05,0.0079411717993107,-1.4602925999692032e-05
0.0087352889792417,-5.203330863012509e-06,0.0087352889792417,-1.0910200215820611e-05,0.0087352889792417,-7.335008964382419e-05,0.0087352889792417,-1.191730345210145e-05
0.0095294061591728,-9.231690516406482e-06,0.0095294061591728,-1.2588691881795727e-05,0.0095294061591728,-6.999311623640854e-05,0.0095294061591728,-1.3595791881795728e-05
0.0103235233391039,-7.217450935238751e-06,0.0103235233391039,-1.1581629599309351e-05,0.0103235233391039,-5.690050534548104e-05,0.0103235233391039,-1.4267126000257089e-05
0.0111176405190349,-4.867664253941188e-06,0.0111176405190349,-1.258869143396377e-05,0.0111176405190349,-4.347202376267615e-05,0.0111176405190349,-1.1749391439065635e-05
0.011911757698966,-5.538994239594324e-06,0.011911757698966,-1.242080894276454e-05,0.011911757698966,-2.4339119171561777e-05,0.011911757698966,-1.1581608937438296e-05
0.0127058748788971,-2.853524957792036e-06,0.0127058748788971,-1.1581626547827136e-05,0.0127058748788971,-4.8682459421732685e-06,0.0127058748788971,-1.2924357520945808e-05
0.0134999920588282,-3.524823285954748e-06,0.0134999920588282,-1.1749398321963695e-05,0.0134999920588282,1.023864893243179e-05,0.0134999920588282,-1.3931489928782118e-05
0.0142941092387592,-4.196233905618294e-06,0.0142941092387592,-1.2253003905618294e-05,0.0142941092387592,3.659132457247017e-05,0.0142941092387592,-1.426723319717378e-05
0.0150882264186903,-4.532052835267501e-06,0.0150882264186903,-1.2588755834514906e-05,0.0150882264186903,5.589375533238808e-05,0.0150882264186903,-1.7120572084405773e-05
0.0158823435986214,-8.224347758445372e-06,0.0158823435986214,-1.4267080798647743e-05,0.0158823435986214,5.455109536108181e-05,0.0158823435986214,-1.6281459597125296e-05
0.0166764607785524,-3.860745546574335e-06,0.0166764607785524,-1.3595833161163409e-05,0.0166764607785524,4.280218031542054e-05,0.0166764607785524,-1.3595932644653634e-05
0.0174705779584835,-1.5107052249579143e-06,0.0174705779584835,-1.3427904660333225e-05,0.0174705779584835,3.8773311814689394e-05,0.0174705779584835,-1.35958e-05
0.0182646951384146,-8.392501103629903e-07,0.0182646951384146,-1.39314969168941e-05,0.0182646951384146,3.927669691750632e-05,0.0182646951384146,-1.3260102055199862e-05
0.0190588123183456,-2.1820608298091104e-06,0.0190588123183456,-1.35958e-05,0.0190588123183456,2.8366406265160947e-05,0.0190588123183456,-1.3260089585017884e-05
0.0198529294982767,-3.524854937223647e-06,0.0198529294982767,-1.3595750125552705e-05,0.0198529294982767,2.232371297453686e-05,0.0198529294982767,-1.2588762343059118e-05
0.0206470466782078,-4.1961849228767815e-06,0.0206470466782078,-1.2253090154246437e-05,0.0206470466782078,1.7288838071710236e-05,0.0206470466782078,-1.4267087307191954e-05
0.0214411638581389,-2.8535011143806307e-06,0.0214411638581389,-1.242079236292118e-05,0.0214411638581389,4.532510589574334e-06,0.0214411638581389,-1.493856944258212e-05
0.0222352810380699,-4.867581904130673e-06,0.0222352810380699,-1.2253004006815083e-05,0.0222352810380699,-1.0238447296878675e-05,0.0222352810380699,-1.023891222425226e-05
0.023029398218001,-7.5532139734056624e-06,0.023029398218001,-1.2420799623448654e-05,0.023029398218001,-1.628138644011225e-05,0.023029398218001,-7.888915273267241e-06
0.0238235153979321,-5.874661416113405e-06,0.0238235153979321,-1.4267186981272356e-05,0.0238235153979321,-1.7288545565546757e-05,0.0238235153979321,-1.0238816274379076e-05
0.0246176325778631,-2.8533918038776715e-06,0.0246176325778631,-1.3595813770320665e-05,0.0246176325778631,-1.963851015846335e-05,0.0246176325778631,-1.1078161964392008e-05
0.0254117497577942,-1.678564328984681e-06,0.0254117497577942,-1.3931478763147234e-05,0.0254117497577942,-2.2323730111504013e-05,0.0254117497577942,-1.2588604437325624e-05
0.0262058669377253,-3.0212340926552964e-06,0.0262058669377253,-1.39315e-05,0.0262058669377253,-2.8366248416948835e-05,0.0262058669377253,-1.5106295175810427e-05
0.0269999841176564,-4.53189978654636e-06,0.0269999841176564,-1.1917340284871529e-05,0.0269999841176564,-3.8101605289787625e-05,0.0269999841176564,-1.3595830212653623e-05
0.0277941012975874,-5.539031097074994e-06,0.0277941012975874,-1.1581604388365337e-05,0.0277941012975874,-4.448000219418267e-05,0.0277941012975874,-1.3763602468537203e-05
0.0285882184775185,-6.210380948967397e-06,0.0285882184775185,-1.4267153138481689e-05,0.0285882184775185,-4.5822885912783565e-05,0.0285882184775185,-1.5274370292277465e-05
0.0293823356574496,-4.532065983791742e-06,0.0293823356574496,-1.2253163181522276e-05,0.0293823356574496,-4.951520083387583e-05,0.0293823356574496,-1.8295355227716583e-05
0.0301764528373806,-7.21736049935926e-06,0.0301764528373806,-1.0574599688271655e-05,0.0301764528373806,-4.683005950123465e-05,0.0301764528373806,-1.779202990945106e-05
0.0309705700173117,-8.560259300523923e-06,0.0309705700173117,-1.1581561975109764e-05,0.0309705700173117,-3.440956896987055e-05,0.0309705700173117,-1.628145703544751e-05
0.0317646871972428,-5.70691600415493e-06,0.0317646871972428,-1.0910210824544976e-05,0.0317646871972428,-2.366687319271964e-05,0.0317646871972428,-1.2588759534997377e-05
0.0325588043771738,-4.8676411024554666e-06,0.0325588043771738,-1.1917305551255294e-05,0.0325588043771738,-1.9638403700836863e-05,0.0325588043771738,-1.2253016653765882e-05
0.0333529215571049,-6.881874671499946e-06,0.0333529215571049,-1.2924358994814307e-05,0.0333529215571049,-2.0309635984685862e-05,0.0333529215571049,-1.5274272664114313e-05
0.034147038737036,-8.895854629502152e-06,0.034147038737036,-1.141381653230882e-05,0.034147038737036,-1.426766611380768e-05,0.034147038737036,-1.4267277685634612e-05
0.0349411559169671,-6.881931814134263e-06,0.0349411559169671,-1.258863477198886e-05,0.0349411559169671,-1.42672e-05,0.0349411559169671,-1.3595837271563133e-05
0.0357352730968981,-6.88182e-06,0.0357352730968981,-1.2924388626909354e-05,0.0357352730968981,-1.6281331761456125e-05,0.0357352730968981,-1.4267177253818708e-05
0.0365293902768292,-6.042580275999308e-06,0.0365293902768292,-1.29244e-05,0.0365293902768292,-2.098114245440388e-05,0.0365293902768292,-1.42672e-05
0.0373235074567603,-4.531948913653263e-06,0.0373235074567603,-1.3595793695417613e-05,0.0373235074567603,-1.762421576145597e-05,0.0373235074567603,-1.4938574781670447e-05
0.0381176246366913,-6.546130413670737e-06,0.0381176246366913,-1.2924358345317051e-05,0.0381176246366913,-1.93031477847396e-05,0.0381176246366913,-1.2252979172658524e-05
0.0389117418166224,-6.881795406497302e-06,0.0389117418166224,-1.1581698374010788e-05,0.0389117418166224,-3.3736642486710044e-05,0.0389117418166224,-1.1581649187005396e-05
0.0397058589965535,-5.539099335118861e-06,0.0397058589965535,-1.15816e-05,0.0397058589965535,-4.196187532181609e-05,0.0397058589965535,-1.4938426660911969e-05
0.0404999761764846,-3.5248904273072985e-06,0.0404999761764846,-1.2252979857564234e-05,0.0404999761764846,-4.3137264749237375e-05,0.0404999761764846,-1.4435015108326856e-05
0.0412940933564156,-4.86761876589216e-06,0.0412940933564156,-9.90311965968872e-06,0.0412940933564156,-4.129091544731659e-05,0.0412940933564156,-1.628138455268341e-05
0.0420882105363467,-4.867603278513927e-06,0.0420882105363467,-1.0910191092793752e-05,0.0420882105363467,-4.045166437117501e-05,0.0420882105363467,-1.5106379959449275e-05
0.0428823277162778,-2.853623320511703e-06,0.0428823277162778,-1.0238861107140616e-05,0.0428823277162778,-3.7766344428562464e-05,0.0428823277162778,-1.359593748651566e-05
0.0436764448962088,-4.8674902323321535e-06,0.0436764448962088,-9.90312329472696e-06,0.0436764448962088,-3.5248474713921776e-05,0.0436764448962088,-1.4099265061379136e-05
0.0444705620761399,-8.560133648558731e-06,0.0444705620761399,-1.0910151903891887e-05,0.0444705620761399,-3.0045248494170727e-05,0.0444705620761399,-1.3595824045666204e-05
0.045264679256071,-7.553246307774126e-06,0.045264679256071,-1.3260038614584178e-05,0.045264679256071,-2.6688087693451173e-05,0.045264679256071,-1.1581652616070703e-05
0.046058796436002,-7.049672259981292e-06,0.046058796436002,-1.191730602661678e-05,0.046058796436002,-1.5106451979345304e-05,0.046058796436002,-1.0910203013308388e-05
0.0468529136159331,-5.53903e-06,0.0468529136159331,-1.25887e-05,0.0468529136159331,-3.1889846072627548e-06,0.0468529136159331,-1.2756456836017486e-05
0.0476470307958642,-5.53903e-06,0.0476470307958642,-1.25887e-05,0.0476470307958642,5.873930203225926e-06,0.0476470307958642,-1.023901938460414e-05
0.0484411479757953,-5.53903e-06,0.0484411479757953,-1.3595734021437415e-05,0.0484411479757953,8.392295054248676e-06,0.0484411479757953,-1.02388e-05
0.0492352651557263,-5.53903e-06,0.0492352651557263,-1.5106333716459212e-05,0.0492352651557263,8.895987904755089e-06,0.0492352651557263,-1.2924282158693805e-05
0.0500293823356574,-7.553175195388317e-06,0.0500293823356574,-1.4938603732623952e-05,0.0500293823356574,-8.390294442804742e-07,0.0500293823356574,-1.5609940260221163e-05
0.0508234995155885,-6.378270716735011e-06,0.0508234995155885,-1.0238802866940042e-05,0.0508234995155885,-9.567404675704737e-06,0.0508234995155885,-1.561e-05
0.0516176166955195,-4.53197939893545e-06,0.0516176166955195,-1.1581621171062427e-05,0.0516176166955195,-1.4267298798291332e-05,0.0516176166955195,-1.493861411404162e-05
0.0524117338754506,-6.881624349764221e-06,0.0524117338754506,-1.2588616149542126e-05,0.0524117338754506,-1.8966608697863257e-05,0.0524117338754506,-1.5609944099694753e-05
0.0532058510553817,-6.2104613819628576e-06,0.0532058510553817,-1.292437930901857e-05,0.0532058510553817,-2.165243447214857e-05,0.0532058510553817,-1.4938641381962857e-05
0.0539999682353128,-4.867683712762027e-06,0.0539999682353128,-1.258871342829051e-05,0.0539999682353128,-2.098122685658102e-05,0.0539999682353128,-1.0238987996067125e-05
0.0547940854152438,-3.5248546623983435e-06,0.0547940854152438,-1.091023082799793e-05,0.0547940854152438,-1.2253160305589234e-05,0.0547940854152438,-8.22464699341385e-06
0.0555882025951749,-3.5248327423829903e-06,0.0555882025951749,-1.2588695612187216e-05,0.0555882025951749,-2.349862027824205e-06,0.0555882025951749,-1.191730548476598e-05
0.056382319775106,-4.363995224449412e-06,0.056382319775106,-1.124603564088094e-05,0.056382319775106,6.209555293424543e-06,0.056382319775106,-1.3595630448898823e-05
0.057176436955037,-4.36408e-06,0.057176436955037,-1.0910226651799583e-05,0.057176436955037,1.4266560358397772e-05,0.057176436955037,-1.35958e-05
0.0579705541349681,-4.196239694554331e-06,0.0579705541349681,-1.4267006108913369e-05,0.0579705541349681,1.5945603054456683e-05,0.0579705541349681,-1.4267161221782671e-05
0.0587646713148992,-4.867605747164508e-06,0.0587646713148992,-1.594563936791127e-05,0.0587646713148992,1.3260197011341968e-05,0.0587646713148992,-1.5609951494329018e-05
0.0595587884948302,-2.853469182216056e-06,0.0595587884948302,-1.359583404608776e-05,0.0595587884948302,9.231768364576997e-06,0.0595587884948302,-1.8295561090185412e-05
0.0603529056747613,-1.5106543919007658e-06,0.0603529056747613,-1.2253004797324072e-05,0.0603529056747613,5.034268682959788e-07,0.0603529056747613,-1.7288504797324073e-05
0.0611470228546924,-3.5246343499029897e-06,0.0611470228546924,-1.292433478297721e-05,0.0611470228546924,-1.644755328008242e-05,0.0611470228546924,-1.7959834782977212e-05
0.0619411400346235,-5.874542551267375e-06,0.0619411400346235,-1.1246026749634116e-05,0.0619411400346235,-2.7694250781227103e-05,0.0619411400346235,-1.5610177449487763e-05
0.0627352572145545,-5.203366173933009e-06,0.0627352572145545,-1.15815819127641e-05,0.0627352572145545,-3.877260312121529e-05,0.0627352572145545,-9.735576526089465e-06
0.0635293743944856,-6.210387526687515e-06,0.0635293743944856,-1.2588667526365067e-05,0.0635293743944856,-5.052222114415026e-05,0.0635293743944856,-8.560347885907421e-06
0.0643234915744167,-5.874723561854061e-06,0.0643234915744167,-1.25887e-05,0.0643234915744167,-5.455095725775128e-05,0.0643234915744167,-1.1581567943419558e-05
0.0651176087543477,-2.5177437003708795e-06,0.0651176087543477,-1.2588725902596156e-05,0.0651176087543477,-4.951527057810775e-05,0.0651176087543477,-1.3763631453703618e-05
0.0659117259342788,-2.8534086931974423e-06,0.0659117259342788,-1.4938380852382095e-05,0.0659117259342788,-2.870414101243274e-05,0.0659117259342788,-1.661683388751535e-05
0.0667058431142099,-3.1891159519459453e-06,0.0667058431142099,-1.560995190389189e-05,0.0667058431142099,-4.365823474606327e-06,0.0667058431142099,-1.7624127855837834e-05
0.067499960294141,-2.182090356089412e-06,0.067499960294141,-1.3595900712178824e-05,0.067499960294141,7.216940907471811e-06,0.067499960294141,-1.628146714145255e-05
0.068294077474072,-3.524791909594808e-06,0.068294077474072,-1.2588728568016644e-05,0.068294077474072,1.25885476378119e-05,0.068294077474072,-1.7791957149393363e-05
0.0690881946540031,-2.517746779876571e-06,0.0690881946540031,-1.1917304519962596e-05,0.0690881946540031,1.7288468360261833e-05,0.0690881946540031,-1.7959898869672744e-05
0.0698823118339342,-2.349908633435081e-06,0.0698823118339342,-1.3931276398779026e-05,0.0698823118339342,2.0645127331298378e-05,0.0698823118339342,-1.8631225466259674e-05
0.0706764290138652,-7.217084873140726e-06,0.0706764290138652,-1.4267169991127785e-05,0.0706764290138652,3.0044159760517186e-05,0.0706764290138652,-1.8295630008872216e-05
0.0714705461937963,-8.2245417621337e-06,0.0714705461937963,-1.4602877253818707e-05,0.0714705461937963,3.340177253818709e-05,0.0714705461937963,-1.5777970599747562e-05
0.0722646633737274,-3.860731284452411e-06,0.0722646633737274,-1.6281322582548125e-05,0.0722646633737274,2.2324410955182365e-05,0.0722646633737274,-1.2924531607362032e-05
0.0730587805536585,-3.1891564413540066e-06,0.0730587805536585,-1.3595865766395567e-05,0.0730587805536585,-1.6729821013489014e-07,0.0730587805536585,-1.225301644159889e-05
0.0738528977335895,-6.881809460863263e-06,0.0738528977335895,-1.35958e-05,0.0738528977335895,-2.1652538681194e-05,0.0738528977335895,-1.3931495209457357e-05
0.0746470149135206,-8.224466140426061e-06,0.0746470149135206,-1.35958e-05,0.0746470149135206,-3.373640526490589e-05,0.0746470149135206,-1.4267164034838678e-05
0.0754411320934517,-6.881934827142669e-06,0.0754411320934517,-1.158177224199671e-05,0.0754411320934517,-3.44090425860011e-05,0.0754411320934517,-1.762391293000548e-05
0.0762352492733827,-5.539115776595322e-06,0.0762352492733827,-1.2588635667074412e-05,0.0762352492733827,-3.642317133414883e-05,0.0762352492733827,-1.76242e-05
0.0770293664533138,-7.72097781990801e-06,0.0770293664533138,-1.4602814910294364e-05,0.0770293664533138,-3.3066441816176057e-05,0.0770293664533138,-1.6281456726470424e-05
0.0778234836332449,-5.539074972817374e-06,0.0778234836332449,-1.3092231136200622e-05,0.0778234836332449,-2.4673972973167227e-05,0.0778234836332449,-1.4267241513560132e-05
0.078617600813176,-6.210420687441912e-06,0.078617600813176,-1.3260098968837134e-05,0.078617600813176,-1.5609994500464716e-05,0.078617600813176,-1.3260098968837134e-05
0.079411717993107,-6.881750673095036e-06,0.079411717993107,-1.2253103990357444e-05,0.079411717993107,-1.0239354615239708e-05,0.079411717993107,-1.2253103990357444e-05
0.0802058351730381,-6.210474810253367e-06,0.0802058351730381,-1.0910309620506733e-05,0.0802058351730381,-1.2588508164113218e-05,0.0802058351730381,-1.3763476681011714e-05
0.0809999523529692,-5.035550497925168e-06,0.0809999523529692,-7.049901636811284e-06,0.0809999523529692,-1.0238940997050362e-05,0.0809999523529692,-1.225309063796088e-05
0.0817940695329002,-4.196262199362094e-06,0.0817940695329002,-7.553200680382743e-06,0.0817940695329002,-8.89606151859568e-06,0.0817940695329002,-7.553400315660387e-06
0.0825881867128313,-4.19623e-06,0.0825881867128313,-1.1581532595687602e-05,0.0825881867128313,-2.232367531968375e-05,0.0825881867128313,-4.364133361844919e-06
0.0833823038927624,-4.364059688239954e-06,0.0833823038927624,-1.15816e-05,0.0833823038927624,-3.18902422236268e-05,0.0833823038927624,-6.378026260089561e-06
0.0841764210726934,-6.881569756407597e-06,0.0841764210726934,-1.0910266731889684e-05,0.0841764210726934,-3.205918332199718e-05,0.0841764210726934,-9.902749659566989e-06
0.0849705382526245,-5.539134412238081e-06,0.0849705382526245,-1.225289558698434e-05,0.0849705382526245,-3.239487389674608e-05,0.0849705382526245,-1.292416507071477e-05
0.0857646554325556,-7.720947536901748e-06,0.0857646554325556,-1.107816593916433e-05,0.0857646554325556,-2.6352639130133957e-05,0.0857646554325556,-1.4602805797185011e-05
0.0865587726124866,-8.224592633536767e-06,0.0865587726124866,-1.1245894212788395e-05,0.0865587726124866,-1.930294313186481e-05,0.0865587726124866,-1.6617030532767517e-05
0.0873528897924177,-4.531977466735648e-06,0.0873528897924177,-1.3595769793731896e-05,0.0873528897924177,-1.4267264727717363e-05,0.0873528897924177,-1.795988273927537e-05
0.0881470069723488,-8.224177462418903e-06,0.0881470069723488,-1.7288067460076226e-05,0.0881470069723488,-1.309233763219607e-05,0.0881470069723488,-1.661725728724501e-05
0.0889411241522799,-9.902939680594768e-06,0.0889411241522799,-1.426748857664867e-05,0.0889411241522799,-1.5609759514683736e-05,0.0889411241522799,-1.6281432064072073e-05
0.0897352413322109,-8.560409204785836e-06,0.0897352413322109,-1.292449920552463e-05,0.0897352413322109,-1.7624051191713055e-05,0.0897352413322109,-1.6617075198618844e-05
0.090529358512142,-7.217590154238487e-06,0.090529358512142,-1.2588717538690235e-05,0.090529358512142,-2.3834275536842917e-05,0.090529358512142,-1.8966877229168355e-05
0.0913234756920731,-8.56026889630886e-06,0.0913234756920731,-1.2924389724000688e-05,0.0913234756920731,-2.8366361275539825e-05,0.0913234756920731,-1.6449277071525372e-05
0.0921175928720041,-6.881835066452183e-06,0.0921175928720041,-1.1581612053233556e-05,0.0921175928720041,-2.803080301330839e-05,0.0921175928720041,-1.0910249719139609e-05
0.0929117100519352,-4.1965341596867314e-06,0.0929117100519352,-1.0910276040204824e-05,0.0929117100519352,-2.5681166140716883e-05,0.0929117100519352,-8.560576139584321e-06
0.0937058272318663,-3.189232285681576e-06,0.0937058272318663,-1.258854618900344e-05,0.0937058272318663,-1.846406138270341e-05,0.0937058272318663,-4.867968382359711e-06
0.0944999444117974,-5.035350753403876e-06,0.0944999444117974,-1.225302349950839e-05,0.0944999444117974,-1.5777987996067112e-05,0.0944999444117974,-1.8465514948754853e-06
0.0952940615917284,-6.881730697987575e-06,0.0952940615917284,-1.2588683763182529e-05,0.0952940615917284,-1.644916752636506e-05,0.0952940615917284,-3.524748816396311e-06
0.0960881787716595,-7.049665512936726e-06,0.0960881787716595,-1.292439102587345e-05,0.0960881787716595,-1.64492e-05,0.0960881787716595,-6.881730259001835e-06
0.0968822959515906,-7.553154029744966e-06,0.0968822959515906,-1.1581775920680088e-05,0.0968822959515906,-1.3596173824894672e-05,0.0968822959515906,-1.225229631989985e-05
0.0976764131315216,-5.539250337010874e-06,0.0976764131315216,-1.2252926553965069e-05,0.0976764131315216,-1.023916723017466e-05,0.0976764131315216,-1.695228587775548e-05
0.0984705303114527,-1.8466640627144603e-06,0.0984705303114527,-1.2253e-05,0.0984705303114527,-1.393117593640796e-05,0.0984705303114527,-1.728847053967345e-05
0.0992646474913838,-3.524719012483104e-06,0.0992646474913838,-1.3595711209457496e-05,0.0992646474913838,-1.6952600221279366e-05,0.0992646474913838,-1.5274433185813757e-05
0.1000587646713148,-3.52483e-06,0.1000587646713148,-1.225339783376352e-05,0.1000587646713148,-1.3596794584408797e-05,0.1000587646713148,-1.493869945844088e-05
0.1008528818512459,-2.853539904146056e-06,0.1008528818512459,-1.0239099716902226e-05,0.1008528818512459,-8.89670933795051e-06,0.1008528818512459,-1.49386e-05
0.101646999031177,-3.1891395903855545e-06,0.101646999031177,-1.0406699795131768e-05,0.101646999031177,-5.706873891325031e-06,0.101646999031177,-1.661709795192777e-05
0.1024411162111081,-6.881942833970366e-06,0.1024411162111081,-1.426690519847112e-05,0.1024411162111081,-5.037445331816936e-07,0.1024411162111081,-1.896685259923556e-05
0.1032352333910391,-7.720823308023123e-06,0.1032352333910391,-1.2252407939255496e-05,0.1032352333910391,-1.8501883830815337e-06,0.1032352333910391,-1.7959307939255498e-05
0.1040293505709702,-6.881227870197299e-06,0.1040293505709702,-1.023946612894046e-05,0.1040293505709702,-1.4943707135533442e-05,0.1040293505709702,-1.5945329894068762e-05
0.1048234677509013,-5.539928992160028e-06,0.1048234677509013,-1.1748388659762927e-05,0.1048234677509013,-2.651244616835055e-05,0.1048234677509013,-1.5106961907759153e-05
0.1056175849308323,-4.532456468713741e-06,0.1056175849308323,-1.2420449020857508e-05,0.1056175849308323,-3.037868189606852e-05,0.1056175849308323,-1.4938687718647766e-05
0.1064117021107634,-2.1829216208287874e-06,0.1064117021107634,-1.2253062954425557e-05,0.1064117021107634,-3.2394144321788104e-05,0.1064117021107634,-1.2925155678211893e-05
0.1072058192906945,-2.517663596833949e-06,0.1072058192906945,-1.0574882015830251e-05,0.1072058192906945,-2.5682428063321012e-05,0.1072058192906945,-1.4266894387335798e-05
0.1079999364706256,-4.1960957009828255e-06,0.1079999364706256,-1.107805970605422e-05,0.1079999364706256,-5.708468158224366e-06,0.1079999364706256,-1.3595853719926917e-05
0.1087940536505566,-5.203352683239134e-06,0.1087940536505566,-1.2924422683239131e-05,0.1087940536505566,8.560253292577867e-06,0.1087940536505566,-1.1078202071197602e-05
0.1095881708304877,-5.5394633564988725e-06,0.1095881708304877,-1.3259305511292467e-05,0.1095881708304877,7.720817207453938e-06,0.1095881708304877,-1.258956671730078e-05
0.1103822880104188,-7.551758767895378e-06,0.1103822880104188,-9.567531766016996e-06,0.1103822880104188,6.543319312689758e-06,0.1103822880104188,-1.661770884822165e-05
0.1111764051903498,-3.52483e-06,0.1111764051903498,-9.903613292077193e-06,0.1111764051903498,-1.1793885109487298e-06,0.1111764051903498,-1.8296284389436255e-05
0.1119705223702809,-3.52483e-06,0.1119705223702809,-1.0909594942276656e-05,0.1119705223702809,-9.897856190429368e-06,0.1119705223702809,-1.963759325636888e-05
0.112764639550212,-5.873653227516039e-06,0.112764639550212,-9.568019582330976e-06,0.112764639550212,-7.889824375766302e-06,0.112764639550212,-2.165168561969403e-05
0.1135587567301431,-3.693348544784062e-06,0.1135587567301431,-1.0574191442518662e-05,0.1135587567301431,-8.89570143945481e-06,0.1135587567301431,-2.064580856054519e-05
0.1143528739100741,-3.189219963880673e-06,0.1143528739100741,-1.2588380138125171e-05,0.1143528739100741,-1.862975400252636e-05,0.1143528739100741,-1.9974206620624943e-05
0.1151469910900052,-6.88177856201576e-06,0.1151469910900052,-1.2420801884116022e-05,0.1151469910900052,-2.4338035960254217e-05,0.1151469910900052,-2.5848734076138198e-05
0.1159411082699363,-6.210511552185438e-06,0.1159411082699363,-1.0910108447814562e-05,0.1159411082699363,-1.7622689391667486e-05,0.1159411082699363,-3.0716079567350974e-05
0.1167352254498673,-6.881438725658176e-06,0.1167352254498673,-1.0238609364248796e-05,0.1167352254498673,-6.5425932031100125e-06,0.1167352254498673,-2.836535616845627e-05
0.1175293426297984,-5.539102335830657e-06,0.1175293426297984,-9.568712118218564e-06,0.1175293426297984,5.87746891671806e-06,0.1175293426297984,-2.433354259269974e-05
0.1183234598097295,-5.706755955301888e-06,0.1183234598097295,-1.258664707992161e-05,0.1183234598097295,1.2248666056857304e-05,0.1183234598097295,-1.3770785210082097e-05
0.1191175769896605,-8.223268652327526e-06,0.1191175769896605,-1.2924221152933325e-05,0.1191175769896605,2.858447696556546e-06,0.1191175769896605,-8.56308209756794e-06
0.1199116941695916,-7.553478603876396e-06,0.1199116941695916,-1.0910975823184492e-05,0.1199116941695916,-8.555913687880037e-06,0.1199116941695916,-8.224739303864082e-06
0.1207058113495227,-6.881979521322969e-06,0.1207058113495227,-1.225268095735406e-05,0.1207058113495227,-1.862890718253141e-05,0.1207058113495227,-8.895850478677032e-06
0.1214999285294538,-6.546150217458892e-06,0.1214999285294538,-1.2253e-05,0.1214999285294538,-1.9638309347623324e-05,0.1214999285294538,-7.217671086394328e-06
0.1222940457093848,-4.867533371857156e-06,0.1222940457093848,-1.1246006288711956e-05,0.1222940457093848,-1.762451887189272e-05,0.1222940457093848,-6.2103910113844415e-06
0.1230881628893159,-3.189449908206837e-06,0.1230881628893159,-1.309292313419364e-05,0.1230881628893159,-2.3164818409980485e-05,0.1230881628893159,-5.707111041312042e-06
0.123882280069247,-4.700312851142684e-06,0.123882280069247,-1.661745523644667e-05,0.123882280069247,-3.104996858131998e-05,0.123882280069247,-6.88110953063398e-06
0.124676397249178,-6.210839360217238e-06,0.124676397249178,-1.762319353547863e-05,0.124676397249178,-2.500547419188297e-05,0.124676397249178,-4.867462255913105e-06
0.1254705144291091,-7.049157402050124e-06,0.1254705144291091,-1.5611230235079703e-05,0.1254705144291091,-1.6957720879240714e-05,0.1254705144291091,-4.53213503917995e-06
0.1262646316090402,-3.5264654145977564e-06,0.1262646316090402,-1.527445575421309e-05,0.1262646316090402,-2.265695222477432e-05,0.1262646316090402,-5.538562737360732e-06
0.1270587487889713,-5.538392733937016e-06,0.1270587487889713,-1.6784422066272097e-05,0.1270587487889713,-3.121729160341298e-05,0.1270587487889713,-7.5525827371008815e-06
0.1278528659689023,-5.53903e-06,0.1278528659689023,-1.4938911664503233e-05,0.1278528659689023,-3.709370832180191e-05,0.1278528659689023,-1.0238346660912855e-05
0.1286469831488334,-6.546098626396292e-06,0.1286469831488334,-1.292444274763188e-05,0.1286469831488334,-4.1794400255525616e-05,0.1286469831488334,-1.1917264376973436e-05
0.1294411003287645,-6.210504837194582e-06,0.1294411003287645,-1.4938430325610837e-05,0.1294411003287645,-4.666199394718884e-05,0.1294411003287645,-1.2253509023167488e-05
0.1302352175086955,-6.880946365640516e-06,0.1302352175086955,-1.35958e-05,0.1302352175086955,-4.582004117339756e-05,0.1302352175086955,-1.6281491961799883e-05
0.1310293346886266,-3.694022602373312e-06,0.1310293346886266,-1.3595517345982476e-05,0.1310293346886266,-3.574963876785982e-05,0.1310293346886266,-1.6616110710938672e-05
0.1318234518685577,-6.879621172442935e-06,0.1318234518685577,-1.2924862912516168e-05,0.1318234518685577,-3.0384403300129345e-05,0.1318234518685577,-1.426882019380659e-05
0.1326175690484888,-6.88182e-06,0.1326175690484888,-1.29244e-05,0.1326175690484888,-2.8703111022810573e-05,0.1326175690484888,-1.2421802152229633e-05
0.1334116862284198,-4.53285862556479e-06,0.1334116862284198,-1.325996733864049e-05,0.1334116862284198,-1.4272904398941118e-05,0.1334116862284198,-1.3259768326842308e-05
0.1342058034083509,-4.196313118156918e-06,0.1342058034083509,-1.359571688184308e-05,0.1342058034083509,1.0232732399304617e-05,0.1342058034083509,-1.9972437636861637e-05
0.134999920588282,-2.3500746612486457e-06,0.134999920588282,-1.0910468599634607e-05,0.134999920588282,3.440668261329e-05,0.134999920588282,-2.400199711054956e-05
0.135794037768213,-2.8534080635034444e-06,0.135794037768213,-1.2252936127006888e-05,0.135794037768213,3.6758425143062e-05,0.135794037768213,-2.1316548698537886e-05
0.1365881549481441,-2.18190897709826e-06,0.1365881549481441,-1.091046204580348e-05,0.1365881549481441,2.467173639905504e-05,0.1365881549481441,-1.3930157019160144e-05
0.1373822721280752,-1.5111002186138483e-06,0.1373822721280752,-1.2253115054653462e-05,0.1373822721280752,1.4099012380502876e-05,0.1373822721280752,-7.049439890693076e-06
0.1381763893080062,-2.85344e-06,0.1381763893080062,-1.2588042436741096e-05,0.1381763893080062,1.3259442436741096e-05,0.1381763893080062,-6.375393174453774e-06
0.1389705064879373,-2.85344e-06,0.1389705064879373,-1.1246733569808478e-05,0.1389705064879373,1.1918133569808478e-05,0.1389705064879373,-5.071948505305354e-07
0.1397646236678684,-1.679046890979832e-06,0.1397646236678684,-9.735975997948656e-06,0.1397646236678684,1.0239595558542616e-05,0.1397646236678684,-5.3688728887578695e-06
0.1405587408477994,-5.202179533951604e-06,0.1405587408477994,-1.1916587807975328e-05,0.1405587408477994,8.423139031522183e-07,0.1405587408477994,-1.1579572992431916e-05
0.1413528580277305,-6.210239925878047e-06,0.1413528580277305,-1.158166002530334e-05,0.1413528580277305,-1.8292178567365217e-05,0.1413528580277305,-9.735590137380302e-06
0.1421469752076616,-6.546109517899264e-06,0.1421469752076616,-1.023884192840294e-05,0.1421469752076616,-2.5680669396906285e-05,0.1421469752076616,-1.2252921384556732e-05
0.1429410923875927,-6.210341878959882e-06,0.1429410923875927,-1.225323436661107e-05,0.1429410923875927,-2.06435860095003e-05,0.1429410923875927,-1.728855858583491e-05
0.1437352095675237,-5.538852791391102e-06,0.1437352095675237,-1.4267554417217796e-05,0.1437352095675237,-4.191622594644372e-06,0.1437352095675237,-1.7792177208608896e-05
0.1445293267474548,-4.866802161690478e-06,0.1445293267474548,-1.560868922895222e-05,0.1445293267474548,1.3257616480961405e-05,0.1445293267474548,-1.8463882928628223e-05
0.1453234439273859,-2.854848850186896e-06,0.1453234439273859,-1.2423030725510526e-05,0.1453234439273859,7.221746557555311e-06,0.1453234439273859,-1.9637578131670997e-05
0.146117561107317,-1.5113822482301454e-06,0.146117561107317,-1.426617938104547e-05,0.146117561107317,-1.0396958008562187e-05,0.146117561107317,-1.8967371124115072e-05
0.146911678287248,-4.5307058343573e-06,0.146911678287248,-1.3596072037709888e-05,0.146911678287248,-2.299019935371656e-05,0.146911678287248,-1.577909219938096e-05
0.1477057954671791,-6.377794386488044e-06,0.1477057954671791,-1.4267027048695295e-05,0.1477057954671791,-3.390268955417846e-05,0.1477057954671791,-1.628127027364157e-05
0.1484999126471102,-7.553090736425881e-06,0.1484999126471102,-1.3595873864899495e-05,0.1484999126471102,-3.709434913622658e-05,0.1484999126471102,-1.6617063067550253e-05
0.1492940298270412,-5.874833496399836e-06,0.1492940298270412,-1.49386e-05,0.1492940298270412,-4.17946008822661e-05,0.1492940298270412,-1.5274363053764162e-05
0.1500881470069723,-8.895885692089128e-06,0.1500881470069723,-1.493828923022282e-05,0.1500881470069723,-4.447987571060386e-05,0.1500881470069723,-1.6952458143987736e-05
0.1508822641869034,-8.223828123221092e-06,0.1508822641869034,-1.3260323394316057e-05,0.1508822641869034,-4.380657775399746e-05,0.1508822641869034,-1.5105115499319127e-05
0.1516763813668344,-5.874558967254511e-06,0.1516763813668344,-1.393101688737233e-05,0.1516763813668344,-3.7427984436861645e-05,0.1516763813668344,-1.1245819505214055e-05
0.1524704985467655,-5.5392417394166895e-06,0.1524704985467655,-1.292503523717283e-05,0.1524704985467655,-3.239807618586415e-05,0.1524704985467655,-1.10782058413242e-05
0.1532646157266966,-3.861342346019845e-06,0.1532646157266966,-1.3931012592388093e-05,0.1532646157266966,-3.054949355642326e-05,0.1532646157266966,-9.903668666412462e-06
0.1540587329066277,-2.1826046266429286e-06,0.1540587329066277,-1.1582390482009556e-05,0.1540587329066277,-3.1387517701816064e-05,0.1540587329066277,-1.0238687073998637e-05
0.1548528500865587,-3.188949851603717e-06,0.1548528500865587,-1.0574690148396284e-05,0.1548528500865587,-2.870270706239009e-05,0.1548528500865587,-9.903163382798762e-06
0.1556469672664898,-4.531874642027539e-06,0.1556469672664898,-1.3595675443634373e-05,0.1556469672664898,-2.5009652235557983e-05,0.1556469672664898,-9.56742383918392e-06
0.1564410844464209,-4.19623e-06,0.1564410844464209,-1.2253e-05,0.1564410844464209,-2.098084296393577e-05,0.1564410844464209,-8.896367035000675e-06
0.157235201626352,-4.195889015303314e-06,0.157235201626352,-1.225282950638197e-05,0.157235201626352,-1.762402950638197e-05,0.157235201626352,-1.2252744259572953e-05
0.158029318806283,-2.8539784778475503e-06,0.158029318806283,-1.1581128848425229e-05,0.158029318806283,-1.6953876963715386e-05,0.158029318806283,-1.1247380825108652e-05
0.1588234359862141,-4.19527735588487e-06,0.1588234359862141,-1.0407533534335871e-05,0.1588234359862141,-1.963649469758072e-05,0.1588234359862141,-1.4935980209173485e-05
0.1596175531661451,-5.035007701117545e-06,0.1596175531661451,-1.0909916648808678e-05,0.1596175531661451,-1.9302888919552983e-05,0.1596175531661451,-1.8293710804470183e-05
0.1604116703460762,-4.532139064525568e-06,0.1604116703460762,-1.0239078752700756e-05,0.1604116703460762,-1.762489688175189e-05,0.1604116703460762,-1.493999376350378e-05
0.1612057875260073,-4.1963198331477744e-06,0.1612057875260073,-8.560759163062876e-06,0.1612057875260073,-1.6281759332591097e-05,0.1612057875260073,-1.2253718665182192e-05
0.1619999047059384,-3.860570289945194e-06,0.1619999047059384,-8.895969710054807e-06,0.1619999047059384,-1.0239525219013485e-05,0.1619999047059384,-5.204176085248537e-06
0.1627940218858694,-5.53903e-06,0.1627940218858694,-9.9031e-06,0.1627940218858694,-6.881801493485179e-06,0.1627940218858694,-5.539242824093513e-06
0.1635881390658005,-5.538912407079996e-06,0.1635881390658005,-9.903158796460002e-06,0.1635881390658005,-6.210890369928561e-06,0.1635881390658005,-1.3262216655045502e-05
0.1643822562457316,-4.868280034748291e-06,0.1643822562457316,-1.0239125018987783e-05,0.1643822562457316,-8.898826828000181e-06,0.1643822562457316,-2.534969607986129e-05
0.1651763734256627,-6.88118926761558e-06,0.1651763734256627,-1.1247003789892797e-05,0.1651763734256627,-1.762656521708421e-05,0.1651763734256627,-3.92791440827053e-05
0.1659704906055937,-5.539890389578355e-06,0.1659704906055937,-1.3594294307024796e-05,0.1659704906055937,-2.26563735791279e-05,0.1659704906055937,-4.447666599759229e-05
0.1667646077855248,-5.53903e-06,0.1667646077855248,-1.2756914591447123e-05,0.1667646077855248,-2.433727086650305e-05,0.1667646077855248,-3.67628139646887e-05
0.1675587249654559,-6.881354869476716e-06,0.1675587249654559,-1.2253174407925642e-05,0.1675587249654559,-2.2995765133987197e-05,0.1675587249654559,-2.635590478840076e-05
0.1683528421453869,-6.2105534805884136e-06,0.1683528421453869,-1.3763299678616536e-05,0.1683528421453869,-2.165286694129589e-05,0.1683528421453869,-1.7961568487474234e-05
0.169146959325318,-6.21042e-06,0.169146959325318,-1.4938539807618012e-05,0.169146959325318,-1.5945992350557248e-05,0.169146959325318,-9.903512730198466e-06
0.1699410765052491,-5.203297653889011e-06,0.1699410765052491,-1.0910458768887915e-05,0.1699410765052491,-9.902550119003806e-06,0.1699410765052491,-5.874267156373233e-06
0.1707351936851801,-4.868121333442129e-06,0.1707351936851801,-1.3596455114508652e-05,0.1707351936851801,-4.19508355497645e-06,0.1707351936851801,-1.1753903912246986e-06
0.1715293108651112,-6.881623099211601e-06,0.1715293108651112,-1.627982479369281e-05,0.1715293108651112,5.047950312880689e-07,0.1715293108651112,-3.0218806984549426e-06
0.1723234280450423,-6.378632274111887e-06,0.1723234280450423,-1.2255898192895098e-05,0.1723234280450423,3.690385610241304e-06,0.1723234280450423,-4.5308431848587405e-06
0.1731175452249733,-4.868495240990173e-06,0.1731175452249733,-1.393053861475798e-05,0.1731175452249733,3.524926138524202e-06,0.1731175452249733,-2.8544013795143745e-06
0.1739116624049044,-4.532072733845812e-06,0.1739116624049044,-1.1750327791256914e-05,0.1739116624049044,-1.662789366249077e-07,0.1739116624049044,-6.208992670045537e-06
0.1747057795848355,-4.867536809356781e-06,0.1747057795848355,-1.2252860200155122e-05,0.1747057795848355,-4.530718526912564e-06,0.1747057795848355,-7.5528472374271215e-06
0.1754998967647666,-5.203286352559384e-06,0.1754998967647666,-1.2924312705118767e-05,0.1754998967647666,-1.124502705508826e-05,0.1754998967647666,-9.902794470516072e-06
0.1762940139446976,-2.85344e-06,0.1762940139446976,-1.3092208844521096e-05,0.1762940139446976,-1.5106373469949235e-05,0.1762940139446976,-9.567339251207537e-06
0.1770881311246287,-2.8539389473782297e-06,0.1770881311246287,-1.3595689122070862e-05,0.1770881311246287,-1.3596021755858274e-05,0.1770881311246287,-5.539584386342799e-06
0.1778822483045598,-5.8750349465014825e-06,0.1778822483045598,-1.2923402672539232e-05,0.1778822483045598,-1.4939229893002964e-05,0.1778822483045598,-8.901259073958162e-06
0.1786763654844909,-6.880585356611447e-06,0.1786763654844909,-9.736417477889438e-06,0.1786763654844909,-1.6952877142512672e-05,0.1786763654844909,-2.5687690563922136e-05
0.1794704826644219,-4.197977611641556e-06,0.1794704826644219,-1.2251361614492751e-05,0.1794704826644219,-1.712049080640252e-05,0.1794704826644219,-4.0442088100180935e-05
0.180264599844353,-3.860699184194825e-06,0.180264599844353,-1.1246407552584476e-05,0.180264599844353,-1.5610761303677994e-05,0.180264599844353,-4.263260032793235e-05
0.181058717024284,-4.867271077023302e-06,0.181058717024284,-1.2420381274346814e-05,0.181058717024284,-1.426767856396893e-05,0.181058717024284,-3.843899549458328e-05
0.1818528342042151,-6.210139610929594e-06,0.1818528342042151,-1.2253035038454273e-05,0.1818528342042151,-1.66166093154726e-05,0.1818528342042151,-2.9711122542530347e-05
0.1826469513841462,-6.881778890825927e-06,0.1826469513841462,-1.1581641109174071e-05,0.1826469513841462,-1.9638215008716676e-05,0.1826469513841462,-2.031037552231412e-05
0.1834410685640773,-6.881762022768889e-06,0.1834410685640773,-1.0909997080554638e-05,0.1834410685640773,-2.0645775387530143e-05,0.1834410685640773,-7.216795288065219e-06
0.1842351857440083,-6.210105875066754e-06,0.1842351857440083,-8.560545595454443e-06,0.1842351857440083,-2.3833853959424323e-05,0.1842351857440083,1.177767136095939e-06
0.1850293029239394,-4.866606692449591e-06,0.1850293029239394,-9.567793737949926e-06,0.1850293029239394,-2.0644668540467558e-05,0.1850293029239394,1.326086748352058e-05
0.1858234201038705,-2.1839989474797e-06,0.1858234201038705,-1.0573765399254044e-05,0.1858234201038705,-1.8464991687225324e-05,0.1858234201038705,1.527283078391951e-05
0.1866175372838016,-6.879081128041591e-06,0.1866175372838016,-1.1748715308234869e-05,0.1866175372838016,-1.7624689057221295e-05,0.1866175372838016,5.880197755572137e-06
0.1874116544637326,-9.230687364963125e-06,0.1874116544637326,-1.3594996475863938e-05,0.1874116544637326,-1.6953092182682493e-05,0.1874116544637326,-4.862955098839353e-06
0.1882057716436637,-6.882495834094549e-06,0.1882057716436637,-1.4938213807445386e-05,0.1882057716436637,-1.3596765481386531e-05,0.1882057716436637,-8.404045730622027e-07
0.1889998888235948,-4.1966060380881895e-06,0.1889998888235948,-1.8295129950639503e-05,0.1889998888235948,-6.882760095920578e-06,0.1889998888235948,7.216391886295513e-06
0.1897940060035258,-4.53195030605673e-06,0.1897940060035258,-1.7120573348579356e-05,0.1897940060035258,-1.0574497461733455e-05,0.1897940060035258,-2.517904986266715e-06
0.1905881231834569,-7.21731167412346e-06,0.1905881231834569,-1.359559167412346e-05,0.1905881231834569,-1.0238409392084346e-05,0.1905881231834569,-2.434101656227155e-05
0.191382240363388,-5.874618378355508e-06,0.191382240363388,-1.2252593501313044e-05,0.191382240363388,-7.72101918766413e-06,0.191382240363388,-4.313760487401521e-05
0.192176357543319,-5.539331950954699e-06,0.192176357543319,-1.0911256844082348e-05,0.192176357543319,-7.556390523252239e-06,0.192176357543319,-4.414130493412898e-05
0.1929704747232501,-6.209976395525686e-06,0.1929704747232501,-1.325854736121451e-05,0.1929704747232501,-1.459824209685804e-05,0.1929704747232501,-3.726704704662235e-05
0.1937645919031812,-7.217002374929224e-06,0.1937645919031812,-1.1917990166761034e-05,0.1937645919031812,-2.1984504082814317e-05,0.1937645919031812,-3.373951166204892e-05
0.1945587090831123,-5.539644988774392e-06,0.1945587090831123,-8.561539981212725e-06,0.1945587090831123,-1.980699950848953e-05,0.1945587090831123,-2.9207460461263797e-05
0.1953528262630433,-3.525270731710375e-06,0.1953528262630433,-1.2252191994052435e-05,0.1953528262630433,-1.2590279277688228e-05,0.1953528262630433,-3.420151330717683e-07
0.1961469434429744,-3.86050608791753e-06,0.1961469434429744,-1.2253e-05,0.1961469434429744,-1.6873374356110753e-07,0.1961469434429744,2.5343370736518055e-05
0.1969410606229055,-2.8535168925968526e-06,0.1969410606229055,-1.2253038442862618e-05,0.1969410606229055,1.0574602524480488e-05,0.1969410606229055,2.7358810491872324e-05
0.1977351778028366,-3.860304479271153e-06,0.1977351778028366,-1.275683829564892e-05,0.1977351778028366,1.19162475639605e-05,0.1977351778028366,1.963546820589236e-05
0.1985292949827676,-2.852443518156101e-06,0.1985292949827676,-1.426676401917992e-05,0.1985292949827676,7.216274397231316e-06,0.1985292949827676,6.542320918790942e-06
0.1993234121626987,-1.69834774296582e-07,0.1993234121626987,-1.3093068816137111e-05,0.1993234121626987,3.863012218795e-06,0.1993234121626987,-3.685109247093903e-06
0.2001175293426297,-2.1808460530992782e-06,0.2001175293426297,-1.4266503498224176e-05,0.2001175293426297,-2.513959169036865e-06,0.2001175293426297,-9.563927651168098e-06
0.2009116465225608,-2.8531411023266414e-06,0.2009116465225608,-1.2253896693020076e-05,0.2009116465225608,-1.1577564899217086e-05,0.2009116465225608,-1.5271759374228307e-05
0.2017057637024919,-3.1890400943659244e-06,0.2017057637024919,-1.2588600094365925e-05,0.2017057637024919,-1.6447751383186102e-05,0.2017057637024919,-2.433540257764036e-05
0.202499880882423,-2.853490362431495e-06,0.202499880882423,-1.4938247462979534e-05,0.202499880882423,-1.5610125898577633e-05,0.202499880882423,-2.836589565082206e-05
0.203293998062354,-2.85344e-06,0.203293998062354,-1.560999836154222e-05,0.203293998062354,-1.980618975976088e-05,0.203293998062354,-2.9205797951805755e-05
0.2040881152422851,-4.531978723973713e-06,0.2040881152422851,-1.4267102552052576e-05,0.2040881152422851,-2.3498534577454224e-05,0.2040881152422851,-2.903760765615772e-05
0.2048822324222162,-4.867826534352587e-06,0.2048822324222162,-1.35958e-05,0.2048822324222162,-2.098100346564741e-05,0.2048822324222162,-2.7022913862589653e-05
0.2056763496021472,-5.53903e-06,0.2056763496021472,-1.3595209502184433e-05,0.2056763496021472,-2.0311645283686096e-05,0.2056763496021472,-2.4339280995631137e-05
0.2064704667820783,-5.53903e-06,0.2064704667820783,-1.2253900635251766e-05,0.2064704667820783,-2.4503185548373943e-05,0.2064704667820783,-2.7021898729496468e-05
0.2072645839620094,-6.210068206868389e-06,0.2072645839620094,-1.1581951798371383e-05,0.2072645839620094,-2.7693428983934788e-05,0.2072645839620094,-2.8030272302442924e-05
0.2080587011419405,-6.545993644016911e-06,0.2080587011419405,-1.0910452711966177e-05,0.2080587011419405,-2.8366247288033823e-05,0.2080587011419405,-2.383617943096883e-05
0.2088528183218715,-5.203637248833895e-06,0.2088528183218715,-1.09102e-05,0.2088528183218715,-2.501026812780508e-05,0.2088528183218715,-1.9639360148315663e-05
0.2096469355018026,-5.539002730422096e-06,0.2096469355018026,-1.4266927304220958e-05,0.2096469355018026,-2.098152722681165e-05,0.2096469355018026,-2.047753183011684e-05
0.2104410526817337,-7.553108631876501e-06,0.2104410526817337,-1.42671331791259e-05,0.2104410526817337,-1.678479977200634e-05,0.2104410526817337,-1.79599222736247e-05
0.2112351698616647,-5.875007267309121e-06,0.2112351698616647,-1.3259453648554478e-05,0.2112351698616647,-1.527494635144552e-05,0.2112351698616647,-1.8296174534618243e-05
0.2120292870415958,-7.218126033268206e-06,0.2120292870415958,-1.0238315174107552e-05,0.2120292870415958,-1.829511517049697e-05,0.2120292870415958,-2.098010913361817e-05
0.2128234042215269,-8.894752128038634e-06,0.2128234042215269,-8.897016296070279e-06,0.2128234042215269,-1.695380630356435e-05,0.2128234042215269,-1.7962164183019785e-05
0.2136175214014579,-8.560512349534707e-06,0.2136175214014579,-1.2250976510680636e-05,0.2136175214014579,-1.7791494156301683e-05,0.2136175214014579,-1.15854446411594e-05
0.214411638581389,-6.882584027108635e-06,0.214411638581389,-1.3930735968339493e-05,0.214411638581389,-1.3933257250059808e-05,0.214411638581389,-8.89723244610494e-06
0.2152057557613201,-9.063188792734168e-06,0.2152057557613201,-1.1246726105036168e-05,0.2152057557613201,-1.359590326312952e-05,0.2152057557613201,-5.540062625143103e-06
0.2159998729412512,-7.55346173807089e-06,0.2159998729412512,-1.12459e-05,0.2159998729412512,-1.829484792102316e-05,0.2159998729412512,-8.224180243785136e-06
0.2167939901211822,-8.224601646675791e-06,0.2167939901211822,-1.2588683293102748e-05,0.2167939901211822,-1.8631295823275684e-05,0.2167939901211822,-1.225294987943266e-05
0.2175881073011133,-1.1245673168960063e-05,0.2175881073011133,-1.2252818534086931e-05,0.2175881073011133,-1.93027e-05,0.2175881073011133,-1.8967816583094816e-05
0.2183822244810444,-9.565986360441369e-06,0.2183822244810444,-1.0910294909680873e-05,0.2183822244810444,-1.9303743978217413e-05,0.2183822244810444,-2.500968981936174e-05
0.2191763416609755,-4.5323628135451696e-06,0.2191763416609755,-1.124633281354517e-05,0.2191763416609755,-2.2996814868896204e-05,0.2191763416609755,-2.5680611457636556e-05
0.2199704588409065,-5.538344463744633e-06,0.2199704588409065,-1.2252314463744633e-05,0.2199704588409065,-2.651780058907105e-05,0.2199704588409065,-2.5009957024170243e-05
0.2207645760208376,-5.53903e-06,0.2207645760208376,-1.2253e-05,0.2207645760208376,-2.836551411495281e-05,0.2207645760208376,-2.6687103716594422e-05
0.2215586932007686,-6.545730863428368e-06,0.2215586932007686,-1.2253e-05,0.2215586932007686,-3.105106229217173e-05,0.2215586932007686,-3.507725716303665e-05
0.2223528103806997,-3.5255515300952183e-06,0.2223528103806997,-1.158176034055186e-05,0.2223528103806997,-3.1723339659448145e-05,0.2223528103806997,-2.434066544882976e-05
0.2231469275606308,-2.349997193844348e-06,0.2231469275606308,-1.4266954983413297e-05,0.2231469275606308,-2.0310841311370142e-05,0.2231469275606308,-6.379908537475563e-06
0.2239410447405619,-1.8463967483877629e-06,0.2239410447405619,-1.2924371622988704e-05,0.2239410447405619,-4.531192274339983e-06,0.2239410447405619,6.37880910855678e-06
0.2247351619204929,-2.8530977033407093e-06,0.2247351619204929,-1.2420765780530575e-05,0.2247351619204929,8.562363777916445e-06,0.2247351619204929,1.594621343479243e-05
0.225529279100424,-1.1750578541035894e-06,0.225529279100424,-1.2253058909498308e-05,0.225529279100424,1.863071072948205e-05,0.225529279100424,1.8463223236398103e-05
0.2263233962803551,-1.510385070836744e-06,0.2263233962803551,-1.242067257338816e-05,0.2263233962803551,1.6954074645816283e-05,0.2263233962803551,1.7960282355775097e-05
0.2271175134602862,-8.396574103836322e-07,0.2271175134602862,-1.24208e-05,0.2271175134602862,7.558979784588156e-06,0.2271175134602862,2.047605722791257e-05
0.2279116306402172,-3.1880468559983038e-06,0.2279116306402172,-1.225307805865434e-05,0.2279116306402172,1.1779071034196195e-06,0.2279116306402172,2.13165095671717e-05
0.2287057478201483,-3.6925200722386543e-06,0.2287057478201483,-1.2253e-05,0.2287057478201483,2.8529068968752847e-06,0.2287057478201483,5.879624542395243e-06
0.2294998650000794,-4.531787306444123e-06,0.2294998650000794,-1.0239142464534103e-05,0.2294998650000794,5.202930459743795e-06,0.2294998650000794,-1.4263775368260952e-05
0.2302939821800104,-5.539007397340724e-06,0.2302939821800104,-9.90310753421976e-06,0.2302939821800104,8.393439444977707e-07,0.2302939821800104,-2.2995104112530604e-05
0.2310880993599415,-8.224946070611376e-06,0.2310880993599415,-1.0406847025183035e-05,0.2310880993599415,-4.196398035931381e-06,0.2310880993599415,-2.5681488125759837e-05
0.2318822165398726,-1.09102e-05,0.2318822165398726,-1.1581966208741748e-05,0.2318822165398726,-5.539487758199984e-06,0.2318822165398726,-3.0382164834967e-05
0.2326763337198036,-1.0910622753728662e-05,0.2326763337198036,-1.2924118164180892e-05,0.2326763337198036,-7.218506421169144e-06,0.2326763337198036,-3.575359101491465e-05
0.2334704508997347,-1.1916604403928128e-05,0.2334704508997347,-1.2253463730714582e-05,0.2334704508997347,-9.565786949405882e-06,0.2334704508997347,-3.977751761571251e-05
0.2342645680796658,-6.213524430121714e-06,0.2342645680796658,-8.897836136325679e-06,0.2342645680796658,-1.493567817861503e-05,0.2342645680796658,-3.709616091341239e-05
0.2350586852595969,-4.868162279931839e-06,0.2350586852595969,-1.191610236519838e-05,0.2350586852595969,-2.0307670864416703e-05,0.2350586852595969,-2.702769212921868e-05
0.2358528024395279,-4.86763e-06,0.2358528024395279,-1.19173e-05,0.2358528024395279,-2.735764594168303e-05,0.2358528024395279,-2.0311470530545607e-05
0.236646919619459,-4.86763e-06,0.236646919619459,-1.359563007715614e-05,0.236646919619459,-3.172305820060597e-05,0.236646919619459,-1.3932145706806665e-05
0.2374410367993901,-2.5175688559549115e-06,0.2374410367993901,-1.2588777793169103e-05,0.2374410367993901,-3.0380482179126512e-05,0.2374410367993901,-9.567425558170353e-06
0.2382351539793211,1.17494e-06,0.2382351539793211,-1.42672e-05,0.2382351539793211,-2.5679923491846497e-05,0.2382351539793211,-9.902774492757163e-06
0.2390292711592522,1.1740240001702542e-06,0.2390292711592522,-1.426748623502451e-05,0.2390292711592522,-2.0644011489191537e-05,0.2390292711592522,-8.223808497590866e-06
0.2398233883391833,-1.5085737559042918e-06,0.2398233883391833,-1.5105754332380671e-05,0.2398233883391833,-1.6284757671660528e-05,0.2398233883391833,-5.87652796935413e-06
0.2406175055191144,-1.51064e-06,0.2406175055191144,-1.2925758888277552e-05,0.2406175055191144,-1.1584526903357857e-05,0.2406175055191144,-6.881192806423316e-06
0.2414116226990454,-1.51064e-06,0.2414116226990454,-1.6447525049868333e-05,0.2414116226990454,-9.568367123185914e-06,0.2414116226990454,-2.8553542463718247e-06
0.2422057398789765,-2.8530000875184926e-06,0.2422057398789765,-1.863058512583713e-05,0.2422057398789765,-9.735205010939812e-06,0.2422057398789765,-1.511079912481507e-06
0.2429998570589076,-1.5108817396711389e-06,0.2429998570589076,-1.896693956508221e-05,0.2429998570589076,-1.3091595661623749e-05,0.2429998570589076,-5.53830478278685e-06
0.2437939742388386,-4.1961428666029085e-06,0.2437939742388386,-1.795993267514558e-05,0.2437939742388386,-1.762405296022266e-05,0.2437939742388386,-1.0910025733530262e-05
0.2445880914187697,-4.867784604798276e-06,0.2445880914187697,-1.4602571456600156e-05,0.2445880914187697,-2.0981470548898184e-05,0.2445880914187697,-1.225327056041188e-05
0.2453822085987008,-6.210596389380008e-06,0.2453822085987008,-1.174944411048094e-05,0.2453822085987008,-2.333214653097005e-05,0.2453822085987008,-1.4603561447039089e-05
0.2461763257786318,-6.88278294836385e-06,0.2461763257786318,-1.1917712693912154e-05,0.2461763257786318,-2.769565025854954e-05,0.2461763257786318,-1.712135662599484e-05
0.2469704429585629,-9.23006347660067e-06,0.2469704429585629,-1.2923694344111653e-05,0.2469704429585629,-2.9036959125482203e-05,0.2469704429585629,-1.8965706262503977e-05
0.247764560138494,-8.225167915015981e-06,0.247764560138494,-1.393094208498402e-05,0.247764560138494,-3.574818056656013e-05,0.247764560138494,-1.8967e-05
0.2485586773184251,-1.090910857630888e-05,0.2485586773184251,-1.2924809285408168e-05,0.2485586773184251,-3.7094154286122446e-05,0.2485586773184251,-2.3664790042068545e-05
0.2493527944983561,-9.567757538479008e-06,0.2493527944983561,-1.1917560655800394e-05,0.2493527944983561,-3.3738568852667975e-05,0.2493527944983561,-2.6351604917865615e-05
0.2501469116782872,-6.88211873540128e-06,0.2501469116782872,-1.1581637342064204e-05,0.2501469116782872,-2.8367097473027287e-05,0.2501469116782872,-2.7694950631743178e-05
0.2509410288582183,-8.224573396948328e-06,0.2509410288582183,-9.567373396584877e-06,0.2509410288582183,-2.4338002394527532e-05,0.2509410288582183,-3.0380858614798872e-05
0.2517351460381494,-7.217952208547744e-06,0.2517351460381494,-8.56031e-06,0.2517351460381494,-2.1651859067907973e-05,0.2517351460381494,-3.474513958467916e-05
0.2525292632180804,-9.56741e-06,0.2525292632180804,-8.560754586926087e-06,0.2525292632180804,-1.7621977048814975e-05,0.2525292632180804,-3.658882149158995e-05
0.2533233803980115,-9.56741e-06,0.2533233803980115,-9.90205346496336e-06,0.2533233803980115,-1.0915432714151884e-05,0.2533233803980115,-2.9714663493037005e-05
0.2541174975779426,-8.22545968808398e-06,0.2541174975779426,-9.567622415693262e-06,0.2541174975779426,-3.5295032654786877e-06,0.2541174975779426,-1.7967334707457486e-05
0.2549116147578736,-7.553545752784913e-06,0.2549116147578736,-1.107736702590947e-05,0.2549116147578736,5.199095170128886e-06,0.2549116147578736,-6.383889309531468e-06
0.2557057319378047,-2.8550266918691525e-06,0.2557057319378047,-1.0910256684688396e-05,0.2557057319378047,6.545666660912856e-06,0.2557057319378047,-1.5122833596770574e-06
0.2564998491177358,-3.5247024170738677e-06,0.2564998491177358,-1.0238927584826412e-05,0.2564998491177358,1.847233089984333e-06,0.2564998491177358,-1.51064e-06
0.2572939662976669,-3.52483e-06,0.2572939662976669,-6.881962491257338e-06,0.2572939662976669,-5.874392269853447e-06,0.2572939662976669,4.531673515482115e-06
0.2580880834775979,-6.210314119075423e-06,0.2580880834775979,-7.55350234983311e-06,0.2580880834775979,-1.225356470387164e-05,0.2580880834775979,1.3931570587983957e-05
0.258882200657529,-5.20333e-06,0.258882200657529,-1.0239224185972906e-05,0.258882200657529,-1.7624539348778325e-05,0.258882200657529,1.4603069674389163e-05
0.2596763178374601,-5.203598418732476e-06,0.2596763178374601,-1.1917165788634783e-05,0.2596763178374601,-1.896861049640304e-05,0.2596763178374601,1.5275105268191294e-05
0.2604704350173911,-5.874242863303441e-06,0.2604704350173911,-1.1581838571901629e-05,0.2604704350173911,-2.299243720824744e-05,0.2604704350173911,1.728706856859022e-05
0.2612645521973222,-5.87472e-06,0.2612645521973222,-1.3594664024995363e-05,0.2612645521973222,-3.0544340065533456e-05,0.2612645521973222,1.8966053354162804e-05
0.2620586693772533,-7.888071288375144e-06,0.2620586693772533,-1.4938040856140751e-05,0.2620586693772533,-3.5078612910295107e-05,0.2620586693772533,-1.5021130811305632e-06
0.2628527865571843,-6.882090725598497e-06,0.2628527865571843,-1.225372194209785e-05,0.2628527865571843,-3.189225729280021e-05,0.2628527865571843,-2.6345622073229624e-05
0.2636469037371154,-4.867874196145528e-06,0.2636469037371154,-1.2253e-05,0.2636469037371154,-2.7024290149676835e-05,0.2636469037371154,-3.457590286685044e-05
0.2644410209170465,-3.524847687285953e-06,0.2644410209170465,-1.3260108843642976e-05,0.2644410209170465,-1.963825850171238e-05,0.2644410209170465,-4.04517353745719e-05
0.2652351380969776,-4.196259193422778e-06,0.2652351380969776,-1.3595858386845556e-05,0.2652351380969776,-1.4265915492876264e-05,0.2652351380969776,-4.1793682584162205e-05
0.2660292552769086,-4.363702723206284e-06,0.2660292552769086,-1.3932254560009492e-05,0.2660292552769086,-6.8809576489144665e-06,0.2660292552769086,-3.709426882285172e-05
0.2668233724568397,-3.1900674535355062e-06,0.2668233724568397,-1.627954507714174e-05,0.2668233724568397,-4.198349903944389e-06,0.2668233724568397,-3.575295995591901e-05
0.2676174896367708,-2.182687338549321e-06,0.2676174896367708,-1.96362422048356e-05,0.2676174896367708,-8.41403784880007e-07,0.2676174896367708,-2.9042215590328807e-05
0.2684116068167018,-1.5109724726276731e-06,0.2684116068167018,-1.6618596126824528e-05,0.2684116068167018,8.723422286844152e-06,0.2684116068167018,-1.8300919512523463e-05
0.2692057239966329,-1.6831576931642913e-07,0.2692057239966329,-1.66171e-05,0.2692057239966329,1.6949941022250916e-05,0.2692057239966329,-8.228110789860867e-06
0.269999841176564,5.034137007827841e-07,0.269999841176564,-1.6281467149908653e-05,0.269999841176564,1.9637862800730786e-05,0.269999841176564,-4.197035794903237e-06
0.270793958356495,-1.1748519670991311e-06,0.270793958356495,-1.4435096839505653e-05,0.270793958356495,1.96384e-05,0.270793958356495,-6.545996753582139e-06
0.2715880755364261,-1.8464996815314372e-06,0.2715880755364261,-1.3595959682482777e-05,0.2715880755364261,1.0405566255323616e-05,0.2715880755364261,-1.2924463872993111e-05
0.2723821927163572,-3.5255633148650657e-06,0.2723821927163572,-1.5273770369819827e-05,0.2723821927163572,-1.5125955054977892e-06,0.2723821927163572,-1.35958e-05
0.2731763098962882,-6.546512574279175e-06,0.2731763098962882,-1.3092527164722978e-05,0.2731763098962882,-9.569111151311694e-06,0.2731763098962882,-1.3596061716186117e-05
0.2739704270762193,-7.552494224478568e-06,0.2739704270762193,-1.3930895151032533e-05,0.2739704270762193,-1.3928354979947051e-05,0.2739704270762193,-1.426671614965238e-05
0.2747645442561504,-8.391978289082753e-06,0.2747645442561504,-1.3595992686662835e-05,0.2747645442561504,-1.728657313337162e-05,0.2747645442561504,-1.15831414933027e-05
0.2755586614360815,-8.895795284809614e-06,0.2755586614360815,-1.3931356856539743e-05,0.2755586614360815,-1.7120671593050275e-05,0.2755586614360815,-1.2252713713079484e-05
0.2763527786160125,-7.217987998500173e-06,0.2763527786160125,-1.1582255201803736e-05,0.2763527786160125,-1.5946027586960812e-05,0.2763527786160125,-1.0910574401030707e-05
0.2771468957959436,-7.55317594294495e-06,0.2771468957959436,-1.258856782883485e-05,0.2771468957959436,-1.6952667828834852e-05,0.2771468957959436,-9.231930283962857e-06
0.2779410129758747,-8.392435312499535e-06,0.2779410129758747,-1.1581578055409876e-05,0.2779410129758747,-2.0309843887546005e-05,0.2779410129758747,-1.191730548614753e-05
0.2787351301558057,-6.881544854888685e-06,0.2787351301558057,-1.0238910058700222e-05,0.2787351301558057,-2.2995079898991973e-05,0.2787351301558057,-1.2252669823899331e-05
0.2795292473357368,-5.203434441014914e-06,0.2795292473357368,-1.09102e-05,0.2795292473357368,-2.1652077794925435e-05,0.2795292473357368,-1.0238591121081314e-05
0.2803233645156679,-5.538761657748068e-06,0.2803233645156679,-1.09102e-05,0.2803233645156679,-1.9975441711259665e-05,0.2803233645156679,-9.56794667651035e-06
0.2811174816955989,-4.868068274023725e-06,0.2811174816955989,-1.1245680862988138e-05,0.2811174816955989,-2.165150431494069e-05,0.2811174816955989,-1.1580285184456588e-05
0.2819115988755301,-4.5320995938092586e-06,0.2819115988755301,-9.903778375237034e-06,0.2819115988755301,-2.265909126909168e-05,0.2819115988755301,-1.426584324952593e-05
0.2827057160554611,-6.209819750542737e-06,0.2827057160554611,-1.0909839848179966e-05,0.2827057160554611,-2.500865964575325e-05,0.2827057160554611,-1.7622999493933217e-05
0.2834998332353922,-6.881678985191851e-06,0.2834998332353922,-1.2588347462979628e-05,0.2834998332353922,-2.7694535940767405e-05,0.2834998332353922,-1.963797695557556e-05
0.2842939504153233,-6.88182e-06,0.2842939504153233,-1.158166289260441e-05,0.2842939504153233,-2.6520273371582685e-05,0.2842939504153233,-1.7960004821007354e-05
0.2850880675952543,-7.049655710499445e-06,0.2850880675952543,-9.567124210840223e-06,0.2850880675952543,-2.668820005300777e-05,0.2850880675952543,-1.695297147400666e-05
0.2858821847751854,-6.882171547589463e-06,0.2858821847751854,-6.211201219709761e-06,0.2858821847751854,-2.903829061101845e-05,0.2858821847751854,-1.896653126677786e-05
0.2866763019551165,-8.390866197335092e-06,0.2866763019551165,-9.567665005843624e-06,0.2866763019551165,-3.071397740840288e-05,0.2866763019551165,-1.6951907466253692e-05
0.2874704191350475,-4.199295965961351e-06,0.2874704191350475,-1.0238309450414589e-05,0.2874704191350475,-2.4342760290472945e-05,0.2874704191350475,-1.4604616949121611e-05
0.2882645363149786,-4.19623e-06,0.2882645363149786,-1.2587327690892016e-05,0.2882645363149786,-2.1150862390304383e-05,0.2882645363149786,-1.5777113874645317e-05
0.2890586534949096,-5.202890497132891e-06,0.2890586534949096,-1.2924253499044296e-05,0.2890586534949096,-2.0981273228657636e-05,0.2890586534949096,-1.5274519729613336e-05
0.2898527706748408,-4.532123915506198e-06,0.2898527706748408,-1.4266812168987604e-05,0.2898527706748408,-1.9974390873259292e-05,0.2898527706748408,-1.3596284788765497e-05
0.2906468878547718,-6.210182928659933e-06,0.2906468878547718,-1.5777586641584812e-05,0.2906468878547718,-2.232356811227062e-05,0.2906468878547718,-1.628102068359604e-05
0.2914410050347029,-4.531932128652085e-06,0.2914410050347029,-1.4267187228087488e-05,0.2914410050347029,-2.1652557426958293e-05,0.2914410050347029,-1.59456850994354e-05
0.292235122214634,-4.86763e-06,0.292235122214634,-1.225294832814531e-05,0.292235122214634,-1.4938703343709378e-05,0.292235122214634,-1.3596110031128136e-05
0.293029239394565,-4.867225649028978e-06,0.293029239394565,-1.1917401087742755e-05,0.293029239394565,-1.561020217548551e-05,0.293029239394565,-1.5609393473543467e-05
0.2938233565744961,-3.5259167820963594e-06,0.2938233565744961,-1.225272830447591e-05,0.2938233565744961,-1.628085660895182e-05,0.2938233565744961,-1.359743017314454e-05
0.2946174737544272,-4.866740021970862e-06,0.2946174737544272,-1.4936820043941723e-05,0.2946174737544272,-1.2255669934087413e-05,0.2946174737544272,-1.2924844989014567e-05
0.2954115909343582,-5.538684097390592e-06,0.2954115909343582,-1.2589910659132928e-05,0.2954115909343582,-1.1246418853914111e-05,0.2954115909343582,-1.4098694696193338e-05
0.2962057081142893,-5.53903e-06,0.2962057081142893,-1.25887e-05,0.2962057081142893,-1.0910323408102125e-05,0.2962057081142893,-1.493829146136398e-05
0.2969998252942204,-4.5321515946984896e-06,0.2969998252942204,-1.359557840530151e-05,0.2969998252942204,-9.064266254746905e-06,0.2969998252942204,-1.6784493754054394e-05
0.2977939424741515,-4.53193e-06,0.2977939424741515,-1.35958e-05,0.2977939424741515,-9.903039196482218e-06,0.2977939424741515,-1.527440944401359e-05
0.2985880596540825,-5.538954335483007e-06,0.2985880596540825,-1.2253050443011328e-05,0.2985880596540825,-1.3596203544090631e-05,0.2985880596540825,-1.3763587393003722e-05
0.2993821768340136,-4.532004764708292e-06,0.2993821768340136,-1.2924699058833168e-05,0.2993821768340136,-1.896916815426918e-05,0.2993821768340136,-1.3595351411750249e-05
0.3001762940139447,-4.868250754045313e-06,0.3001762940139447,-1.426695169690256e-05,0.3001762940139447,-2.870319321238976e-05,0.3001762940139447,-1.158147584845128e-05
0.3009704111938757,-6.54487684881574e-06,0.3009704111938757,-1.359629726343625e-05,0.3009704111938757,-3.1385810946255e-05,0.3009704111938757,-1.1246148631718126e-05
0.3017645283738068,-8.894614194363774e-06,0.3017645283738068,-1.2589298204961186e-05,0.3017645283738068,-2.937479640992237e-05,0.3017645283738068,-1.2923402991731356e-05
0.3025586455537379,-6.882719146242691e-06,0.3025586455537379,-1.1582049575353376e-05,0.3025586455537379,-3.34002016985865e-05,0.3025586455537379,-1.5273250990842125e-05
0.3033527627336689,-6.88182e-06,0.3033527627336689,-8.56121283424845e-06,0.3033527627336689,-3.6422397162763314e-05,0.3033527627336689,-1.560989968475148e-05
0.3041468799136,-8.89570536923678e-06,0.3041468799136,-8.89595922795406e-06,0.3041468799136,-3.508070308818376e-05,0.3041468799136,-1.661694768386218e-05
0.3049409970935311,-1.0574493855819922e-05,0.3049409970935311,-1.0574493855819922e-05,0.3049409970935311,-3.6423295084626656e-05,0.3049409970935311,-1.6952798771156663e-05
0.3057351142734621,-8.895623486565074e-06,0.3057351142734621,-1.12459e-05,0.3057351142734621,-3.8604985963860827e-05,0.3057351142734621,-1.93025550569222e-05
0.3065292314533932,-6.209442661116979e-06,0.3065292314533932,-1.1246584141294025e-05,0.3065292314533932,-3.642105210717678e-05,0.3065292314533932,-1.8295013593176552e-05
0.3073233486333243,-2.856190471575889e-06,0.3073233486333243,-1.359387465842627e-05,0.3073233486333243,-2.8708526122313688e-05,0.3073233486333243,-1.6283050292777484e-05
0.3081174658132554,-2.85344e-06,0.3081174658132554,-1.292485170400546e-05,0.3081174658132554,-2.836672585200273e-05,0.3081174658132554,-1.9636141479972706e-05
0.3089115829931864,-1.6925946567441953e-07,0.3089115829931864,-1.1582305235200598e-05,0.3089115829931864,-1.9642983976284142e-05,0.3089115829931864,-3.3730295082913464e-05
0.3097057001731175,-1.006783085628579e-06,0.3097057001731175,-1.4266185875219822e-05,0.3097057001731175,-1.8463843698472115e-05,0.3097057001731175,-3.642228587521982e-05
0.3104998173530486,-4.195496391848731e-06,0.3104998173530486,-1.4938445555210116e-05,0.3104998173530486,-2.232301195395987e-05,0.3104998173530486,-2.736148500466343e-05
0.3112939345329796,-4.8675746416152775e-06,0.3112939345329796,-1.174966295645004e-05,0.3112939345329796,-1.2589502688333263e-05,0.3112939345329796,-1.4939624121872157e-05
0.3120880517129107,-2.181799497189667e-06,0.3120880517129107,-1.2253e-05,0.3120880517129107,5.204685560169639e-06,0.3120880517129107,1.1753116868719288e-06
0.3128821688928418,1.509711710487225e-06,0.3128821688928418,-1.225278577836146e-05,0.3128821688928418,2.6025168822999287e-05,0.3128821688928418,6.881462966062882e-06
0.3136762860727728,-2.853198403446921e-06,0.3136762860727728,-1.1245296012215702e-05,0.3136762860727728,6.63141709315575e-05,0.3136762860727728,5.204175584337377e-06
0.314470403252704,-2.182543969980565e-06,0.314470403252704,-9.568669917445155e-06,0.314470403252704,0.0001045412738612,0.314470403252704,7.551456112574277e-06
0.315264520432635,-5.045617909138415e-07,0.315264520432635,-1.0406193077967558e-05,0.315264520432635,0.0001049057970596,0.315264520432635,1.4263144829096765e-05
0.3160586376125661,-8.390927849662677e-07,0.3160586376125661,-1.359434447132817e-05,0.3160586376125661,7.772661053731104e-05,0.3160586376125661,1.7287121056481075e-05
0.3168527547924971,-1.1748363291089868e-06,0.3168527547924971,-1.6951763272560337e-05,0.3168527547924971,6.22768689153399e-05,0.3168527547924971,2.1651252254328435e-05
0.3176468719724282,-2.8531693522931867e-06,0.3176468719724282,-1.4938924777248175e-05,0.3176468719724282,4.918191105211315e-05,0.3176468719724282,1.661791194312044e-05
0.3184409891523593,-6.210374136885653e-06,0.3184409891523593,-1.6281381654644966e-05,0.3184409891523593,3.675916969316788e-05,0.3184409891523593,3.860704280462971e-06
0.3192351063322903,-4.867922218275644e-06,0.3192351063322903,-1.6616875215680892e-05,0.3192351063322903,2.937153199765618e-05,0.3192351063322903,-8.561568790847809e-06
0.3200292235122214,-7.049858762396835e-06,0.3200292235122214,-1.4937656188015824e-05,0.3200292235122214,1.3926403434965778e-05,0.3200292235122214,-1.796103257438101e-05
0.3208233406921525,-7.720513195863142e-06,0.3208233406921525,-1.158438402068428e-05,0.3208233406921525,-4.181196346357151e-06,0.3208233406921525,-2.1984959175178863e-05
0.3216174578720835,-9.566149354587842e-06,0.3216174578720835,-1.15816e-05,0.3216174578720835,-1.76150316405564e-05,0.3216174578720835,-2.299461243978355e-05
0.3224115750520147,-9.23188966629555e-06,0.3224115750520147,-1.3930242335931162e-05,0.3224115750520147,-2.668314906354009e-05,0.3224115750520147,-2.500842200222671e-05
0.3232056922319457,-8.560570246185937e-06,0.3232056922319457,-1.1246940984743742e-05,0.3232056922319457,-3.658726138813832e-05,0.3232056922319457,-2.3667220492371877e-05
0.3239998094118768,-7.217842317161195e-06,0.3239998094118768,-1.2420517982385416e-05,0.3239998094118768,-4.78343005856738e-05,0.3239998094118768,-2.316332085783381e-05
0.3247939265918079,-5.539185182514381e-06,0.3247939265918079,-1.3931360330282292e-05,0.3247939265918079,-6.126375853248866e-05,0.3247939265918079,-2.1652739660472345e-05
0.3255880437717389,-4.86761149348518e-06,0.3255880437717389,-1.023878149348518e-05,0.3255880437717389,-6.529321493485179e-05,0.3255880437717389,-2.299544805211856e-05
0.32638216095167,-4.53193e-06,0.32638216095167,-9.9031e-06,0.32638216095167,-6.193694439773921e-05,0.32638216095167,-2.5682329044065418e-05
0.3271762781316011,-4.532047445004383e-06,0.3271762781316011,-9.903569780017528e-06,0.3271762781316011,-6.462129532997371e-05,0.3271762781316011,-3.273570884019807e-05
0.3279703953115321,-4.867374661737537e-06,0.3279703953115321,-1.1244878646950146e-05,0.3279703953115321,-6.260933202957477e-05,0.3279703953115321,-4.732239282361356e-05
0.3287645124914632,-7.551571072983322e-06,0.3287645124914632,-1.0910406116644571e-05,0.3287645124914632,-6.193681223328914e-05,0.3287645124914632,-4.347537031071306e-05
0.3295586296713942,-8.224296857780102e-06,0.3295586296713942,-1.2420095442831474e-05,0.3295586296713942,-5.690324860162989e-05,0.3295586296713942,-3.508441433604981e-05
0.3303527468513254,-6.882248117769284e-06,0.3303527468513254,-1.107852808907485e-05,0.3303527468513254,-5.186700545359083e-05,0.3303527468513254,-2.7026268725745325e-05
0.3311468640312564,-5.203617433471589e-06,0.3311468640312564,-1.0910228752080668e-05,0.3311468640312564,-4.448126471480978e-05,0.3311468640312564,-1.3262456951384608e-05
0.3319409812111875,-5.539022056165796e-06,0.3319409812111875,-1.2252968224663182e-05,0.3319409812111875,-3.709487476198615e-05,0.3319409812111875,1.6753124783866518e-07
0.3327350983911186,-6.8817576009474e-06,0.3327350983911186,-1.3092179206511714e-05,0.3327350983911186,-3.57515672050528e-05,0.3327350983911186,3.860446802502383e-06
0.3335292155710496,-6.378588597741828e-06,0.3335292155710496,-1.29244e-05,0.3335292155710496,-3.3065025609032686e-05,0.3335292155710496,3.18886691622129e-06
0.3343233327509807,-7.552233856307869e-06,0.3343233327509807,-1.29244e-05,0.3343233327509807,-2.8370444574768524e-05,0.3343233327509807,2.1828852660218264e-06
0.3351174499309118,-5.540425395033764e-06,0.3351174499309118,-1.3595334866012804e-05,0.3351174499309118,-2.6353695401961583e-05,0.3351174499309118,-3.1854189419580824e-06
0.3359115671108428,-4.196962095163976e-06,0.3359115671108428,-1.35958e-05,0.3359115671108428,-2.702333395241801e-05,0.3359115671108428,-9.563932564327132e-06
0.3367056842907739,-4.867363038823174e-06,0.3367056842907739,-1.3260233480588414e-05,0.3367056842907739,-2.8365966077646348e-05,0.3367056842907739,-1.644646367179465e-05
0.337499801470705,-4.86763e-06,0.337499801470705,-1.376347410642313e-05,0.337499801470705,-3.2393892751370286e-05,0.337499801470705,-1.8295138331876204e-05
0.338293918650636,-6.881613635925317e-06,0.338293918650636,-1.37636e-05,0.338293918650636,-3.642288726980153e-05,0.338293918650636,-1.896693121163359e-05
0.3390880358305671,-5.538939105883751e-06,0.3390880358305671,-1.2253e-05,0.3390880358305671,-3.575168791372875e-05,0.3390880358305671,-1.7624207572253354e-05
0.3398821530104982,-3.5255416125146823e-06,0.3398821530104982,-1.2253e-05,0.3398821530104982,-3.105132369333625e-05,0.3398821530104982,-1.7791644202414536e-05
0.3406762701904293,-7.216607269540823e-06,0.3406762701904293,-1.2252087269540824e-05,0.3406762701904293,-2.7021190015877278e-05,0.3406762701904293,-1.594547181653555e-05
0.3414703873703603,-4.533999524571121e-06,0.3414703873703603,-9.56947952457112e-06,0.3414703873703603,-1.964409113670184e-05,0.3414703873703603,-1.527481738306929e-05
0.3422645045502914,-5.706136846749938e-06,0.3422645045502914,-9.231919474139997e-06,0.3422645045502914,-1.29285894827999e-05,0.3422645045502914,-1.8964695784460056e-05
0.3430586217302225,-4.868029822579434e-06,0.3430586217302225,-8.56062986187483e-06,0.3430586217302225,-1.0407899458210094e-05,0.3430586217302225,-2.2322300738266884e-05
0.3438527389101535,-5.874388840083784e-06,0.3438527389101535,-1.225178573820511e-05,0.3438527389101535,-2.2991160509268e-05,0.3438527389101535,-2.064605190579132e-05
0.3446468560900846,-6.8816374664033084e-06,0.3446468560900846,-1.4938113243742158e-05,0.3446468560900846,-4.1791092706195104e-05,0.3446468560900846,-1.4939634357047913e-05
0.3454409732700157,-4.364164759635548e-06,0.3454409732700157,-1.4267222602659253e-05,0.3454409732700157,-4.112312260265925e-05,0.3454409732700157,-6.546402532567359e-06
0.3462350904499467,-2.85344e-06,0.3462350904499467,-1.49386e-05,0.3462350904499467,-2.635132483793551e-05,0.3462350904499467,-2.853592966352648e-06
0.3470292076298778,-2.85344e-06,0.3470292076298778,-1.49386e-05,0.3470292076298778,-1.7793358944079745e-05,0.3470292076298778,-4.198158834554654e-06
0.3478233248098089,-2.85344e-06,0.3478233248098089,-1.49386e-05,0.3478233248098089,-2.2990880858966915e-05,0.3478233248098089,-1.157532763599802e-05
0.34861744198974,-3.18890407551098e-06,0.34861744198974,-1.5609528151021963e-05,0.34861744198974,-2.718865090874807e-05,0.34861744198974,-9.9042796224451e-06
0.349411559169671,-3.6924004336223606e-06,0.349411559169671,-1.4267945525145756e-05,0.349411559169671,-1.964259355118479e-05,0.349411559169671,-4.534912083926971e-06
0.3502056763496021,-1.511529443468729e-06,0.3502056763496021,-1.3931636838083837e-05,0.3502056763496021,5.1932040103295945e-06,0.3502056763496021,-8.390886370188295e-06
0.3509997935295332,-5.038098825633875e-07,0.3509997935295332,-1.39315e-05,0.3509997935295332,3.305905455866277e-05,0.3509997935295332,-1.1916383406347456e-05
0.3517939107094642,-1.8461889941850488e-06,0.3517939107094642,-1.242096988817676e-05,0.3517939107094642,7.905182804251613e-05,0.3517939107094642,-1.1581637751678653e-05
0.3525880278893953,-1.510687166095811e-06,0.3525880278893953,-1.3931393876284425e-05,0.3525880278893953,0.0001132979056888,0.3525880278893953,-9.903212017721293e-06
0.3533821450693264,-2.8536853370791573e-06,0.3533821450693264,-1.0909770658741172e-05,0.3533821450693264,0.000110607571831,0.3533821450693264,-1.3092660019584525e-05
0.3541762622492574,-4.196340738460044e-06,0.3541762622492574,-8.56031e-06,0.3541762622492574,8.089527151112781e-05,0.3541762622492574,-1.5609889261539957e-05
0.3549703794291886,-4.531667955193222e-06,0.3549703794291886,-8.56031e-06,0.3549703794291886,5.658419813140258e-05,0.3549703794291886,-1.527456204480678e-05
0.3557644966091196,-3.1899913202018266e-06,0.3557644966091196,-9.902248679798172e-06,0.3557644966091196,4.482314910724042e-05,0.3557644966091196,-1.6951735841822798e-05
0.3565586137890507,-2.85360328843286e-06,0.3565586137890507,-1.191632026940284e-05,0.3565586137890507,3.995046765795588e-05,0.3565586137890507,-1.628172657686572e-05
0.3573527309689818,-3.5246025129278347e-06,0.3573527309689818,-1.1581713745230233e-05,0.3573527309689818,1.494707396882784e-05,0.3573527309689818,-1.4939054980920933e-05
0.3581468481489128,-5.538644787834087e-06,0.3581468481489128,-1.2252871595944695e-05,0.3581468481489128,-1.694670082649785e-05,0.3581468481489128,-1.6281143191889392e-05
0.3589409653288439,-6.881761365136377e-06,0.3589409653288439,-1.1917314658825073e-05,0.3589409653288439,-3.004442831018884e-05,0.3589409653288439,-1.62814e-05
0.3597350825087749,-7.888805347906628e-06,0.3597350825087749,-1.25887e-05,0.3597350825087749,-3.50810058182781e-05,0.3597350825087749,-2.0309869768755016e-05
0.360529199688706,-6.881988642763844e-06,0.360529199688706,-1.25887e-05,0.360529199688706,-3.994890106568729e-05,0.360529199688706,-2.0980694071708472e-05
0.3613233168686371,-7.552643076230153e-06,0.3613233168686371,-1.25887e-05,0.3613233168686371,-4.3134559569128986e-05,0.3613233168686371,-1.8968730771309542e-05
0.3621174340485681,-7.217759281984465e-06,0.3621174340485681,-1.191777856396893e-05,0.3621174340485681,-4.582088581540279e-05,0.3621174340485681,-1.6283314255875723e-05
0.3629115512284993,-6.882009738781861e-06,0.3629115512284993,-1.158178973878186e-05,0.3629115512284993,-5.152647444070836e-05,0.3629115512284993,-1.62814e-05
0.3637056684084303,-7.720719511051856e-06,0.3637056684084303,-1.292383921768297e-05,0.3637056684084303,-5.404644851227449e-05,0.3637056684084303,-1.5610280391158515e-05
0.3644997855883614,-9.566911414628675e-06,0.3644997855883614,-1.4266837390493291e-05,0.3644997855883614,-6.159866033502676e-05,0.3644997855883614,-1.4938781304753354e-05
0.3652939027682925,-8.896092218348146e-06,0.3652939027682925,-1.42672e-05,0.3652939027682925,-6.663558336238891e-05,0.3652939027682925,-1.5609917781651854e-05
0.3660880199482235,-8.5603521698913e-06,0.3660880199482235,-1.3595774697914476e-05,0.3660880199482235,-6.797895903819955e-05,0.3660880199482235,-1.7959992774313582e-05
0.3668821371281546,-1.023856809280261e-05,0.3668821371281546,-1.2588526068306667e-05,0.3668821371281546,-7.032932179508e-05,0.3668821371281546,-2.1652310113844443e-05
0.3676762543080857,-8.895902614812113e-06,0.3676762543080857,-1.1581814770375772e-05,0.3676762543080857,-7.334945568887268e-05,0.3676762543080857,-1.9973992614812116e-05
0.3684703714880167,-8.56057539807896e-06,0.3684703714880167,-1.2252469203842082e-05,0.3684703714880167,-7.133749238847376e-05,0.3684703714880167,-1.963866539807896e-05
0.3692644886679478,-8.224826189130886e-06,0.3692644886679478,-1.2253e-05,0.3692644886679478,-6.999396475652355e-05,0.3692644886679478,-2.098033524347646e-05
0.3700586058478789,-6.882486578748996e-06,0.3700586058478789,-1.0239799875569693e-05,0.3700586058478789,-7.083198336035864e-05,0.3700586058478789,-2.0310133291856563e-05
0.3708527230278099,-7.88855869531128e-06,0.3708527230278099,-8.225312612865754e-06,0.3708527230278099,-7.267805595245035e-05,0.3708527230278099,-1.8464044082432804e-05
0.371646840207741,-8.895807321430707e-06,0.371646840207741,-9.567139761907608e-06,0.371646840207741,-6.932237559523098e-05,0.371646840207741,-1.9302531091129773e-05
0.3724409573876721,-9.567373967358963e-06,0.3724409573876721,-8.39252305712181e-06,0.3724409573876721,-5.757293056585132e-05,0.3724409573876721,-2.2323737858482135e-05
0.3732350745676032,-9.56731541935367e-06,0.3732350745676032,-7.553724428235482e-06,0.3732350745676032,-3.944163648341218e-05,0.3732350745676032,-1.9637643354829363e-05
0.3740291917475342,-8.559581291836167e-06,0.3740291917475342,-1.2925047744877929e-05,0.3740291917475342,-7.880246458084156e-06,0.3740291917475342,-1.1580061613150672e-05
0.3748233089274653,-5.541656319028467e-06,0.3748233089274653,-1.5607665478743165e-05,0.3748233089274653,2.799957594335183e-05,0.3748233089274653,-5.208874461906775e-06
0.3756174261073964,-2.184466387571006e-06,0.3756174261073964,-1.4939085278959774e-05,0.3756174261073964,5.620911835596814e-05,0.3756174261073964,-1.258336195312608e-05
0.3764115432873274,-1.5110261925546136e-06,0.3764115432873274,-1.2590051673941149e-05,0.3764115432873274,7.300474524365515e-05,0.3764115432873274,-1.0240151673941148e-05
0.3772056604672585,-2.852865787701188e-06,0.3772056604672585,-1.0910917765373514e-05,0.3772056604672585,7.603440802232767e-05,0.3772056604672585,-3.527701048665366e-06
0.3779997776471896,-2.85344e-06,0.3779997776471896,-1.3259441930895309e-05,0.3779997776471896,6.395398432739144e-05,0.3779997776471896,-1.1755980663042798e-06
0.3787938948271206,5.031033348943286e-07,0.3787938948271206,-1.32601e-05,0.3787938948271206,4.7839134400136894e-05,0.3787938948271206,-3.1888731999828885e-06
0.3795880120070517,1.1749374618846798e-06,0.3795880120070517,-1.4938589846933829e-05,0.3795880120070517,4.078725785707361e-05,0.3795880120070517,-4.867619846933829e-06
0.3803821291869828,1.006908831087792e-06,0.3803821291869828,-1.4267090760528622e-05,0.3803821291869828,3.138605218472835e-05,0.3803821291869828,-4.196666956258474e-06
0.3811762463669139,-1.6972156549573405e-07,0.3811762463669139,-1.3596320159578527e-05,0.3811762463669139,2.06407145411744e-05,0.3811762463669139,-6.882132092648162e-06
0.3819703635468449,-6.205582498896015e-06,0.3819703635468449,-1.5272956243244302e-05,0.3819703635468449,5.2156925381353285e-06,0.3819703635468449,-7.888103753952281e-06
0.382764480726776,-5.203988633338959e-06,0.382764480726776,-1.359689773313154e-05,0.382764480726776,-6.202955447405352e-06,0.382764480726776,-5.205086359930534e-06
0.3835585979067071,-4.532270006847409e-06,0.3835585979067071,-1.2589210010271112e-05,0.3835585979067071,-1.8960539880027533e-05,0.3835585979067071,-7.887549982738662e-06
0.3843527150866381,-2.854042297517289e-06,0.3843527150866381,-1.3931018159115504e-05,0.3843527150866381,-3.0376604388365085e-05,0.3843527150866381,-8.560069079557754e-06
0.3851468322665692,-3.860317251056952e-06,0.3851468322665692,-1.22533545850926e-05,0.3851468322665692,-3.675765257664812e-05,0.3851468322665692,-7.553432748943048e-06
0.3859409494465003,-4.867565878552253e-06,0.3859409494465003,-1.1581642747631833e-05,0.3859409494465003,-3.575196412144775e-05,0.3859409494465003,-1.1581343515482396e-05
0.3867350666264313,-3.860417323292466e-06,0.3867350666264313,-1.3595771830613336e-05,0.3867350666264313,-2.7023305628586697e-05,0.3867350666264313,-1.0238969016319984e-05
0.3875291838063624,-2.517545962906099e-06,0.3875291838063624,-1.32601e-05,0.3875291838063624,-2.232514183740097e-05,0.3875291838063624,-1.2253931378050724e-05
0.3883233009862935,-1.6792279210731543e-06,0.3883233009862935,-1.32601e-05,0.3883233009862935,-2.769037730513181e-05,0.3883233009862935,-1.627785797884886e-05
0.3891174181662246,-2.852579010586335e-06,0.3891174181662246,-1.242141502907774e-05,0.3891174181662246,-2.970782401814801e-05,0.3891174181662246,-3.238309221846284e-05
0.3899115353461556,-5.034203056329326e-06,0.3899115353461556,-1.1582091105171505e-05,0.3899115353461556,-2.232822198300004e-05,0.3899115353461556,-4.212450284059086e-05
0.3907056525260867,-3.861044186995437e-06,0.3907056525260867,-1.359491853657925e-05,0.3907056525260867,-1.7626256704219293e-05,0.3907056525260867,-3.038584186995437e-05
0.3914997697060178,-3.5249273673675447e-06,0.3914997697060178,-1.35958e-05,0.3914997697060178,-1.1583352612615802e-05,0.3914997697060178,-1.0915847278313303e-05
0.3922938868859488,-1.1752747677299743e-06,0.3922938868859488,-1.2588843472494822e-05,0.3922938868859488,-5.204238654860043e-06,0.3922938868859488,-5.53979518236522e-06
0.3930880040658799,-1.67849e-07,0.3930880040658799,-1.309220601688786e-05,0.3930880040658799,-1.29244618848438e-05,0.3930880040658799,-6.881786478908948e-06
0.393882121245811,-1.6790026208754113e-07,0.393882121245811,-1.4267430672445967e-05,0.393882121245811,-2.501047398256463e-05,0.393882121245811,-3.350572253564102e-07
0.394676238425742,-5.046554596804555e-07,0.394676238425742,-1.5778353747534717e-05,0.394676238425742,-3.1386893892208274e-05,0.394676238425742,3.858415757483174e-06
0.3954703556056732,-4.193236863733792e-06,0.3954703556056732,-1.762270338404392e-05,0.3954703556056732,-2.8368948941609675e-05,0.3954703556056732,-3.183425827227527e-06
0.3962644727856042,-8.221935163819197e-06,0.3962644727856042,-1.963706257526962e-05,0.3962644727856042,-2.8534288514739235e-05,0.3962644727856042,-2.164034029986476e-05
0.3970585899655353,-9.5667165563234e-06,0.3970585899655353,-1.82962934436766e-05,0.3970585899655353,-2.8366586706280387e-05,0.3970585899655353,-2.232355332980332e-05
0.3978527071454664,-7.55396290261093e-06,0.3978527071454664,-1.8463338109583448e-05,0.3978527071454664,-3.037995709370072e-05,0.3978527071454664,-1.225671449461293e-05
0.3986468243253974,-8.224461453184642e-06,0.3986468243253974,-2.0980642930082805e-05,0.3986468243253974,-3.575071160777693e-05,0.3986468243253974,-4.198012581697026e-06
0.3994409415053285,-6.881918924508737e-06,0.3994409415053285,-2.6687579575073945e-05,0.3994409415053285,-3.373784838786817e-05,0.3994409415053285,6.209653333031337e-06
0.4002350586852595,-7.553269623043329e-06,0.4002350586852595,-3.4409075188108786e-05,0.4002350586852595,-2.9708853385958054e-05,0.4002350586852595,7.552450834328649e-06
0.4010291758651906,-8.224684261565403e-06,0.4010291758651906,-3.406901858976263e-05,0.4010291758651906,-2.366580888333657e-05,0.4010291758651906,-2.855370791851913e-06
0.4018232930451217,-8.560011478298558e-06,0.4018232930451217,-1.4284812691459966e-05,0.4018232930451217,-1.964198217149217e-05,0.4018232930451217,-1.1573838471332547e-05
0.4026174102250527,-6.212165473867389e-06,0.4026174102250527,1.5084581595227392e-05,0.4026174102250527,-1.9302949354470758e-05,0.4026174102250527,-1.5607007746350942e-05
0.4034115274049838,-6.881420377463698e-06,0.4034115274049838,3.4062110693109864e-05,0.4034115274049838,-1.86316996225363e-05,0.4034115274049838,-2.701690647640365e-05
0.4042056445849149,-8.224008932213978e-06,0.4042056445849149,3.809999678321316e-05,0.4042056445849149,-1.829575026806557e-05,0.4042056445849149,-3.138584651514758e-05
0.404999761764846,-6.378823983746002e-06,0.404999761764846,2.3335431893971564e-05,0.404999761764846,-1.359721014808186e-05,0.404999761764846,-3.3233645998251343e-05
0.4057938789447771,-6.2104455908301815e-06,0.4057938789447771,1.178317968239193e-06,0.4057938789447771,-5.540258355274831e-06,0.4057938789447771,-3.373762323513258e-05
0.4065879961247081,-8.224600169302114e-06,0.4065879961247081,-1.560991807740373e-05,0.4065879961247081,-2.853453107613451e-06,0.4065879961247081,-3.306630327691556e-05
0.4073821133046392,-6.881628382447818e-06,0.4073821133046392,-2.1653318556901863e-05,0.4073821133046392,-3.525692282552345e-06,0.4073821133046392,-3.3736550286124844e-05
0.4081762304845703,-5.539224647843605e-06,0.4081762304845703,-2.668887592834252e-05,0.4081762304845703,-9.568967203043078e-06,0.4081762304845703,-2.567798026785004e-05
0.4089703476645013,-6.209869092414569e-06,0.4089703476645013,-2.970682087894091e-05,0.4089703476645013,-1.4934192681878206e-05,0.4089703476645013,-1.5618263654808857e-05
0.4097644648444324,-5.539482516494357e-06,0.4097644648444324,-3.0715721215148475e-05,0.4097644648444324,-1.8628811122211063e-05,0.4097644648444324,-1.0913367662640455e-05
0.4105585820243635,-5.53903e-06,0.4105585820243635,-3.105192328158543e-05,0.4105585820243635,-2.064443968951257e-05,0.4105585820243635,-1.3594386252683425e-05
0.4113526992042945,-7.55245695251641e-06,0.4113526992042945,-2.836751740169593e-05,0.4113526992042945,-2.4336701110551687e-05,0.4113526992042945,-1.2589081525635974e-05
0.4121468163842256,-7.049786448014081e-06,0.4121468163842256,-2.0311663145099884e-05,0.4121468163842256,-2.6351834207943675e-05,0.4121468163842256,-1.0910588160046935e-05
0.4129409335641567,-6.881834044403391e-06,0.4129409335641567,-1.1918002220169588e-05,0.4129409335641567,-2.568095617761357e-05,0.4129409335641567,-5.707305374831698e-06
0.4137350507440878,-8.895967091208407e-06,0.4137350507440878,-4.196058365472719e-06,0.4137350507440878,-2.702425781429072e-05,0.4137350507440878,-2.853804722811264e-06
0.4145291679240188,-8.224326368939269e-06,0.4145291679240188,-1.5097891047055568e-06,0.4145291679240188,-3.5752325449759474e-05,0.4145291679240188,-8.561799072045906e-06
0.4153232851039499,-6.88302749090209e-06,0.4153232851039499,2.5141175183013256e-06,0.4153232851039499,-3.776428875015826e-05,0.4153232851039499,-1.5603660634546315e-05
0.416117402283881,-4.198251688201504e-06,0.416117402283881,5.872192895394053e-06,0.416117402283881,-3.675975813589853e-05,0.416117402283881,-1.9299920168372053e-05
0.416911519463812,-4.867223662472807e-06,0.416911519463812,9.22967831841613e-06,0.416911519463812,-2.8036082387853505e-05,0.416911519463812,-2.399955569783058e-05
0.4177056366437431,-6.209805502332212e-06,0.4177056366437431,1.2587163748966116e-05,0.4177056366437431,-1.8300055095506717e-05,0.4177056366437431,-2.4337946374438984e-05
0.4184997538236742,-6.881611835283223e-06,0.4184997538236742,9.064952861662623e-06,0.4184997538236742,-5.878571041059465e-06,0.4184997538236742,-2.568048367056645e-05
0.4192938710036052,-6.88182e-06,0.4192938710036052,5.87523812035554e-06,0.4192938710036052,5.201530215981527e-06,0.4192938710036052,-3.524674564218266e-05
0.4200879881835363,-5.203354979617317e-06,0.4200879881835363,-2.181920097717821e-06,0.4200879881835363,1.7288320146130263e-05,0.4200879881835363,-3.306633247295187e-05
0.4208821053634674,-2.853529093171803e-06,0.4208821053634674,-1.5107357759227113e-05,0.4208821053634674,2.80312900197434e-05,0.4208821053634674,-1.4601340851579e-05
0.4216762225433985,-3.5252058883968408e-06,0.4216762225433985,-2.2324839720992104e-05,0.4216762225433985,3.172124466961896e-05,0.4216762225433985,-2.85137262221524e-06
0.4224703397233295,-4.866514755329459e-06,0.4224703397233295,-2.567811188832365e-05,0.4224703397233295,2.367339146802325e-05,0.4224703397233295,4.525796179228125e-06
0.4232644569032606,-5.203100380887403e-06,0.4232644569032606,-2.903560380887402e-05,0.4232644569032606,1.1589866219653423e-05,0.4232644569032606,1.4596011447142098e-05
0.4240585740831917,-1.5126208296459984e-06,0.4240585740831917,-2.7192590390684132e-05,0.4240585740831917,-1.5036170716944748e-06,0.4240585740831917,1.46029e-05
0.4248526912631227,-8.395070630818026e-07,0.4248526912631227,-2.501034848204005e-05,0.4248526912631227,-1.090654509974592e-05,0.4248526912631227,5.090303550471668e-07
0.4256468084430538,-5.873505163700504e-06,0.4256468084430538,-2.568073802099038e-05,0.4256468084430538,-2.1650008335846097e-05,0.4256468084430538,-1.292116043235291e-05
0.4264409256229849,-7.888721323123364e-06,0.4264409256229849,-2.433822578520892e-05,0.4264409256229849,-3.440790504988268e-05,0.4264409256229849,-1.8462881140696916e-05
0.4272350428029159,-6.2104923876015e-06,0.4272350428029159,-2.030983619380075e-05,0.4272350428029159,-4.17941380619925e-05,0.4272350428029159,-1.6281707647306372e-05
0.428029159982847,-7.553490218071896e-06,0.428029159982847,-2.0981672865023825e-05,0.428029159982847,-3.5078338239325923e-05,0.428029159982847,-2.1989921300381927e-05
0.4288232771627781,-8.894789096109262e-06,0.4288232771627781,-2.332886349320262e-05,0.4288232771627781,-2.4347867303864234e-05,0.4288232771627781,-3.003767461302475e-05
0.4296173943427092,-8.89601e-06,0.4296173943427092,-2.232466820838487e-05,0.4296173943427092,-1.2597662354877529e-05,0.4296173943427092,-2.9374112138923243e-05
0.4304115115226402,-9.902480427374982e-06,0.4304115115226402,-1.9304558674810305e-05,0.4304115115226402,-8.464743907667731e-07,0.4304115115226402,-2.316702070503173e-05
0.4312056287025713,-8.225394910605783e-06,0.4312056287025713,-1.6953898881394904e-05,0.4312056287025713,1.1739981082083185e-06,0.4312056287025713,-1.628461812927505e-05
0.4319997458825024,-7.217842316361029e-06,0.4319997458825024,-1.628161487970767e-05,0.4319997458825024,-1.6741924410518268e-07,0.4319997458825024,-5.542468065721279e-06
0.4327938630624334,-3.189834756365736e-06,0.4327938630624334,-1.561011579330251e-05,0.4327938630624334,1.174708415292105e-06,0.4327938630624334,3.858908900663513e-06
0.4335879802423645,-3.5248216468002103e-06,0.4335879802423645,-1.4267233413794504e-05,0.4335879802423645,3.8604631726598255e-06,0.4335879802423645,1.1749203695947974e-05
0.4343820974222956,-2.853460594876977e-06,0.4343820974222956,-1.393129405123023e-05,0.4343820974222956,5.203165240984184e-06,0.4343820974222956,1.594549405123023e-05
0.4351762146022266,-3.0210634529324263e-06,0.4351762146022266,-1.2253090618827029e-05,0.4351762146022266,3.85862701273058e-06,0.4351762146022266,1.4264934534723064e-05
0.4359703317821577,-2.182745411099481e-06,0.4359703317821577,-1.2588417835560207e-05,0.4359703317821577,-3.183214571980121e-06,0.4359703317821577,5.881774094184305e-06
0.4367644489620888,-2.852974046783913e-06,0.4367644489620888,-1.1917765953216088e-05,0.4367644489620888,-1.8956050127182064e-05,0.4367644489620888,-6.872966930534502e-06
0.4375585661420199,-2.85344e-06,0.4375585661420199,-1.158178343340544e-05,0.4375585661420199,-3.725250296136665e-05,0.4375585661420199,-3.036785972718972e-05
0.438352683321951,-4.531260552974212e-06,0.438352683321951,-9.568213337228624e-06,0.438352683321951,-4.581938581976964e-05,0.438352683321951,-4.246107995269793e-05
0.439146800501882,-6.881229573510785e-06,0.439146800501882,-9.56741e-06,0.439146800501882,-4.515156869400051e-05,0.439146800501882,-3.843851216400306e-05
0.4399409176818131,-5.874824411393024e-06,0.4399409176818131,-9.903065197239078e-06,0.4399409176818131,-3.575287449596736e-05,0.4399409176818131,-4.179415196202325e-05
0.4407350348617442,-7.217571587478269e-06,0.4407350348617442,-1.0910141042819251e-05,0.4407350348617442,-2.5680546258671785e-05,0.4407350348617442,-4.582262313153121e-05
0.4415291520416752,-8.392427899125546e-06,0.4415291520416752,-9.567474199836433e-06,0.4415291520416752,-1.762253075644088e-05,0.4415291520416752,-4.179475680699563e-05
0.4423232692216063,-8.224764290758968e-06,0.4423232692216063,-9.902791427674245e-06,0.4423232692216063,-8.90403311027421e-06,0.4423232692216063,-4.3136065673928245e-05
0.4431173864015373,-6.547417127057399e-06,0.4431173864015373,-8.2259071270574e-06,0.4431173864015373,1.1671572299276648e-06,0.4431173864015373,-4.783336809988045e-05
0.4439115035814684,-5.707394709386101e-06,0.4439115035814684,-7.218149645011199e-06,0.4439115035814684,9.897643047393036e-06,0.4439115035814684,-3.643043598512976e-05
0.4447056207613995,-4.868030846603346e-06,0.4447056207613995,-9.062978131741077e-06,0.4447056207613995,1.1077538784186966e-05,0.4447056207613995,-1.528440140700414e-05
0.4454997379413306,-5.5388084053014405e-06,0.4454997379413306,-1.2419692046310124e-05,0.4454997379413306,1.997116388674652e-05,0.4454997379413306,1.1572736245062492e-05
0.4462938551212617,-3.860836270733379e-06,0.4462938551212617,-1.1581753126243342e-05,0.4462938551212617,1.7288990033173404e-05,0.4462938551212617,2.467141110652634e-05
0.4470879723011927,-3.524841710944072e-06,0.4470879723011927,-1.1917288289055928e-05,0.4470879723011927,3.860998436716322e-06,0.4470879723011927,2.8366371179615207e-05
0.4478820894811238,-1.846188671867539e-06,0.4478820894811238,-1.4938410838707455e-05,0.4478820894811238,-7.55390097839922e-06,0.4478820894811238,3.306645132903403e-05
0.4486762066610549,-5.02239022395842e-07,0.4486762066610549,-1.326097265554872e-05,0.4486762066610549,-1.359632359332923e-05,0.4486762066610549,3.4408052813341536e-05
0.4494703238409859,4.527647253031717e-06,0.4494703238409859,-1.6614244822880265e-05,0.4494703238409859,-1.560828689372816e-05,0.4494703238409859,3.038412621254368e-05
0.450264441020917,7.047897501263874e-06,0.450264441020917,-1.7791172865837983e-05,0.450264441020917,-1.024258134565582e-05,0.450264441020917,1.729771695963567e-05
0.4510585582008481,3.5267912988948232e-06,0.4510585582008481,-1.896634620402588e-05,0.4510585582008481,-8.896757158039224e-06,0.4510585582008481,-4.18427542129442e-06
0.4518526753807791,3.52483e-06,0.4518526753807791,-2.0644813761508595e-05,0.4518526753807791,-1.4936129545519344e-05,0.4518526753807791,-2.4497696546961222e-05
0.4526467925607102,4.5316668865128985e-06,0.4526467925607102,-2.13167245910086e-05,0.4526467925607102,-2.2321970527220444e-05,0.4526467925607102,-3.004355288888387e-05
0.4534409097406413,1.5109834505008903e-06,0.4534409097406413,-2.433775655973002e-05,0.4534409097406413,-2.8533694010394305e-05,0.4534409097406413,-3.843654596767317e-05
0.4542350269205724,-4.196423491444474e-06,0.4542350269205724,-2.4337986184295428e-05,0.4542350269205724,-3.776635039861866e-05,0.4542350269205724,-4.951603494974684e-05
0.4550291441005034,-9.90328254543018e-06,0.4550291441005034,-2.0982538648362137e-05,0.4550291441005034,-4.515127830304655e-05,0.4550291441005034,-6.52936433939069e-05
0.4558232612804345,-1.0909264195629642e-05,0.4558232612804345,-2.8359637527538083e-05,0.4558232612804345,-4.448062386958024e-05,0.4558232612804345,-6.663495226083953e-05
0.4566173784603656,-1.225194886219004e-05,0.4566173784603656,-4.245486305299543e-05,0.4566173784603656,-4.0454853335150327e-05,0.4566173784603656,-5.456046024028964e-05
0.4574114956402966,-1.2253e-05,0.4574114956402966,-4.649164116852274e-05,0.4574114956402966,-3.189683762011141e-05,0.4574114956402966,-4.046065606897384e-05
0.4582056128202277,-1.1246391094141917e-05,0.4582056128202277,-4.246786432780448e-05,0.4582056128202277,-2.568392843825675e-05,0.4582056128202277,-2.8372393129703005e-05
0.4589997300001588,-1.1078157060419842e-05,0.4589997300001588,-4.481490095009211e-05,0.4589997300001588,-2.1989555669286702e-05,0.4589997300001588,-5.546792485233196e-06
0.4597938471800898,-1.0238961538728663e-05,0.4597938471800898,-4.3808893815679454e-05,0.4597938471800898,-1.628249839791566e-05,0.4597938471800898,2.5339255761646626e-05
0.4605879643600209,-9.567440136430167e-06,0.4605879643600209,-4.783681918321445e-05,0.4605879643600209,-1.1581810958153243e-05,0.4605879643600209,3.810122739929834e-05
0.461382081539952,-9.566875643226064e-06,0.461382081539952,-6.227192762618457e-05,0.461382081539952,-1.2924486181772958e-05,0.461382081539952,3.256164510057136e-05
0.4621761987198831,-4.362695454834072e-06,0.4621761987198831,-6.058420184933217e-05,0.4621761987198831,-1.3762970670377746e-05,0.4621761987198831,2.1314130894670418e-05
0.4629703158998141,1.1701736545765556e-06,0.4629703158998141,-2.3027653464174944e-05,0.4629703158998141,-1.1248066489355987e-05,0.4629703158998141,1.024833274247709e-05
0.4637644330797452,3.1877018504066763e-06,0.4637644330797452,4.0574078691912736e-05,0.4637644330797452,-1.2252280925203338e-05,0.4637644330797452,-2.173171453681491e-06
0.4645585502596763,8.38951271684995e-06,0.4645585502596763,0.0001050374914512,0.4645585502596763,-1.2588509851603694e-05,0.4645585502596763,-1.962851230604899e-05
0.4653526674396073,1.0573586070429195e-05,0.4653526674396073,0.0001461797759684,0.4653526674396073,-1.25887e-05,0.4653526674396073,-3.910074494064804e-05
0.4661467846195384,6.3794082694635385e-06,0.4661467846195384,0.0001428409106199,0.4661467846195384,-1.4937962566062306e-05,0.4661467846195384,-4.414303407013351e-05
0.4669409017994695,-1.5096643134169415e-06,0.4669409017994695,0.0001146444876029,0.4669409017994695,-1.6281233924845927e-05,0.4669409017994695,-3.776688885698185e-05
0.4677350189794005,-7.385422158452366e-06,0.4677350189794005,9.718454753613284e-05,0.4677350189794005,-1.5777836111058456e-05,0.4677350189794005,-3.3401879633789074e-05
0.4685291361593316,-9.56741e-06,0.4685291361593316,9.080341026648816e-05,0.4685291361593316,-1.728890246643215e-05,0.4685291361593316,-2.8365350113035108e-05
0.4693232533392627,-9.56741e-06,0.4693232533392627,7.336649488531878e-05,0.4693232533392627,-1.963619298356407e-05,0.4693232533392627,-2.1658905667325936e-05
0.4701173705191938,-9.231976141947912e-06,0.4701173705191938,4.5509189702397e-05,0.4701173705191938,-2.0309267716104176e-05,0.4701173705191938,-1.7627393703374944e-05
0.4709114876991248,-1.158008381523483e-05,0.4709114876991248,1.5293793758036805e-05,0.4709114876991248,-1.8967866394981325e-05,0.4709114876991248,-1.829516680250934e-05
0.4717056048790559,-1.1917132944457271e-05,0.4717056048790559,-1.7607828606576032e-05,0.4717056048790559,-1.628273644434182e-05,0.4717056048790559,-1.527580349988455e-05
0.472499722058987,-1.3930794925959258e-05,0.472499722058987,-4.732310021040679e-05,0.472499722058987,-1.3093316384733758e-05,0.472499722058987,-1.0576145172761733e-05
0.473293839238918,-1.5609660154312284e-05,0.473293839238918,-7.032414414444876e-05,0.473293839238918,-1.2924433974445278e-05,0.473293839238918,-7.5538317181884924e-06
0.4740879564188491,-1.527431842593494e-05,0.4740879564188491,-8.610583398105784e-05,0.4740879564188491,-1.6281215740650603e-05,0.4740879564188491,-4.364255045833044e-06
0.4748820735987802,-1.4267075530929436e-05,0.4748820735987802,-9.080602660205769e-05,0.4748820735987802,-1.2923964359179964e-05,0.4748820735987802,-1.5107955863382049e-06
0.4756761907787112,-1.2924480559010534e-05,0.4756761907787112,-8.677729440989466e-05,0.4756761907787112,-8.224851677031601e-06,0.4756761907787112,-3.1892205566108017e-06
0.4764703079586423,-1.3259807775743712e-05,0.4764703079586423,-8.342402224256289e-05,0.4764703079586423,-9.230833327231137e-06,0.4764703079586423,-3.5245377844486345e-06
0.4772644251385734,-1.2924643049094332e-05,0.4772644251385734,-7.973107354003765e-05,0.4772644251385734,-8.225339147282998e-06,0.4772644251385734,-3.52483e-06
0.4780585423185045,-1.0911361035350514e-05,0.4780585423185045,-7.20117506355103e-05,0.4780585423185045,-9.231129482324744e-06,0.4780585423185045,-5.202362470541238e-06
0.4788526594984356,-9.232429809157194e-06,0.4788526594984356,-6.596729132840426e-05,0.4788526594984356,-1.0238368116221056e-05,0.4788526594984356,-6.545544153531932e-06
0.4796467766783666,-1.1580939066406802e-05,0.4796467766783666,-5.589663255647018e-05,0.4796467766783666,-1.3091397448427445e-05,0.4796467766783666,-9.23095464692026e-06
0.4804408938582977,-1.2588565371148109e-05,0.4804408938582977,-4.6159801412234965e-05,0.4804408938582977,-1.3931387802606104e-05,0.4804408938582977,-1.3595216609645262e-05
0.4812350110382288,-1.0910162664789904e-05,0.4812350110382288,-3.978027199848817e-05,0.4812350110382288,-1.62813766654068e-05,0.4812350110382288,-1.35958e-05
0.4820291282181598,-8.224501717747983e-06,0.4820291282181598,-3.776631656772964e-05,0.4820291282181598,-1.4602412722608294e-05,0.4820291282181598,-1.3596287277391706e-05
0.4828232453980909,-7.553857273177019e-06,0.4828232453980909,-3.910762543466227e-05,0.4828232453980909,-1.15844677720099e-05,0.4828232453980909,-1.6614232227990097e-05
0.483617362578022,-8.224071009141317e-06,0.483617362578022,-4.3804927007793325e-05,0.483617362578022,-1.0910738998886669e-05,0.483617362578022,-2.047450079654158e-05
0.484411479757953,-6.882699818410848e-06,0.484411479757953,-4.917628076566961e-05,0.484411479757953,-1.2252120175036986e-05,0.484411479757953,-1.863250972656331e-05
0.4852055969378841,-6.210760826076347e-06,0.4852055969378841,-5.6561450913160186e-05,0.4852055969378841,-1.6950414217465576e-05,0.4852055969378841,-2.0644477521770963e-05
0.4859997141178152,-8.559463914751546e-06,0.4859997141178152,-6.42835199937819e-05,0.4859997141178152,-1.8966274780986584e-05,0.4859997141178152,-2.165223739049329e-05
0.4867938312977463,-7.7212483144577e-06,0.4867938312977463,-6.730685808155046e-05,0.4867938312977463,-2.4336958795119686e-05,0.4867938312977463,-2.232375736798121e-05
0.4875879484776773,-7.553230891715192e-06,0.4875879484776773,-8.140598509592383e-05,0.4875879484776773,-2.9037595031974607e-05,0.4875879484776773,-2.2995256433139228e-05
0.4883820656576084,-9.567437758945296e-06,0.4883820656576084,-0.0001025572491484,0.4883820656576084,-2.8366139122961157e-05,0.4883820656576084,-2.635227224022778e-05
0.4891761828375395,-9.902173535739168e-06,0.4891761828375395,-0.0001176626177379,0.4891761828375395,-2.400178237709142e-05,0.4891761828375395,-2.601667720573838e-05
0.4899703000174705,-5.878266912732005e-06,0.4899703000174705,-0.0001203456350275,0.4899703000174705,-2.1319264532179636e-05,0.4899703000174705,-2.635200442247153e-05
0.4907644171974016,-5.0360960091343625e-06,0.4907644171974016,-0.0001129684206513,0.4907644171974016,-1.930417843953867e-05,0.4907644171974016,-2.366867125271823e-05
0.4915585343773327,-2.8547196061523687e-06,0.4915585343773327,-0.0001096079686338,0.4915585343773327,-1.7960687453548698e-05,0.4915585343773327,-2.333119686338717e-05
0.4923526515572637,-8.401299184743551e-07,0.4923526515572637,-0.0001169877591314,0.4923526515572637,-1.2591057122953129e-05,0.4923526515572637,-1.561338832036065e-05
0.4931467687371948,-1.5104444477835978e-06,0.4931467687371948,-0.0001294083822225,0.4931467687371948,-7.219084425886582e-06,0.4931467687371948,-9.233567759745184e-06
0.4939408859171259,1.6760783268356186e-07,0.4939408859171259,-0.0001706970672595,0.4939408859171259,-5.53927116746012e-06,0.4939408859171259,-9.567361766220614e-06
0.494735003097057,3.860558807193771e-06,0.494735003097057,-0.0002156855764052,0.494735003097057,-8.224623094193171e-06,0.494735003097057,-1.7624224878651077e-05
0.495529120276988,1.1247017350525082e-05,0.495529120276988,-0.0001070547589202,0.495529120276988,-1.1581904731961386e-05,0.495529120276988,-2.4002349211339768e-05
0.4963232374569191,1.8624216118655e-05,0.4963232374569191,0.0001124162551534,0.4963232374569191,-1.3593868032360453e-05,0.4963232374569191,-2.366702199460659e-05
0.4971173546368502,1.5780119324619624e-05,0.4971173546368502,0.0004027699799671,0.4971173546368502,-1.5608362858367323e-05,0.4971173546368502,-2.098338277423025e-05
0.4979114718167812,1.6281064996134792e-05,0.4979114718167812,0.000694533941228,0.4979114718167812,-1.52745233137362e-05,0.4979114718167812,-1.99747699412086e-05
0.4987055889967123,2.1817532812077497e-05,0.4987055889967123,0.0008386684525963,0.4987055889967123,-1.4938773770533596e-05,0.4987055889967123,-1.6283311475869548e-05
0.4994997061766434,1.7625752823134663e-05,0.4994997061766434,0.000802165540668,0.4994997061766434,-1.3596296909323963e-05,0.4994997061766434,-9.905460319288837e-06
0.5002938233565745,1.2421957615114011e-05,0.5002938233565745,0.0006293054622148,0.5002938233565745,-1.35958e-05,0.5002938233565745,-5.540000886995158e-06
0.5010879405365055,7.553584538181829e-06,0.5010879405365055,0.0003864071893886,0.5010879405365055,-1.0910401127406457e-05,0.5010879405365055,-6.210369718897297e-06
0.5018820577164366,3.1887007604723164e-06,0.5018820577164366,0.0001488670658938,0.5018820577164366,-1.5101763589224737e-06,0.5018820577164366,-7.720911385928032e-06
0.5026761748963677,-2.855212450389441e-06,0.5026761748963677,-5.659643952721205e-05,0.5026761748963677,4.867260739868859e-06,0.5026761748963677,-5.5402116328596425e-06
0.5034702920762988,-1.090302569640377e-05,0.5034702920762988,-0.0001984395525384,0.5034702920762988,3.190634645098431e-06,0.5034702920762988,-1.090541713390408e-05
0.5042644092562298,-1.2419676098817191e-05,0.5042644092562298,-0.0002814213089405,0.5042644092562298,5.055461067293371e-07,0.5042644092562298,-1.627740377463717e-05
0.5050585264361609,-1.258859985973729e-05,0.5050585264361609,-0.0003177173759061,0.5050585264361609,-5.199926258116877e-06,0.5050585264361609,-5.545437050351e-06
0.505852643616092,-2.030633441335963e-05,0.505852643616092,-0.0003251206852705,0.505852643616092,-9.229901876816732e-06,0.505852643616092,1.4929408692938255e-05
0.506646760796023,-2.4672485281920087e-05,0.506646760796023,-0.0003184120226895,0.506646760796023,-1.2252089792715934e-05,0.506646760796023,2.6684460323417016e-05
0.507440877975954,-2.5177322605403582e-05,0.507440877975954,-0.0002986070438391,0.507440877975954,-8.560877502486582e-06,0.507440877975954,2.6520225787953296e-05
0.5082349951558852,-2.5680896928196734e-05,0.5082349951558852,-0.0002714121658956,0.5082349951558852,-7.553226144155604e-06,0.5082349951558852,1.3931576802402622e-05
0.5090291123358163,-2.433791025844761e-05,0.5090291123358163,-0.000248749039138,0.5090291123358163,-1.5610426918492875e-05,0.5090291123358163,1.4602473081507128e-05
0.5098232295157473,-2.299660139151518e-05,0.5098232295157473,-0.0002207491665963,0.5098232295157473,-1.862837186909084e-05,0.5098232295157473,1.1584528130909156e-05
0.5106173466956784,-2.031200963319366e-05,0.5106173466956784,-0.0001781230793154,0.5106173466956784,-1.930214757113155e-05,0.5106173466956784,-1.692932185537101e-05
0.5114114638756094,-1.896790668492649e-05,0.5114114638756094,-0.0001348122403863,0.5114114638756094,-2.0309119986305137e-05,0.5114114638756094,-4.815161971050315e-05
0.5122055810555405,-1.7624908512116255e-05,0.5122055810555405,-0.0001049217642362,0.5122055810555405,-1.6954571280290645e-05,0.5122055810555405,-5.723181754321526e-05
0.5129996982354716,-1.2590613772396202e-05,0.5129996982354716,-8.024127754174979e-05,0.5129996982354716,-1.0912496526875442e-05,0.5129996982354716,-4.381380335505093e-05
0.5137938154154027,-1.191745608324762e-05,0.5137938154154027,-6.328314106713124e-05,0.5137938154154027,-5.204656700630533e-06,0.5137938154154027,-2.451048738174533e-05
0.5145879325953338,-1.5609686517366222e-05,0.5145879325953338,-4.98523399368501e-05,0.5145879325953338,-2.8536394880998425e-06,0.5145879325953338,1.1727598801123566e-06
0.5153820497752648,-1.8295915665451347e-05,0.5153820497752648,-3.608701074612217e-05,0.5153820497752648,-1.8461505982216231e-06,0.5153820497752648,2.2995910298659188e-05
0.5161761669551959,-2.3328885045179503e-05,0.5161761669551959,-2.668659003711989e-05,0.5161761669551959,1.17494e-06,0.5161761669551959,3.273081149758212e-05
0.5169702841351269,-1.326916843213832e-05,0.5169702841351269,-1.9980145591410247e-05,0.5169702841351269,1.17494e-06,0.5169702841351269,3.373679314778158e-05
0.5177644013150581,1.7936359768403246e-05,0.5177644013150581,-1.158792803951556e-05,0.5177644013150581,-4.863073834169135e-06,0.5177644013150581,2.8705996823709334e-05
0.5185585184949891,4.010256388769373e-05,0.5185585184949891,-4.871701549367488e-06,0.5185585184949891,-1.1577528450632513e-05,0.5185585184949891,1.662442876096572e-05
0.5193526356749202,4.330363668877595e-05,0.5193526356749202,-2.854364206464011e-06,0.5193526356749202,-1.5608151577895025e-05,0.5193526356749202,-1.502322128058474e-06
0.5201467528548512,2.266602624076745e-05,0.5201467528548512,-1.5110579678914307e-06,0.5201467528548512,-2.0308337112379996e-05,0.5201467528548512,-2.567337662153148e-05
0.5209408700347823,4.534897212314769e-06,0.5209408700347823,1.675742579492565e-07,0.5209408700347823,-2.1652380204918983e-05,0.5209408700347823,-4.347008771517655e-05
0.5217349872147133,1.5106886499478252e-06,0.5217349872147133,3.860470539061796e-06,0.5217349872147133,-2.1149008109156596e-05,0.5217349872147133,-4.716554054036609e-05
0.5225291043946444,4.1977728701160095e-06,0.5225291043946444,2.517828164231739e-06,0.5225291043946444,-2.3667184903274565e-05,0.5225291043946444,-4.716551183576826e-05
0.5233232215745756,1.593419548909202e-05,0.5233232215745756,3.188482597698141e-06,0.5233232215745756,-2.735578428733978e-05,0.5233232215745756,-4.649485740230186e-05
0.5241173387545066,2.193502415802457e-06,0.5241173387545066,3.692260650433593e-06,0.5241173387545066,-2.7023979571929623e-05,0.5241173387545066,-4.38109364921567e-05
0.5249114559344377,-8.217479143721987e-06,0.5249114559344377,3.860414985636466e-06,0.5249114559344377,-2.316584529610021e-05,0.5249114559344377,-3.911212040217894e-05
0.5257055731143687,-9.90219757775408e-06,0.5257055731143687,6.209156606705154e-06,0.5257055731143687,-2.098237312902704e-05,0.5257055731143687,-3.441162679734248e-05
0.5264996902942998,-1.1245376230712564e-05,0.5264996902942998,5.874850942321859e-06,0.5264996902942998,-2.165233811535628e-05,0.5264996902942998,-3.138897848089673e-05
0.5272938074742308,-1.0910281399119302e-05,0.5272938074742308,5.203492795813847e-06,0.5272938074742308,-2.3834070917848328e-05,0.5272938074742308,-3.440836740792629e-05
0.528087924654162,-1.2924208864500092e-05,0.528087924654162,5.874656289115638e-06,0.528087924654162,-2.9037406238036605e-05,0.528087924654162,-3.810144958491684e-05
0.528882041834093,-1.3931508841008589e-05,0.528882041834093,7.553184625428094e-06,0.528882041834093,-3.172342925085619e-05,0.528882041834093,-3.910872312714048e-05
0.5296761590140241,-1.4099333582961813e-05,0.5296761590140241,6.881215688703459e-06,0.5296761590140241,-3.038043141631257e-05,0.5296761590140241,-3.575082566525028e-05
0.5304702761939551,-1.4267047135805112e-05,0.5304702761939551,3.863280727000414e-06,0.5304702761939551,-2.903912254937995e-05,0.5304702761939551,-3.0385590197519805e-05
0.5312643933738862,-1.2254538874456408e-05,0.5312643933738862,3.692808239538034e-06,0.5312643933738862,-2.5348021269836748e-05,0.5312643933738862,-2.836803887445641e-05
0.5320585105538173,-1.2253e-05,0.5320585105538173,4.53141266031634e-06,0.5320585105538173,-2.299674855111425e-05,0.5320585105538173,-2.450837973172329e-05
0.5328526277337483,-1.0910829570683629e-05,0.5328526277337483,4.53193e-06,0.5328526277337483,-1.9639973879824155e-05,0.5328526277337483,-2.064730999227297e-05
0.5336467449136795,-8.561064943065121e-06,0.5336467449136795,4.364133924734128e-06,0.5336467449136795,-1.5611294193619075e-05,0.5336467449136795,-1.4436995231226112e-05
0.5344408620936105,-1.090979185787696e-05,0.5344408620936105,3.860617459398549e-06,0.5344408620936105,-1.4938716612531398e-05,0.5344408620936105,-5.2049334084118825e-06
0.5352349792735416,-9.23175381505444e-06,0.5352349792735416,-1.677438437910356e-07,0.5352349792735416,-8.560476497937776e-06,0.5352349792735416,5.706585201754589e-06
0.5360290964534726,-1.0574092713989148e-05,0.5360290964534726,-3.52483e-06,0.5360290964534726,-4.532459472542059e-06,0.5360290964534726,1.0238433442832882e-05
0.5368232136334037,-7.220840524448293e-06,0.5368232136334037,-3.52483e-06,0.5368232136334037,-8.891693312282378e-06,0.5368232136334037,7.2205084700251825e-06
0.5376173308133347,-8.894595361302464e-06,0.5376173308133347,-3.1894229209970726e-06,0.5376173308133347,-1.5604341419925723e-05,0.5376173308133347,5.092065649038009e-07
0.5384114479932659,-7.554153537937635e-06,0.5384114479932659,-4.866463075839899e-06,0.5384114479932659,-2.2319232345072955e-05,0.5384114479932659,-9.56040844252539e-06
0.539205565173197,-4.198068424722207e-06,0.539205565173197,-5.538662313960277e-06,0.539205565173197,-2.702112619772194e-05,0.539205565173197,-2.030391702884084e-05
0.539999682353128,-3.860664299817305e-06,0.539999682353128,-6.881282804731372e-06,0.539999682353128,-2.836596280073078e-05,0.539999682353128,-1.2256223195615306e-05
0.5407937995330591,-4.867375730155899e-06,0.5407937995330591,-3.5256775636222334e-06,0.5407937995330591,-2.4339117079376405e-05,0.5407937995330591,-1.709002257578334e-07
0.5415879167129901,-2.1823217062478186e-06,0.5415879167129901,-2.8535104257752383e-06,0.5415879167129901,-1.2254267672345933e-05,0.5415879167129901,-1.846163933883576e-06
0.5423820338929212,-1.5107618027920494e-06,0.5423820338929212,-1.846440308106359e-06,0.5423820338929212,-1.676483838299684e-07,0.5423820338929212,-1.2253200617066445e-05
0.5431761510728523,-4.363920518375691e-06,0.5431761510728523,-4.196421377949171e-06,0.5431761510728523,4.53291878227014e-06,0.5431761510728523,-1.6953055170598896e-05
0.5439702682527834,-3.525602476542805e-06,0.5439702682527834,-5.202403028148634e-06,0.5439702682527834,9.730470663843344e-06,0.5439702682527834,-1.8294364037531515e-05
0.5447643854327144,-4.866590653713946e-06,0.5447643854327144,-4.19700950971454e-06,0.5447643854327144,1.895985450202352e-05,0.5447643854327144,-3.2551756984411387e-05
0.5455585026126455,-5.203119706631091e-06,0.5455585026126455,-7.718861925890773e-06,0.5455585026126455,1.5276613227058008e-05,0.5455585026126455,-5.7892122944612194e-05
0.5463526197925765,-5.874398504455896e-06,0.5463526197925765,-1.2250829882331886e-05,0.5463526197925765,3.194926986832979e-06,0.5463526197925765,-5.8243539249833695e-05
0.5471467369725076,-8.223831554566447e-06,0.5471467369725076,-1.023946724178249e-05,0.5471467369725076,2.517962413927497e-06,0.5471467369725076,-4.0457593935951794e-05
0.5479408541524387,-9.56716334495542e-06,0.5479408541524387,-8.896256653207709e-06,0.5479408541524387,-5.029930283539414e-07,0.5479408541524387,-2.971127324035664e-05
0.5487349713323698,-9.90308787980256e-06,0.5487349713323698,-6.881892722989911e-06,0.5487349713323698,-5.538848192272486e-06,0.5487349713323698,-2.5681045446701927e-05
0.5495290885123009,-1.0910499004572435e-05,0.5495290885123009,-9.567297873285337e-06,0.5495290885123009,-1.4603628818078503e-05,0.5495290885123009,-2.0980900995427564e-05
0.5503232056922319,-1.3593116738437673e-05,0.5503232056922319,-8.561316223085874e-06,0.5503232056922319,-2.114245959989829e-05,0.5503232056922319,-1.8298283261562328e-05
0.551117322872163,-1.225414514768206e-05,0.551117322872163,-6.883251426074515e-06,0.551117322872163,-2.43353803168954e-05,0.551117322872163,-5.885312599002929e-06
0.551911440052094,-1.3594853025128356e-05,0.551911440052094,-8.223663032180597e-06,0.551911440052094,-2.500902651256417e-05,0.551911440052094,1.1904752639368648e-05
0.5527055572320251,-1.7621953593815754e-05,0.5527055572320251,-1.1579728000422885e-05,0.5527055572320251,-2.2996423203092123e-05,0.5527055572320251,4.177783920989774e-05
0.5534996744119562,-1.2255202517003247e-05,0.5534996744119562,-1.4266098741498376e-05,0.5534996744119562,-1.8968651846746385e-05,0.5534996744119562,6.025032888880738e-05
0.5542937915918873,-7.218841706401913e-06,0.5542937915918873,-1.896576640245861e-05,0.5542937915918873,-1.4939657369321187e-05,0.5542937915918873,5.623055736932119e-05
0.5550879087718184,-4.19657713701891e-06,0.5550879087718184,-2.4337482876969026e-05,0.5550879087718184,-1.6952568574554747e-05,0.5550879087718184,3.860732496690112e-05
0.5558820259517494,-5.033395274397421e-07,0.5558820259517494,-3.172371944590124e-05,0.5558820259517494,-2.030978902770494e-05,0.5558820259517494,2.3163095764831152e-05
0.5566761431316805,5.875445268929716e-06,0.5566761431316805,-3.844028019336298e-05,0.5566761431316805,-1.997349560622457e-05,0.5566761431316805,1.9972014843275173e-05
0.5574702603116115,9.899351891936317e-06,0.5574702603116115,-5.386523227413248e-05,0.5574702603116115,-1.6620223438893496e-05,0.5574702603116115,8.403235854878306e-06
0.5582643774915427,1.2922031253397793e-05,0.5582643774915427,-6.5284451401725e-05,0.5582643774915427,-1.4436710800635712e-05,0.5582643774915427,-8.211581956409106e-06
0.5590584946714737,1.4434038602932307e-05,0.5590584946714737,-6.328048190518584e-05,0.5590584946714737,-1.3596334095339074e-05,0.5590584946714737,-2.1644053971792013e-05
0.5598526118514048,1.1814222086424824e-06,0.5598526118514048,-5.556187447622028e-05,0.5598526118514048,-1.4937943569352996e-05,0.5598526118514048,-3.171857681903268e-05
0.5606467290313358,-7.88581677666654e-06,0.5606467290313358,-8.961987175858711e-05,0.5606467290313358,-1.762328348432682e-05,0.5606467290313358,-3.575052522649023e-05
0.5614408462112669,-8.89581493623037e-06,0.5614408462112669,-0.0001451792389529,0.5614408462112669,-1.930237489371728e-05,0.5614408462112669,-3.407372510628271e-05
0.5622349633911979,-7.721124172727884e-06,0.5622349633911979,-0.0001619742260973,0.5622349633911979,-2.0645438087784056e-05,0.5622349633911979,-3.440908452194602e-05
0.563029080571129,-4.867868155082144e-06,0.563029080571129,-0.0001988992649336,0.563029080571129,-2.0477719083115173e-05,0.563029080571129,-3.508026184390438e-05
0.5638231977510602,-7.215148683319208e-06,0.5638231977510602,-0.0001817982761029,0.5638231977510602,-2.1651414286158107e-05,0.5638231977510602,-3.2732971326771976e-05
0.5646173149309912,-1.3254886417769708e-05,0.5646173149309912,-7.210201355144219e-05,0.5646173149309912,-2.299414150861708e-05,0.5646173149309912,-2.9208841223226724e-05
0.5654114321109223,-1.963383807694623e-05,0.5654114321109223,9.471547026914232e-05,0.5654114321109223,-2.064718063697094e-05,0.5654114321109223,-3.3734458669380965e-05
0.5662055492908533,-2.6348488896549325e-05,0.5662055492908533,0.0002270249204843,0.5662055492908533,-1.9638971674032255e-05,0.5662055492908533,-3.860253693722628e-05
0.5669996664707844,-1.7963425328197518e-05,0.5669996664707844,0.0002683736552206,0.5669996664707844,-1.695392811846519e-05,0.5669996664707844,-3.776645251601727e-05
0.5677937836507154,1.4594027281505632e-05,0.5677937836507154,0.000269733634059,0.5677937836507154,-1.7624017056788815e-05,0.5677937836507154,-3.8437317056788814e-05
0.5685879008306466,3.1050045520745745e-05,0.5685879008306466,0.0002482516834427,0.5685879008306466,-1.963814842958236e-05,0.5685879008306466,-3.642355157041764e-05
