X [s],R BICEPS BRACHII: EMG 1 [V],X [s].1,R DELTOID ANTERIOR: EMG 2 [V],X [s].5,R DELTOID MEDIUS: EMG 6 [V],X [s].6,R DELTOID POSTERIOR: EMG 7 [V]
0.0,9.75204e-05,0.0,-4.11231e-05,0.0,1.96384e-05,0.0,-1.49386e-05
0.000794117179931,9.366972400850168e-05,0.000794117179931,-4.40949567396474e-05,0.000794117179931,4.363090472456421e-05,0.000794117179931,-1.102868267233445e-05
0.0015882343598621,8.095272513281573e-05,0.0015882343598621,-3.2276412143685215e-05,0.0015882343598621,4.394687458056465e-05,0.0015882343598621,-7.276761675521048e-06
0.0023823515397932,6.225246686372137e-05,0.0023823515397932,-3.8082106599069136e-05,0.0023823515397932,3.58111630977636e-05,0.0023823515397932,-6.516488451118202e-06
0.0031764687197242,4.387782060426718e-05,0.0031764687197242,-6.819627567959273e-05,0.0031764687197242,3.1249575079689434e-05,0.0031764687197242,-9.350190873833935e-06
0.0039705858996553,2.7201616041454715e-05,0.0039705858996553,-8.6580646100847e-05,0.0039705858996553,2.1435428340942e-05,0.0039705858996553,-1.2894729679785356e-05
0.0047647030795864,8.392516735761217e-06,0.0047647030795864,-5.105620477136555e-05,0.0047647030795864,1.3773525026563146e-05,0.0047647030795864,-1.549150700532797e-05
0.0055588202595174,-2.8928681096304146e-06,0.0055588202595174,4.6895901442833645e-06,0.0055588202595174,1.1364409226842808e-05,0.0055588202595174,-1.526442128925285e-05
0.0063529374394485,-9.053973548462029e-06,0.0063529374394485,1.3023299006617569e-05,0.0063529374394485,1.5304090207408412e-06,0.0063529374394485,-1.7485966595831614e-05
0.0071470546193796,-1.8137576244323413e-05,0.0071470546193796,-1.0337459618897254e-05,0.0071470546193796,-4.067885938919147e-06,0.0071470546193796,-1.6597367126702977e-05
0.0079411717993107,-1.825607192341816e-05,0.0079411717993107,-1.811786707459704e-05,0.0079411717993107,-3.4260885579722943e-06,0.0079411717993107,-1.6320891622394758e-05
0.0087352889792417,-1.6093742305470506e-05,0.0087352889792417,-1.8473327791163083e-05,0.0087352889792417,-1.0426301305023976e-05,0.0087352889792417,-1.7722920360015454e-05
0.0095294061591728,-2.364697743692269e-05,0.0095294061591728,-2.5680931999212555e-05,0.0095294061591728,-1.2687414010655942e-05,0.0095294061591728,-1.9174310909654623e-05
0.0103235233391039,-3.389543699059204e-05,0.0103235233391039,-3.662083300575136e-05,0.0103235233391039,-1.2253e-05,0.0103235233391039,-2.2402850853332733e-05
0.0111176405190349,-4.250545440567288e-05,0.0111176405190349,-1.661668322091269e-05,0.0111176405190349,-1.403025790212733e-05,0.0111176405190349,-2.43381e-05
0.011911757698966,-4.4085068370964735e-05,0.011911757698966,7.207432765386803e-07,0.011911757698966,-1.8275976149762683e-05,0.011911757698966,-2.314333727973121e-05
0.0127058748788971,-4.070870437099156e-05,0.0127058748788971,-2.09415900340044e-05,0.0127058748788971,-1.904614783872267e-05,0.0127058748788971,-2.331124833839893e-05
0.0134999920588282,-3.273069162969275e-05,0.0134999920588282,-5.723624058397147e-05,0.0134999920588282,-1.661711718056739e-05,0.0134999920588282,-2.165263435942884e-05
0.0142941092387592,-2.5364841030804705e-05,0.0142941092387592,-5.624954267966958e-05,0.0142941092387592,-1.400048640080727e-05,0.0142941092387592,-1.835478058903126e-05
0.0150882264186903,-2.4989933418320648e-05,0.0150882264186903,-3.555452483138776e-05,0.0150882264186903,-1.130521336732826e-05,0.0150882264186903,-1.8098093316335872e-05
0.0158823435986214,-2.058641104066148e-05,0.0158823435986214,-3.910830678980373e-05,0.0158823435986214,-9.745185592281747e-06,0.0158823435986214,-1.7012147728463034e-05
0.0166764607785524,-1.5688948671277158e-05,0.0166764607785524,-4.454029914112611e-05,0.0166764607785524,-8.56031e-06,0.0166764607785524,-1.49386e-05
0.0174705779584835,-1.4444911878571583e-05,0.0174705779584835,4.504315306976312e-06,0.0174705779584835,-8.520862485713667e-06,0.0174705779584835,-1.62814e-05
0.0182646951384146,-1.4474493520386285e-05,0.0182646951384146,5.01865879341649e-05,0.0182646951384146,-2.063807635410884e-06,0.0182646951384146,-1.2904976608799402e-05
0.0190588123183456,-1.3655052705035556e-05,0.0190588123183456,4.54077116342177e-05,0.0190588123183456,-1.3921352959486066e-06,0.0190588123183456,-5.7760396434426935e-06
0.0198529294982767,-1.0396663725659316e-05,0.0198529294982767,1.539411396970017e-05,0.0198529294982767,1.0733239944074148e-05,0.0198529294982767,-4.018532016879196e-06
0.0206470466782078,-8.698402566052595e-06,0.0206470466782078,-7.71142424490095e-06,0.0206470466782078,3.571172111754312e-05,0.0206470466782078,-6.230064424539447e-06
0.0214411638581389,-1.2450337211111296e-05,0.0214411638581389,-1.568868934697524e-05,0.0214411638581389,3.4379729098634024e-05,0.0214411638581389,-5.973616522342413e-06
0.0222352810380699,-1.715031580425466e-05,0.0222352810380699,-2.341010169266137e-05,0.0222352810380699,2.7635844211101567e-05,0.0222352810380699,-6.417310783003181e-07
0.023029398218001,-1.715028716634696e-05,0.023029398218001,-2.838643838618002e-05,0.023029398218001,2.708297433269392e-05,0.023029398218001,1.8760752261329458e-07
0.0238235153979321,-1.4770935256714716e-05,0.0238235153979321,-2.5562431527846947e-05,0.0238235153979321,1.7763023058579774e-05,0.0238235153979321,-2.221258362783601e-06
0.0246176325778631,-1.286515000260344e-05,0.0246176325778631,-3.397471792048042e-05,0.0246176325778631,7.020070564957017e-06,0.0246176325778631,-9.83400453767412e-06
0.0254117497577942,-1.2134441987613036e-05,0.0254117497577942,-4.226837079529146e-05,0.0254117497577942,1.014022014185754e-05,0.0254117497577942,-1.252942099380652e-05
0.0262058669377253,-7.563525830106213e-06,0.0262058669377253,-4.6257192156673895e-05,0.0262058669377253,1.602433263359469e-05,0.0262058669377253,-8.975195140070926e-06
0.0269999841176564,3.355376487883147e-07,0.0269999841176564,-4.515147188351161e-05,0.0269999841176564,2.047753700629218e-05,0.0269999841176564,-8.224587092918003e-06
0.0277941012975874,3.090414125886388e-06,0.0277941012975874,-3.613723579844559e-05,0.0277941012975874,2.0230800019195284e-05,0.0277941012975874,-1.2095070629431938e-05
0.0285882184775185,4.926954821039855e-06,0.0285882184775185,-2.6470943794428503e-05,0.0285882184775185,2.51867634842808e-05,0.0285882184775185,-1.1127576429345852e-05
0.0293823356574496,4.050427863265762e-07,0.0293823356574496,-1.983619069954244e-05,0.0293823356574496,2.4921186405898503e-05,0.0293823356574496,-1.1028619507234166e-05
0.0301764528373806,-4.512184256764329e-06,0.0301764528373806,-8.18546292070227e-06,0.0301764528373806,1.0495522021038913e-05,0.0301764528373806,-1.1502570700526509e-05
0.0309705700173117,-3.3274168347626896e-06,0.0309705700173117,-1.5500717545276816e-06,0.0309705700173117,-1.6683425663323872e-06,0.0309705700173117,-1.0949624611783116e-05
0.0317646871972428,-6.249645422740711e-06,0.0317646871972428,-2.5273398508702597e-06,0.0317646871972428,-8.184877630873006e-06,0.0317646871972428,-1.5412346751206223e-05
0.0325588043771738,-7.612489297082592e-06,0.0325588043771738,-1.0090825660886115e-05,0.0325588043771738,-1.0870686742931364e-05,0.0325588043771738,-1.726874337146568e-05
0.0333529215571049,-4.4924076223408286e-06,0.0333529215571049,-2.0289443545776545e-05,0.0333529215571049,-9.685877519861296e-06,0.0333529215571049,-1.827588685319101e-05
0.034147038737036,-6.960331919444073e-06,0.034147038737036,-2.90181818803909e-05,0.034147038737036,-9.804291301092636e-06,0.034147038737036,-1.95395848293147e-05
0.0349411559169671,-1.2253e-05,0.0349411559169671,-3.4566675635792065e-05,0.0349411559169671,-1.2292455988510665e-05,0.0349411559169671,-2.023088802297867e-05
0.0357352730968981,-1.1226145704586756e-05,0.0357352730968981,-4.440097706043821e-05,0.0357352730968981,-1.29244e-05,0.0357352730968981,-1.7426718556880134e-05
0.0365293902768292,-7.474327735220262e-06,0.0365293902768292,-6.533139028935951e-05,0.0365293902768292,-1.2233230437850426e-05,0.0365293902768292,-1.62814e-05
0.0373235074567603,-4.669929172504692e-06,0.0373235074567603,-7.416964376346314e-05,0.0373235074567603,-1.4820174765910042e-05,0.0373235074567603,-1.4760962148865062e-05
0.0381176246366913,-1.3694360876187196e-05,0.0381176246366913,-5.944837862737249e-05,0.0381176246366913,-1.145336124839419e-05,0.0381176246366913,-1.3339103606714076e-05
0.0389117418166224,-2.682644041985504e-05,0.0389117418166224,-3.737168075472656e-05,0.0389117418166224,-7.14841188812047e-06,0.0389117418166224,-1.478070265744564e-05
0.0397058589965535,-2.67081276016537e-05,0.0397058589965535,-2.3803196625171147e-06,0.0397058589965535,-9.389493259130258e-06,0.0397058589965535,-1.62814e-05
0.0404999761764846,-1.7624543606230003e-05,0.0404999761764846,2.635156063132617e-05,0.0404999761764846,-1.0910182819432607e-05,0.0404999761764846,-1.426730308340435e-05
0.0412940933564156,-4.077649860938799e-06,0.0412940933564156,2.0133043678800484e-05,0.0412940933564156,-1.0001831600969408e-05,0.0412940933564156,-8.619536403877635e-06
0.0420882105363467,1.1462124998879152e-05,0.0420882105363467,-6.0124821839797536e-06,0.0420882105363467,-1.1186563725248552e-05,0.0420882105363467,-1.0672860784763564e-05
0.0428823277162778,1.9618439537778072e-05,0.0428823277162778,-1.695232885427661e-05,0.0428823277162778,-1.2707102326666777e-05,0.0428823277162778,-1.3141697673333224e-05
0.0436764448962088,2.530565391062991e-05,0.0436764448962088,-8.147318814478305e-06,0.0436764448962088,-1.3872253021820235e-05,0.0436764448962088,-1.1700093956359525e-05
0.0444705620761399,2.850479871804006e-05,0.0444705620761399,3.0400966676670477e-05,0.0444705620761399,-1.1877898290720084e-05,0.0444705620761399,-1.2253e-05
0.045264679256071,2.202830268662216e-05,0.045264679256071,5.097771601985416e-05,0.045264679256071,-9.014747896780384e-06,0.045264679256071,-1.1858239674940477e-05
0.046058796436002,1.2263138275872178e-05,0.046058796436002,2.672746727245748e-05,0.046058796436002,-6.901582355390112e-06,0.046058796436002,-9.62669647747938e-06
0.0468529136159331,7.582811961818973e-06,0.0468529136159331,-1.351614703620135e-06,0.0468529136159331,-1.0860845357032775e-05,0.0468529136159331,-6.783073551584267e-06
0.0476470307958642,-1.9043997706345784e-06,0.0476470307958642,-1.4188161765757475e-05,0.0476470307958642,-1.0179973337837463e-05,0.0476470307958642,-6.6449466243968886e-06
0.0484411479757953,-1.4543311743593475e-05,0.0484411479757953,-2.9520359094655943e-05,0.0484411479757953,-2.8144180944024426e-06,0.0484411479757953,-4.156785465200932e-06
0.0492352651557263,-2.2047417694549e-05,0.0492352651557263,-4.802433885422821e-05,0.0492352651557263,1.0376929128162e-05,0.0492352651557263,-5.065077081985104e-06
0.0500293823356574,-2.4219702533502967e-05,0.0500293823356574,-5.2419070914014496e-05,0.0500293823356574,3.608668710450349e-05,0.0500293823356574,-8.027093774521595e-06
0.0508234995155885,-2.0349465549054075e-05,0.0508234995155885,-4.199221673251952e-05,0.0508234995155885,5.3267989756973045e-05,0.0508234995155885,-1.1324648231324294e-05
0.0516176166955195,-2.0151769879148677e-05,0.0516176166955195,-3.488316093784936e-05,0.0516176166955195,3.403456474194031e-05,0.0516176166955195,-1.3704344589031396e-05
0.0524117338754506,-2.164272453633885e-05,0.0524117338754506,-2.824819508498333e-05,0.0524117338754506,5.676995331365788e-06,0.0524117338754506,-1.07719205121866e-05
0.0532058510553817,-1.880998671446561e-05,0.0532058510553817,-3.879237425809198e-05,0.0532058510553817,-2.912503112043048e-06,0.0532058510553817,-1.1699732103830686e-05
0.0539999682353128,-2.18281884965881e-06,0.0539999682353128,-5.052223031336889e-05,0.0539999682353128,-3.189185814163994e-06,0.0539999682353128,-1.4938508370307256e-05
0.0547940854152438,2.3745654306662925e-05,0.0547940854152438,-5.056222852530536e-05,0.0547940854152438,3.722275670972357e-06,0.0547940854152438,-1.5511262672174797e-05
0.0555882025951749,3.835867159269455e-05,0.0555882025951749,-4.513194286157088e-05,0.0555882025951749,1.1215752709500344e-05,0.0555882025951749,-1.62814e-05
0.056382319775106,2.773567514796038e-05,0.056382319775106,-4.03532603379014e-05,0.056382319775106,7.3764644165329134e-06,0.056382319775106,-1.6587321881309494e-05
0.057176436955037,8.56070844111033e-06,0.057176436955037,-3.128988658981784e-05,0.057176436955037,-9.527578614166056e-06,0.057176436955037,-1.76242e-05
0.0579705541349681,-6.0519287507185015e-06,0.0579705541349681,-1.734768581391456e-05,0.0579705541349681,-1.1187332447551684e-05,0.0579705541349681,-1.659741059661164e-05
0.0587646713148992,-1.5658679999885337e-05,0.0587646713148992,-1.019913708023564e-05,0.0587646713148992,1.1589784343629373e-05,0.0587646713148992,-1.6419378028936665e-05
0.0595587884948302,-2.279762506615645e-05,0.0595587884948302,-1.537297712525516e-05,0.0595587884948302,2.76749804081892e-05,0.0595587884948302,-1.890769575326228e-05
0.0603529056747613,-2.4535569989408287e-05,0.0603529056747613,-1.967819946044084e-05,0.0603529056747613,2.408139003177513e-05,0.0603529056747613,-1.8177117497352077e-05
0.0611470228546924,-2.4052323510419635e-05,0.0611470228546924,-1.480045906101164e-05,0.0611470228546924,1.859211423432543e-05,0.0611470228546924,-1.9045790723905794e-05
0.0619411400346235,-2.034923308108748e-05,0.0619411400346235,-2.153298129082701e-05,0.0619411400346235,1.369490151347512e-05,0.0619411400346235,-2.090233383782504e-05
0.0627352572145545,-2.2007932012851595e-05,0.0627352572145545,-3.045956373123976e-05,0.0627352572145545,7.336094092125908e-06,0.0627352572145545,-2.015180424028343e-05
0.0635293743944856,-2.1198531161631937e-05,0.0635293743944856,-2.698448777855741e-05,0.0635293743944856,4.571514929305551e-06,0.0635293743944856,-2.082324623232639e-05
0.0643234915744167,-1.770358836666613e-05,0.0643234915744167,-2.716184512260875e-05,0.0643234915744167,-4.631735973870782e-07,0.0643234915744167,-1.977660823590306e-05
0.0651176087543477,-1.2272919313617716e-05,0.0651176087543477,-3.594915692538579e-05,0.0651176087543477,-1.5135517899091022e-05,0.0651176087543477,-1.96384e-05
0.0659117259342788,-1.1502616967588032e-05,0.0659117259342788,-3.721330994448291e-05,0.0659117259342788,-2.880098038576295e-05,0.0659117259342788,-1.599502538040621e-05
0.0667058431142099,-1.3891857358369115e-05,0.0667058431142099,-2.7893001850942622e-05,0.0667058431142099,-4.066847207510735e-05,0.0667058431142099,-9.291173962446327e-06
0.067499960294141,-1.6449042515730446e-05,0.067499960294141,-2.366675134536544e-05,0.067499960294141,-4.045190043995289e-05,0.067499960294141,-8.22461e-06
0.068294077474072,-1.5096615273405029e-05,0.068294077474072,-3.101221884189852e-05,0.068294077474072,-3.148667498425809e-05,0.068294077474072,-5.894528441359391e-06
0.0690881946540031,-1.216448333042752e-05,0.0690881946540031,-2.824922672479063e-05,0.0690881946540031,-1.881038059500836e-05,0.0690881946540031,-2.51774e-06
0.0698823118339342,-9.399885272994111e-06,0.0698823118339342,-8.502443802990948e-06,0.0698823118339342,-6.25052653449889e-06,0.0698823118339342,-2.7745280229786666e-06
0.0706764290138652,-4.117412553693654e-06,0.0706764290138652,2.2733199974215945e-07,0.0706764290138652,1.2537592115262416e-06,0.0706764290138652,-1.905598431891355e-06
0.0714705461937963,-9.280926052695298e-07,0.0714705461937963,-1.4119134312117367e-06,0.0714705461937963,5.874431003492839e-06,0.0714705461937963,-4.551607952136752e-06
0.0722646633737274,-3.0113188710780878e-06,0.0722646633737274,1.5893542070267942e-06,0.0722646633737274,1.2528887335603696e-05,0.0722646633737274,-5.9536606113003086e-06
0.0730587805536585,-3.840756190898296e-06,0.0730587805536585,2.813969251186562e-06,0.0730587805536585,1.7821483336288068e-05,0.0730587805536585,-6.21042e-06
0.0738528977335895,-3.199018814668769e-06,0.0738528977335895,-4.905998849012151e-06,0.0738528977335895,1.4899170524540974e-05,0.0738528977335895,-6.516476496820057e-06
0.0746470149135206,-3.07071476591004e-06,0.0746470149135206,-1.3121791523138032e-05,0.0746470149135206,8.698799974305461e-06,0.0746470149135206,-1.0949351404539756e-05
0.0754411320934517,-3.613528661595714e-06,0.0754411320934517,-6.053493728384382e-06,0.0754411320934517,7.88891e-06,0.0754411320934517,-1.3635221627375873e-05
0.0762352492733827,-5.420524589928889e-06,0.0762352492733827,-4.709410164591674e-06,0.0762352492733827,5.578657753628536e-06,0.0762352492733827,-1.5550681966429625e-05
0.0770293664533138,-5.302107936928288e-06,0.0770293664533138,-1.52538232998544e-05,0.0770293664533138,2.9705755870778854e-08,0.0770293664533138,-1.924328825228685e-05
0.0778234836332449,-5.775809982566995e-06,0.0778234836332449,-2.1257438899852043e-05,0.0778234836332449,5.794501494864804e-06,0.0778234836332449,-1.871074563522412e-05
0.078617600813176,-6.88182e-06,0.078617600813176,-3.178233613530548e-05,0.078617600813176,1.9627947731681464e-05,0.078617600813176,-1.5057156951773272e-05
0.079411717993107,-2.409153010355899e-06,0.079411717993107,-3.895071233106384e-05,0.079411717993107,1.829566787354956e-05,0.079411717993107,-1.7861132765388443e-05
0.0802058351730381,-3.642877534606808e-06,0.0802058351730381,-4.0866147965145546e-05,0.0802058351730381,5.915317633248533e-06,0.0802058351730381,-2.0625634786556395e-05
0.0809999523529692,-4.196367444539136e-06,0.0809999523529692,-5.152886821425688e-05,0.0809999523529692,-2.517362029564511e-06,0.0809999523529692,-2.0477651546820006e-05
0.0817940695329002,-1.945088781536794e-06,0.0817940695329002,-6.59647e-05,0.0817940695329002,-3.7223275630735886e-06,0.0817940695329002,-1.721949871670834e-05
0.0825881867128313,-2.596534046170673e-06,0.0825881867128313,-3.630922887266699e-05,0.0825881867128313,3.069295387610023e-06,0.0825881867128313,-1.0476286659263729e-05
0.0833823038927624,-3.742180390199581e-06,0.0833823038927624,2.2142095086246716e-05,0.0833823038927624,1.2371350784964602e-05,0.0833823038927624,-6.279645521027015e-06
0.0841764210726934,-3.4063034478961823e-06,0.0841764210726934,3.0087160549293124e-05,0.0841764210726934,1.2707228317494307e-05,0.0841764210726934,-5.53903e-06
0.0849705382526245,-3.4855022911474704e-06,0.0849705382526245,-1.3817842549387148e-06,0.0849705382526245,1.6360066003540652e-05,0.0849705382526245,-5.894391207967367e-06
0.0857646554325556,-2.6556469553151803e-06,0.0857646554325556,-1.42672e-05,0.0857646554325556,1.801931614768451e-05,0.0857646554325556,-5.677385140240637e-06
0.0865587726124866,-6.091743373457718e-06,0.0865587726124866,-1.3556347596233918e-05,0.0865587726124866,1.269771350340505e-05,0.0865587726124866,-2.982006394521034e-06
0.0873528897924177,-3.909991142939017e-06,0.0873528897924177,-1.6201636773948935e-05,0.0873528897924177,3.063224942777629e-07,0.0873528897924177,-3.652722924163522e-07
0.0881470069723488,-3.840443762248253e-06,0.0881470069723488,-2.724044675650113e-05,0.0881470069723488,-7.631447031730679e-06,0.0881470069723488,-5.360863023099509e-06
0.0889411241522799,-7.21752e-06,0.0889411241522799,-3.604794734930872e-05,0.0889411241522799,-1.414825595515362e-05,0.0889411241522799,-7.948025260496442e-06
0.0897352413322109,-6.190757334279494e-06,0.0897352413322109,-3.6759e-05,0.0897352413322109,-1.6597437334279495e-05,0.0897352413322109,-9.409391332860252e-06
0.090529358512142,-7.138253826511044e-06,0.090529358512142,-4.084612591050606e-05,0.090529358512142,-1.5514355002887803e-06,0.090529358512142,-1.0041232244401047e-05
0.0913234756920731,-1.13050897096218e-05,0.0913234756920731,-4.2209242489102666e-05,0.0913234756920731,2.244061191465714e-05,0.0913234756920731,-1.3743765458190689e-05
0.0921175928720041,-1.0989249421560446e-05,0.0921175928720041,-3.121073785925162e-05,0.0921175928720041,3.683752933829665e-05,0.0921175928720041,-1.1917554154722338e-05
0.0929117100519352,-1.1976521737635512e-05,0.0929117100519352,-1.809888034393925e-05,0.0929117100519352,2.515804682965121e-05,0.0929117100519352,-9.754967158798732e-06
0.0937058272318663,-1.1562279673119916e-05,0.0937058272318663,-2.143499609018995e-06,0.0937058272318663,6.68550650226417e-06,0.0937058272318663,-1.3082071662057205e-05
0.0944999444117974,-5.539551140294964e-06,0.0944999444117974,3.5247940593148505e-06,0.0944999444117974,-1.678028990496735e-06,0.0944999444117974,-1.4938519824018852e-05
0.0952940615917284,-5.0846898163569245e-06,0.0952940615917284,-1.0277127075444007e-05,0.0952940615917284,-1.657701318157845e-05,0.0952940615917284,-1.703167294964444e-05
0.0960881787716595,-1.126529477600544e-05,0.0960881787716595,-2.1770834387518263e-05,0.0960881787716595,-2.7852653731206528e-05,0.0960881787716595,-1.7071564179195647e-05
0.0968822959515906,-1.3634401626383237e-05,0.0968822959515906,-2.050800137572052e-05,0.0968822959515906,-2.493146558875359e-05,0.0968822959515906,-1.572833360439721e-05
0.0976764131315216,-2.4495519943551987e-05,0.0976764131315216,-2.3366721546669764e-05,0.0976764131315216,-1.6814828970426485e-05,0.0976764131315216,-1.772282045758823e-05
0.0984705303114527,-2.568131457532124e-05,0.0984705303114527,-6.469985541691285e-05,0.0984705303114527,-1.3911844950366455e-05,0.0984705303114527,-2.155348974624501e-05
0.0992646474913838,-1.9244244616645608e-05,0.0992646474913838,-6.944177323441369e-05,0.0992646474913838,-1.2194054212056413e-05,0.0992646474913838,-2.291637084241128e-05
0.1000587646713148,-1.1195114433500175e-05,0.1000587646713148,-5.633268134907185e-05,0.1000587646713148,-1.027809894622648e-05,0.1000587646713148,-2.26596e-05
0.1008528818512459,-5.637764118940309e-06,0.1008528818512459,-5.369272752856016e-05,0.1008528818512459,-1.736748026707954e-05,0.1008528818512459,-2.4101134569734504e-05
0.101646999031177,-5.163618272957019e-06,0.101646999031177,-3.3663052995267984e-05,0.101646999031177,-2.3697458635214903e-05,0.101646999031177,-2.5246293439854323e-05
0.1024411162111081,-6.092963653221896e-06,0.1024411162111081,2.6522408400268517e-05,0.1024411162111081,-9.0990378786418e-06,0.1024411162111081,-2.579985669681069e-05
0.1032352333910391,-9.024265461823193e-08,0.1032352333910391,5.573420826821955e-05,0.1032352333910391,5.794186274732873e-06,0.1032352333910391,-2.3213120502997927e-05
0.1040293505709702,6.980835264414781e-06,0.1040293505709702,2.0278185231688547e-05,0.1040293505709702,2.6750656643059377e-06,0.1040293505709702,-2.066516572242612e-05
0.1048234677509013,1.2630203621740055e-05,0.1048234677509013,-2.604776854638319e-05,0.1048234677509013,-3.703055905435014e-06,0.1048234677509013,-1.7059809117651328e-05
0.1056175849308323,1.6538531661421207e-05,0.1056175849308323,-3.6384588221957006e-05,0.1056175849308323,-3.0498596762304388e-06,0.1056175849308323,-1.1619093757166556e-05
0.1064117021107634,1.1836566279212624e-05,0.1064117021107634,-3.630571616859303e-05,0.1064117021107634,6.312393365766104e-06,0.1064117021107634,-6.110564380199055e-06
0.1072058192906945,-1.837673663576723e-06,0.1072058192906945,-4.965292217275234e-05,0.1072058192906945,2.04879669864619e-05,0.1072058192906945,-2.2607935604275644e-06
0.1079999364706256,-1.963695838216573e-05,0.1079999364706256,-3.0047465515040905e-05,0.1079999364706256,2.2324037297066435e-05,0.1079999364706256,-5.035937654161531e-07
0.1087940536505566,-1.7922999130166916e-05,0.1087940536505566,-1.593247266290542e-06,0.1087940536505566,1.521676357764659e-05,0.1087940536505566,-1.984307141900525e-06
0.1095881708304877,5.31164661527491e-06,0.1095881708304877,-1.2060895653383949e-06,0.1095881708304877,6.076088225418579e-06,0.1095881708304877,-3.010113924860473e-06
0.1103822880104188,2.891006567317313e-05,0.1103822880104188,-9.429245557222858e-06,0.1103822880104188,1.6060556842870162e-06,0.1103822880104188,-3.742953844273792e-06
0.1111764051903498,4.252099733563797e-05,0.1111764051903498,2.65841238021651e-05,0.1111764051903498,7.35341204613797e-06,0.1111764051903498,-9.200477477217448e-07
0.1119705223702809,3.880576862780456e-05,0.1119705223702809,6.283853123411567e-05,0.1119705223702809,9.27067002916213e-06,0.1119705223702809,4.645804998558318e-07
0.112764639550212,2.0191481528065983e-05,0.112764639550212,3.950042414313284e-05,0.112764639550212,7.967989486463899e-06,0.112764639550212,-5.144019208762052e-06
0.1135587567301431,-4.219266362196024e-06,0.1135587567301431,-8.780522067123661e-06,0.1135587567301431,-3.408171029760437e-06,0.1135587567301431,-1.0752857520225765e-05
0.1143528739100741,-1.985550793336378e-05,0.1143528739100741,-3.937808325001198e-05,0.1143528739100741,-2.2540939610807333e-05,0.1143528739100741,-1.3121846207414174e-05
0.1151469910900052,-2.3804563947653812e-05,0.1151469910900052,-6.351946421733968e-05,0.1151469910900052,-3.784399184296144e-05,0.1151469910900052,-1.6438736908394173e-05
0.1159411082699363,-2.416197203197511e-05,0.1159411082699363,-8.136956331606228e-05,0.1159411082699363,-3.605291631059997e-05,0.1159411082699363,-1.999367042197337e-05
0.1167352254498673,-2.0033800391411185e-05,0.1167352254498673,-8.472500844392602e-05,0.1167352254498673,-2.1457218243721023e-05,0.1167352254498673,-2.0951311582679616e-05
0.1175293426297984,-2.244261002114529e-05,0.1175293426297984,-6.240338632286979e-05,0.1175293426297984,-8.658105832722717e-06,0.1175293426297984,-2.16526e-05
0.1183234598097295,-2.46143970855661e-05,0.1183234598097295,-3.444990626534068e-05,0.1183234598097295,7.024097552276076e-06,0.1183234598097295,-1.92819825133966e-05
0.1191175769896605,-2.374527980460619e-05,0.1191175769896605,-2.864211285771804e-05,0.1191175769896605,2.400935502556798e-05,0.1191175769896605,-1.6438559609212377e-05
0.1199116941695916,-1.9933773270702272e-05,0.1199116941695916,-3.261298534950199e-05,0.1199116941695916,4.27844108616888e-05,0.1199116941695916,-1.69528e-05
0.1207058113495227,-1.6774923323539237e-05,0.1207058113495227,-2.8801370106965912e-05,0.1207058113495227,4.187271374021518e-05,0.1207058113495227,-1.6123255160916343e-05
0.1214999285294538,-1.527440297279983e-05,0.1214999285294538,-2.836652312120368e-05,0.1214999285294538,3.004597824159839e-05,0.1214999285294538,-1.2924708918399492e-05
0.1222940457093848,-1.3221016486190308e-05,0.1222940457093848,-2.44270791418222e-05,0.1222940457093848,3.209715541000268e-05,0.1222940457093848,-9.923812189190492e-06
0.1230881628893159,-2.7642780723496703e-05,0.1230881628893159,-3.0138519658485444e-05,0.1230881628893159,4.2225199449292426e-05,0.1230881628893159,-4.434975927058087e-06
0.123882280069247,-6.200430981689696e-05,0.123882280069247,-3.70947e-05,0.123882280069247,4.478435807307218e-05,0.123882280069247,-6.392635056360236e-06
0.124676397249178,-7.323108822553254e-05,0.124676397249178,-2.2969435977143316e-05,0.124676397249178,2.3255314829201405e-05,0.124676397249178,-1.6000705804260302e-05
0.1254705144291091,-5.61867100166402e-05,0.1254705144291091,-2.8602364930630314e-06,0.1254705144291091,-4.763238234042427e-06,0.1254705144291091,-1.640057195437833e-05
0.1262646316090402,-2.4694182724563607e-05,0.1262646316090402,9.587323623531244e-06,0.1262646316090402,-1.9282908421929656e-05,0.1262646316090402,-1.584693131644724e-05
0.1270587487889713,4.278674139989319e-06,0.1270587487889713,7.69444578482836e-06,0.1270587487889713,-1.8729668081100373e-05,0.1270587487889713,-1.5669020848660226e-05
0.1278528659689023,2.5463327319355647e-05,0.1278528659689023,-1.516692434799948e-06,0.1278528659689023,-2.515733348575584e-05,0.1278528659689023,-1.272697672464066e-05
0.1286469831488334,4.262151082840058e-05,0.1286469831488334,-2.3216522868764364e-05,0.1286469831488334,-4.183341152339847e-05,0.1286469831488334,-1.2075404486553732e-05
0.1294411003287645,5.083873531104033e-05,0.1294411003287645,-5.2538546665819766e-05,0.1294411003287645,-3.0191259513802005e-05,0.1294411003287645,-1.2223650052546642e-05
0.1302352175086955,4.821307219094e-05,0.1302352175086955,-4.827520475901135e-05,0.1302352175086955,-1.0122666819992534e-05,0.1302352175086955,-9.311610955351946e-06
0.1310293346886266,4.315666371143519e-05,0.1310293346886266,-3.9663455066573206e-05,0.1310293346886266,3.7428985138641386e-06,0.1310293346886266,-3.070506219929315e-06
0.1318234518685577,3.592743928788084e-05,0.1318234518685577,-5.704761133024948e-05,0.1318234518685577,2.108459811814988e-05,0.1318234518685577,-1.84634e-06
0.1326175690484888,2.70203258003858e-05,0.1326175690484888,-6.178190495914729e-05,0.1326175690484888,3.915494403454521e-05,0.1326175690484888,-2.142744364683188e-06
0.1334116862284198,1.3217888806165218e-05,0.1334116862284198,-3.2543502771671074e-05,0.1334116862284198,5.4691040795889855e-05,0.1334116862284198,-3.979469313247121e-06
0.1342058034083509,-4.44910722238708e-07,0.1342058034083509,1.3312813920413974e-05,0.1342058034083509,5.04428588456031e-05,0.1342058034083509,-7.95824131901391e-06
0.134999920588282,-9.063259328742528e-06,0.134999920588282,4.816992629710883e-05,0.134999920588282,3.34037734204416e-05,0.134999920588282,-1.1245642569704527e-05
0.135794037768213,-1.3002532629537193e-05,0.135794037768213,4.6976174902895016e-05,0.135794037768213,1.2663724973155045e-05,0.135794037768213,-1.4157934745031198e-05
0.1365881549481441,-1.149401208439028e-05,0.1365881549481441,3.939221473820021e-05,0.1365881549481441,-1.259957183760972e-05,0.1365881549481441,-1.6557403079965534e-05
0.1373822721280752,-1.1302009750426852e-05,0.1373822721280752,2.6629029066469828e-05,0.1373822721280752,-2.402466387108391e-05,0.1373822721280752,-1.3973336851467164e-05
0.1381763893080062,-1.758146070466198e-05,0.1381763893080062,1.7323462182234216e-05,0.1381763893080062,-2.1238276275725407e-05,0.1381763893080062,-9.954224815071644e-06
0.1389705064879373,-2.948791676398393e-05,0.1389705064879373,-6.335533278453369e-06,0.1389705064879373,-2.0312194795362903e-05,0.1389705064879373,-1.2172718995719151e-05
0.1397646236678684,-4.5585599386798405e-05,0.1397646236678684,-5.107740223086369e-05,0.1397646236678684,-7.276958087622676e-06,0.1397646236678684,-1.6913171078170516e-05
0.1405587408477994,-4.6651634793870265e-05,0.1405587408477994,-8.254483941120435e-05,0.1405587408477994,-4.828271301532433e-06,0.1405587408477994,-2.275915367137787e-05
0.1413528580277305,-3.831929862678198e-05,0.1413528580277305,-7.81548485999255e-05,0.1413528580277305,-9.70540817560942e-06,0.1413528580277305,-2.4575099828347748e-05
0.1421469752076616,-3.095490718670915e-05,0.1421469752076616,-6.043367808619714e-05,0.1421469752076616,-2.1195880629965623e-05,0.1421469752076616,-2.035042527025338e-05
0.1429410923875927,-2.1616679837027023e-05,0.1429410923875927,-5.0658974661956654e-05,0.1429410923875927,-3.393328955945946e-05,0.1429410923875927,-1.621294074102923e-05
0.1437352095675237,-1.2017481275862111e-05,0.1437352095675237,-3.607256776325858e-05,0.1437352095675237,-3.5811657598522185e-05,0.1437352095675237,-1.446491701917177e-05
0.1445293267474548,-5.104424870007167e-06,0.1445293267474548,-1.8006659450176862e-05,0.1445293267474548,-2.4752247649484933e-05,0.1445293267474548,-1.78119233811614e-05
0.1453234439273859,-4.433795892046772e-06,0.1453234439273859,-3.0782498435191644e-06,0.1453234439273859,-9.473211907836456e-06,0.1453234439273859,-1.7958581325315566e-05
0.146117561107317,-9.392185723890091e-06,0.146117561107317,5.617733189918826e-06,0.146117561107317,8.931260084269654e-06,0.146117561107317,-9.682036195881177e-06
0.146911678287248,-1.4227837672321273e-05,0.146911678287248,3.997818419226703e-06,0.146911678287248,1.4899237672321273e-05,0.146911678287248,-8.584549633521299e-07
0.1477057954671791,-9.497971145856912e-06,0.1477057954671791,3.133022902316612e-06,0.1477057954671791,1.0732212920366197e-05,0.1477057954671791,-4.0385241377958e-06
0.1484999126471102,-1.5114265940272374e-06,0.1484999126471102,-1.090816595009166e-05,0.1484999126471102,5.203833418827774e-06,0.1484999126471102,-7.553094144355793e-06
0.1492940298270412,-6.896596102816644e-08,0.1492940298270412,-2.619741027529767e-05,0.1492940298270412,7.295611177049976e-06,0.1492940298270412,-6.012655689413404e-06
0.1500881470069723,-5.654467269221227e-06,0.1500881470069723,-2.884290288553724e-05,0.1500881470069723,6.7066643447169074e-06,0.1500881470069723,-9.250284924157011e-06
0.1508822641869034,-1.469812766231872e-05,0.1508822641869034,-2.3706387715925425e-05,0.1508822641869034,-3.637241598702874e-07,0.1508822641869034,-9.528234757971024e-06
0.1516763813668344,-2.210255779948133e-05,0.1516763813668344,-2.508875278787052e-05,0.1516763813668344,-2.1225226713440607e-06,0.1516763813668344,-9.09361866432797e-06
0.1524704985467655,-3.164316750931931e-05,0.1524704985467655,-2.3076875345017957e-05,0.1524704985467655,-4.748400838510729e-06,0.1524704985467655,-9.764427213438052e-06
0.1532646157266966,-2.8643455390675808e-05,0.1532646157266966,-1.7782123124554613e-05,0.1532646157266966,-9.063665792242806e-06,0.1532646157266966,-1.2055393984361144e-05
0.1540587329066277,-1.3514946603533708e-05,0.1540587329066277,-1.69528e-05,0.1540587329066277,-1.0929885082247491e-05,0.1540587329066277,-1.5649849897336826e-05
0.1548528500865587,1.0362255294838609e-06,0.1548528500865587,-1.5885841361652984e-05,0.1548528500865587,-6.269873764476727e-06,0.1548528500865587,-1.815727741124975e-05
0.1556469672664898,1.3415470908935869e-05,0.1556469672664898,-1.94809884733141e-05,0.1556469672664898,-2.143199388472697e-06,0.1556469672664898,-1.998377831269736e-05
0.1564410844464209,2.4986651566916124e-05,0.1564410844464209,-2.655152793193544e-05,0.1564410844464209,-1.3851934033997728e-07,0.1564410844464209,-2.019248066240645e-05
0.157235201626352,3.312423311501357e-05,0.157235201626352,-3.5749589328378015e-05,0.157235201626352,2.073973845889404e-07,0.157235201626352,-1.7525791721246606e-05
0.158029318806283,3.249345744057476e-05,0.158029318806283,-4.2505946511782885e-05,0.158029318806283,-3.455542146986911e-07,0.158029318806283,-1.7407071279712623e-05
0.1588234359862141,2.6805583764983146e-05,0.1588234359862141,-4.203296583955291e-05,0.1588234359862141,5.03548e-07,0.1588234359862141,-1.8967e-05
0.1596175531661451,2.29347497094096e-05,0.1596175531661451,-4.089576126348723e-05,0.1596175531661451,-6.820182971628772e-07,0.1596175531661451,-1.68922497094096e-05
0.1604116703460762,1.7998376662843012e-05,0.1604116703460762,-4.050074170630598e-05,0.1604116703460762,-4.058102333715699e-06,0.1604116703460762,-1.3753165997705806e-05
0.1612057875260073,9.82376404221316e-06,0.1612057875260073,-3.2201484172005256e-05,0.1612057875260073,-1.8264802660711425e-06,0.1612057875260073,-1.1700038823948318e-05
0.1619999047059384,-1.8448983869370435e-06,0.1619999047059384,-2.70241931054564e-05,0.1619999047059384,3.859706221895644e-06,0.1619999047059384,-8.89655918622088e-06
0.1627940218858694,-6.328825319447724e-06,0.1627940218858694,-2.603667975755832e-05,0.1627940218858694,6.309309361104551e-06,0.1627940218858694,-6.408198722209103e-06
0.1635881390658005,-6.605839852089259e-06,0.1635881390658005,-2.5490252284001976e-05,0.1635881390658005,4.92734985208926e-06,0.1635881390658005,-7.493496037393196e-06
0.1643822562457316,-6.445435887290628e-06,0.1643822562457316,-1.2806432070261784e-05,0.1643822562457316,3.622753772538171e-06,0.1643822562457316,-9.919934414336432e-06
0.1651763734256627,-9.881663476900316e-06,0.1651763734256627,-1.3243531682450017e-05,0.1651763734256627,4.225991524683512e-06,0.1651763734256627,-1.5074292555696794e-05
0.1659704906055937,-1.2963273787964086e-05,0.1659704906055937,-2.390046993334629e-05,0.1659704906055937,5.192288062934689e-06,0.1659704906055937,-1.780176844699102e-05
0.1667646077855248,-1.7011899716745534e-05,0.1667646077855248,-2.9600951144573765e-05,0.1667646077855248,1.2232887531371824e-05,0.1667646077855248,-1.8374559943349107e-05
0.1675587249654559,-1.89276183694776e-05,0.1675587249654559,-4.12058768948063e-05,0.1675587249654559,1.7022145923694004e-05,0.1675587249654559,-1.9579327554216403e-05
0.1683528421453869,-2.295566702155669e-05,0.1683528421453869,-4.84735625642545e-05,0.1683528421453869,1.817708861979871e-05,0.1683528421453869,-1.9204022760402583e-05
0.169146959325318,-2.544416389028272e-05,0.169146959325318,-2.998346860611541e-05,0.169146959325318,1.2452874373975566e-05,0.169146959325318,-1.5828285848807947e-05
0.1699410765052491,-2.60947899596742e-05,0.1699410765052491,-2.45517661101795e-06,0.1699410765052491,6.828668958582147e-07,0.1699410765052491,-1.0408347500273202e-05
0.1707351936851801,-2.7615997038873357e-05,0.1707351936851801,4.335586109859338e-06,0.1707351936851801,-1.7180414805633222e-06,0.1707351936851801,-7.079577402816611e-06
0.1715293108651112,-2.6569457323842847e-05,0.1715293108651112,-1.2601665983092425e-05,0.1715293108651112,-1.6686285352314309e-06,0.1715293108651112,-8.185169434683982e-06
0.1723234280450423,-2.5247020126357934e-05,0.1723234280450423,-2.297326694169574e-05,0.1723234280450423,-4.118628547052682e-06,0.1723234280450423,-9.626788262747318e-06
0.1731175452249733,-2.753784866256832e-05,0.1731175452249733,6.220800508632792e-06,0.1731175452249733,-9.401102079028116e-06,0.1731175452249733,-1.079226149692624e-05
0.1739116624049044,-2.33101596437061e-05,0.1739116624049044,4.1702712682620046e-05,0.1739116624049044,-1.1384033399298e-05,0.1739116624049044,-1.4109799604211992e-05
0.1747057795848355,-1.81770317139048e-05,0.1747057795848355,2.905799080379045e-05,0.1747057795848355,-1.0278264834210746e-05,0.1747057795848355,-1.7071368286095203e-05
0.1754998967647666,-1.2421655257386316e-05,0.1754998967647666,-2.849500304799673e-06,0.1754998967647666,-7.2180405824948275e-06,0.1754998967647666,-2.2323156329710376e-05
0.1762940139446976,-4.23796542578229e-06,0.1762940139446976,-1.82294412372841e-05,0.1762940139446976,-7.820817424766963e-07,0.1762940139446976,-2.119982638769761e-05
0.1770881311246287,1.8833840107923217e-06,0.1770881311246287,-2.8912204275646048e-05,0.1770881311246287,6.208338677310493e-06,0.1770881311246287,-1.5828291017496405e-05
0.1778822483045598,7.21752e-06,0.1778822483045598,-4.132003719678822e-05,0.1778822483045598,1.191168419202652e-05,0.1778822483045598,-1.572749132800468e-05
0.1786763654844909,2.7987967747043e-06,0.1786763654844909,-4.58228e-05,0.1786763654844909,1.833365614960937e-05,0.1786763654844909,-1.6340928770078128e-05
0.1794704826644219,-1.92167443367617e-05,0.1794704826644219,-4.462934789340609e-05,0.1794704826644219,1.7091511821160188e-05,0.1794704826644219,-1.337938636860031e-05
0.180264599844353,-3.211884932834397e-05,0.180264599844353,-4.0175121032776494e-05,0.180264599844353,1.584686266791401e-05,0.180264599844353,-1.059438546137598e-05
0.181058717024284,-1.9873894032665748e-05,0.181058717024284,-3.149050713280969e-05,0.181058717024284,1.709105811124094e-05,0.181058717024284,-8.303396193099634e-06
0.1818528342042151,-5.026436595370918e-06,0.1818528342042151,-2.1734445097764824e-05,0.1818528342042151,1.0338063167777656e-05,0.1818528342042151,-7.434702886785008e-06
0.1826469513841462,1.8851139310695865e-06,0.1826469513841462,-1.505663584474185e-05,0.1826469513841462,4.729880712620276e-06,0.1826469513841462,-8.333278839077534e-06
0.1834410685640773,2.7574774460239626e-06,0.1834410685640773,-1.5857029113410895e-05,0.1834410685640773,4.334767364642738e-06,0.1834410685640773,-5.02745476997609e-06
0.1842351857440083,-4.589728174476174e-06,0.1842351857440083,-1.672551262863895e-05,0.1842351857440083,1.5512203660931364e-06,0.1842351857440083,-1.155679313433516e-06
0.1850293029239394,-8.659090289499696e-06,0.1850293029239394,-2.817359268952539e-05,0.1850293029239394,1.135475493224282e-06,0.1850293029239394,-9.867126693929516e-09
0.1858234201038705,-1.272799448702718e-05,0.1858234201038705,-5.12139099261438e-05,0.1858234201038705,3.545384096598629e-06,0.1858234201038705,7.992900887927843e-07
0.1866175372838016,-1.5234981432628372e-05,0.1866175372838016,-3.4080856751481695e-05,0.1866175372838016,6.685228334383069e-06,0.1866175372838016,-1.6497482172589487e-06
0.1874116544637326,4.437723197751475e-06,0.1874116544637326,-8.31871567931083e-06,0.1874116544637326,6.190356963091013e-06,0.1874116544637326,-4.808969754931603e-06
0.1882057716436637,3.948439026537669e-05,0.1882057716436637,-1.699090098925859e-05,0.1882057716436637,4.136971730332846e-06,0.1882057716436637,-1.1423683632978472e-05
0.1889998888235948,6.747239663860074e-05,0.1889998888235948,-2.8533357276709905e-05,0.1889998888235948,5.041887177347111e-07,0.1889998888235948,-1.5609679640178343e-05
0.1897940060035258,6.320398956296076e-05,0.1897940060035258,-1.3194626367581598e-05,0.1897940060035258,-5.22141762089522e-06,0.1897940060035258,-1.537320082713197e-05
0.1905881231834569,3.997015806637477e-05,0.1905881231834569,4.804709065794309e-06,0.1905881231834569,-1.1361127792887251e-05,0.1905881231834569,-1.3319842784144116e-05
0.191382240363388,1.5137414891581724e-05,0.191382240363388,8.441966724552124e-06,0.191382240363388,-1.967183310918741e-05,0.191382240363388,-1.3830748257927229e-05
0.192176357543319,-1.976940333252675e-06,0.192176357543319,3.385200309618984e-06,0.192176357543319,-2.804732060131828e-05,0.192176357543319,-1.561e-05
0.1929704747232501,-1.4086812089101344e-05,0.1929704747232501,-1.5782913903574302e-06,0.1929704747232501,-2.90379e-05,0.1929704747232501,-1.3418242994431166e-05
0.1937645919031812,-2.036884250963449e-05,0.1937645919031812,-9.7649405075667e-06,0.1937645919031812,-2.8505166478804116e-05,0.1937645919031812,-1.46029e-05
0.1945587090831123,-2.354849218128269e-05,0.1945587090831123,-2.878967555602216e-05,0.1945587090831123,-1.967703747546932e-05,0.1945587090831123,-1.302291140644308e-05
0.1953528262630433,-2.820824007639919e-05,0.1953528262630433,-4.413571328331281e-05,0.1953528262630433,-7.001030640262373e-06,0.1953528262630433,-1.276614007639919e-05
0.1961469434429744,-2.8564473644675136e-05,0.1961469434429744,-3.758762569879814e-05,0.1961469434429744,-6.434113965250784e-07,0.1961469434429744,-1.9479165888312155e-05
0.1969410606229055,-2.8327427952217736e-05,0.1969410606229055,-4.125363885305033e-05,0.1969410606229055,8.853349776418109e-06,0.1969410606229055,-2.2087726826125436e-05
0.1977351778028366,-2.7181928805097665e-05,0.1977351778028366,-5.615592986372054e-05,0.1977351778028366,1.5391899182158174e-05,0.1977351778028366,-1.995485761019533e-05
0.1985292949827676,-2.390366034333544e-05,0.1985292949827676,-5.991959369111101e-05,0.1985292949827676,2.5404511567649064e-05,0.1985292949827676,-1.715026871857233e-05
0.1993234121626987,-2.1020057049163515e-05,0.1993234121626987,-2.486651292239465e-05,0.1993234121626987,4.11252483478306e-05,0.1993234121626987,-1.618205018675389e-05
0.2001175293426297,-1.8452897201541345e-05,0.2001175293426297,2.2791950411846272e-05,0.2001175293426297,4.523004860077068e-05,0.2001175293426297,-1.3753097201541345e-05
0.2009116465225608,-1.3891414057277985e-05,0.2009116465225608,2.4058445009732866e-05,0.2009116465225608,2.665473991472784e-05,0.2009116465225608,-1.768429948972576e-05
0.2017057637024919,-1.163095257909279e-05,0.2017057637024919,-1.5233169413442613e-05,0.2017057637024919,6.783096568243613e-06,0.2017057637024919,-1.932245430265497e-05
0.202499880882423,-1.3091856757333844e-05,0.202499880882423,-3.138695247499676e-05,0.202499880882423,-1.5096102771138777e-06,0.202499880882423,-1.4267886485332307e-05
0.203293998062354,-1.564898031956297e-05,0.203293998062354,-2.931601916157008e-05,0.203293998062354,1.0940737309540143e-06,0.203293998062354,-1.0595445921019735e-05
0.2040881152422851,-1.4386708500342986e-05,0.2040881152422851,-3.123196667691517e-05,0.2040881152422851,1.175214638759388e-05,0.2040881152422851,-6.251713985605437e-06
0.2048822324222162,-1.1959358841482575e-05,0.2048822324222162,-2.7122754541225767e-05,0.2048822324222162,3.220418777901744e-05,0.2048822324222162,-5.695638073607923e-06
0.2056763496021472,-8.492540951751507e-06,0.2056763496021472,-2.0664352900910077e-05,0.2056763496021472,4.789147435213153e-05,0.2056763496021472,-7.157979788499665e-06
0.2064704667820783,-8.579712569715478e-06,0.2064704667820783,-1.8512586895459933e-05,0.2064704667820783,3.980551177441973e-05,0.2064704667820783,-5.944093072713391e-06
0.2072645839620094,-7.987784007939783e-06,0.2072645839620094,-2.1366240857619583e-05,0.2072645839620094,1.7290436501503053e-05,0.2072645839620094,-8.392078937159921e-06
0.2080587011419405,-5.953552057209222e-06,0.2080587011419405,-2.2571330253017964e-05,0.2080587011419405,-4.839398427629234e-06,0.2080587011419405,-1.2154459928488472e-05
0.2088528183218715,-3.880415737727226e-06,0.2088528183218715,-2.000319829970481e-05,0.2088528183218715,-1.2272510468110636e-05,0.2088528183218715,-1.29244e-05
0.2096469355018026,-2.715736576729943e-06,0.2096469355018026,-2.4239869514107528e-05,0.2096469355018026,-1.6240459413992655e-05,0.2096469355018026,-1.6467452469374725e-05
0.2104410526817337,-1.2921217452646577e-06,0.2104410526817337,-3.1092025319778764e-05,0.2104410526817337,-2.062596970912256e-05,0.2104410526817337,-1.9384506218593244e-05
0.2112351698616647,-5.1134737892901706e-06,0.2112351698616647,-3.184229528878279e-05,0.2112351698616647,-1.877032073955974e-05,0.2112351698616647,-1.0912449738549336e-05
0.2120292870415958,-5.627889019181442e-06,0.2120292870415958,-3.0577884509720806e-05,0.2120292870415958,-9.58725332259657e-06,0.2120292870415958,-9.172433532858263e-06
0.2128234042215269,-6.763094261087613e-06,0.2128234042215269,-2.763775369198817e-05,0.2128234042215269,-5.066194056774805e-06,0.2128234042215269,-1.1186537130543806e-05
0.2136175214014579,-5.765865050098567e-06,0.2136175214014579,-2.2699970541144604e-05,0.2136175214014579,-1.051690200917508e-05,0.2136175214014579,-1.09102e-05
0.214411638581389,-5.657821721942866e-06,0.214411638581389,-2.1632961602644143e-05,0.214411638581389,-1.5176195213287082e-05,0.214411638581389,-1.3181348204982656e-05
0.2152057557613201,-9.290922405898986e-06,0.2152057557613201,-2.1782325138631648e-05,0.2152057557613201,-1.97568306937662e-05,0.2152057557613201,-1.35958e-05
0.2159998729412512,-8.225159185539154e-06,0.2159998729412512,-1.997434655272816e-05,0.2159998729412512,-2.232371696451058e-05,0.2159998729412512,-1.35958e-05
0.2167939901211822,-4.828666879478138e-06,0.2167939901211822,-1.9925216172210134e-05,0.2167939901211822,-2.0606536879478136e-05,0.2167939901211822,-1.2450824586318756e-05
0.2175881073011133,-5.1435642838010495e-06,0.2175881073011133,-2.2479692230963315e-05,0.2175881073011133,-1.983613285809948e-05,0.2175881073011133,-1.1305665716198947e-05
0.2183822244810444,-4.1570834230395455e-06,0.2183822244810444,-2.520692554583161e-05,0.2183822244810444,-1.823687430396996e-05,0.2183822244810444,-1.2448732884802273e-05
0.2191763416609755,-4.136684067788565e-06,0.2191763416609755,-2.327070418898342e-05,0.2191763416609755,-1.723969186442287e-05,0.2191763416609755,-1.3655345932211435e-05
0.2199704588409065,-4.709475564146626e-06,0.2199704588409065,-1.944187296422096e-05,0.2199704588409065,-1.837316451317301e-05,0.2199704588409065,-1.4236574158724802e-05
0.2207645760208376,-3.3869099883885187e-06,0.2207645760208376,-2.151428183844821e-05,0.2207645760208376,-2.370573354454236e-05,0.2207645760208376,-1.835458530252353e-05
0.2215586932007686,-2.664172080614756e-07,0.2215586932007686,-2.873697336530953e-05,0.2215586932007686,-2.380469623121224e-05,0.2215586932007686,-1.9480359809872987e-05
0.2223528103806997,6.921856522434184e-08,0.2223528103806997,-5.074883240703074e-05,0.2223528103806997,-1.536383087025518e-05,0.2223528103806997,-1.6755537249024417e-05
0.2231469275606308,1.2136159165638044e-06,0.2231469275606308,-5.96155121437348e-05,0.2231469275606308,-3.844698101386705e-06,0.2231469275606308,-1.515595487719618e-05
0.2239410447405619,-1.034490648065438e-06,0.2239410447405619,-1.3115143592855865e-05,0.2239410447405619,9.329332207711255e-06,0.2239410447405619,-1.4208626326408852e-05
0.2247351619204929,-4.70937831205792e-06,0.2247351619204929,2.2731495335309434e-05,0.2247351619204929,1.2449644936173758e-05,0.2247351619204929,-1.300352584397104e-05
0.225529279100424,-8.30350146036303e-06,0.225529279100424,3.051919494421855e-05,0.225529279100424,2.996555740025503e-05,0.225529279100424,-1.1700143744445888e-05
0.2263233962803551,-1.3161828594980355e-05,0.2263233962803551,2.813256933756288e-05,0.2263233962803551,4.291834276882366e-05,0.2263233962803551,-1.1937742892470536e-05
0.2271175134602862,-1.397083576641275e-05,0.2271175134602862,1.5554745740570574e-05,0.2271175134602862,2.8104087590859025e-05,0.2271175134602862,-1.6559442335872495e-05
0.2279116306402172,-1.1857912662705686e-05,0.2279116306402172,-2.304303939464043e-06,0.2279116306402172,1.4365350650822743e-05,0.2279116306402172,-2.0290418343235783e-05
0.2287057478201483,-1.322056931112126e-05,0.2287057478201483,-2.3005010228091354e-05,0.2287057478201483,2.1000625080836717e-05,0.2287057478201483,-2.411096867074857e-05
0.2294998650000794,-1.39315e-05,0.2294998650000794,-3.239393947166317e-05,0.2294998650000794,3.1386438470757824e-05,0.2294998650000794,-2.366713764888424e-05
0.2302939821800104,-1.1247488489372371e-05,0.2302939821800104,-3.4962720981016495e-05,0.2302939821800104,2.5535644138781876e-05,0.2302939821800104,-1.8652326183211657e-05
0.2310880993599415,-4.653760608241958e-06,0.2310880993599415,-3.896288040759002e-05,0.2310880993599415,1.8180601684471237e-05,0.2310880993599415,-1.69528e-05
0.2318822165398726,1.2923625318402387e-06,0.2318822165398726,-3.175432937603785e-05,0.2318822165398726,1.130761525831987e-05,0.2318822165398726,-1.523815615277044e-05
0.2326763337198036,1.629743305845085e-06,0.2326763337198036,-1.772060041543035e-05,0.2326763337198036,1.0060146815186885e-05,0.2326763337198036,-9.521291711959634e-06
0.2334704508997347,2.9115737719672727e-06,0.2334704508997347,-8.52347008009148e-06,0.2334704508997347,1.423654269566584e-05,0.2334704508997347,-2.4208400274781507e-06
0.2342645680796658,4.058344312484703e-06,0.2342645680796658,-9.587077072027242e-06,0.2342645680796658,1.6094020727160492e-05,0.2342645680796658,-7.10862434772169e-07
0.2350586852595969,9.378430492003492e-07,0.2350586852595969,-1.0299005833487128e-05,0.2350586852595969,6.723125313745241e-06,0.2350586852595969,-1.4712013917888183e-06
0.2358528024395279,9.960008565619056e-09,0.2358528024395279,-1.0454590467527534e-05,0.2358528024395279,-1.4028165432547412e-05,0.2358528024395279,2.438056872135948e-06
0.236646919619459,-1.5492802236487195e-06,0.236646919619459,-1.584730217251157e-05,0.236646919619459,-3.0733287795801945e-05,0.236646919619459,8.303097864265342e-06
0.2374410367993901,-5.242367068263506e-06,0.2374410367993901,-2.7459246469220503e-05,0.2374410367993901,-3.56874669977572e-05,0.2374410367993901,7.594198219911376e-06
0.2382351539793211,-5.6181592074714e-06,0.2382351539793211,-3.117091583484347e-05,0.2382351539793211,-2.035422719548025e-05,0.2382351539793211,2.7167848542928416e-06
0.2390292711592522,-5.045370068324079e-06,0.2390292711592522,-2.7220925601842185e-05,0.2390292711592522,-3.0908004613366384e-06,0.2390292711592522,-4.887129564359442e-06
0.2398233883391833,-6.0138378882916615e-06,0.2398233883391833,-2.694414986716863e-05,0.2398233883391833,1.162429141298558e-05,0.2398233883391833,-1.0693202856067972e-05
0.2406175055191144,-1.000275217536567e-05,0.2406175055191144,-3.176169812652607e-05,0.2406175055191144,2.586184023128793e-05,0.2406175055191144,-1.1542258500573558e-05
0.2414116226990454,-1.1107737935633456e-05,0.2414116226990454,-3.37377e-05,0.2414116226990454,2.299421393782243e-05,0.2414116226990454,-1.4307165549434196e-05
0.2422057398789765,-1.1206352112080137e-05,0.2422057398789765,-3.531426025765742e-05,0.2422057398789765,1.3615726293066215e-05,0.2422057398789765,-1.778208685346689e-05
0.2429998570589076,-1.5273270272001696e-05,0.2429998570589076,-4.447796596753419e-05,0.2429998570589076,9.567924860931748e-06,0.2429998570589076,-1.997379108160051e-05
0.2437939742388386,-1.88680762408132e-05,0.2437939742388386,-5.1194e-05,0.2437939742388386,8.956002089956623e-06,0.2437939742388386,-1.7595789700761364e-05
0.2445880914187697,-1.620323297238062e-05,0.2445880914187697,-4.55503132162e-05,0.2445880914187697,4.26986367657202e-06,0.2445880914187697,-1.1544847350761595e-05
0.2453822085987008,-1.4110659556267858e-05,0.2453822085987008,-3.96424560504646e-05,0.2453822085987008,-7.289684776175042e-06,0.2453822085987008,-8.873389721687969e-06
0.2461763257786318,-1.0162981962211544e-05,0.2461763257786318,-3.854592013549778e-05,0.2461763257786318,-1.6514254142762595e-05,0.2461763257786318,-1.2902755758198122e-05
0.2469704429585629,-5.53903e-06,0.2469704429585629,-3.712539599710779e-05,0.2469704429585629,-2.121678597431601e-05,0.2469704429585629,-1.2569331754551124e-05
0.247764560138494,-7.21752e-06,0.247764560138494,-3.2019923965492705e-05,0.247764560138494,-2.351835353049157e-05,0.247764560138494,-1.339795371449499e-05
0.2485586773184251,-5.005705905819467e-06,0.2485586773184251,-2.8465481585009023e-05,0.2485586773184251,-2.498977478665657e-05,0.2485586773184251,-1.7150423506595983e-05
0.2493527944983561,-4.19623e-06,0.2493527944983561,-2.3632663851440724e-05,0.2493527944983561,-2.544380844343296e-05,0.2493527944983561,-1.9598525330298875e-05
0.2501469116782872,-2.479138059341666e-06,0.2501469116782872,-8.737431840849648e-06,0.2501469116782872,-2.6115632686447225e-05,0.2501469116782872,-2.1297599029670837e-05
0.2509410288582183,-1.904879275508836e-06,0.2509410288582183,5.757717613743266e-06,0.2509410288582183,-2.2308370159604663e-05,0.2509410288582183,-1.8533734540818605e-05
0.2517351460381494,-3.623120501201457e-06,0.2517351460381494,1.3851308622441666e-05,0.2517351460381494,-1.2512096566291725e-05,0.2517351460381494,-1.797905085842707e-05
0.2525292632180804,-3.840738421929655e-06,0.2525292632180804,1.017905736386467e-05,0.2525292632180804,-4.206508318290925e-06,0.2525292632180804,-2.1139154210964828e-05
0.2533233803980115,-5.5000567687946905e-06,0.2533233803980115,5.561349367492098e-06,0.2533233803980115,5.856129244912258e-06,0.2533233803980115,-1.9618025756062733e-05
0.2541174975779426,-7.029996383779925e-06,0.2541174975779426,-7.80575261936001e-06,0.2541174975779426,1.0377765009894348e-05,0.2541174975779426,-1.73671944648803e-05
0.2549116147578736,-8.017362419741293e-06,0.2549116147578736,-2.2464653068237516e-05,0.2549116147578736,1.3319464405239512e-05,0.2549116147578736,-1.9085728810479023e-05
0.2557057319378047,-8.65902163767967e-06,0.2557057319378047,-3.240976333875828e-05,0.2557057319378047,1.140392397048006e-05,0.2557057319378047,-2.0013665086960992e-05
0.2564998491177358,-7.55365477080584e-06,0.2564998491177358,-3.373809037515288e-05,0.2564998491177358,1.2588047838934512e-05,0.2564998491177358,-1.561119562862006e-05
0.2572939662976669,-4.286254006241722e-06,0.2572939662976669,-2.6450122537789197e-05,0.2572939662976669,1.6102961512104917e-05,0.2572939662976669,-1.2253e-05
0.2580880834775979,-2.4579398857188387e-06,0.2580880834775979,-2.4021858619324897e-05,0.2580880834775979,1.0914959190034069e-05,0.2580880834775979,-1.278645005714058e-05
0.258882200657529,-4.470134479829908e-06,0.258882200657529,-2.4140689863713876e-05,0.258882200657529,2.282964664968334e-06,0.258882200657529,-1.1472399894906715e-05
0.2596763178374601,-6.8222569056552526e-06,0.2596763178374601,-2.307447076167445e-05,0.2596763178374601,-4.8723343599106337e-08,0.2596763178374601,-1.3850258339586773e-05
0.2604704350173911,-4.8289163919467e-06,0.2604704350173911,-2.5185464445794703e-05,0.2604704350173911,3.647335618874279e-07,0.2604704350173911,-1.559064319597335e-05
0.2612645521973222,-3.110220101628636e-06,0.2612645521973222,-2.5049110668197825e-05,0.2612645521973222,3.0701769376940253e-06,0.2612645521973222,-1.353690050814318e-05
0.2620586693772533,-4.275291329148291e-06,0.2620586693772533,-2.342998671164628e-05,0.2620586693772533,4.55166094635712e-06,0.2620586693772533,-1.288493810728576e-05
0.2628527865571843,-5.75617202017466e-06,0.2628527865571843,-2.488951855631512e-05,0.2628527865571843,-5.142285538453966e-06,0.2628527865571843,-1.6241490932216624e-05
0.2636469037371154,-5.184046228712019e-06,0.2636469037371154,-2.6944725596434785e-05,0.2636469037371154,-1.749357251861633e-05,0.2636469037371154,-1.784157207623734e-05
0.2644410209170465,-4.2742594352905215e-06,0.2644410209170465,-2.856407354558659e-05,0.2644410209170465,-2.185174848824159e-05,0.2644410209170465,-1.4782541129418957e-05
0.2652351380969776,-6.8218073270298304e-06,0.2652351380969776,-2.6827645523616524e-05,0.2652351380969776,-1.8099058036626083e-05,0.2652351380969776,-1.2253e-05
0.2660292552769086,-8.945279715887962e-06,0.2660292552769086,-2.1257135370720093e-05,0.2660292552769086,-1.466230905847778e-05,0.2660292552769086,-1.2608503019492593e-05
0.2668233724568397,-8.42129187475488e-06,0.2668233724568397,-1.6787381143091884e-05,0.2668233724568397,-1.1739280040164596e-05,0.2668233724568397,-1.049482186136668e-05
0.2676174896367708,-5.3213877240957456e-06,0.2676174896367708,-1.258985948061313e-05,0.2676174896367708,-1.0317505930907748e-05,0.2676174896367708,-6.485889585911241e-06
0.2684116068167018,-4.3344035303939485e-06,0.2684116068167018,-6.801685093194389e-06,0.2684116068167018,-9.636496765196977e-06,0.2684116068167018,-3.011077066381255e-06
0.2692057239966329,-2.1031252383350465e-06,0.2692057239966329,-3.2855555731171523e-06,0.2692057239966329,-1.1502435427995888e-05,0.2692057239966329,-2.379451809331962e-06
0.269999841176564,-2.181811171555923e-06,0.269999841176564,-1.2250637212202111e-05,0.269999841176564,-1.7622598200891462e-05,0.269999841176564,-2.1822688284440768e-06
0.270793958356495,-6.139808758025627e-06,0.270793958356495,-2.2246086101431317e-05,0.270793958356495,-1.916653460040968e-05,0.270793958356495,-2.6555695495716024e-06
0.2715880755364261,-8.22461e-06,0.2715880755364261,-2.15164256203318e-05,0.2715880755364261,-3.258643100461607e-06,0.2715880755364261,-2.991384209845731e-06
0.2723821927163572,-8.529392757169673e-06,0.2723821927163572,-1.920396809811873e-05,0.2723821927163572,1.3058183738867451e-05,0.2723821927163572,-4.923164118186689e-06
0.2731763098962882,-9.70547559247208e-06,0.2731763098962882,-1.8967e-05,0.2731763098962882,1.7997755924720813e-05,0.2731763098962882,-1.0650213623907366e-05
0.2739704270762193,-8.402132681302201e-06,0.2739704270762193,-1.8750038787115943e-05,0.2739704270762193,2.155240588776858e-05,0.2739704270762193,-1.42672e-05
0.2747645442561504,-1.1996214177660313e-05,0.2747645442561504,-2.279760183876225e-05,0.2747645442561504,2.704248430958404e-05,0.2747645442561504,-1.213461697983398e-05
0.2755586614360815,-1.114717543816744e-05,0.2755586614360815,-2.595633264686579e-05,0.2755586614360815,3.448822316817898e-05,0.2755586614360815,-1.2855318682571503e-05
0.2763527786160125,-1.0594471732932872e-05,0.2763527786160125,-2.471504845633281e-05,0.2763527786160125,4.569305139414965e-05,0.2763527786160125,-1.35958e-05
0.2771468957959436,-6.133357235652628e-06,0.2771468957959436,-1.9322310494223264e-05,0.2771468957959436,4.85689224740079e-05,0.2771468957959436,-1.4957866572247036e-05
0.2779410129758747,-9.19342800044784e-07,0.2779410129758747,-1.6320755061531873e-05,0.2779410129758747,4.406639349676439e-05,0.2779410129758747,-1.4821590245146588e-05
0.2787351301558057,-1.3782712605011345e-07,0.2787351301558057,-1.561e-05,0.2787351301558057,4.074918981452377e-05,0.2787351301558057,-1.2411297453630942e-05
0.2795292473357368,-6.091533824754535e-06,0.2795292473357368,-1.8335369139963835e-05,0.2795292473357368,3.063828799189189e-05,0.2795292473357368,-1.5195042156340956e-05
0.2803233645156679,-1.0871171329503386e-05,0.2803233645156679,-1.4903847141239323e-05,0.2803233645156679,1.788026013869526e-05,0.2803233645156679,-1.7802202797702032e-05
0.2811174816955989,-1.2253e-05,0.2811174816955989,-2.49994919604197e-06,0.2811174816955989,1.4760334793870267e-05,0.2811174816955989,-1.8334958698467568e-05
0.2819115988755301,-9.340218526815274e-06,0.2819115988755301,-3.6245622709227138e-06,0.2819115988755301,2.6347173214630365e-06,0.2819115988755301,-1.476057558044582e-05
0.2827057160554611,-1.1305000686609013e-05,0.2827057160554611,-2.5465346317115587e-05,0.2827057160554611,-1.2489402746436046e-05,0.2827057160554611,-1.49386e-05
0.2834998332353922,-8.897211345752583e-06,0.2834998332353922,-5.219559882438512e-05,0.2834998332353922,-1.93016187856019e-05,0.2834998332353922,-1.2589540944531855e-05
0.2842939504153233,-5.53903e-06,0.2842939504153233,-6.0691494449001605e-05,0.2842939504153233,-1.8415727665823097e-05,0.2842939504153233,-1.0535622874683662e-05
0.2850880675952543,-6.88182e-06,0.2850880675952543,-5.3752753696248434e-05,0.2850880675952543,-8.822842790301577e-06,0.2850880675952543,-5.64037781749252e-06
0.2858821847751854,-5.226087870128843e-06,0.2858821847751854,-7.010893600125682e-05,0.2858821847751854,1.918177995417992e-06,0.2858821847751854,-2.142922088108108e-06
0.2866763019551165,-1.196692149819837e-06,0.2866763019551165,-6.509130464532565e-05,0.2866763019551165,1.1971210977001565e-05,0.2866763019551165,-2.6747163926992343e-06
0.2874704191350475,-1.9043445907682528e-06,0.2874704191350475,-4.004717764957682e-05,0.2874704191350475,1.7209384920116923e-05,0.2874704191350475,-6.287760396764817e-06
0.2882645363149786,-4.748586848079608e-06,0.2882645363149786,-4.108227850281863e-05,0.2882645363149786,1.2826783953276087e-05,0.2882645363149786,-1.0179291352145648e-05
0.2890586534949096,-7.80994093855858e-06,0.2890586534949096,-4.973507268428746e-05,0.2890586534949096,5.440237772421149e-06,0.2890586534949096,-1.186794690952298e-05
0.2898527706748408,-8.658884045350736e-06,0.2898527706748408,-3.5347244746073115e-06,0.2898527706748408,3.4262624228358203e-06,0.2898527706748408,-1.5787159158727576e-05
0.2906468878547718,-6.665850091455368e-06,0.2906468878547718,5.220142601772878e-05,0.2906468878547718,-6.988594918306981e-07,0.2906468878547718,-1.592645062679415e-05
0.2914410050347029,-3.52483e-06,0.2914410050347029,4.8051113940618894e-05,0.2914410050347029,-9.41691749703354e-06,0.2914410050347029,-1.768268767838552e-05
0.292235122214634,-4.03792110494689e-06,0.292235122214634,1.5891716438452564e-06,0.292235122214634,-1.3318747644195108e-05,0.292235122214634,-1.811820889505311e-05
0.293029239394565,-7.612022832438621e-06,0.293029239394565,-4.029547904682469e-05,0.293029239394565,-1.9282156880718397e-05,0.293029239394565,-1.564965180467394e-05
0.2938233565744961,-1.3280371271137516e-05,0.2938233565744961,-5.2218435416282125e-05,0.2938233565744961,-3.095519944898131e-05,0.2938233565744961,-1.4296855436052464e-05
0.2946174737544272,-1.671661341111247e-05,0.2946174737544272,-6.345012586489251e-05,0.2946174737544272,-4.179670466481866e-05,0.2946174737544272,-1.5472218626778448e-05
0.2954115909343582,-1.4898794974949558e-05,0.2954115909343582,-9.09887220887994e-05,0.2954115909343582,-4.688923000715727e-05,0.2954115909343582,-1.414853998568546e-05
0.2962057081142893,-2.739630911190962e-05,0.2962057081142893,-7.44590589513633e-05,0.2962057081142893,-4.175588983043044e-05,0.2962057081142893,-1.2815577754554095e-05
0.2969998252942204,-6.595601603553079e-05,0.2969998252942204,2.5319096364558937e-05,0.2969998252942204,-2.501377909190301e-05,0.2969998252942204,-1.4267011197788437e-05
0.2977939424741515,-7.386606029489939e-05,0.2977939424741515,0.000101892371902,0.2977939424741515,1.2242490914334542e-06,0.2977939424741515,-1.2885540073724846e-05
0.2985880596540825,-4.96320764590012e-05,0.2985880596540825,9.314841776662428e-05,0.2985880596540825,2.2337179275904377e-05,0.2985880596540825,-1.2253e-05
0.2993821768340136,-1.5075420773273025e-05,0.2993821768340136,4.367680175471876e-05,0.2993821768340136,2.921715128448702e-05,0.2993821768340136,-1.345566089439122e-05
0.3001762940139447,9.377140094268036e-06,0.3001762940139447,1.572613232877357e-05,0.3001762940139447,2.80308e-05,0.3001762940139447,-1.6871438204653727e-05
0.3009704111938757,3.057031587556045e-05,0.3009704111938757,-8.301796418101661e-07,0.3009704111938757,2.9906133719640037e-05,0.3009704111938757,-1.916383371964004e-05
0.3017645283738068,4.793453830733301e-05,0.3017645283738068,-1.4582727024963906e-05,0.3017645283738068,2.8900183582571567e-05,0.3017645283738068,-1.792117537385735e-05
0.3025586455537379,5.026589258159305e-05,0.3025586455537379,-2.1174598117869005e-05,0.3025586455537379,2.356797774477915e-05,0.3025586455537379,-1.276643330858436e-05
0.3033527627336689,3.253641099285672e-05,0.3033527627336689,-3.373379738877738e-05,0.3033527627336689,7.1118963787356615e-06,0.3033527627336689,-1.268726257932333e-05
0.3041468799136,1.5475374780847344e-05,0.3041468799136,-3.733166943933226e-05,0.3041468799136,-7.531063097503337e-06,0.3041468799136,-1.49386e-05
0.3049409970935311,4.7604347017844895e-06,0.3049409970935311,-3.521865721423695e-05,0.3049409970935311,-1.2844208621929966e-05,0.3049409970935311,-1.2106824382221518e-05
0.3057351142734621,3.66263193746868e-06,0.3057351142734621,-3.5021066400002395e-05,0.3057351142734621,-1.272796100942589e-05,0.3057351142734621,-1.0633141769231032e-05
0.3065292314533932,7.3750629126060835e-06,0.3065292314533932,-3.733173583392718e-05,0.3065292314533932,2.5162016334051435e-06,0.3065292314533932,-1.2193848157010892e-05
0.3073233486333243,1.8574735536410037e-05,0.3073233486333243,-3.835789860079605e-05,0.3073233486333243,1.7546028244785025e-05,0.3073233486333243,-8.688381881463296e-06
0.3081174658132554,3.5992335394140456e-05,0.3081174658132554,-4.058977413007675e-05,0.3081174658132554,2.0606129835505017e-05,0.3081174658132554,-8.758215597045767e-06
0.3089115829931864,4.479618751777224e-05,0.3089115829931864,-4.173547694111381e-05,0.3089115829931864,1.839402583548075e-05,0.3089115829931864,-1.3754201976213966e-05
0.3097057001731175,4.1419958121251735e-05,0.3097057001731175,-4.084871794086061e-05,0.3097057001731175,8.896800823743113e-06,0.3097057001731175,-1.9361754822499504e-05
0.3104998173530486,2.8705884137949245e-05,0.3104998173530486,-3.541773581803582e-05,0.3104998173530486,4.364277364532995e-06,0.3104998173530486,-1.8296389458131982e-05
0.3112939345329796,-1.2415553986009964e-06,0.3112939345329796,-3.338203324577544e-05,0.3112939345329796,1.888876633814805e-06,0.3112939345329796,-1.62814e-05
0.3120880517129107,-3.231963157264517e-05,0.3120880517129107,-3.10521e-05,0.3120880517129107,-1.670309336740441e-05,0.3120880517129107,-1.736658103241388e-05
0.3128821688928418,-6.085415263122087e-05,0.3128821688928418,-3.1249489590225435e-05,0.3128821688928418,-3.37377e-05,0.3128821688928418,-1.934180644586452e-05
0.3136762860727728,-7.439497011405419e-05,0.3136762860727728,-3.1881759497152766e-05,0.3136762860727728,-2.8767647589404923e-05,0.3136762860727728,-2.0466742068432517e-05
0.314470403252704,-5.351639644570895e-05,0.314470403252704,-3.350019160667718e-05,0.314470403252704,-1.3680461789231316e-05,0.314470403252704,-2.0112983442493216e-05
0.315264520432635,-2.0413389364229155e-05,0.315264520432635,-3.253352411730196e-05,0.315264520432635,-7.0983967584650405e-06,0.315264520432635,-1.715081790683807e-05
0.3160586376125661,5.459776150976419e-06,0.3160586376125661,-2.6021222709320265e-05,0.3160586376125661,-1.300330016908305e-05,0.3160586376125661,-1.4978107756823903e-05
0.3168527547924971,1.1483048886704126e-05,0.3168527547924971,-1.85525464665871e-05,0.3168527547924971,-1.1444567763576822e-05,0.3168527547924971,-1.6587032665690715e-05
0.3176468719724282,7.140657147762479e-06,0.3176468719724282,-1.72687797985036e-05,0.3176468719724282,-2.085965696767318e-06,0.3176468719724282,-1.991343993366293e-05
0.3184409891523593,-1.7834208139253625e-06,0.3184409891523593,-1.7269062662442597e-05,0.3184409891523593,5.515079087049072e-06,0.3184409891523593,-2.134084917171529e-05
0.3192351063322903,-9.417119313440709e-06,0.3192351063322903,-2.1986579592595837e-05,0.3192351063322903,1.3652909332614731e-05,0.3192351063322903,-1.1150725420742234e-05
0.3200292235122214,-1.4948065577406034e-05,0.3200292235122214,-2.971033453524688e-05,0.3200292235122214,1.6844037540359395e-05,0.3200292235122214,-6.170727725270096e-06
0.3208233406921525,-1.997537309436901e-05,0.3208233406921525,-5.307289724064135e-05,0.3208233406921525,2.3905259179114943e-05,0.3208233406921525,-5.379984081191988e-06
0.3216174578720835,-3.104481233881775e-05,0.3216174578720835,-5.167599145060666e-05,0.3216174578720835,3.148724461494773e-05,0.3216174578720835,8.599351658282773e-07
0.3224115750520147,-3.3767052885037824e-05,0.3224115750520147,-3.4210007747453205e-05,0.3224115750520147,2.4870743399179875e-05,0.3224115750520147,1.4513329248974843e-06
0.3232056922319457,-2.5780501834400556e-05,0.3232056922319457,-5.50438511133768e-05,0.3232056922319457,1.412006794631166e-05,0.3232056922319457,1.17494e-06
0.3239998094118768,-1.76259848618639e-05,0.3239998094118768,-6.193769438346194e-05,0.3239998094118768,4.53405809635029e-06,0.3239998094118768,1.17494e-06
0.3247939265918079,-1.051816309668204e-05,0.3247939265918079,-4.359793464124337e-06,0.3247939265918079,8.82143693816991e-06,0.3247939265918079,2.3198236854619583e-06
0.3255880437717389,-3.2125812400583674e-06,0.3255880437717389,5.708454342817769e-05,0.3255880437717389,1.98361787222091e-05,0.3255880437717389,5.08361100269538e-06
0.32638216095167,1.9245414257015743e-06,0.32638216095167,6.428918737172285e-05,0.32638216095167,9.010478474478408e-06,0.32638216095167,3.195821375791565e-06
0.3271762781316011,8.610967672835662e-07,0.3271762781316011,4.597993506479372e-05,0.3271762781316011,-1.3069414278280444e-05,0.3271762781316011,-4.88352309824468e-06
0.3279703953115321,-3.563433906378264e-06,0.3279703953115321,3.648974266259161e-05,0.3279703953115321,-2.2185046520843105e-05,0.3279703953115321,-6.920419193831301e-06
0.3287645124914632,-4.51179517926358e-06,0.3287645124914632,2.690998377253085e-06,0.3287645124914632,-2.25614096287799e-05,0.3287645124914632,-1.1442304242974845e-05
0.3295586296713942,-7.434662920055127e-06,0.3295586296713942,-5.2360066551268274e-05,0.3295586296713942,-1.9095434531220843e-05,0.3295586296713942,-1.679472310859455e-05
0.3303527468513254,-1.0673039647268496e-05,0.3303527468513254,-7.915645480930676e-05,0.3303527468513254,-1.5965740529097255e-05,0.3303527468513254,-1.8058439647268497e-05
0.3311468640312564,-1.112760074130586e-05,0.3311468640312564,-7.004289103311356e-05,0.3311468640312564,-1.8768797034776555e-05,0.3311468640312564,-1.851300074130586e-05
0.3319409812111875,-1.2744529550032546e-05,0.3319409812111875,-5.4550121253362566e-05,0.3319409812111875,-1.670181098549304e-05,0.3319409812111875,-1.8256642612491864e-05
0.3327350983911186,-1.7326527122721225e-05,0.3327350983911186,-3.654906172156564e-05,0.3327350983911186,-4.772562759582441e-06,0.3327350983911186,-1.76242e-05
0.3335292155710496,-1.9045936422365083e-05,0.3335292155710496,-3.845814752387955e-05,0.3335292155710496,6.387238778777655e-06,0.3335292155710496,-1.4998180679810776e-05
0.3343233327509807,-1.876889755249365e-05,0.3343233327509807,-5.477909331945811e-05,0.3343233327509807,1.11664220854034e-05,0.3343233327509807,-1.3378722766112523e-05
0.3351174499309118,-1.3910853044179167e-05,0.3351174499309118,-5.603467828725725e-05,0.3351174499309118,2.712732352133413e-06,0.3351174499309118,-1.39315e-05
0.3359115671108428,-1.916496048167553e-05,0.3359115671108428,-4.21280714199867e-05,0.3359115671108428,-1.043676871534818e-05,0.3359115671108428,-1.347720878184988e-05
0.3367056842907739,-2.4417436562415484e-05,0.3367056842907739,-1.1448187466082838e-05,0.3367056842907739,-1.641974552080516e-05,0.3367056842907739,-1.1946754479194836e-05
0.337499801470705,-1.695537427739283e-05,0.337499801470705,1.8960065722116342e-05,0.337499801470705,-1.1583459231107993e-05,0.337499801470705,-1.4937527345367038e-05
0.338293918650636,-9.313209845123924e-06,0.338293918650636,3.245560852376897e-05,0.338293918650636,-3.606336897137916e-06,0.338293918650636,-1.7327308329151838e-05
0.3390880358305671,-2.9368201788847565e-06,0.3390880358305671,3.618473900116932e-05,0.3390880358305671,7.975552943130071e-07,0.3390880358305671,-1.8916199410010104e-05
0.3398821530104982,3.46280369427882e-06,0.3398821530104982,3.5200168876463806e-05,0.3398821530104982,6.246121143871568e-06,0.3398821530104982,-2.10593899596742e-05
0.3406762701904293,9.40444146539468e-06,0.3406762701904293,1.4757012503035126e-05,0.3406762701904293,9.201911290694332e-06,0.3406762701904293,-2.386133840428732e-05
0.3414703873703603,1.602285262197361e-05,0.3414703873703603,-1.6778406749478945e-05,0.3414703873703603,1.2349440777467016e-05,0.3414703873703603,-2.7517605922253297e-05
0.3422645045502914,1.515684425895189e-05,0.3422645045502914,-3.598864818907775e-05,0.3422645045502914,1.689318775995157e-05,0.3422645045502914,-2.1496497590839127e-05
0.3430586217302225,9.429362855613704e-06,0.3430586217302225,-3.283441448645688e-05,0.3430586217302225,1.795001438388034e-05,0.3430586217302225,-1.250994947771181e-05
0.3438527389101535,8.126081818758962e-06,0.3438527389101535,-2.6194813479234888e-05,0.3438527389101535,1.488018727503584e-05,0.3438527389101535,-9.311074812814404e-06
0.3446468560900846,4.256985318343285e-06,0.3446468560900846,-2.6964373886718736e-05,0.3446468560900846,4.813293836970593e-06,0.3446468560900846,-4.701382079289944e-06
0.3454409732700157,1.155467387301814e-06,0.3454409732700157,-2.805033987030232e-05,0.3454409732700157,-7.334357184371955e-06,0.3454409732700157,-2.85344e-06
0.3462350904499467,5.827248586561637e-07,0.3462350904499467,-1.90509585200652e-05,0.3462350904499467,-7.820842958466304e-06,0.3462350904499467,-2.85344e-06
0.3470292076298778,-5.557838377727304e-06,0.3470292076298778,-1.0732463888933544e-05,0.3470292076298778,1.3119292076627978e-06,0.3470292076298778,-4.630224457883299e-06
0.3478233248098089,-8.145172130210576e-06,0.3478233248098089,-1.6768160220761503e-05,0.3478233248098089,1.1701307584558376e-05,0.3478233248098089,-9.824764856824958e-06
0.34861744198974,-6.803045272927822e-06,0.34861744198974,-2.8689872010515184e-05,0.34861744198974,2.199002655279192e-05,0.34861744198974,-1.4811000639932048e-05
0.349411559169671,-6.091857596897693e-06,0.349411559169671,-3.329370923885103e-05,0.349411559169671,2.098094680701217e-05,0.349411559169671,-1.6538176214571404e-05
0.3502056763496021,-7.88837192740904e-06,0.3502056763496021,-2.6557001327112008e-05,0.3502056763496021,1.926301451975119e-05,0.3502056763496021,-1.677526442333862e-05
0.3509997935295332,-9.9031e-06,0.3509997935295332,-1.8968602552950533e-05,0.3509997935295332,2.500726896697764e-05,0.3509997935295332,-1.3261289907908976e-05
0.3517939107094642,-7.277695545029012e-06,0.3517939107094642,-3.2131357461265226e-05,0.3517939107094642,2.92358392465929e-05,0.3517939107094642,-9.291885545029012e-06
0.3525880278893953,-7.700200233045528e-06,0.3525880278893953,-4.1320036888438367e-05,0.3525880278893953,2.1520064469523887e-05,0.3525880278893953,-1.106625887058088e-05
0.3533821450693264,-1.0699863529125078e-05,0.3533821450693264,-4.17945e-05,0.3533821450693264,1.1135518556762166e-05,0.3533821450693264,-1.5251313974587244e-05
0.3541762622492574,-1.513317488542031e-05,0.3541762622492574,-4.2031796966258414e-05,0.3541762622492574,9.5554526489109e-08,0.3541762622492574,-2.0937362328130464e-05
0.3549703794291886,-1.7031882257043254e-05,0.3549703794291886,-4.51102177424445e-05,0.3549703794291886,-8.378827851233538e-06,0.3549703794291886,-2.5215953428142543e-05
0.3557644966091196,-1.4663441759275756e-05,0.3557644966091196,-3.9702734141898064e-05,0.3557644966091196,-2.224141166486525e-05,0.3557644966091196,-2.25220443767643e-05
0.3565586137890507,-8.580284646853662e-06,0.3565586137890507,-3.0344545129557268e-05,0.3565586137890507,-4.051019659895394e-05,0.3565586137890507,-2.03493421549062e-05
0.3573527309689818,-9.211635072820614e-06,0.3573527309689818,-3.1524528743204404e-05,0.3573527309689818,-4.529006656957252e-05,0.3573527309689818,-1.9658474927179385e-05
0.3581468481489128,-9.094258829332954e-06,0.3581468481489128,-3.178285179585704e-05,0.3581468481489128,-3.9387109865999146e-05,0.3581468481489128,-1.9874975585333523e-05
0.3589409653288439,-6.80395166899294e-06,0.3589409653288439,-2.810942961435269e-05,0.3589409653288439,-3.561562940591344e-05,0.3589409653288439,-1.946319495046014e-05
0.3597350825087749,-6.308573205498162e-06,0.3597350825087749,-8.571168425323718e-06,0.3597350825087749,-2.8784694919477703e-05,0.3597350825087749,-1.3538896612985136e-05
0.360529199688706,-6.960774222638008e-06,0.360529199688706,1.0061188066461442e-05,0.360529199688706,-1.1406135417459454e-05,0.360529199688706,-8.698918254837899e-06
0.3613233168686371,-7.158220058365913e-06,0.3613233168686371,6.551678132139021e-06,0.3613233168686371,5.6882823947775065e-06,0.3613233168686371,-7.119018000079938e-06
0.3621174340485681,-6.88182e-06,0.3621174340485681,-1.1337268191446112e-05,0.3621174340485681,1.1818823125932062e-05,0.3621174340485681,-8.22461e-06
0.3629115512284993,-7.020033661489887e-06,0.3629115512284993,-3.449054561274768e-05,0.3629115512284993,1.5886695077651686e-05,0.3629115512284993,-6.427574645959551e-06
0.3637056684084303,-7.947880155174565e-06,0.3637056684084303,-6.394923986013105e-05,0.3637056684084303,2.449572886785015e-05,0.3637056684084303,-7.375145928744595e-06
0.3644997855883614,-8.560464459199746e-06,0.3644997855883614,-6.898814965225501e-05,0.3644997855883614,2.299653567359797e-05,0.3644997855883614,-8.392537229599874e-06
0.3652939027682925,-7.2777184769129875e-06,0.3652939027682925,-9.63496356094756e-06,0.3652939027682925,1.6412501855928767e-05,0.3652939027682925,-6.526733034465207e-06
0.3660880199482235,-7.433432207043226e-06,0.3660880199482235,3.30136494559289e-05,0.3660880199482235,1.1485467370001796e-05,0.3660880199482235,-6.959832236249326e-06
0.3668821371281546,-8.661510081381224e-06,0.3668821371281546,1.0898565244674456e-05,0.3668821371281546,8.403977109000589e-06,0.3668821371281546,-1.047330108285809e-05
0.3676762543080857,-4.949190244576143e-06,0.3676762543080857,-3.723778011134936e-05,0.3676762543080857,7.76969405559155e-06,0.3676762543080857,-1.1976908860033538e-05
0.3684703714880167,-5.311331303869479e-06,0.3684703714880167,-7.518399112491886e-05,0.3684703714880167,4.435604210638481e-06,0.3684703714880167,-1.2607965272649024e-05
0.3692644886679478,-3.3377487524706543e-06,0.3692644886679478,-7.116007074812321e-05,0.3692644886679478,1.9050106634128627e-06,0.3692644886679478,-1.1779755203904565e-05
0.3700586058478789,-2.8138863790664308e-06,0.3700586058478789,-5.665237629284092e-05,0.3700586058478789,6.980199452641687e-06,0.3700586058478789,-9.764924626578626e-06
0.3708527230278099,-4.966135249186286e-06,0.3708527230278099,-3.34401483640161e-05,0.3708527230278099,1.2626928870524574e-05,0.3708527230278099,-1.4186831495117718e-05
0.371646840207741,-4.749347940346967e-06,0.371646840207741,1.791686362718e-05,0.371646840207741,1.7723335880693934e-05,0.371646840207741,-1.955841029826517e-05
0.3724409573876721,-5.222791494712923e-06,0.3724409573876721,7.21066500892695e-05,0.3724409573876721,1.231623965374785e-05,0.3724409573876721,-1.9166469537009543e-05
0.3732350745676032,-5.53903e-06,0.3732350745676032,8.332323713029374e-05,0.3732350745676032,5.580324228308616e-06,0.3732350745676032,-1.4900710174345185e-05
0.3740291917475342,-4.729621826305264e-06,0.3740291917475342,5.194346785839856e-05,0.3740291917475342,3.682732724564912e-06,0.3740291917475342,-1.0209616200150706e-05
0.3748233089274653,-4.255524220922963e-06,0.3748233089274653,3.4762484678236222e-06,0.3748233089274653,3.741943324440072e-06,0.3748233089274653,-8.540246440748221e-06
0.3756174261073964,-4.976381755654741e-06,0.3756174261073964,-2.16871669599603e-05,0.3756174261073964,3.18914e-06,0.3756174261073964,-2.4373200961883907e-06
0.3764115432873274,-4.0580106054964005e-06,0.3764115432873274,-3.4607699147090254e-05,0.3764115432873274,2.6756522496729376e-06,0.3764115432873274,1.9648624219856016e-06
0.3772056604672585,-6.407740081112628e-06,0.3772056604672585,-4.644695092482749e-05,0.3772056604672585,5.823457502429609e-07,0.3772056604672585,-3.089194771031462e-06
0.3779997776471896,-5.539670714871799e-06,0.3779997776471896,-5.320690559817723e-05,0.3779997776471896,3.5237087453957123e-06,0.3779997776471896,-9.230588745395712e-06
0.3787938948271206,-3.9207543572954656e-06,0.3787938948271206,-4.6926668297373445e-05,0.3787938948271206,-9.94272825110286e-07,0.3787938948271206,-7.327231953459057e-06
0.3795880120070517,-1.786436691472127e-06,0.3795880120070517,-2.9817746452697734e-05,0.3795880120070517,-3.17104237910478e-06,0.3795880120070517,-7.433409275159156e-06
0.3803821291869828,-5.023939959115437e-06,0.3803821291869828,-2.3803263730642623e-05,0.3803821291869828,7.38013753521131e-07,0.3803821291869828,-1.1066511123183973e-05
0.3811762463669139,-7.866924291361063e-06,0.3811762463669139,-3.646283924110192e-05,0.3811762463669139,2.793825419255338e-06,0.3811762463669139,-1.2253e-05
0.3819703635468449,-8.857502337546361e-06,0.3819703635468449,-3.176983722245766e-05,0.3819703635468449,-2.0217191821388875e-06,0.3819703635468449,-1.4502438409293868e-05
0.382764480726776,-5.26299055809979e-06,0.382764480726776,-2.797044620358302e-05,0.382764480726776,-6.1113252359144665e-06,0.382764480726776,-1.7939673647885953e-05
0.3835585979067071,-5.785699143630191e-06,0.3835585979067071,-3.464320266207622e-05,0.3835585979067071,-8.145480415370428e-06,0.3835585979067071,-1.8967e-05
0.3843527150866381,-1.0198584882485376e-05,0.3843527150866381,-2.993354802739949e-05,0.3843527150866381,-9.764391099326547e-06,0.3843527150866381,-1.8275490674738244e-05
0.3851468322665692,-9.529145563438485e-06,0.3851468322665692,-1.4268277955796015e-05,0.3851468322665692,-1.067364734672131e-05,0.3851468322665692,-2.2007393747172533e-05
0.3859409494465003,-8.244065761699274e-06,0.3859409494465003,-5.005933613198759e-06,0.3859409494465003,-7.494852714902177e-06,0.3859409494465003,-1.9640828923346116e-05
0.3867350666264313,-8.56031e-06,0.3867350666264313,-2.099082062592848e-05,0.3867350666264313,-7.828639896563956e-06,0.3867350666264313,-1.6183283477512786e-05
0.3875291838063624,-6.428039684246217e-06,0.3875291838063624,-3.2809564510637214e-05,0.3875291838063624,-1.0870388015415152e-05,0.3875291838063624,-1.62814e-05
0.3883233009862935,-6.013334469463859e-06,0.3883233009862935,-2.9356551675403952e-05,0.3883233009862935,-9.250930029900504e-06,0.3883233009862935,-1.4523580498516848e-05
0.3891174181662246,-1.0594964673185e-05,0.3891174181662246,-3.423964758286157e-05,0.3891174181662246,-3.543778715589356e-06,0.3891174181662246,-1.110722281288617e-05
0.3899115353461556,-1.0278257157653606e-05,0.3899115353461556,-2.312195653321265e-05,0.3899115353461556,-2.85344e-06,0.3899115353461556,-1.0041325127517303e-05
0.3907056525260867,-4.19623e-06,0.3907056525260867,-1.5311409518022324e-06,0.3907056525260867,6.850648617648852e-08,0.3907056525260867,-1.06334172301705e-05
0.3914997697060178,-5.20283229813414e-06,0.3914997697060178,-1.2919186454851051e-05,0.3914997697060178,1.1752718012439072e-06,0.3914997697060178,-1.3930338695646325e-05
0.3922938868859488,-1.2954402197651429e-06,0.3922938868859488,-2.694611828301291e-05,0.3922938868859488,-8.39246e-07,0.3922938868859488,-1.432744728935022e-05
0.3930880040658799,-2.21816555504084e-06,0.3930880040658799,-3.049714352503926e-05,0.3930880040658799,1.2110726088479995e-06,0.3930880040658799,-1.2390892612722375e-05
0.393882121245811,-7.276128071673397e-06,0.393882121245811,-3.732886927836007e-05,0.393882121245811,1.12467432078299e-05,0.393882121245811,-1.450163228669359e-05
0.394676238425742,-7.030870753639465e-06,0.394676238425742,-4.87844588553536e-05,0.394676238425742,1.596772180873472e-05,0.394676238425742,-1.7937878191265284e-05
0.3954703556056732,-5.618139689149817e-06,0.3954703556056732,-3.551943517182654e-05,0.3954703556056732,1.298979571951773e-06,0.3954703556056732,-1.76242e-05
0.3962644727856042,-6.525870765041582e-06,0.3962644727856042,-1.2323723748974746e-05,0.3962644727856042,-2.195372592869103e-07,0.3962644727856042,-1.580822385243763e-05
0.3970585899655353,-8.185034036474699e-06,0.3970585899655353,-7.443242049108097e-06,0.3970585899655353,9.428542893266057e-06,0.3970585899655353,-1.3003553105976815e-05
0.3978527071454664,-7.000428841434274e-06,0.3978527071454664,-1.4034627368757508e-05,0.3978527071454664,1.7760785061354442e-05,0.3978527071454664,-1.5135564634262904e-05
0.3986468243253974,-9.132551187251284e-06,0.3986468243253974,-2.340941124112191e-05,0.3986468243253974,2.3132682374502567e-05,0.3986468243253974,-1.4446405844620506e-05
0.3994409415053285,-9.47015985657227e-06,0.3994409415053285,-2.8603464493579268e-05,0.3994409415053285,2.2445655478331107e-05,0.3994409415053285,-1.1542699942628907e-05
0.4002350586852595,-6.3499189200366376e-06,0.4002350586852595,-2.3946812889660618e-05,0.4002350586852595,1.5119503198230797e-05,0.4002350586852595,-1.0397200426430773e-05
0.4010291758651906,-6.999871712368775e-06,0.4010291758651906,-1.7071281961357426e-05,0.4010291758651906,6.705458876406226e-06,0.4010291758651906,-7.98777777863069e-06
0.4018232930451217,-7.987480647942127e-06,0.4018232930451217,-2.320568014546668e-05,0.4018232930451217,-1.2149381753078297e-06,0.4018232930451217,-9.073856572557112e-06
0.4026174102250527,-9.84469939203808e-06,0.4026174102250527,-2.452026310668105e-05,0.4026174102250527,-6.605949104837195e-06,0.4026174102250527,-9.606819121617268e-06
0.4034115274049838,-1.825609139469007e-05,0.4034115274049838,-9.230459904179892e-06,0.4034115274049838,-1.1779048628132344e-05,0.4034115274049838,-5.302072766557727e-06
0.4042056445849149,-2.0546851425471105e-05,0.4042056445849149,1.387574323103045e-06,0.4042056445849149,-2.589586293775132e-05,0.4042056445849149,-5.755461293573625e-06
0.404999761764846,-1.6954516213330776e-05,0.404999761764846,3.1892940908648605e-06,0.404999761764846,-4.078293784533999e-05,0.404999761764846,-1.1244183791781567e-05
0.4057938789447771,-9.461999248851155e-06,0.4057938789447771,-8.898531145932102e-06,0.4057938789447771,-4.116616628651844e-05,0.4057938789447771,-1.3516133355821378e-05
0.4065879961247081,-4.109256269045986e-06,0.4065879961247081,-2.5436346588477185e-05,0.4065879961247081,-2.5692587164341437e-05,0.4065879961247081,-1.6239508157960526e-05
0.4073821133046392,-4.254829472152805e-06,0.4073821133046392,-3.634197269238425e-05,0.4073821133046392,-6.264037431273202e-06,0.4073821133046392,-2.0505131573842683e-05
0.4081762304845703,-4.285669033250256e-06,0.4081762304845703,-4.027352315824381e-05,0.4081762304845703,1.1807024663504463e-05,0.4081762304845703,-2.336858765086441e-05
0.4089703476645013,-4.19623e-06,0.4089703476645013,-3.251892274081741e-05,0.4089703476645013,2.478918569029465e-05,0.4089703476645013,-2.4940024643439675e-05
0.4097644648444324,-3.920232952108547e-06,0.4097644648444324,-3.002509460009185e-05,0.4097644648444324,1.7965483449717957e-05,0.4097644648444324,-2.542405697054927e-05
0.4105585820243635,-1.9156190332776225e-06,0.4105585820243635,-2.905980173259271e-05,0.4105585820243635,-9.219413227414632e-06,0.4105585820243635,-2.56809e-05
0.4113526992042945,-1.51064e-06,0.4113526992042945,-2.509052989084314e-05,0.4113526992042945,-1.7684631170031894e-05,0.4113526992042945,-2.532505627665604e-05
0.4121468163842256,-3.5630256407385715e-06,0.4121468163842256,-1.892819816526834e-05,0.4121468163842256,-4.918477720236493e-07,0.4121468163842256,-2.4952216254492653e-05
0.4129409335641567,-8.185721987872718e-06,0.4129409335641567,-1.2529478480866026e-05,0.4129409335641567,2.065464455635068e-05,0.4129409335641567,-1.7449201338953283e-05
0.4137350507440878,-4.9882869798386105e-06,0.4137350507440878,-1.434385307881057e-05,0.4137350507440878,3.967481604827942e-05,0.4137350507440878,-1.3833417801779413e-05
0.4145291679240188,-5.14353867141526e-06,0.4145291679240188,-2.5720237701219067e-05,0.4145291679240188,5.01669711248632e-05,0.4145291679240188,-1.063429132858474e-05
0.4153232851039499,-5.647291473047965e-06,0.4153232851039499,-4.26931320443988e-05,0.4153232851039499,4.436085354074451e-05,0.4153232851039499,-5.8151414730479645e-06
0.416117402283881,3.348788907434157e-06,0.416117402283881,-4.264644150863355e-05,0.416117402283881,3.4516454314093635e-05,0.416117402283881,-2.0040041144184445e-06
0.416911519463812,7.494112923766726e-06,0.416911519463812,-3.030076335250215e-05,0.416911519463812,3.433009021936584e-05,0.416911519463812,2.1029678217437903e-06
0.4177056366437431,-1.3346034815615576e-05,0.4177056366437431,-1.91689001409737e-05,0.4177056366437431,3.157712212408161e-05,0.4177056366437431,8.776692635214071e-06
0.4184997538236742,-2.366519261903874e-05,0.4184997538236742,-9.906523463644e-06,0.4184997538236742,1.7293731563887815e-05,0.4184997538236742,1.325885860569115e-05
0.4192938710036052,-1.928558288364972e-05,0.4192938710036052,1.1683374651103232e-05,0.4192938710036052,1.6163428456290475e-06,0.4192938710036052,1.39315e-05
0.4200879881835363,-1.0304666427342084e-05,0.4200879881835363,2.1949506037714268e-05,0.4200879881835363,-9.051892772896745e-06,0.4200879881835363,1.06763737870185e-05
0.4208821053634674,-2.658137091225559e-06,0.4208821053634674,2.407972018629643e-05,0.4208821053634674,-8.583526509517099e-06,0.4208821053634674,5.68734087267876e-06
0.4216762225433985,2.0539141721855514e-07,0.4216762225433985,2.9096439105002996e-05,0.4216762225433985,-6.21042e-06,0.4216762225433985,3.882620457267723e-06
0.4224703397233295,5.00216597620104e-06,0.4224703397233295,1.0926179111721252e-05,0.4224703397233295,-1.4104475562641742e-05,0.4224703397233295,-5.810339334081416e-06
0.4232644569032606,1.3733207499029126e-05,0.4232644569032606,-1.011760753953352e-05,0.4232644569032606,-1.6105731252427188e-05,0.4232644569032606,-1.4068907499029125e-05
0.4240585740831917,1.464249948504324e-05,0.4240585740831917,-2.7486393178423312e-05,0.4240585740831917,-6.566814185779847e-06,0.4240585740831917,-1.6399703592719263e-05
0.4248526912631227,9.865129848557375e-06,0.4248526912631227,-4.48689502611566e-05,0.4248526912631227,-3.18914e-06,0.4248526912631227,-1.784127969253831e-05
0.4256468084430538,4.672896953499641e-07,0.4256468084430538,-5.2062583749516496e-05,0.4256468084430538,-8.300922485654437e-06,0.4256468084430538,-2.082095604836023e-05
0.4264409256229849,-6.737882251084076e-06,0.4264409256229849,-4.902207383955687e-05,0.4264409256229849,-1.3162907186709356e-05,0.4264409256229849,-2.217811367529231e-05
0.4272350428029159,-1.912911460472465e-05,0.4272350428029159,-3.8284296572682666e-05,0.4272350428029159,-1.1068623309275126e-05,0.4272350428029159,-1.916501733861139e-05
0.428029159982847,-3.1919617784086654e-05,0.428029159982847,-4.167581172229213e-05,0.428029159982847,-1.4463317784086652e-05,0.428029159982847,-2.0112039525161427e-05
0.4288232771627781,-2.8681264132900036e-05,0.4288232771627781,-4.87016379279526e-05,0.4288232771627781,-2.115901401423576e-05,0.4288232771627781,-1.9342043309607063e-05
0.4296173943427092,-4.401151279724385e-07,0.4296173943427092,-5.9738117220701166e-05,0.4296173943427092,-2.228448998153377e-05,0.4296173943427092,-1.825617823838166e-05
0.4304115115226402,3.0478921138304368e-05,0.4304115115226402,-7.607604138884496e-05,0.4304115115226402,-2.1810612779032987e-05,0.4304115115226402,-1.79006846531169e-05
0.4312056287025713,4.279205542898634e-05,0.4312056287025713,-6.79235000687446e-05,0.4312056287025713,-1.407072505199238e-05,0.4312056287025713,-1.786126289149848e-05
0.4319997458825024,3.575528663370621e-05,0.4319997458825024,-2.167002296153102e-05,0.4319997458825024,-1.1749308495888203e-05,0.4319997458825024,-1.6449840746909186e-05
0.4327938630624334,1.895672801303659e-05,0.4327938630624334,2.7422831745097837e-05,0.4327938630624334,-8.661602304734744e-06,0.4327938630624334,-1.17409201068935e-05
0.4335879802423645,-6.156420246841855e-06,0.4335879802423645,3.535070990414697e-05,0.4335879802423645,-6.033585572898853e-06,0.4335879802423645,-1.1857350827362509e-05
0.4343820974222956,-2.3737342126082035e-05,0.4343820974222956,1.7016071214785582e-05,0.4343820974222956,-3.4974069196796274e-06,0.4343820974222956,-1.355674515125884e-05
0.4351762146022266,-3.4066663118985675e-05,0.4351762146022266,1.0100277539773192e-05,0.4351762146022266,-3.808588263181677e-06,0.4351762146022266,-1.2984037463589078e-05
0.4359703317821577,-3.863416209830704e-05,0.4359703317821577,-2.346723796104321e-06,0.4359703317821577,-3.764494958399617e-06,0.4359703317821577,-1.205633790169296e-05
0.4367644489620888,-3.721418129611049e-05,0.4367644489620888,-2.9270716952228847e-05,0.4367644489620888,5.320380593890383e-06,0.4367644489620888,-1.2568382116508291e-05
0.4375585661420199,-3.257314927981778e-05,0.4375585661420199,-4.804629555824543e-05,0.4375585661420199,9.468382622323454e-06,0.4375585661420199,-1.4859378097858764e-05
0.438352683321951,-3.5908439595246214e-05,0.438352683321951,-4.993468312357756e-05,0.438352683321951,1.6299135433344692e-05,0.438352683321951,-1.572862604047538e-05
0.439146800501882,-3.56947194487394e-05,0.439146800501882,-3.812311180269029e-05,0.439146800501882,1.869237284332392e-05,0.439146800501882,-1.5905615873504086e-05
0.4399409176818131,-2.971464189604519e-05,0.4399409176818131,-2.536529236320765e-05,0.4399409176818131,9.85014514373662e-06,0.4399409176818131,-1.714975213884099e-05
0.4407350348617442,-1.715666291209298e-05,0.4407350348617442,-1.849526468634353e-05,0.4407350348617442,-1.3483169476764403e-06,0.4407350348617442,-1.76242e-05
0.4415291520416752,1.033544237124224e-06,0.4415291520416752,-1.8315299655435715e-05,0.4415291520416752,-8.500460023222962e-06,0.4415291520416752,-1.6794925878990588e-05
0.4423232692216063,1.630169154511225e-05,0.4423232692216063,-1.9558696068050944e-05,0.4423232692216063,-6.871246966763061e-06,0.4423232692216063,-1.69528e-05
0.4431173864015373,2.6807415075151045e-05,0.4431173864015373,-2.1928604414936453e-05,0.4431173864015373,9.747094780783933e-06,0.4431173864015373,-1.69528e-05
0.4439115035814684,2.8978696119144244e-05,0.4439115035814684,-2.2008019842117888e-05,0.4439115035814684,1.6666363140912705e-05,0.4439115035814684,-1.662699955791756e-05
0.4447056207613995,2.396439012397982e-05,0.4447056207613995,-2.346803693411453e-05,0.4447056207613995,1.4170335241219748e-05,0.4447056207613995,-1.2036717620609874e-05
0.4454997379413306,1.594834296852917e-05,0.4454997379413306,-2.1653786484511426e-05,0.4454997379413306,2.1863819972321867e-06,0.4454997379413306,-8.22555391170827e-06
0.4462938551212617,4.971306731006089e-06,0.4462938551212617,-1.6241671952157618e-05,0.4462938551212617,-3.326813440567477e-06,0.4462938551212617,-1.1163895651036086e-05
0.4470879723011927,-2.9672417417468296e-06,0.4470879723011927,-1.5532453167549916e-05,0.4470879723011927,-4.86763e-06,0.4470879723011927,-1.5558993028347894e-05
0.4478820894811238,-1.0668340273001745e-05,0.4478820894811238,-1.4464538225073714e-05,0.4478820894811238,2.774305922617514e-07,0.4478820894811238,-1.6796603537090276e-05
0.4486762066610549,-1.586389770989887e-05,0.4486762066610549,-1.734825564321058e-05,0.4486762066610549,9.799142157460085e-06,0.4486762066610549,-1.2849431843001617e-05
0.4494703238409859,-1.69528e-05,0.4494703238409859,-3.4454766403848404e-05,0.4494703238409859,9.579342945485008e-06,0.4494703238409859,-8.54111337588418e-06
0.450264441020917,-1.86885256710165e-05,0.450264441020917,-4.219096471763105e-05,0.450264441020917,7.907996789352008e-06,0.450264441020917,-1.1155666437352704e-05
0.4510585582008481,-2.6104662843868626e-05,0.4510585582008481,-3.13767790833322e-05,0.4510585582008481,8.905915604274499e-06,0.4510585582008481,-1.5491132748706018e-05
0.4518526753807791,-2.6826827093956428e-05,0.4518526753807791,-2.1180386990432725e-05,0.4518526753807791,4.178577761121948e-06,0.4518526753807791,-1.4968860650014878e-05
0.4526467925607102,-2.2957249254781912e-05,0.4526467925607102,-1.7585170518220765e-05,0.4526467925607102,-9.956252155999015e-06,0.4526467925607102,-1.1533960150322436e-05
0.4534409097406413,-2.0409608055312865e-05,0.4534409097406413,-1.609375779694789e-05,0.4534409097406413,-1.845368934520512e-05,0.4534409097406413,-8.244037096630752e-06
0.4542350269205724,-1.866146953983604e-05,0.4542350269205724,-1.769218568190506e-05,0.4542350269205724,-1.5217877152717146e-05,0.4542350269205724,-9.586209975698278e-06
0.4550291441005034,-1.961843680059658e-05,0.4550291441005034,-1.7584831508219575e-05,0.4550291441005034,1.4870041947597827e-06,0.4550291441005034,-1.075233159970171e-05
0.4558232612804345,-1.663664113678019e-05,0.4558232612804345,-1.62814e-05,0.4558232612804345,2.0764320383835296e-05,0.4558232612804345,-9.448890206687308e-06
0.4566173784603656,-1.181819936587451e-05,0.4566173784603656,-2.8131793509372504e-05,0.4566173784603656,2.60166e-05,0.4566173784603656,-1.0673601808782254e-05
0.4574114956402966,-9.587274844555806e-06,0.4574114956402966,-4.4569342727209256e-05,0.4574114956402966,2.070487024367451e-05,0.4574114956402966,-1.3457546207414173e-05
0.4582056128202277,-4.108963178573274e-06,0.4582056128202277,-4.076677638730516e-05,0.4582056128202277,1.871094614515562e-05,0.4582056128202277,-1.485895385484438e-05
0.4589997300001588,3.857904206930554e-06,0.4589997300001588,3.5061434462500937e-06,0.4589997300001588,9.73963633819871e-06,0.4589997300001588,-1.8965443966580373e-05
0.4597938471800898,3.387168025289145e-06,0.4597938471800898,5.133483706431202e-05,0.4597938471800898,2.3800709748121537e-06,0.4597938471800898,-1.3600563285903309e-05
0.4605879643600209,4.856251898434522e-07,0.4605879643600209,4.504059367715972e-05,0.4605879643600209,8.062615210671081e-06,0.4605879643600209,-3.608941303663309e-06
0.461382081539952,-2.6348689850973584e-06,0.461382081539952,1.0266270553748814e-05,0.461382081539952,9.96549748404767e-06,0.461382081539952,-1.979159429521044e-06
0.4621761987198831,-1.0150031610284448e-05,0.4621761987198831,-6.358757587296106e-06,0.4621761987198831,6.508662748204759e-06,0.4621761987198831,-9.95582285037447e-06
0.4629703158998141,-3.084592033175037e-05,0.4629703158998141,-1.7101911145135267e-05,0.4629703158998141,7.807398036372154e-06,0.4629703158998141,-1.7384425913467863e-05
0.4637644330797452,-4.358991739355545e-05,0.4637644330797452,-1.9126983627341903e-05,0.4637644330797452,1.1680797736885312e-05,0.4637644330797452,-1.999446364918042e-05
0.4645585502596763,-4.61585e-05,0.4645585502596763,-1.35958e-05,0.4645585502596763,7.277563647337356e-06,0.4645585502596763,-1.8967e-05
0.4653526674396073,-3.5913600156068065e-05,0.4653526674396073,-2.1193892270730048e-05,0.4653526674396073,1.393326471544425e-06,0.4653526674396073,-2.273784780782139e-05
0.4661467846195384,-2.114560315145621e-05,0.4661467846195384,-2.915541427908381e-05,0.4661467846195384,-8.582709678714957e-07,0.4661467846195384,-2.0233696857314397e-05
0.4669409017994695,-9.631202644961632e-06,0.4669409017994695,-4.94547024828132e-05,0.4669409017994695,-3.18914e-06,0.4669409017994695,-1.5138350454680834e-05
0.4677350189794005,-2.3821546243720084e-06,0.4677350189794005,-8.975646877113348e-05,0.4677350189794005,-4.984430642711536e-06,0.4677350189794005,-1.2411457633541771e-05
0.4685291361593316,1.0077084318899683e-05,0.4685291361593316,-0.0001059934131018,0.4685291361593316,-8.540335359174409e-06,0.4685291361593316,-1.1443711961238386e-05
0.4693232533392627,3.4152903562824585e-05,0.4693232533392627,-5.566480253441063e-05,0.4693232533392627,-1.014011670378105e-05,0.4693232533392627,-9.784593413202593e-06
0.4701173705191938,5.4967453258897765e-05,0.4701173705191938,-4.503797620936972e-06,0.4701173705191938,-1.480103247208666e-05,0.4701173705191938,-1.0120484292849207e-05
0.4709114876991248,6.461203059328059e-05,0.4709114876991248,-7.604865375957305e-07,0.4709114876991248,-2.1632643557443277e-05,0.4709114876991248,-1.3970783320803114e-05
0.4717056048790559,5.378490316888688e-05,0.4717056048790559,-9.71134751736112e-06,0.4717056048790559,-1.5611961539173627e-05,0.4717056048790559,-1.5985540271618876e-05
0.472499722058987,3.391240772883254e-05,0.472499722058987,5.196678239631779e-06,0.472499722058987,-8.897611793143897e-06,0.472499722058987,-1.4603300449777076e-05
0.473293839238918,1.5559307115656295e-05,0.473293839238918,-6.647809005866992e-06,0.473293839238918,-5.984622542195338e-06,0.473293839238918,-1.399188488167922e-05
0.4740879564188491,2.3861944562467173e-06,0.4740879564188491,-3.869926629977247e-05,0.4740879564188491,-2.3020071414395022e-06,0.4740879564188491,-1.1926225003652048e-05
0.4748820735987802,-5.734217085627157e-06,0.4748820735987802,-5.079934409591326e-05,0.4748820735987802,-2.0961463235354592e-06,0.4748820735987802,-1.21749247005999e-05
0.4756761907787112,-8.045647899854786e-06,0.4756761907787112,-4.462814243895074e-05,0.4756761907787112,5.353032994320407e-06,0.4756761907787112,-1.1029509251444752e-05
0.4764703079586423,-8.836052176589304e-06,0.4764703079586423,-5.2721598275948326e-05,0.4764703079586423,1.3298447482542884e-05,0.4764703079586423,-1.0178846891010792e-05
0.4772644251385734,-1.071177020196263e-05,0.4772644251385734,-6.683801896668963e-05,0.4772644251385734,5.7605558320628586e-06,0.4772644251385734,-1.264714183496886e-05
0.4780585423185045,-1.2568877325423546e-05,0.4780585423185045,-2.5880264470273883e-05,0.4780585423185045,-7.492458279934236e-06,0.4780585423185045,-1.4879131976270637e-05
0.4788526594984356,-1.5154271553571478e-05,0.4788526594984356,3.4331165958408176e-05,0.4788526594984356,-1.256847028145047e-05,0.4788526594984356,-1.4248320146319133e-05
0.4796467766783666,-2.1728599125729814e-05,0.4796467766783666,4.769952246588734e-05,0.4796467766783666,-1.4305217173260431e-05,0.4796467766783666,-8.848492055503563e-06
0.4804408938582977,-2.7033410707114368e-05,0.4804408938582977,2.1516322007783985e-05,0.4804408938582977,-1.872837815301648e-05,0.4804408938582977,-6.959481944050637e-06
0.4812350110382288,-2.6037467220059613e-05,0.4812350110382288,-9.316193571202816e-06,0.4812350110382288,-1.9796869074963943e-05,0.4812350110382288,-1.053279152294042e-05
0.4820291282181598,-2.2314996320040643e-05,0.4820291282181598,-3.124863426799217e-05,0.4820291282181598,-7.163662243115823e-06,0.4820291282181598,-1.045661990794178e-05
0.4828232453980909,-1.8947209268594973e-05,0.4828232453980909,-4.1611924503477874e-05,0.4828232453980909,2.7498038164712123e-05,0.4828232453980909,-9.87347753730562e-06
0.483617362578022,-1.7881010612653734e-05,0.483617362578022,-4.637482942151824e-05,0.483617362578022,4.560628603855936e-05,0.483617362578022,-8.698366427855967e-06
0.484411479757953,-2.463394741386757e-05,0.484411479757953,-4.305822877898409e-05,0.484411479757953,5.074933537813536e-05,0.484411479757953,-9.083481594853648e-06
0.4852055969378841,-2.398350076487328e-05,0.4852055969378841,-3.567662788356591e-05,0.4852055969378841,4.529401902360528e-05,0.4852055969378841,-1.3061806834746167e-05
0.4859997141178152,-2.031103561224986e-05,0.4859997141178152,-3.0718249145461314e-05,0.4859997141178152,2.0655385327435623e-05,0.4859997141178152,-1.6783561384276256e-05
0.4867938312977463,-2.06455e-05,0.4867938312977463,-3.318529922898094e-05,0.4867938312977463,-4.274443898864862e-06,0.4867938312977463,-2.2401167778044683e-05
0.4875879484776773,-1.8002032628615228e-05,0.4875879484776773,-3.571315740286596e-05,0.4875879484776773,-1.9829798641833587e-05,0.4875879484776773,-2.2165010671971616e-05
0.4883820656576084,-1.3283544666509392e-05,0.4883820656576084,-3.547514563105643e-05,0.4883820656576084,-2.997466600047182e-05,0.4883820656576084,-2.488848135528637e-05
0.4891761828375395,-1.0358120692866906e-05,0.4891761828375395,-3.5001433667926804e-05,0.4891761828375395,-4.454768841822003e-05,0.4891761828375395,-2.6382139059178363e-05
0.4899703000174705,-7.318297235935921e-06,0.4899703000174705,-2.449385415807572e-05,0.4899703000174705,-5.853610494901977e-05,0.4899703000174705,-2.6707162299849192e-05
0.4907644171974016,-4.511520585130629e-06,0.4907644171974016,-1.6737241815962137e-05,0.4907644171974016,-5.5079143674704254e-05,0.4907644171974016,-2.76951e-05
0.4915585343773327,-9.96120406571369e-06,0.4915585343773327,-5.253317993820545e-06,0.4915585343773327,-3.581414517424968e-05,0.4915585343773327,-2.4852255668311265e-05
0.4923526515572637,-1.4148551027469786e-05,0.4923526515572637,5.90637869472641e-06,0.4923526515572637,-1.3306265366833404e-05,0.4923526515572637,-1.4191877395664684e-05
0.4931467687371948,-1.1108678149881291e-05,0.4931467687371948,2.336743112973158e-05,0.4931467687371948,3.4592961799902826e-06,0.4931467687371948,-3.744444127876396e-06
0.4939408859171259,-8.898876448680108e-06,0.4939408859171259,2.951250722076109e-05,0.4939408859171259,2.5089354265017983e-05,0.4939408859171259,2.1957164220376257e-06
0.494735003097057,-4.671669188709819e-06,0.494735003097057,1.3685608233808864e-05,0.494735003097057,5.639388992025325e-05,0.494735003097057,1.2505177712973424e-05
0.495529120276988,-2.2609656190824984e-06,0.495529120276988,-1.4146871475941378e-05,0.495529120276988,6.763429220300319e-05,0.495529120276988,1.8137748761835004e-05
0.4963232374569191,-3.643315469046175e-06,0.4963232374569191,-3.3440540471784655e-05,0.4963232374569191,6.200549887088462e-05,0.4963232374569191,1.7308229920246038e-05
0.4971173546368502,-3.011240531578347e-06,0.4971173546368502,-4.80308355018299e-05,0.4971173546368502,6.268706635068991e-05,0.4971173546368502,8.934716505194414e-06
0.4979114718167812,5.479163363366741e-06,0.4979114718167812,-4.55068327551399e-05,0.4979114718167812,6.071262289115064e-05,0.4979114718167812,2.2811038141301154e-06
0.4987055889967123,9.527532392901095e-06,0.4987055889967123,-1.972142100500898e-05,0.4987055889967123,4.1485171406758606e-05,0.4987055889967123,-2.299504610065885e-06
0.4994997061766434,1.0909776667378509e-05,0.4994997061766434,5.865977690810224e-06,0.4994997061766434,1.058614158403875e-05,0.4994997061766434,-4.867206667378511e-06
0.5002938233565745,1.053589805934158e-05,0.5002938233565745,6.545475670197344e-06,0.5002938233565745,-2.53450874059521e-06,0.5002938233565745,-6.634238283882015e-06
0.5010879405365055,3.944873731918618e-06,0.5010879405365055,-2.540312267292003e-06,0.5010879405365055,-8.60491667640284e-06,0.5010879405365055,-8.775996994450735e-06
0.5018820577164366,-1.096888562680105e-06,0.5018820577164366,-1.0760236881368086e-05,0.5018820577164366,-1.4056302190201895e-05,0.5018820577164366,-1.0355878551017684e-05
0.5026761748963677,7.386030533222776e-07,0.5026761748963677,-1.7071250262929086e-05,0.5026761748963677,-1.904173932855496e-05,0.5026761748963677,-1.2350035731421982e-05
0.5034702920762988,1.7072162876406032e-06,0.5034702920762988,-2.5164038921261903e-05,0.5034702920762988,-2.3153574570786467e-05,0.5034702920762988,-1.4660352575281206e-05
0.5042644092562298,2.044840324841053e-06,0.5042644092562298,-2.776277641987922e-05,0.5042644092562298,-1.644341398825861e-05,0.5042644092562298,-1.738774922328528e-05
0.5050585264361609,-2.970965162352638e-06,0.5050585264361609,-3.595234969180882e-05,0.5050585264361609,-1.410614514598731e-07,0.5050585264361609,-1.519565658686406e-05
0.505852643616092,-8.302740006826054e-06,0.505852643616092,-4.583856108860644e-05,0.505852643616092,1.158013853742217e-05,0.505852643616092,-1.6912271766736197e-05
0.506646760796023,-1.0080454702961688e-05,0.506646760796023,-4.905152165400259e-05,0.506646760796023,5.287979333251509e-06,0.506646760796023,-2.0584162618752213e-05
0.507440877975954,-1.055509583542416e-05,0.507440877975954,-5.036451602682391e-05,0.507440877975954,-5.655454409434056e-06,0.507440877975954,-2.3686104164575843e-05
0.5082349951558852,-9.982345978904169e-06,0.5082349951558852,-4.9536863886350606e-05,0.5082349951558852,-8.322574423906467e-06,0.5082349951558852,-2.40024e-05
0.5090291123358163,-1.0594508965092135e-05,0.5090291123358163,-4.111396156001277e-05,0.5090291123358163,-1.714616402125733e-05,0.5090291123358163,-2.459490075118031e-05
0.5098232295157473,-8.817052667898089e-06,0.5098232295157473,-3.324900878909079e-05,0.5098232295157473,-3.888162725028736e-05,0.5098232295157473,-2.070480777900847e-05
0.5106173466956784,-5.400609623163051e-06,0.5106173466956784,-2.8370449600063604e-05,0.5106173466956784,-5.909394916553211e-05,0.5106173466956784,-1.2874551713256124e-05
0.5114114638756094,-6.86183637679658e-06,0.5114114638756094,-1.869062213014559e-05,0.5114114638756094,-6.661615756736097e-05,0.5114114638756094,-1.5036909478233844e-05
0.5122055810555405,-8.264504805969349e-06,0.5122055810555405,-1.714434613647238e-05,0.5122055810555405,-6.178134037077721e-05,0.5122055810555405,-1.8375383737484693e-05
0.5129996982354716,-5.54033431565534e-06,0.5129996982354716,-2.383216018436623e-05,0.5129996982354716,-4.784265206256756e-05,0.5129996982354716,-1.359797387021829e-05
0.5137938154154027,-2.6965215179070257e-06,0.5137938154154027,-1.963779535140601e-05,0.5137938154154027,-1.953807566559273e-05,0.5137938154154027,-1.1028566039238949e-05
0.5145879325953338,-3.108011479717196e-06,0.5145879325953338,-1.2608061025536712e-05,0.5145879325953338,1.8527030847084663e-05,0.5145879325953338,-1.4422846093594016e-05
0.5153820497752648,-7.037900640274896e-06,0.5153820497752648,-1.1937837287510755e-05,0.5153820497752648,4.843779081581393e-05,0.5153820497752648,-1.8315104413525667e-05
0.5161761669551959,-7.672561798178238e-06,0.5161761669551959,-4.650447315276256e-06,0.5161761669551959,5.238381667267473e-05,0.5161761669551959,-1.666925773339626e-05
0.5169702841351269,-9.783103257444564e-06,0.5169702841351269,-4.647799206887218e-06,0.5169702841351269,3.617448757893843e-05,0.5169702841351269,-1.633881825101421e-05
0.5177644013150581,-1.0831388795139489e-05,0.5177644013150581,-9.288773145195658e-06,0.5177644013150581,2.945241120486051e-05,0.5177644013150581,-2.0003239750489804e-05
0.5185585184949891,-1.2469660758294868e-05,0.5185585184949891,-2.3731764805509705e-05,0.5185585184949891,2.8761719620852566e-05,0.5185585184949891,-1.938205949447009e-05
0.5193526356749202,-3.280264289625299e-05,0.5193526356749202,-4.8088723770965765e-05,0.5193526356749202,1.5792531841055622e-05,0.5193526356749202,-1.730878131567285e-05
0.5201467528548512,-4.357226200699543e-05,0.5201467528548512,-4.5272220374179845e-05,0.5201467528548512,1.053436509908957e-05,0.5201467528548512,-1.6498881003497714e-05
0.5209408700347823,-3.651274705313437e-05,0.5209408700347823,-4.97303876852563e-05,0.5209408700347823,1.05745e-05,0.5209408700347823,-1.334362096754177e-05
0.5217349872147133,-1.856098247941143e-05,0.5217349872147133,-7.767881802716036e-05,0.5217349872147133,1.05745e-05,0.5217349872147133,-7.436579536517794e-06
0.5225291043946444,-2.0665685770931203e-06,0.5225291043946444,-6.683858289204938e-05,0.5225291043946444,1.371359898371364e-05,0.5225291043946444,-7.848874485159868e-06
0.5233232215745756,4.3146925862018255e-06,0.5233232215745756,9.438233117285024e-06,0.5233232215745756,1.4286887758605475e-05,0.5233232215745756,-8.441847413798176e-06
0.5241173387545066,5.460106214571514e-06,0.5241173387545066,8.227837899431775e-05,0.5241173387545066,1.979679539471484e-05,0.5241173387545066,-7.592680717203587e-06
0.5249114559344377,7.612349203918486e-06,0.5249114559344377,8.766697715655748e-05,0.5249114559344377,2.24722680056542e-05,0.5249114559344377,-1.0870179542683564e-05
0.5257055731143687,6.901774533891646e-06,0.5257055731143687,5.545696230370916e-05,0.5257055731143687,1.2493600658145974e-05,0.5257055731143687,-1.8155882948039598e-05
0.5264996902942998,7.217073784534094e-06,0.5264996902942998,2.602741750094803e-05,0.5264996902942998,1.178286602702202e-06,0.5264996902942998,-2.299373831232978e-05
0.5272938074742308,6.447075847525349e-06,0.5272938074742308,-8.604608625523038e-07,0.5272938074742308,4.045041425630388e-07,0.5272938074742308,-2.2048747106129623e-05
0.528087924654162,1.440720276346706e-05,0.528087924654162,-2.657127089499017e-05,0.528087924654162,2.278786666012535e-07,0.528087924654162,-1.6245847174146455e-05
0.528882041834093,2.2620585282354744e-05,0.528882041834093,-4.960725968233754e-05,0.528882041834093,-2.790841861326812e-06,0.528882041834093,-1.3634814717645256e-05
0.5296761590140241,2.190990737433232e-05,0.5296761590140241,-6.386176736807564e-05,0.5296761590140241,-6.799779217736295e-06,0.5296761590140241,-1.2137312694201698e-05
0.5304702761939551,1.7401570752542015e-05,0.5304702761939551,-5.521362780802846e-05,0.5304702761939551,-5.30422737035786e-06,0.5304702761939551,-5.93736670408958e-06
0.5312643933738862,6.5492238119533474e-06,0.5312643933738862,-4.2565139455771925e-05,0.5312643933738862,-2.8329595891000084e-06,0.5312643933738862,-3.3262705573986595e-06
0.5320585105538173,-1.2923395093980165e-06,0.5320585105538173,-4.382483707328662e-05,0.5320585105538173,-8.282472689504264e-06,0.5320585105538173,-7.710300722660518e-06
0.5328526277337483,-3.799637990745095e-06,0.5328526277337483,-3.868967523983183e-05,0.5328526277337483,-1.379253531371451e-05,0.5328526277337483,-7.899065722469611e-06
0.5336467449136795,-1.0078139113489865e-05,0.5336467449136795,-1.2751372183554242e-05,0.5336467449136795,-1.2413667365114142e-05,0.5336467449136795,-9.714029427791229e-06
0.5344408620936105,-1.3989678095645618e-05,0.5344408620936105,-1.722596196652804e-05,0.5344408620936105,-3.295131412793241e-06,0.5344408620936105,-1.0813237084936737e-05
0.5352349792735416,-1.647725547804187e-05,0.5352349792735416,-5.17273532775076e-05,0.5352349792735416,6.2664356780033296e-06,0.5352349792735416,-7.94950474067198e-06
0.5360290964534726,-1.977620222809505e-05,0.5360290964534726,-5.3309713679798345e-05,0.5360290964534726,8.204578152063369e-06,0.5360290964534726,-6.388285923968316e-06
0.5368232136334037,-1.848322724782039e-05,0.5368232136334037,-2.463739544124856e-05,0.5368232136334037,1.2874859688886787e-05,0.5368232136334037,-8.579961670097276e-06
0.5376173308133347,-1.9717554554360557e-05,0.5376173308133347,-2.797932650918008e-05,0.5376173308133347,1.6814657431544685e-05,0.5376173308133347,-1.1127497122815872e-05
0.5384114479932659,-2.1919135307676e-05,0.5384114479932659,-4.1557359915361154e-05,0.5384114479932659,7.071192740793905e-06,0.5384114479932659,-1.0317964572004182e-05
0.539205565173197,-2.0251135022432545e-05,0.539205565173197,-4.158002821097422e-06,0.539205565173197,-1.5860920406820123e-05,0.539205565173197,-1.3238912443918644e-05
0.539999682353128,-1.6618930627552612e-05,0.539999682353128,2.6679370715717184e-05,0.539999682353128,-3.3396508117342164e-05,0.539999682353128,-1.5274528828444078e-05
0.5407937995330591,-1.515593969548256e-05,0.5407937995330591,1.2469197292064185e-05,0.5407937995330591,-4.547079210022708e-05,0.5407937995330591,-1.068450973195922e-05
0.5415879167129901,-1.2592069357320398e-05,0.5415879167129901,-9.102130493747344e-06,0.5415879167129901,-4.8472904504284215e-05,0.5415879167129901,-1.201283639657263e-05
0.5423820338929212,-8.739975223493376e-06,0.5423820338929212,-2.141266032898655e-05,0.5423820338929212,-3.880507538421359e-05,0.5423820338929212,-1.5485238425360088e-05
0.5431761510728523,-7.001186458555724e-06,0.5431761510728523,-2.943267721454854e-05,0.5431761510728523,-2.5315431044112964e-05,0.5431761510728523,-1.0223923744182509e-05
0.5439702682527834,-7.236636534160485e-06,0.5439702682527834,-3.206964457557528e-05,0.5439702682527834,-5.78986795682805e-06,0.5439702682527834,-6.172192216405484e-06
0.5447643854327144,-1.019780576017937e-05,0.5447643854327144,-3.096344380467874e-05,0.5447643854327144,1.629708317728864e-05,0.5447643854327144,-4.610729763438282e-06
0.5455585026126455,-1.2253e-05,0.5455585026126455,-3.184989571870653e-05,0.5455585026126455,2.450506656972604e-05,0.5455585026126455,-6.7627125534718174e-06
0.5463526197925765,-1.02388e-05,0.5463526197925765,-3.708922561513494e-05,0.5463526197925765,3.280541809912841e-05,0.5463526197925765,-1.3514537144979129e-05
0.5471467369725076,-1.02388e-05,0.5471467369725076,-4.4794754042433865e-05,0.5471467369725076,4.773304307902175e-05,0.5471467369725076,-1.651781506094966e-05
0.5479408541524387,-1.2466256620882088e-05,0.5479408541524387,-4.665288003409915e-05,0.5479408541524387,4.9327757705648696e-05,0.5479408541524387,-1.687525213786106e-05
0.5487349713323698,-1.671501057688762e-05,0.5487349713323698,-3.6213875440901785e-05,0.5487349713323698,3.0017051923573325e-05,0.5487349713323698,-1.4712432799282143e-05
0.5495290885123009,-1.4031716446793978e-05,0.5495290885123009,-2.2226053381811755e-05,0.5495290885123009,6.59124647531524e-06,0.5495290885123009,-1.4425028355320602e-05
0.5503232056922319,-1.0969419851678678e-05,0.5503232056922319,-1.5417315748871156e-05,0.5503232056922319,-1.3121316143645647e-05,0.5503232056922319,-1.3358920593285285e-05
0.551117322872163,-1.12459e-05,0.551117322872163,-1.3080890036822204e-05,0.551117322872163,-2.1494706565033235e-05,0.551117322872163,-1.254922664125831e-05
0.551911440052094,-4.197328463452873e-06,0.551911440052094,-2.1375649713827157e-05,0.551911440052094,-1.288646004879417e-05,0.551911440052094,-1.0397169422521963e-05
0.5527055572320251,4.609267688444569e-06,0.5527055572320251,-3.2689351543667255e-05,0.5527055572320251,2.623128271828348e-06,0.5527055572320251,-9.093181022756226e-06
0.5534996744119562,1.0236689071577648e-05,0.5534996744119562,-2.0653502627899947e-05,0.5534996744119562,6.882406372887802e-06,0.5534996744119562,-9.56741e-06
0.5542937915918873,5.128980566842153e-06,0.5542937915918873,5.065742266237664e-06,0.5542937915918873,-8.943228609108539e-07,0.5542937915918873,-9.704991713714444e-06
0.5550879087718184,-1.899499626681993e-06,0.5550879087718184,9.723296930328024e-06,0.5550879087718184,-9.81843932624558e-06,0.5550879087718184,-1.2408542899347384e-05
0.5558820259517494,-1.5515292433285323e-05,0.5558820259517494,-1.4061069016059587e-05,0.5558820259517494,-1.2003653549429862e-05,0.5558820259517494,-1.56880065032356e-05
0.5566761431316805,-2.9977698900198e-05,0.5566761431316805,-2.8080093392349358e-05,0.5566761431316805,-4.517106671834617e-06,0.5566761431316805,-1.6833422100022e-05
0.5574702603116115,-2.5312499371810617e-05,0.5574702603116115,-3.3178953537047606e-05,0.5574702603116115,-2.321232360892884e-06,0.5574702603116115,-1.8156407639107115e-05
0.5582643774915427,-9.810394064082098e-06,0.5582643774915427,-4.2702319452106896e-05,0.5582643774915427,-6.028650453965788e-07,0.5582643774915427,-2.1118240784798604e-05
0.5590584946714737,6.997224331608201e-06,0.5590584946714737,-4.0259692464988747e-05,0.5590584946714737,-1.727198214711922e-06,0.5590584946714737,-2.455465756404824e-05
0.5598526118514048,1.9733424885623764e-05,0.5598526118514048,-3.989551076139862e-05,0.5598526118514048,-8.085602984834005e-06,0.5598526118514048,-2.5306211770141883e-05
0.5606467290313358,2.510879640507764e-05,0.5606467290313358,-3.938654888278736e-05,0.5606467290313358,-6.880009451494111e-07,0.5606467290313358,-2.136890052939097e-05
0.5614408462112669,1.816615041949402e-05,0.5614408462112669,-2.896062837033801e-05,0.5614408462112669,1.0038768627647575e-05,0.5614408462112669,-1.6914037534957836e-05
0.5622349633911979,3.39445868375841e-06,0.5622349633911979,-1.321041166148241e-05,0.5622349633911979,1.1740137723497204e-05,0.5622349633911979,-1.910214252076537e-05
0.563029080571129,-9.1301058311759e-06,0.563029080571129,-7.473918088312806e-06,0.563029080571129,6.379582307119603e-06,0.563029080571129,-2.4969390538437744e-05
0.5638231977510602,-1.641960175401741e-05,0.5638231977510602,-1.536374475717936e-05,0.5638231977510602,-2.1219066788181502e-06,0.5638231977510602,-2.237356044434186e-05
0.5646173149309912,-1.3319190917553487e-05,0.5646173149309912,-2.13190199921188e-05,0.5646173149309912,-2.161354354879269e-05,0.5646173149309912,-1.6656445491560865e-05
0.5654114321109223,-6.922018327475606e-06,0.5654114321109223,-1.2214043693514929e-05,0.5654114321109223,-3.077550068660906e-05,0.5654114321109223,-9.489406954257488e-06
0.5662055492908533,-4.097650221635593e-06,0.5662055492908533,-1.6978935555404216e-05,0.5662055492908533,-2.1302171885876203e-05,0.5662055492908533,-7.008384514646797e-06
0.5669996664707844,-4.866909190401266e-06,0.5669996664707844,-3.0040038126346038e-05,0.5669996664707844,-5.544796455318033e-06,0.5669996664707844,-1.3593036903695466e-05
0.5677937836507154,-4.69153380668955e-06,0.5677937836507154,-2.4792065711698543e-05,0.5677937836507154,-2.891955945452731e-06,0.5677937836507154,-1.1267929460610296e-05
0.5685879008306466,-2.655558083544202e-06,0.5685879008306466,-1.4880578561571934e-05,0.5685879008306466,-7.897761103466297e-06,0.5685879008306466,-8.422491916455798e-06
