X [s],R BICEPS BRACHII: EMG 1 [V],X [s].1,R DELTOID ANTERIOR: EMG 2 [V],X [s].5,R DELTOID MEDIUS: EMG 6 [V],X [s].6,R DELTOID POSTERIOR: EMG 7 [V]
0.0,-8.89601e-06,0.0,-2.43381e-05,0.0,9.9031e-06,0.0,-8.61067e-05
0.000794117179931,-5.9339683949895655e-06,0.000794117179931,-2.487127105132529e-05,0.000794117179931,2.1435310726689632e-05,0.000794117179931,-3.09829736823517e-05
0.0015882343598621,-5.697000855797229e-06,0.0015882343598621,-2.4871264167632752e-05,0.0015882343598621,3.589012492031056e-05,0.0015882343598621,1.6419584423279786e-05
0.0023823515397932,-8.027156246208442e-06,0.0023823515397932,-2.2264714895781864e-05,0.0023823515397932,4.02345261955272e-05,0.0023823515397932,6.772193901996625e-05
0.0031764687197242,-5.163836612884493e-06,0.0031764687197242,-2.295580480854433e-05,0.0031764687197242,3.055843351042096e-05,0.0031764687197242,0.0001227173975099
0.0039705858996553,-5.22306859990678e-06,0.0039705858996553,-2.1573597330698256e-05,0.0039705858996553,1.7762514000932204e-05,0.0039705858996553,0.0001346645801602
0.0047647030795864,-4.13699491932674e-06,0.0047647030795864,-2.042827492562896e-05,0.0047647030795864,6.23018124942098e-06,0.0047647030795864,0.0001118369995651
0.0055588202595174,-2.379517306710702e-06,0.0055588202595174,-2.1455122901681423e-05,0.0055588202595174,-4.531855269363631e-06,0.0055588202595174,6.716970818158218e-05
0.0063529374394485,-5.726615098709966e-06,0.0063529374394485,-2.2165952650844863e-05,0.0063529374394485,-1.1305136721104725e-05,0.0063529374394485,3.2849134254189014e-05
0.0071470546193796,-6.407913031541544e-06,0.0071470546193796,-2.0625762292427298e-05,0.0071470546193796,-1.5136089502270636e-05,0.0071470546193796,-2.319866811040188e-06
0.0079411717993107,-4.650404278986147e-06,0.0079411717993107,-1.9914866340322366e-05,0.0079411717993107,-1.3714274867184277e-05,0.0079411717993107,-7.354740608076127e-05
0.0087352889792417,-8.599766646464008e-06,0.0087352889792417,-1.813762779116308e-05,0.0087352889792417,-1.8177067866718175e-05,0.0087352889792417,-0.0001350786425092
0.0095294061591728,-8.817034650743816e-06,0.0095294061591728,-1.9006488345831232e-05,0.0095294061591728,-1.805865026563145e-05,0.0095294061591728,-0.0001005815586989
0.0103235233391039,-5.479805929243426e-06,0.0103235233391039,-2.0902222167625223e-05,0.0103235233391039,-9.528114679313764e-06,0.0103235233391039,-4.886492525505568e-05
0.0111176405190349,-3.722281748227224e-06,0.0111176405190349,-2.0507263407972184e-05,0.0111176405190349,-2.063502542319538e-06,0.0111176405190349,-2.2837298725779896e-05
0.011911757698966,-2.448637614976268e-06,0.011911757698966,-2.03098e-05,0.011911757698966,4.8876709932564815e-06,0.011911757698966,-5.04424995065772e-06
0.0127058748788971,-3.722247387092444e-06,0.0127058748788971,-2.0902188749919453e-05,0.0127058748788971,1.1936860854823556e-05,0.0127058748788971,2.137555316062987e-05
0.0134999920588282,-5.203312819432611e-06,0.0134999920588282,-2.0309807701040065e-05,0.0134999920588282,1.3260105726855796e-05,0.0134999920588282,2.1652680174275208e-05
0.0142941092387592,-6.862181909920564e-06,0.0142941092387592,-2.1336628582520653e-05,0.0142941092387592,9.577242278303426e-06,0.0142941092387592,1.5452099263710926e-05
0.0150882264186903,-9.98198583243578e-06,0.0150882264186903,-2.1672337516861223e-05,0.0150882264186903,1.2677342656988135e-05,0.0150882264186903,2.183048126770308e-05
0.0158823435986214,-9.291058904480192e-06,0.0158823435986214,-2.1001034295617095e-05,0.0158823435986214,1.0219453409788474e-05,0.0158823435986214,5.835399244687078e-07
0.0166764607785524,-6.526358811170413e-06,0.0166764607785524,-1.994438646918176e-05,0.0166764607785524,-4.393838946445937e-06,0.0166764607785524,-3.914882435919911e-05
0.0174705779584835,-6.249872220515749e-06,0.0174705779584835,-2.09812e-05,0.0174705779584835,-1.2381276984719195e-05,0.0174705779584835,-6.617197201329186e-05
0.0182646951384146,-6.822704758587404e-06,0.0182646951384146,-1.98260341300628e-05,0.0182646951384146,-9.883678961004308e-06,0.0182646951384146,-5.8737747219147495e-05
0.0190588123183456,-4.275233606714075e-06,0.0190588123183456,-1.8542394111025217e-05,0.0190588123183456,-2.1228514467997303e-06,0.0190588123183456,-5.457075090167852e-05
0.0198529294982767,-3.3272977594177057e-06,0.0198529294982767,-2.177083118791463e-05,0.0198529294982767,9.19260817886098e-06,0.0198529294982767,-4.74022411195302e-05
0.0206470466782078,-5.133695065911918e-07,0.0206470466782078,-2.43381e-05,0.0206470466782078,2.1562969259056264e-05,0.0206470466782078,-4.248554442453944e-05
0.0214411638581389,-3.0903574360509696e-06,0.0214411638581389,-2.174151499203393e-05,0.0214411638581389,2.93736e-05,0.0214411638581389,-5.653468363632036e-05
0.0222352810380699,-4.19623e-06,0.0222352810380699,-2.1563733842010864e-05,0.0222352810380699,2.93736e-05,0.0222352810380699,-9.641497742003684e-05
0.023029398218001,-3.880288110897973e-06,0.023029398218001,-2.242273373701059e-05,0.023029398218001,2.9215629055448984e-05,0.023029398218001,-0.0001269929380549
0.0238235153979321,-6.802601674982046e-06,0.0238235153979321,-2.1099686715605864e-05,0.0238235153979321,2.577972662439689e-05,0.0238235153979321,-0.0001289781731409
0.0246176325778631,-1.001175117913238e-05,0.0246176325778631,-2.1790831458480015e-05,0.0246176325778631,2.511815000260344e-05,0.0246176325778631,-9.522991749767562e-05
0.0254117497577942,-7.701252622077794e-06,0.0254117497577942,-1.9934596925110072e-05,0.0254117497577942,2.290630012896941e-05,0.0254117497577942,-2.303207373786913e-05
0.0262058669377253,-6.52632445003564e-06,0.0262058669377253,-2.066518347413185e-05,0.0262058669377253,1.239208899750767e-05,0.0262058669377253,5.2947876431748485e-05
0.0269999841176564,-8.895941278071631e-06,0.0269999841176564,-2.2323884597919878e-05,0.0269999841176564,-4.8672634829349705e-06,0.0269999841176564,0.0001059121066104
0.0277941012975874,-1.0377048251772777e-05,0.0277941012975874,-2.0625781684574955e-05,0.0277941012975874,-1.3003444755318326e-05,0.0277941012975874,0.0001272200378775
0.0285882184775185,-1.1147173212733858e-05,0.0285882184775185,-1.9727192781470552e-05,0.0285882184775185,-1.673503866324094e-05,0.0285882184775185,0.0001169354712371
0.0293823356574496,-1.166054633815611e-05,0.0293823356574496,-2.1445201419394617e-05,0.0293823356574496,-2.722070971971722e-05,0.0293823356574496,5.478944745922989e-05
0.0301764528373806,-1.2253e-05,0.0301764528373806,-1.976672496627755e-05,0.0301764528373806,-3.401415874867603e-05,0.0301764528373806,3.667008748676036e-05
0.0309705700173117,-1.156188769410844e-05,0.0309705700173117,-2.0013604074595056e-05,0.0309705700173117,-3.003531801501524e-05,0.0309705700173117,5.163799645044284e-05
0.0317646871972428,-1.1482773375603112e-05,0.0317646871972428,-2.206710615578041e-05,0.0317646871972428,-2.508899885045986e-05,0.0317646871972428,6.4640810235688e-05
0.0325588043771738,-1.2568943371465684e-05,0.0325588043771738,-2.423937133940153e-05,0.0325588043771738,-7.079710478469268e-06,0.0325588043771738,7.739809394345091e-05
0.0333529215571049,-1.1877759976965653e-05,0.0333529215571049,-2.4081360336517984e-05,0.0333529215571049,2.402272494180644e-05,0.0333529215571049,6.217273030287521e-05
0.034147038737036,-8.955567739185327e-06,0.034147038737036,-2.45948139907993e-05,0.034147038737036,3.415258792671325e-05,0.034147038737036,7.183033450051897e-06
0.0349411559169671,-7.2964313893539424e-06,0.0349411559169671,-2.3133594024168495e-05,0.0349411559169671,2.8919741144960726e-05,0.0349411559169671,-5.123313189085133e-05
0.0357352730968981,-7.790176925552781e-06,0.0357352730968981,-2.404188321098533e-05,0.0357352730968981,2.2027754306447352e-05,0.0357352730968981,-5.004861993210729e-05
0.0365293902768292,-2.4388505585485712e-06,0.0365293902768292,-2.3627426164118893e-05,0.0365293902768292,1.8394447810747865e-05,0.0365293902768292,-5.968453564219056e-05
0.0373235074567603,-2.320039172504692e-06,0.0373235074567603,-2.1731589646141757e-05,0.0373235074567603,1.0653775593405351e-05,0.0373235074567603,-9.333251659753166e-05
0.0381176246366913,-5.568614864949902e-06,0.0381176246366913,-2.090222102520336e-05,0.0381176246366913,7.592720626657504e-06,0.0381176246366913,-0.0001236649532934
0.0389117418166224,-4.472662447518119e-06,0.0389117418166224,-1.9046032220029596e-05,0.0389117418166224,1.3919957390289891e-06,0.0389117418166224,-0.0001232500981694
0.0397058589965535,-2.4982610851833247e-06,0.0397058589965535,-1.8947230349096944e-05,0.0397058589965535,-2.892721879047574e-06,0.0397058589965535,-4.918626036944252e-05
0.0404999761764846,1.1748369173121451e-06,0.0404999761764846,-1.9974069192780736e-05,0.0404999761764846,-7.553048194837863e-06,0.0404999761764846,2.2490193624113823e-05
0.0412940933564156,1.84634e-06,0.0412940933564156,-2.129719195167055e-05,0.0412940933564156,-1.9283041576734187e-05,0.0412940933564156,2.3153258004847044e-05
0.0420882105363467,1.0566753227983358e-06,0.0420882105363467,-2.16526e-05,0.0420882105363467,-3.333208015214735e-05,0.0420882105363467,2.7773945587872827e-05
0.0428823277162778,-3.386476035435328e-06,0.0428823277162778,-2.106027137865707e-05,0.0428823277162778,-4.090580232666678e-05,0.0428823277162778,2.13372257012032e-05
0.0436764448962088,-4.314723956359526e-06,0.0436764448962088,-2.0250589272475363e-05,0.0436764448962088,-3.737125165087621e-05,0.0436764448962088,1.116696978179763e-05
0.0444705620761399,-3.061473647547979e-07,0.0444705620761399,-1.948039702362006e-05,0.0444705620761399,-2.6273716482073e-05,0.0444705620761399,1.1877898290720084e-05
0.045264679256071,-1.7276021032196169e-06,0.045264679256071,-1.981603765175101e-05,0.045264679256071,-2.222483698831832e-05,0.045264679256071,-1.9446007159927422e-05
0.046058796436002,-4.788580578439552e-06,0.046058796436002,-2.017156759027002e-05,0.046058796436002,-3.13381370133476e-05,0.046058796436002,-0.0001031265360745
0.0468529136159331,-5.302076448415733e-06,0.0468529136159331,-2.03098e-05,0.0468529136159331,-2.5739996170595475e-05,0.0468529136159331,-0.0001590031021258
0.0476470307958642,-4.522124968297666e-06,0.0476470307958642,-1.9796382287474485e-05,0.0476470307958642,-4.2966104074528e-06,0.0476470307958642,-0.0001616217952136
0.0484411479757953,-4.926796214701808e-06,0.0484411479757953,-2.1277293560137617e-05,0.0484411479757953,9.666020749500876e-06,0.0484411479757953,-9.004189106757709e-05
0.0492352651557263,-7.6716672820405e-06,0.0492352651557263,-2.08824939693579e-05,0.0492352651557263,1.2529439234987586e-05,0.0492352651557263,2.8859498755698264e-05
0.0500293823356574,-1.1542037973197626e-05,0.0500293823356574,-2.078356201910789e-05,0.0500293823356574,1.9677673412892288e-05,0.0500293823356574,8.595731167015643e-05
0.0508234995155885,-9.76514840585561e-06,0.0508234995155885,-2.16526e-05,0.0508234995155885,2.19883e-05,0.0508234995155885,0.0001447512534879
0.0516176166955195,-6.368450120851328e-06,0.0516176166955195,-2.1731522400131385e-05,0.0516176166955195,2.317298164784996e-05,0.0516176166955195,0.0001990486694525
0.0524117338754506,-6.802854148155439e-06,0.0524117338754506,-2.106024687101772e-05,0.0524117338754506,2.599689024692573e-05,0.0524117338754506,0.0001628026509942
0.0532058510553817,-6.921445461063492e-06,0.0532058510553817,-1.9213803547465035e-05,0.0532058510553817,2.2225982165103917e-05,0.0532058510553817,7.067125731168402e-05
0.0539999682353128,-4.532044536433552e-06,0.0539999682353128,-2.064541784741531e-05,0.0539999682353128,1.1246358148463718e-05,0.0539999682353128,5.058616396425863e-07
0.0547940854152438,-2.596733319563007e-06,0.0547940854152438,-2.16526e-05,0.0547940854152438,2.389413765841684e-06,0.0547940854152438,-3.579128429743905e-05
0.0555882025951749,-3.129788155476917e-06,0.0555882025951749,-2.26891861073384e-05,0.0555882025951749,-7.1771977562313285e-06,0.0555882025951749,-6.130210881321273e-05
0.056382319775106,-3.2286005398610923e-06,0.056382319775106,-2.3064451723011168e-05,0.056382319775106,-1.0555045737207188e-05,0.056382319775106,-9.155510617958384e-05
0.057176436955037,-5.736400124764847e-06,0.057176436955037,-2.23239e-05,0.057176436955037,-4.848006225292523e-06,0.057176436955037,-0.0001133375110911
0.0579705541349681,-7.55322e-06,0.0579705541349681,-2.145509103038956e-05,0.0579705541349681,4.649820211695039e-06,0.0579705541349681,-0.0001019151916145
0.0587646713148992,-7.918433493697154e-06,0.0587646713148992,-2.0941519443233545e-05,0.0587646713148992,1.4247285352624445e-05,0.0587646713148992,-6.914747744997403e-05
0.0595587884948302,-8.56031e-06,0.0595587884948302,-2.137612630583853e-05,0.0595587884948302,1.0851253151442685e-05,0.0595587884948302,-2.5721859868597908e-05
0.0603529056747613,-6.763335240443234e-06,0.0603529056747613,-2.102032708896192e-05,0.0603529056747613,6.111685005295856e-06,0.0603529056747613,-3.148656265382207e-05
0.0611470228546924,-3.761691921891524e-06,0.0611470228546924,-2.461451860863107e-05,0.0611470228546924,7.71083319873946e-06,0.0611470228546924,-7.014816045604544e-05
0.0619411400346235,-6.22027827027187e-06,0.0619411400346235,-2.3074573086026205e-05,0.0619411400346235,1.38915481081561e-05,0.0619411400346235,-9.179430814347468e-05
0.0627352572145545,-7.0200253003542855e-06,0.0627352572145545,-2.0546814507504096e-05,0.0627352572145545,1.86313e-05,0.0627352572145545,-8.020255123674057e-05
0.0635293743944856,-1.2173830141388898e-05,0.0635293743944856,-1.9510129214460025e-05,0.0635293743944856,7.770931226798728e-06,0.0635293743944856,-7.396289450513886e-05
0.0643234915744167,-1.1660990130180082e-05,0.0643234915744167,-1.95593780490435e-05,0.0643234915744167,3.259452154054197e-07,0.0643234915744167,-3.311039914175888e-05
0.0651176087543477,-8.30363651413727e-06,0.0651176087543477,-2.0704767884326776e-05,0.0651176087543477,-1.095914427495308e-06,0.0651176087543477,2.844359312578804e-05
0.0659117259342788,-9.290954645058689e-06,0.0659117259342788,-1.9046073296321937e-05,0.0659117259342788,-2.2412846450586885e-06,0.0659117259342788,5.886580410259264e-05
0.0667058431142099,-1.134458578612304e-05,0.0667058431142099,-1.948044509254713e-05,0.0667058431142099,-2.576780204790452e-06,0.0667058431142099,7.617234515593724e-05
0.067499960294141,-1.2588614097163046e-05,0.067499960294141,-1.913481284016511e-05,0.067499960294141,-6.881533658063123e-06,0.067499960294141,8.509948546288405e-05
0.068294077474072,-1.5985170835956984e-05,0.068294077474072,-2.015179375706912e-05,0.068294077474072,-8.22461e-06,0.068294077474072,6.736710666380174e-05
0.0690881946540031,-1.385268877326196e-05,0.0690881946540031,-2.054661236219893e-05,0.0690881946540031,-1.0504397051722506e-05,0.0690881946540031,4.0158857441959086e-05
0.0698823118339342,-1.2845488022978669e-05,0.0698823118339342,-2.204740640115548e-05,0.0698823118339342,-1.9914591919574668e-05,0.0698823118339342,4.534522183952895e-06
0.0706764290138652,-1.280588313621729e-05,0.0706764290138652,-2.29953e-05,0.0706764290138652,-2.0053209023239485e-05,0.0706764290138652,-2.666758037654476e-05
0.0714705461937963,-1.2460473142250537e-05,0.0714705461937963,-2.29953e-05,0.0714705461937963,-1.2747298430769236e-05,0.0714705461937963,-2.2166529313789537e-05
0.0722646633737274,-1.1265837554798768e-05,0.0722646633737274,-2.281771079094086e-05,0.0722646633737274,6.81651714385761e-08,0.0722646633737274,-3.182075895030955e-05
0.0730587805536585,-8.343252265578082e-06,0.0730587805536585,-2.127743219262428e-05,0.0730587805536585,5.835172970828736e-06,0.0730587805536585,-3.867451127701669e-05
0.0738528977335895,-6.012979388428081e-06,0.0738528977335895,-2.2481789865816708e-05,0.0738528977335895,7.375434764136389e-06,0.0738528977335895,-2.7922326368381093e-05
0.0746470149135206,-4.0680169147751e-06,0.0746470149135206,-2.402209434875869e-05,0.0746470149135206,1.126547570226988e-05,0.0746470149135206,-2.804940468179919e-05
0.0754411320934517,-2.9322826675961394e-06,0.0754411320934517,-2.4140724831387767e-05,0.0754411320934517,1.3338943254751743e-05,0.0754411320934517,-3.833894593156032e-05
0.0762352492733827,-5.223015573143702e-06,0.0762352492733827,-2.214631436162053e-05,0.0762352492733827,1.5372989179857777e-05,0.0762352492733827,-3.0341590167851864e-05
0.0770293664533138,-6.723871957952191e-06,0.0770293664533138,-2.212628566422284e-05,0.0770293664533138,1.6932996084095617e-05,0.0770293664533138,-1.837481566361753e-05
0.0778234836332449,-7.414967718238794e-06,0.0778234836332449,-2.29953e-05,0.0778234836332449,1.8512909127044823e-05,0.0778234836332449,-1.942143847961246e-05
0.078617600813176,-6.072314919622122e-06,0.078617600813176,-2.123796722713355e-05,0.078617600813176,1.4998089839244243e-05,0.078617600813176,-9.33114037267256e-06
0.079411717993107,-2.734969499539787e-06,0.079411717993107,-1.9065867293085105e-05,0.079411717993107,9.172512509895686e-06,0.079411717993107,-2.6549472523351667e-05
0.0802058351730381,-2.4287401481680984e-06,0.0802058351730381,-2.047739660362851e-05,0.0802058351730381,2.735394229111856e-06,0.0802058351730381,-7.31721002963362e-05
0.0809999523529692,-4.363942556484431e-06,0.0809999523529692,-2.2491753793759608e-05,0.0809999523529692,2.517568194940221e-06,0.0809999523529692,-4.481872376962532e-05
0.0817940695329002,-1.9254778903795517e-06,0.0817940695329002,-2.09812e-05,0.0817940695329002,7.849344643125872e-06,0.0817940695329002,-1.193737781530482e-05
0.0825881867128313,3.18914e-06,0.0825881867128313,-2.1020623688357025e-05,0.0825881867128313,5.1644814108688055e-06,0.0825881867128313,-9.962474751605076e-06
0.0833823038927624,1.84634e-06,0.0833823038927624,-2.08628901074497e-05,0.0833823038927624,-3.9580426256795584e-06,0.0833823038927624,-9.68575960980042e-06
0.0841764210726934,2.122775841252846e-06,0.0841764210726934,-2.0684954495576267e-05,0.0841764210726934,-1.6123101777539848e-05,0.0841764210726934,-1.1680243365011384e-05
0.0849705382526245,2.261048374778709e-06,0.0849705382526245,-2.054678370028481e-05,0.0849705382526245,-7.435906908836321e-06,0.0849705382526245,-2.0190378580558827e-05
0.0857646554325556,9.776046699702496e-07,0.0857646554325556,-1.9885295462567387e-05,0.0857646554325556,9.941214644205566e-06,0.0857646554325556,-2.315500721129473e-05
0.0865587726124866,-1.3817987282456656e-07,0.0865587726124866,-1.9115109090163612e-05,0.0865587726124866,2.230357424479233e-05,0.0865587726124866,-5.145093847074393e-06
0.0873528897924177,-3.366775835240746e-06,0.0873528897924177,-2.0961259193487235e-05,0.0873528897924177,3.4566763178292854e-05,0.0873528897924177,-2.2718389130474125e-05
0.0881470069723488,-4.857850739148744e-06,0.0881470069723488,-2.0961526189387484e-05,0.0881470069723488,4.890277556510754e-05,0.0881470069723488,-1.022407739520091e-05
0.0889411241522799,-3.6631229567367903e-06,0.0889411241522799,-2.0270147349308723e-05,0.0889411241522799,4.300038761288026e-05,0.0889411241522799,3.2629928124428666e-05
0.0897352413322109,-3.9592043528600415e-06,0.0897352413322109,-2.208686207003019e-05,0.0897352413322109,2.6570024005676968e-05,0.0897352413322109,5.717653599077493e-05
0.090529358512142,-6.664431582109997e-06,0.090529358512142,-2.3331e-05,0.090529358512142,1.2866119845048968e-05,0.090529358512142,8.066530175939022e-05
0.0913234756920731,-6.842506016323704e-06,0.0913234756920731,-2.3034821244551333e-05,0.0913234756920731,-4.8168411460446125e-06,0.0913234756920731,8.433188364777545e-05
0.0921175928720041,-4.3938523765192045e-06,0.0921175928720041,-2.1771118006470188e-05,0.0921175928720041,-1.701156109599698e-05,0.0921175928720041,4.497647571180163e-05
0.0929117100519352,-4.383793040862148e-06,0.0929117100519352,-1.8769750152075022e-05,0.0929117100519352,-3.060754448217123e-05,0.0929117100519352,-6.412922664439204e-07
0.0937058272318663,-6.0227314986171606e-06,0.0937058272318663,-1.920364640357257e-05,0.0937058272318663,-3.504185934623984e-05,0.0937058272318663,3.227774775039141e-06
0.0944999444117974,-8.224389517246011e-06,0.0944999444117974,-2.19881921747326e-05,0.0944999444117974,-2.870256079191516e-05,0.0944999444117974,-2.467007183837162e-05
0.0952940615917284,-1.1857981966429626e-05,0.0952940615917284,-1.979641651002648e-05,0.0952940615917284,-2.550327254196297e-05,0.0952940615917284,-5.866832705035556e-05
0.0960881787716595,-1.1028964179195648e-05,0.0960881787716595,-2.106002096823434e-05,0.0960881787716595,-2.441687686560326e-05,0.0960881787716595,-1.9820084824568888e-05
0.0968822959515906,-7.355997326004656e-06,0.0968822959515906,-2.350843403753863e-05,0.0968822959515906,-2.7063144534799068e-05,0.0968822959515906,-2.245739637563787e-05
0.0976764131315216,-6.1511501143970575e-06,0.0976764131315216,-2.352863311204772e-05,0.0976764131315216,-2.5147959084823545e-05,0.0976764131315216,-7.911335920971361e-05
0.0984705303114527,-8.105902331336621e-06,0.0984705303114527,-2.1731621797138212e-05,0.0984705303114527,-1.626252702848133e-05,0.0984705303114527,-0.0001014502455391
0.0992646474913838,-9.409551684822563e-06,0.0992646474913838,-2.1435284024874997e-05,0.0992646474913838,-5.312731074914989e-06,0.0992646474913838,-8.609065742613546e-05
0.1000587646713148,-7.31576678023784e-06,0.1000587646713148,-2.080471148585329e-05,0.1000587646713148,-2.6609583877067655e-07,0.1000587646713148,-4.152909140051117e-05
0.1008528818512459,-6.111685430265497e-06,0.1008528818512459,-2.155338366898784e-05,0.1008528818512459,7.217510901588388e-06,0.1008528818512459,2.024044287103588e-06
0.101646999031177,-4.97628164003642e-06,0.101646999031177,-2.1810402023835947e-05,0.101646999031177,1.213460328007284e-05,0.101646999031177,6.529542523860331e-06
0.1024411162111081,-6.751671376797225e-06,0.1024411162111081,-2.2797603415119272e-05,0.1024411162111081,1.2784461549870715e-05,0.1024411162111081,-1.8054869578272325e-05
0.1032352333910391,-1.315043126421271e-05,0.1032352333910391,-2.135673909223134e-05,0.1032352333910391,2.2489615659469268e-05,0.1032352333910391,-1.987706359635635e-05
0.1040293505709702,-1.6004697167278363e-05,0.1040293505709702,-2.0526905035308835e-05,0.1040293505709702,3.893190849816492e-05,0.1040293505709702,3.2298506281392067e-06
0.1048234677509013,-1.1106332688534189e-05,0.1048234677509013,-2.03098e-05,0.1048234677509013,3.6477015040214845e-05,0.1048234677509013,-1.9799243516734743e-05
0.1056175849308323,-9.488841661421208e-06,0.1056175849308323,-2.1533763558051336e-05,0.1056175849308323,1.4317191746568014e-05,0.1056175849308323,-9.132424393605028e-05
0.1064117021107634,-1.2836203392072389e-05,0.1064117021107634,-2.1059583383194396e-05,0.1064117021107634,-9.295446023471373e-06,0.1064117021107634,-0.0001092284793928
0.1072058192906945,-1.2134202393356482e-05,0.1072058192906945,-2.1197452378876703e-05,0.1072058192906945,-2.437814581162616e-05,0.1072058192906945,-6.32831557846077e-05
0.1079999364706256,-9.567501530014332e-06,0.1079999364706256,-2.265949727581696e-05,0.1079999364706256,-2.8366408468622376e-05,0.1079999364706256,3.205103085862945e-05
0.1087940536505566,-7.948682771116167e-06,0.1087940536505566,-2.0111768725480503e-05,0.1087940536505566,-2.5207232858099472e-05,0.1087940536505566,0.0001210817847212
0.1095881708304877,-7.415206993989811e-06,0.1095881708304877,-2.0426884912688567e-05,0.1095881708304877,-2.806813006010188e-05,0.1095881708304877,0.0001426087440677
0.1103822880104188,-8.834655920006613e-06,0.1103822880104188,-2.271883327590596e-05,0.1103822880104188,-3.18018848821402e-05,0.1103822880104188,0.0001157296252939
0.1111764051903498,-1.0634000166522629e-05,0.1111764051903498,-2.1869374678458923e-05,0.1111764051903498,-3.2671099833477374e-05,0.1111764051903498,6.67007807042787e-05
0.1119705223702809,-8.540827340329124e-06,0.1119705223702809,-1.989608574466943e-05,0.1119705223702809,-2.978947803148106e-05,0.1119705223702809,-1.090945032090042e-05
0.112764639550212,-7.395254347612975e-06,0.112764639550212,-2.02704718401366e-05,0.112764639550212,-2.2166049830123745e-05,0.112764639550212,-7.546286761199889e-05
0.1135587567301431,-6.249755766412752e-06,0.1135587567301431,-2.16526e-05,0.1135587567301431,-1.1283889780921144e-05,0.1135587567301431,-7.362410437939766e-05
0.1143528739100741,-7.750659737007506e-06,0.1143528739100741,-2.2680001157887134e-05,0.1143528739100741,-4.472734055578322e-06,0.1143528739100741,-3.470571794635853e-05
0.1151469910900052,-7.533740565949748e-06,0.1151469910900052,-2.06254716075934e-05,0.1151469910900052,6.95815804041982e-06,0.1151469910900052,-8.542390841801259e-06
0.1159411082699363,-5.470533523093194e-06,0.1159411082699363,-2.0210956834196884e-05,0.1159411082699363,2.456994223722782e-05,0.1159411082699363,-5.9906399526668165e-06
0.1167352254498673,-4.7490098825766455e-06,0.1167352254498673,-1.9697761688785207e-05,0.1167352254498673,3.861347851263751e-05,0.1167352254498673,-1.2627459373742107e-05
0.1175293426297984,-4.86763e-06,0.1175293426297984,-2.1771189828175987e-05,0.1175293426297984,4.183385432769668e-05,0.1175293426297984,-1.722974202748262e-05
0.1183234598097295,-2.872782713915248e-06,0.1183234598097295,-2.2284182907971584e-05,0.1183234598097295,3.391315919792539e-05,0.1183234598097295,-2.7320714572169505e-05
0.1191175769896605,-3.960491756568753e-06,0.1191175769896605,-2.20476490690575e-05,0.1191175769896605,3.0341410097696903e-05,0.1191175769896605,-1.980998536521964e-05
0.1199116941695916,-3.603467287625665e-06,0.1199116941695916,-2.0704307325249007e-05,0.1199116941695916,2.5442002138993096e-05,0.1199116941695916,4.931147863868741e-06
0.1207058113495227,-3.682981896904096e-06,0.1207058113495227,-2.094060901760908e-05,0.1207058113495227,1.6734957774105e-05,0.1207058113495227,9.685015663303668e-06
0.1214999285294538,-5.5389270272001695e-06,0.1214999285294538,-2.299511509922469e-05,0.1214999285294538,7.553992292931323e-06,0.1214999285294538,-1.2921877177140073e-05
0.1222940457093848,-2.103870027127054e-06,0.1222940457093848,-2.2639489423350664e-05,0.1222940457093848,3.6834978650636183e-06,0.1222940457093848,-3.955719703127225e-05
0.1230881628893159,-9.175665301655194e-07,0.1230881628893159,-2.1849662070848893e-05,0.1230881628893159,1.0966214698344806e-06,0.1230881628893159,-5.987737455191537e-05
0.123882280069247,-1.8071532919436075e-06,0.123882280069247,-2.1929035817946983e-05,0.123882280069247,5.623282955472523e-07,0.123882280069247,-6.445671881808724e-05
0.124676397249178,-2.339222338298806e-06,0.124676397249178,-2.068513664720977e-05,0.124676397249178,1.6975770545068912e-06,0.124676397249178,-6.262684414487177e-05
0.1254705144291091,-2.814492853511874e-06,0.1254705144291091,-2.1415235429101897e-05,0.1254705144291091,3.2973987328016257e-06,0.1254705144291091,-5.542414611714566e-05
0.1262646316090402,-9.971987993990456e-07,0.1262646316090402,-2.1099738463024284e-05,0.1262646316090402,4.097461316447241e-06,0.1262646316090402,-2.8643605619081197e-05
0.1270587487889713,-4.354868040066875e-06,0.1270587487889713,-2.1889364554726288e-05,0.1270587487889713,5.183656383779925e-06,0.1270587487889713,-6.0505422635793015e-06
0.1278528659689023,-4.887412543480496e-06,0.1278528659689023,-2.2166272591668318e-05,0.1278528659689023,2.557301557196881e-06,0.1278528659689023,-1.0850855899322624e-05
0.1286469831488334,-4.472737373050128e-06,0.1286469831488334,-2.16526e-05,0.1286469831488334,-1.7863223887670307e-06,0.1286469831488334,-5.17579691540961e-06
0.1294411003287645,-4.590624066879024e-06,0.1294411003287645,-2.252157607833174e-05,0.1294411003287645,-4.059277760085046e-06,0.1294411003287645,6.859153857749257e-06
0.1302352175086955,-5.53903e-06,0.1302352175086955,-2.11991755222086e-05,0.1302352175086955,9.76400922768245e-07,0.1302352175086955,1.474005621107334e-05
0.1310293346886266,-6.052414302635268e-06,0.1310293346886266,-2.121836938332165e-05,0.1310293346886266,3.031134302635268e-06,0.1310293346886266,2.2502144090305963e-05
0.1318234518685577,-4.630041225108813e-06,0.1318234518685577,-2.16526e-05,0.1318234518685577,7.713377173412349e-06,0.1318234518685577,1.714107370938064e-05
0.1326175690484888,-4.562245276391159e-06,0.1326175690484888,-2.09812e-05,0.1326175690484888,1.1878004364683188e-05,0.1326175690484888,-2.554060648339845e-05
0.1334116862284198,-8.067316912733353e-06,0.1334116862284198,-2.192947726520548e-05,0.1334116862284198,1.154224627098796e-05,0.1334116862284198,-6.245429313247121e-05
0.1342058034083509,-7.829560002796678e-06,0.1342058034083509,-2.200855273983434e-05,0.1342058034083509,1.596564264362118e-05,0.1342058034083509,-6.924243383725453e-05
0.134999920588282,-6.2105344142220384e-06,0.134999920588282,-2.047777978568142e-05,0.134999920588282,1.728855720711102e-05,0.134999920588282,-5.74059732040736e-05
0.135794037768213,-5.263138634884199e-06,0.135794037768213,-2.200834730982937e-05,0.135794037768213,1.5669811580308537e-05,0.135794037768213,-3.184797159323965e-05
0.1365881549481441,-6.169336669020271e-06,0.1365881549481441,-2.2304400962240527e-05,0.1365881549481441,1.1466084091083126e-05,0.1365881549481441,-2.341862902420072e-05
0.1373822721280752,-1.031716195008537e-05,0.1373822721280752,-2.19883e-05,0.1373822721280752,4.179302391758371e-06,0.1373822721280752,-3.189715267555491e-05
0.1381763893080062,-9.943548855045291e-06,0.1381763893080062,-2.167240985746818e-05,0.1381763893080062,-5.607647131753669e-07,0.1381763893080062,-2.8018625022455384e-05
0.1389705064879373,-9.251169776826478e-06,0.1389705064879373,-2.1711926033379792e-05,0.1389705064879373,-8.380292345095434e-06,0.1389705064879373,1.2162926770398656e-05
0.1397646236678684,-1.3872056617255774e-05,0.1397646236678684,-2.06455e-05,0.1397646236678684,-1.1542259889497396e-05,0.1397646236678684,3.648274338274423e-05
0.1405587408477994,-1.7584841301532433e-05,0.1405587408477994,-1.9935221715732973e-05,0.1405587408477994,-5.755501669134965e-06,0.1405587408477994,2.5501483730844584e-05
0.1413528580277305,-2.137593598595789e-05,0.1413528580277305,-2.119721867738208e-05,0.1413528580277305,-1.177870886221843e-05,0.1413528580277305,2.092206401404211e-05
0.1421469752076616,-2.5719777125316337e-05,0.1421469752076616,-2.29953e-05,0.1421469752076616,-2.171088042448899e-05,0.1421469752076616,-5.609771722959128e-06
0.1429410923875927,-2.538752148713072e-05,0.1429410923875927,-2.125726834988561e-05,0.1429410923875927,-2.3233211046590183e-05,0.1429410923875927,-3.394608638145503e-05
0.1437352095675237,-1.525672191379317e-05,0.1437352095675237,-1.9757143923631097e-05,0.1437352095675237,-1.9599732157635493e-05,0.1437352095675237,1.4413039314938187e-05
0.1445293267474548,-3.96868363368543e-06,0.1445293267474548,-2.089264610454611e-05,0.1445293267474548,-1.3516600210117346e-05,0.1445293267474548,5.859967591844744e-05
0.1453234439273859,5.6397156107860255e-06,0.1453234439273859,-2.2244433477796486e-05,0.1453234439273859,-1.073202558096492e-05,0.1453234439273859,4.747300373016342e-05
0.146117561107317,1.0417295697406865e-05,0.146117561107317,-2.19883e-05,0.146117561107317,-9.013912934262633e-06,0.146117561107317,1.42360690242109e-05
0.146911678287248,6.782119170544569e-06,0.146911678287248,-2.230429312755385e-05,0.146911678287248,-6.436818451813493e-06,0.146911678287248,-8.9380859448418e-06
0.1477057954671791,3.2186091802074416e-06,0.1477057954671791,-2.267991603725614e-05,0.1477057954671791,1.4832489931996736e-07,0.1477057954671791,-2.4576245671085827e-05
0.1484999126471102,-1.8456792616169684e-06,0.1484999126471102,-2.098142598983644e-05,0.1484999126471102,3.860278290586114e-06,0.1484999126471102,-6.46167140816886e-05
0.1492940298270412,-5.81488843323169e-06,0.1492940298270412,-2.1385730980928757e-05,0.1492940298270412,5.4297466191862605e-06,0.1492940298270412,-9.961785067051282e-05
0.1500881470069723,-4.177655075842987e-06,0.1500881470069723,-1.9757453625720243e-05,0.1500881470069723,1.2939007753319472e-05,0.1500881470069723,-8.925927172358453e-05
0.1508822641869034,-2.579214239374587e-06,0.1508822641869034,-1.8374646314777627e-05,0.1508822641869034,2.2581261185659664e-05,0.1508822641869034,-5.390129521174735e-05
0.1516763813668344,1.982086169614999e-06,0.1516763813668344,-1.922456565852468e-05,0.1516763813668344,1.922647328655939e-05,0.1516763813668344,-1.66144566473478e-05
0.1524704985467655,5.380904167702146e-06,0.1524704985467655,-2.060651371783111e-05,0.1524704985467655,1.2313884155276396e-05,0.1524704985467655,5.08155582044205e-06
0.1532646157266966,4.018655535877575e-06,0.1532646157266966,-1.981617687544539e-05,0.1532646157266966,7.91866836790767e-06,0.1532646157266966,1.313169459337416e-05
0.1540587329066277,-6.52238539593574e-07,0.1540587329066277,-2.1355762904355308e-05,0.1540587329066277,4.6401973659721005e-06,0.1540587329066277,6.939820472171627e-06
0.1548528500865587,-3.742024352812438e-06,0.1548528500865587,-2.258078482840505e-05,0.1548528500865587,2.971945647187562e-06,0.1548528500865587,-7.434315410835216e-06
0.1556469672664898,-7.255456976504302e-06,0.1556469672664898,-2.1810443109836946e-05,0.1556469672664898,-6.801856473099503e-07,0.1556469672664898,1.0121919831380093e-06
0.1564410844464209,-1.223344677706774e-05,0.1564410844464209,-2.0823511970277998e-05,0.1564410844464209,-3.46617091366444e-06,0.1564410844464209,1.3338425405485034e-05
0.157235201626352,-1.1147491721246608e-05,0.157235201626352,-2.1238074491270014e-05,0.157235201626352,-1.7479317212466075e-06,0.157235201626352,-2.2848110652354144e-05
0.158029318806283,-9.211998511885048e-06,0.158029318806283,-2.042837441863048e-05,0.158029318806283,-2.616595085185517e-06,0.158029318806283,-5.692091383913786e-05
0.1588234359862141,-1.4230886550613396e-05,0.1588234359862141,-2.1533367080223547e-05,0.1588234359862141,-4.778551371549087e-06,0.1588234359862141,-4.103564405669048e-05
0.1596175531661451,-3.009067736463698e-05,0.1596175531661451,-2.26596e-05,0.1596175531661451,-4.512276449327886e-06,0.1596175531661451,-1.2561086547461073e-05
0.1604116703460762,-5.317318268349076e-05,0.1604116703460762,-2.17114477100216e-05,0.1604116703460762,-1.4704383722971364e-06,0.1604116703460762,-2.814959920542931e-06
0.1612057875260073,-7.56412530632687e-05,0.1612057875260073,-2.246131356202194e-05,0.1612057875260073,-2.4191253241499462e-06,0.1612057875260073,-2.1495071877820807e-05
0.1619999047059384,-8.476348810880064e-05,0.1619999047059384,-2.198848489618506e-05,0.1619999047059384,-5.874376759378802e-06,0.1619999047059384,-1.9640184841414532e-05
0.1627940218858694,-5.349710879180971e-05,0.1627940218858694,-2.145463036366252e-05,0.1627940218858694,5.968375812379284e-06,0.1627940218858694,2.118664979677663e-05
0.1635881390658005,1.1097985107194755e-05,0.1635881390658005,-2.0664994574931104e-05,0.1635881390658005,1.6874529778133886e-05,0.1635881390658005,3.3368968003205e-05
0.1643822562457316,7.453096249010475e-05,0.1643822562457316,-2.0783753908107703e-05,0.1643822562457316,9.917077636906197e-06,0.1643822562457316,2.679447183356493e-05
0.1651763734256627,0.0001058437110031,0.1651763734256627,-2.0605878732702e-05,0.1651763734256627,5.658074325631593e-06,0.1651763734256627,4.964162660824254e-05
0.1659704906055937,0.0001041397577212,0.1659704906055937,-2.0743804610010866e-05,0.1659704906055937,8.479925443923247e-06,0.1659704906055937,4.082576208747688e-05
0.1667646077855248,7.587972748654656e-05,0.1667646077855248,-2.1810538534100085e-05,0.1667646077855248,1.468137898028392e-05,0.1667646077855248,2.005701592680992e-06
0.1675587249654559,3.610346038742391e-05,0.1675587249654559,-1.979745412592745e-05,0.1675587249654559,2.2146688528248035e-05,0.1675587249654559,-1.2786564293171603e-05
0.1683528421453869,3.832267997701345e-06,0.1683528421453869,-2.1661253489854227e-05,0.1683528421453869,1.2214325115359688e-05,0.1683528421453869,-6.605625361258728e-06
0.169146959325318,-1.507442915203143e-05,0.169146959325318,-2.358776155204097e-05,0.169146959325318,-1.6270692302401197e-06,0.169146959325318,-1.0502712237164036e-05
0.1699410765052491,-2.453357489918549e-05,0.1699410765052491,-2.240239348226488e-05,0.1699410765052491,-1.120341234877824e-05,0.1699410765052491,-1.849786024195481e-05
0.1707351936851801,-3.051766742760691e-05,0.1707351936851801,-1.9461411136191405e-05,0.1707351936851801,-1.82550733498602e-05,0.1707351936851801,-4.879353371582882e-09
0.1715293108651112,-3.391541146476857e-05,0.1715293108651112,-2.0112677128461263e-05,0.1715293108651112,-1.833504585907428e-05,0.1715293108651112,1.3082388535231431e-05
0.1723234280450423,-3.0636439778873606e-05,0.1723234280450423,-2.172103233730672e-05,0.1723234280450423,-2.3196463132904927e-05,0.1723234280450423,-1.2346528961527832e-06
0.1731175452249733,-2.840581283435792e-05,0.1731175452249733,-2.12574509904569e-05,0.1731175452249733,-3.2751797325136645e-05,0.1731175452249733,-5.397827503822221e-05
0.1739116624049044,-2.6509700395788008e-05,0.1739116624049044,-2.228465986977333e-05,0.1739116624049044,-3.694985626246169e-06,0.1739116624049044,-9.361249861474195e-05
0.1747057795848355,-2.173145320039308e-05,0.1747057795848355,-2.2817281708341582e-05,0.1747057795848355,2.8702382607952303e-05,0.1747057795848355,-7.204587826791725e-05
0.1754998967647666,-2.03098e-05,0.1754998967647666,-2.232403354939441e-05,0.1754998967647666,2.903871806168742e-05,0.1754998967647666,-1.5282257464834297e-05
0.1762940139446976,-1.704257056470956e-05,0.1762940139446976,-2.29953e-05,0.1762940139446976,2.1584988664440103e-05,0.1762940139446976,4.1681980824563125e-05
0.1770881311246287,-1.5559508982503596e-05,0.1770881311246287,-2.125843168475221e-05,0.1770881311246287,1.3363094585254956e-05,0.1770881311246287,5.809136015834205e-05
0.1778822483045598,-1.922437244799688e-05,0.1778822483045598,-2.03098e-05,0.1778822483045598,2.405867979859417e-06,0.1778822483045598,3.26915213302069e-05
0.1786763654844909,-1.586958770078127e-05,0.1786763654844909,-2.015133543735696e-05,0.1786763654844909,-7.3912107654519535e-06,0.1786763654844909,-3.102888286912043e-07
0.1794704826644219,-1.159270599953828e-05,0.1794704826644219,-1.8967e-05,0.1794704826644219,-9.667266205367998e-06,0.1794704826644219,-3.2819573409800584e-05
0.180264599844353,-9.56741e-06,0.180264599844353,-2.121817709251024e-05,0.180264599844353,-8.026639764755106e-06,0.180264599844353,-6.443333780818112e-05
0.181058717024284,-8.935403096549817e-06,0.181058717024284,-2.1376994329795716e-05,0.181058717024284,-2.138755234396198e-05,0.181058717024284,-6.726734235681703e-05
0.1818528342042151,-1.35756708502637e-05,0.1818528342042151,-1.999458040574158e-05,0.1818528342042151,-2.0587092525902584e-05,0.1818528342042151,-4.740388077126749e-05
0.1826469513841462,-1.4465150712620275e-05,0.1826469513841462,-1.845348716894837e-05,0.1826469513841462,-5.490556111999236e-06,0.1826469513841462,-3.042355498834193e-05
0.1834410685640773,-1.2807149458570956e-05,0.1834410685640773,-1.8592052597850467e-05,0.1834410685640773,-7.155403432428457e-06,0.1834410685640773,-1.5727250541429048e-05
0.1842351857440083,-7.831119468994729e-06,0.1842351857440083,-2.0407950514555803e-05,0.1842351857440083,-1.4147513181622562e-05,0.1842351857440083,-3.430255924583764e-05
0.1850293029239394,-2.241243112877982e-06,0.1850293029239394,-2.09812e-05,0.1850293029239394,-9.330278126164908e-06,0.1850293029239394,-9.23672741906125e-05
0.1858234201038705,-1.391892439446259e-06,0.1858234201038705,-2.216489360282105e-05,0.1858234201038705,6.153313668039091e-06,0.1858234201038705,-0.0001241572969032
0.1866175372838016,6.42654100134828e-07,0.1866175372838016,-2.29953e-05,0.1866175372838016,1.5612984354682328e-05,0.1866175372838016,-9.985832744403444e-05
0.1874116544637326,9.773826633370565e-07,0.1874116544637326,-2.188909551167729e-05,0.1874116544637326,2.48327695445711e-05,0.1874116544637326,-3.173053535679684e-05
0.1882057716436637,-1.964859480659979e-06,0.1882057716436637,-2.170084451664839e-05,0.1882057716436637,2.5266156669769733e-05,0.1882057716436637,6.001189776392607e-05
0.1889998888235948,-6.881099192787025e-06,0.1889998888235948,-2.299515617757525e-05,0.1889998888235948,1.2926722584849433e-05,0.1889998888235948,0.00014014434922
0.1897940060035258,-6.88182e-06,0.1897940060035258,-2.196819377617166e-05,0.1897940060035258,-3.3632206414190527e-06,0.1897940060035258,0.0001392547251665
0.1905881231834569,-8.362588607927942e-06,0.1905881231834569,-2.1594147094297724e-05,0.1905881231834569,-1.18945432951353e-05,0.1905881231834569,7.630876266189618e-05
0.191382240363388,-9.56741e-06,0.191382240363388,-2.0546752683982947e-05,0.191382240363388,-1.6359716085975744e-05,0.191382240363388,-7.337013759382169e-06
0.192176357543319,-7.910425171292207e-06,0.192176357543319,-2.0230577971953037e-05,0.192176357543319,-1.7643172640243264e-05,0.192176357543319,-5.827503768367768e-05
0.1929704747232501,-6.171597266881815e-06,0.1929704747232501,-2.0180847760600266e-05,0.1929704747232501,-1.5454687910898656e-05,0.1929704747232501,-6.616455481360783e-05
0.1937645919031812,-3.44588384983068e-06,0.1937645919031812,-2.172169520590397e-05,0.1937645919031812,-1.1660072599906155e-06,0.1937645919031812,-4.920040497711092e-05
0.1945587090831123,-2.241146843865848e-06,0.1945587090831123,-1.8938832270478803e-05,0.1945587090831123,8.659583798339484e-06,0.1945587090831123,-4.064872281288616e-05
0.1953528262630433,-3.0706171537713126e-06,0.1953528262630433,-2.0624999048197785e-05,0.1953528262630433,7.375776392982812e-06,0.1953528262630433,-1.7004533545108222e-05
0.1961469434429744,-1.037216817774034e-06,0.1961469434429744,-2.2166026075662297e-05,0.1961469434429744,5.638010348003009e-06,0.1961469434429744,1.3511913438751966e-05
0.1969410606229055,-9.173897463952022e-07,0.1969410606229055,-2.313337518804085e-05,0.1969410606229055,4.68821760918018e-06,0.1969410606229055,2.802103489779883e-05
0.1977351778028366,-1.6688688050976646e-06,0.1977351778028366,-2.1830759831490485e-05,0.1977351778028366,8.500440343955348e-06,0.1977351778028366,2.157669107894885e-05
0.1985292949827676,-1.84634e-06,0.1985292949827676,-2.23239e-05,0.1985292949827676,8.382587093809224e-06,0.1985292949827676,7.089155739186548e-06
0.1993234121626987,-2.5382497725024377e-06,0.1993234121626987,-2.23239e-05,0.1993234121626987,6.099776094325936e-06,0.1993234121626987,5.815353178334048e-06
0.2001175293426297,-6.270851068714633e-06,0.2001175293426297,-2.1455015222198102e-05,0.2001175293426297,-8.406857895486148e-07,0.2001175293426297,-6.848332061438984e-07
0.2009116465225608,-7.158109730650852e-06,0.2009116465225608,-2.2284639326772822e-05,0.2009116465225608,7.673470173551689e-06,0.2009116465225608,-2.920115950110904e-05
0.2017057637024919,-5.24282629079649e-06,0.2017057637024919,-2.1199942823443705e-05,0.2017057637024919,1.5511265430265496e-05,0.2017057637024919,-5.838187681995519e-05
0.202499880882423,-4.196315810666539e-06,0.202499880882423,-1.93029311431827e-05,0.202499880882423,1.1918158106665388e-05,0.202499880882423,-7.167014121866884e-05
0.203293998062354,-5.8147967056955225e-06,0.203293998062354,-2.0428787135387345e-05,0.203293998062354,8.758123120291355e-06,0.203293998062354,-6.024565918362748e-05
0.2040881152422851,-7.079547125085746e-06,0.2040881152422851,-2.09812e-05,0.2040881152422851,9.507651639823296e-06,0.2040881152422851,-2.1550481215545105e-05
0.2048822324222162,-6.21042e-06,0.2048822324222162,-2.0783769317653223e-05,0.2048822324222162,9.035949616417934e-06,0.2048822324222162,-1.1241043020942425e-08
0.2056763496021472,-7.867370504611679e-06,0.2056763496021472,-2.191003236901036e-05,0.2056763496021472,6.172421057501674e-06,0.2056763496021472,6.226270041097192e-07
0.2064704667820783,-1.2222405621783868e-05,0.2064704667820783,-2.372607423369758e-05,0.2064704667820783,1.471838033961086e-06,0.2064704667820783,4.204466628175045e-06
0.2072645839620094,-1.0199717320645011e-05,0.2072645839620094,-2.0921961587578875e-05,0.2072645839620094,5.222481452630999e-06,0.2072645839620094,4.04946971206989e-06
0.2080587011419405,-6.6249514701370055e-06,0.2080587011419405,-2.06455e-05,0.2080587011419405,7.770339448683546e-06,0.2080587011419405,-1.995638501749676e-05
0.2088528183218715,-7.336048579242408e-06,0.2088528183218715,-2.175191612339722e-05,0.2088528183218715,4.423344289621204e-06,0.2088528183218715,-3.2237010522807496e-05
0.2096469355018026,-5.737020102224606e-06,0.2096469355018026,-1.969746928752272e-05,0.2096469355018026,6.012429897775394e-06,0.2096469355018026,-3.5708723962890394e-05
0.2104410526817337,-4.5905208726323286e-06,0.2104410526817337,-1.9895543676053936e-05,0.2104410526817337,6.409408545636001e-06,0.2104410526817337,-4.703626389180586e-05
0.2112351698616647,-7.078501617310183e-06,0.2112351698616647,-2.048799293317418e-05,0.2112351698616647,1.373865113493661e-06,0.2112351698616647,-1.1237890330827138e-05
0.2120292870415958,-8.106157840239864e-06,0.2120292870415958,-2.259098251399255e-05,0.2120292870415958,-6.763277065716529e-06,0.2120292870415958,4.102392004434896e-05
0.2128234042215269,-4.926992869456193e-06,0.2128234042215269,-2.3114594439423502e-05,0.2128234042215269,-1.0197849103187547e-05,0.2128234042215269,6.202844217990937e-05
0.2136175214014579,-6.981540971188496e-06,0.2136175214014579,-2.21263689447578e-05,0.2136175214014579,8.23763817955897e-07,0.2136175214014579,6.523796424283725e-06
0.214411638581389,-7.227196495847786e-06,0.214411638581389,-2.16918709447274e-05,0.214411638581389,9.469299328586408e-06,0.214411638581389,-6.774938490911647e-05
0.2152057557613201,-4.67017232655845e-06,0.2152057557613201,-2.181026629879608e-05,0.2152057557613201,8.441882247217915e-06,0.2152057557613201,-8.508004710428936e-05
0.2159998729412512,-5.53866387448951e-06,0.2159998729412512,-2.165268218424272e-05,0.2159998729412512,4.868087654161531e-06,0.2159998729412512,-4.650207167120972e-05
0.2167939901211822,-7.157570827362483e-06,0.2167939901211822,-2.200828568082787e-05,0.2167939901211822,2.0441645863187583e-06,0.2167939901211822,-2.342991229315938e-05
0.2175881073011133,-7.948679826033383e-06,0.2175881073011133,-2.2936883714410167e-05,0.2175881073011133,6.230759532157768e-07,0.2175881073011133,-3.914351267433188e-05
0.2183822244810444,-8.697323019361593e-06,0.2183822244810444,-2.139602336250516e-05,0.2183822244810444,-2.3777717186844014e-06,0.2183822244810444,-3.264751569795826e-05
0.2191763416609755,-1.0977945078832642e-05,0.2191763416609755,-2.1731789725024703e-05,0.2191763416609755,-6.069754316092618e-06,0.2191763416609755,-1.1018086192558957e-05
0.2199704588409065,-1.0890808871706749e-05,0.2199704588409065,-2.102207408194626e-05,0.2199704588409065,-4.041101551286639e-06,0.2199704588409065,-4.871801476630886e-07
0.2207645760208376,-8.422389988388518e-06,0.2207645760208376,-1.873006689637619e-05,0.2207645760208376,3.939467060504707e-06,0.2207645760208376,1.641755890602069e-05
0.2215586932007686,-3.7219668859173466e-06,0.2215586932007686,-1.726907173864017e-05,0.2215586932007686,-1.1755080573564034e-06,0.2215586932007686,4.05913951180945e-05
0.2223528103806997,-8.98514568511874e-07,0.2223528103806997,-1.967610540117179e-05,0.2223528103806997,-1.0396260408398512e-05,0.2223528103806997,8.391069426321497e-05
0.2231469275606308,2.0651850643425082e-07,0.2231469275606308,-2.340033729324225e-05,0.2231469275606308,-1.109851945119842e-05,0.2231469275606308,9.529581436628676e-05
0.2239410447405619,3.10127948961328e-06,0.2239410447405619,-2.2837018668155585e-05,0.2239410447405619,-6.569428237395198e-06,0.2239410447405619,4.230461393482675e-05
0.2247351619204929,-7.589491963557835e-07,0.2247351619204929,-1.99948166854394e-05,0.2247351619204929,3.492533113685714e-06,0.2247351619204929,-5.1309711086596384e-05
0.225529279100424,-2.3993117380648773e-06,0.225529279100424,-2.1692457102435643e-05,0.225529279100424,9.192167903988005e-06,0.225529279100424,-0.0001228747383557
0.2263233962803551,-1.1360306828291334e-06,0.2263233962803551,-2.4179020240886224e-05,0.2263233962803551,1.0713657189960714e-05,0.2263233962803551,-0.0001363159812688
0.2271175134602862,-3.40682387251529e-06,0.2271175134602862,-2.3923785152496663e-05,0.2271175134602862,1.5888042335872493e-05,0.2271175134602862,-9.482130499247754e-05
0.2279116306402172,-6.5861297960002e-06,0.2279116306402172,-2.175081181784082e-05,0.2279116306402172,1.851252532541137e-05,0.2279116306402172,-1.865884089282067e-05
0.2287057478201483,-8.027166733399163e-06,0.2287057478201483,-2.1118483486842745e-05,0.2287057478201483,1.0712966911192026e-05,0.2287057478201483,6.250801130326192e-05
0.2294998650000794,-7.55322e-06,0.2294998650000794,-2.215596903186893e-05,0.2294998650000794,3.861210761724092e-06,0.2294998650000794,8.711243847075783e-05
0.2302939821800104,-8.22461e-06,0.2302939821800104,-2.1098979018983504e-05,0.2302939821800104,3.2880550795533087e-06,0.2302939821800104,5.357732249678417e-05
0.2310880993599415,-6.329978474116342e-06,0.2310880993599415,-1.975521335413145e-05,0.2310880993599415,-6.78323744225993e-07,0.2310880993599415,5.1685927318100455e-06
0.2318822165398726,-6.82010474168013e-06,0.2318822165398726,-2.16526e-05,0.2318822165398726,-6.523545585626876e-06,0.2318822165398726,-4.560015285298595e-05
0.2326763337198036,-1.000059516226434e-05,0.2326763337198036,-2.1020795634111724e-05,0.2326763337198036,-1.3314375327193827e-05,0.2326763337198036,-8.378708221503619e-05
0.2334704508997347,-9.468950234846703e-06,0.2334704508997347,-2.109992337757041e-05,0.2334704508997347,-1.8592540626257877e-05,0.2334704508997347,-7.405654588131004e-05
0.2342645680796658,-7.751024312484703e-06,0.2342645680796658,-2.0586271860609205e-05,0.2342645680796658,-1.0101886238486072e-05,0.2342645680796658,-1.7667955795627383e-05
0.2350586852595969,-7.000371299175693e-06,0.2350586852595969,-1.9599629375115345e-05,0.2350586852595969,2.1233521556468677e-06,0.2350586852595969,1.069375690042286e-05
0.2358528024395279,-8.451730022634907e-06,0.2358528024395279,-1.9006380441912894e-05,0.2358528024395279,4.117530226349063e-06,0.2358528024395279,2.29345941342882e-05
0.236646919619459,-8.915328169370291e-06,0.236646919619459,-2.0161743477860445e-05,0.236646919619459,-5.565572779874664e-06,0.236646919619459,2.0672044541606397e-05
0.2374410367993901,-8.798416457186415e-06,0.2374410367993901,-2.16526e-05,0.2374410367993901,-1.5746631773950183e-05,0.2374410367993901,-9.79775533921421e-06
0.2382351539793211,-8.243786098482168e-06,0.2382351539793211,-2.0547431669686942e-05,0.2382351539793211,-1.731844069775908e-05,0.2382351539793211,-1.9223568435317858e-05
0.2390292711592522,-1.140385993167592e-05,0.2390292711592522,-2.0783974398157813e-05,0.2390292711592522,-2.0388639385083285e-05,0.2390292711592522,-1.4128663113037544e-06
0.2398233883391833,-1.0268484553967548e-05,0.2398233883391833,-2.2540286649149256e-05,0.2398233883391833,-2.131494340332336e-05,0.2398233883391833,3.708177085820599e-05
0.2406175055191144,-1.1592045721537437e-05,0.2406175055191144,-2.1100200749389573e-05,0.2406175055191144,-7.281824888084268e-06,0.2406175055191144,6.162426251433895e-05
0.2414116226990454,-1.4385951742533824e-05,0.2414116226990454,-1.9677697340772405e-05,0.2414116226990454,9.01590899522523e-06,0.2414116226990454,4.688589999755182e-05
0.2422057398789765,-1.605421346490741e-05,0.2422057398789765,-2.115649671155916e-05,0.2422057398789765,1.4800334741386755e-05,0.2422057398789765,7.801561027434674e-06
0.2429998570589076,-1.661725444386272e-05,0.2429998570589076,-2.4673199041495893e-05,0.2429998570589076,1.6448839610537622e-05,0.2429998570589076,-3.910050773215084e-05
0.2437939742388386,-1.742635248162641e-05,0.2437939742388386,-2.2086039563732022e-05,0.2437939742388386,1.867022872243961e-05,0.2437939742388386,-7.736891774937902e-05
0.2445880914187697,-1.4763887565395592e-05,0.2445880914187697,-2.1039591267520265e-05,0.2445880914187697,1.9026788648253745e-05,0.2445880914187697,-7.865243999269428e-05
0.2453822085987008,-1.0003990500178102e-05,0.2453822085987008,-2.21856564657495e-05,0.2453822085987008,1.8553029778133928e-05,0.2453822085987008,-5.4110112553240845e-05
0.2461763257786318,-8.362681313183177e-06,0.2461763257786318,-2.295570949252553e-05,0.2461763257786318,1.79599e-05,0.2461763257786318,-3.54053064617421e-05
0.2469704429585629,-1.1342745938768876e-05,0.2469704429585629,-2.2442628514085577e-05,0.2469704429585629,1.956897474170913e-05,0.2469704429585629,-2.280167043026629e-05
0.247764560138494,-1.4780748761835002e-05,0.247764560138494,-2.295571501437804e-05,0.247764560138494,1.9124851238165e-05,0.247764560138494,-1.6398712197646555e-05
0.2485586773184251,-1.3951225213343431e-05,0.2485586773184251,-2.2444423194941107e-05,0.2485586773184251,2.1218273933282845e-05,0.2485586773184251,-3.615775530410978e-05
0.2493527944983561,-1.4741383113134084e-05,0.2493527944983561,-2.0921215522386577e-05,0.2493527944983561,2.135673935669002e-05,0.2493527944983561,-6.642574740975479e-05
0.2501469116782872,-6.933864752971988e-06,0.2501469116782872,-2.2205457861305613e-05,0.2501469116782872,1.5235698059341666e-05,0.2501469116782872,-9.559779018133622e-05
0.2509410288582183,2.8299477255831547e-06,0.2509410288582183,-2.107999189943053e-05,0.2509410288582183,1.25887e-05,0.2509410288582183,-0.0001105577381632
0.2517351460381494,1.1224217647269129e-05,0.2517351460381494,-2.1178715376097725e-05,0.2517351460381494,1.1049323712359397e-05,0.2517351460381494,-9.602429883733724e-05
0.2525292632180804,1.6222025265788964e-05,0.2525292632180804,-2.109973846302428e-05,0.2525292632180804,5.637982595570999e-06,0.2525292632180804,-6.928367755044378e-05
0.2533233803980115,1.839391717070849e-05,0.2533233803980115,-2.1612819806947024e-05,0.2533233803980115,3.051371090416779e-07,0.2533233803980115,-2.2765885831797573e-05
0.2541174975779426,1.19541501839227e-05,0.2541174975779426,-2.23239e-05,0.2541174975779426,-5.441902787348546e-06,0.2541174975779426,5.298286092199058e-05
0.2549116147578736,2.7638655540611428e-06,0.2549116147578736,-2.0585693010670256e-05,0.2549116147578736,-1.3399315241916105e-05,0.2549116147578736,0.0001288058783373
0.2557057319378047,-1.0366675110762712e-06,0.2557057319378047,-2.042665444625276e-05,0.2557057319378047,-1.762436578208171e-05,0.2557057319378047,0.000147975418116
0.2564998491177358,-3.5241778421723305e-06,0.2564998491177358,-2.2659209653918847e-05,0.2564998491177358,-8.227001254002301e-06,0.2564998491177358,9.350580410826432e-05
0.2572939662976669,-4.966559492200511e-06,0.2572939662976669,-2.2461791210499903e-05,0.2572939662976669,3.521535115906272e-06,0.2572939662976669,-2.565869679345649e-06
0.2580880834775979,-4.669879942859419e-06,0.2580880834775979,-2.224607131913155e-05,0.2580880834775979,7.199164395025002e-06,0.2580880834775979,-5.54887979429391e-05
0.258882200657529,-4.442338755838699e-06,0.258882200657529,-2.068505539280997e-05,0.258882200657529,3.6257548980894418e-06,0.258882200657529,-7.838345101910558e-05
0.2596763178374601,-6.278087849743972e-06,0.2596763178374601,-2.22843264110546e-05,0.2596763178374601,-9.150126051431984e-07,0.2596763178374601,-0.0001000431876509
0.2604704350173911,-6.349234793960025e-06,0.2604704350173911,-2.177133365060076e-05,0.2604704350173911,-1.3511743164041356e-05,0.2604704350173911,-3.847063030688758e-05
0.2612645521973222,-5.381190203257272e-06,0.2612645521973222,-2.177101809260578e-05,0.2612645521973222,-2.311309898371364e-05,0.2612645521973222,5.428606429550845e-05
0.2620586693772533,-4.235691892714239e-06,0.2620586693772533,-2.0903690783219437e-05,0.2620586693772533,-3.010446675100033e-05,0.2620586693772533,0.0001037418682873
0.2628527865571843,-5.5190689975802e-06,0.2628527865571843,-2.113874815894718e-05,0.2628527865571843,-3.526768434522468e-05,0.2628527865571843,9.894483464572444e-05
0.2636469037371154,-6.447075847525321e-06,0.2636469037371154,-2.062569761426088e-05,0.2636469037371154,-3.5842600162963584e-05,0.2636469037371154,4.775902871203453e-05
0.2644410209170465,-6.842805282354739e-06,0.2644410209170465,-2.0704947091173177e-05,0.2644410209170465,-2.1619650537852612e-05,0.2644410209170465,-2.4516868177215262e-05
0.2652351380969776,-7.749754320925484e-06,0.2652351380969776,-2.08237545713562e-05,0.2652351380969776,-1.29244e-05,0.2652351380969776,-5.764618079855654e-05
0.2660292552769086,-1.4049842451268518e-05,0.2660292552769086,-2.03098e-05,0.2660292552769086,-1.574814547076111e-05,0.2660292552769086,-7.339844485926958e-05
0.2668233724568397,-1.2292000066940994e-05,0.2668233724568397,-1.9126141278760744e-05,0.2668233724568397,-1.5194620093717394e-05,0.2668233724568397,-7.894093984905546e-05
0.2676174896367708,-1.0465723586851433e-05,0.2676174896367708,-2.060502677735586e-05,0.2676174896367708,-1.0889323723630993e-05,0.2676174896367708,-2.1477161926906516e-05
0.2684116068167018,-8.491223234803026e-06,0.2684116068167018,-2.1672258943416563e-05,0.2684116068167018,-4.85694795874738e-06,0.2684116068167018,2.7441111700914835e-05
0.2692057239966329,-1.1542017713997945e-05,0.2692057239966329,-2.228313605063403e-05,0.2692057239966329,5.242406784721734e-06,0.2692057239966329,2.6926307848534824e-05
0.269999841176564,-9.903900899554267e-06,0.269999841176564,-2.29953e-05,0.269999841176564,1.460084054741154e-05,0.269999841176564,-1.5044616524592968e-06
0.270793958356495,-7.079690450428397e-06,0.270793958356495,-2.1830448786657785e-05,0.270793958356495,2.7543313069197916e-05,0.270793958356495,-2.3659931814038424e-05
0.2715880755364261,-7.21752e-06,0.2715880755364261,-2.29953e-05,0.2715880755364261,2.5667468474907125e-05,0.2715880755364261,-5.1928987331669474e-05
0.2723821927163572,-7.514096355094379e-06,0.2723821927163572,-2.2205738804907848e-05,0.2723821927163572,1.4505085060562146e-05,0.2723821927163572,-6.73756441766127e-05
0.2731763098962882,-5.8368723008134446e-06,0.2731763098962882,-2.0428540762599845e-05,0.2731763098962882,1.6110756199696655e-05,0.2731763098962882,-4.948878378717768e-05
0.2739704270762193,-5.656804096423021e-06,0.2739704270762193,-2.1967719009157705e-05,0.2739704270762193,1.5297059780466983e-05,0.2739704270762193,-4.104230413171981e-05
0.2747645442561504,-6.408337284773247e-06,0.2747645442561504,-2.16526e-05,0.2747645442561504,2.913564804620005e-06,0.2747645442561504,-4.854848657871752e-05
0.2755586614360815,-4.551666679370848e-06,0.2755586614360815,-2.082408617808512e-05,0.2755586614360815,1.7279205704936295e-06,0.2755586614360815,-3.2275944692427094e-05
0.2763527786160125,-7.533241798709793e-06,0.2763527786160125,-2.0832071975356725e-05,0.2763527786160125,9.151820131553836e-06,0.2763527786160125,-7.081536734400739e-06
0.2771468957959436,-7.987969143142748e-06,0.2771468957959436,-2.250166444666084e-05,0.2771468957959436,1.0101214761644726e-05,0.2771468957959436,-6.799307622555945e-06
0.2779410129758747,-8.55055918709555e-06,0.2779410129758747,-2.0349155061531877e-05,0.2779410129758747,6.280762451879703e-06,0.2779410129758747,-2.0368304877426706e-05
0.2787351301558057,-8.39246e-06,0.2787351301558057,-1.9223943841110247e-05,0.2787351301558057,5.341158182961322e-06,0.2787351301558057,-1.4646566897202251e-05
0.2795292473357368,-7.523779472394042e-06,0.2795292473357368,-1.944111275997589e-05,0.2795292473357368,5.78584138477131e-06,0.2795292473357368,8.47991750127622e-06
0.2803233645156679,-5.687363897272816e-06,0.2803233645156679,-2.0605709553672545e-05,0.2803233645156679,5.440665296123832e-06,0.2803233645156679,2.3844702797702037e-05
0.2811174816955989,-7.119123253831082e-06,0.2811174816955989,-2.003363119378582e-05,0.2811174816955989,1.2472928375521973e-05,0.2811174816955989,1.87470622449848e-05
0.2819115988755301,-6.091742937477333e-06,0.2819115988755301,-1.805822039965858e-05,0.2819115988755301,1.9697741473184725e-05,0.2819115988755301,-1.512345624906416e-06
0.2827057160554611,-3.090439828347747e-06,0.2827057160554611,-2.0228124929761943e-05,0.2827057160554611,1.819689982834775e-05,0.2827057160554611,-1.8748874890004072e-05
0.2834998332353922,-4.195749463846151e-06,0.2834998332353922,-2.1988192133181435e-05,0.2834998332353922,1.7624320134933122e-05,0.2834998332353922,-3.37344563568057e-05
0.2842939504153233,-6.130920551733178e-06,0.2842939504153233,-2.267958730028525e-05,0.2842939504153233,1.3528624366650448e-05,0.2842939504153233,-3.99004276658231e-05
0.2850880675952543,-4.591753046335995e-06,0.2850880675952543,-2.169149089921822e-05,0.2850880675952543,7.891387055908521e-06,0.2850880675952543,-2.3400755923853335e-05
0.2858821847751854,-3.7595374713513546e-06,0.2858821847751854,-2.23239e-05,0.2858821847751854,5.516270964607175e-06,0.2858821847751854,-6.86545995823695e-06
0.2866763019551165,-6.36739816733539e-06,0.2866763019551165,-2.1277324872437288e-05,0.2866763019551165,1.0650156416966938e-05,0.2866763019551165,-8.061970048535408e-06
0.2874704191350475,-6.54612e-06,0.2874704191350475,-2.09812e-05,0.2874704191350475,1.170111519704432e-05,0.2874704191350475,-1.8106633804021028e-05
0.2882645363149786,-6.368236913898373e-06,0.2882645363149786,-2.2442315186660184e-05,0.2882645363149786,4.652326435478317e-06,0.2882645363149786,-2.6793655382771005e-05
0.2890586534949096,-6.88182e-06,0.2890586534949096,-2.1101746229654116e-05,0.2890586534949096,-1.0515440658942692e-05,0.2890586534949096,-4.147862140184678e-05
0.2898527706748408,-7.158238511337684e-06,0.2898527706748408,-2.0624855225772976e-05,0.2898527706748408,-2.0704096181402944e-05,0.2898527706748408,-1.936674332134349e-05
0.2906468878547718,-7.652280608999428e-06,0.2906468878547718,-2.216595417516056e-05,0.2906468878547718,-1.9620543113694265e-05,0.2906468878547718,1.6611424318299688e-05
0.2914410050347029,-4.609912990427259e-06,0.2914410050347029,-2.2284600134511163e-05,0.2914410050347029,-1.2097033438392047e-05,0.2914410050347029,1.1618180409504292e-05
0.292235122214634,-6.900902209893779e-06,0.292235122214634,-2.244275692696482e-05,0.292235122214634,-9.823947910365834e-06,0.292235122214634,-2.290769466543542e-05
0.293029239394565,-6.921471804673943e-06,0.293029239394565,-2.321247694652122e-05,0.293029239394565,-1.1739537048831512e-05,0.293029239394565,-3.754868524415757e-05
0.2938233565744961,-4.798165819241655e-06,0.2938233565744961,-2.240349114592947e-05,0.2938233565744961,-1.823098796267344e-06,0.2938233565744961,-3.326307163848331e-05
0.2946174737544272,-3.544512215740628e-06,0.2946174737544272,-2.204778259856072e-05,0.2946174737544272,1.678821403287258e-05,0.2946174737544272,-3.0459428862962508e-05
0.2954115909343582,-4.19623e-06,0.2954115909343582,-2.1020538432893745e-05,0.2954115909343582,2.096167501789317e-05,0.2954115909343582,-3.55160900930445e-05
0.2962057081142893,-2.033998342042213e-06,0.2962057081142893,-2.1375265220638902e-05,0.2962057081142893,2.055721593994416e-05,0.2962057081142893,-5.218094438638524e-05
0.2969998252942204,-4.195286086417504e-06,0.2969998252942204,-2.064589549483702e-05,0.2969998252942204,1.2590399032451527e-05,0.2969998252942204,-4.649722053546095e-05
0.2977939424741515,-9.259952401876848e-06,0.2977939424741515,-1.9460561486372547e-05,0.2977939424741515,1.19173e-05,0.2977939424741515,-2.2529051409961422e-05
0.2985880596540825,-1.1117078571678584e-05,0.2985880596540825,-2.0012986419558795e-05,0.2985880596540825,3.33714999804578e-06,0.2985880596540825,-2.574437837827988e-06
0.2993821768340136,-1.2865725906216613e-05,0.2993821768340136,-2.084289472674063e-05,0.2993821768340136,-1.7969704999902302e-05,0.2993821768340136,4.364914175301317e-05
0.3001762940139447,-1.1454422023640297e-05,0.3001762940139447,-2.0941629999074567e-05,0.3001762940139447,-2.6785378974087844e-05,0.3001762940139447,0.0001060433905332
0.3009704111938757,-9.528760328273812e-06,0.3009704111938757,-2.06455e-05,0.3009704111938757,-2.189164047913848e-05,0.3009704111938757,0.0001443756960182
0.3017645283738068,-8.974912736238072e-06,0.3017645283738068,-2.1770987278104982e-05,0.3017645283738068,-1.8809194527523856e-05,0.3017645283738068,0.0001217193804705
0.3025586455537379,-8.283854436194786e-06,0.3025586455537379,-2.09037830581086e-05,0.3025586455537379,-1.924345556380521e-05,0.3025586455537379,5.4689354554827823e-05
0.3033527627336689,-7.681788243861614e-06,0.3033527627336689,-2.214579387882848e-05,0.3033527627336689,-2.4613781606954987e-05,0.3033527627336689,-9.084352023978731e-06
0.3041468799136,-5.6573372004223385e-06,0.3041468799136,-2.1889545909450487e-05,0.3041468799136,-2.2752047764704208e-05,0.3041468799136,-5.809736881892092e-05
0.3049409970935311,-9.19272968043703e-06,0.3049409970935311,-2.117874278576305e-05,0.3049409970935311,-1.0046130882877214e-05,0.3049409970935311,-8.085344856823687e-05
0.3057351142734621,-6.507998987838387e-06,0.3057351142734621,-2.08238007999928e-05,0.3057351142734621,6.780038776730834e-07,0.3057351142734621,-9.04531138932846e-05
0.3065292314533932,-6.012819279823545e-06,0.3065292314533932,-1.96384e-05,0.3065292314533932,1.5352114531130153e-05,0.3065292314533932,-3.2796254906732335e-05
0.3073233486333243,-7.000465648957004e-06,0.3073233486333243,-2.023019860079605e-05,0.3073233486333243,2.1177282231794983e-05,0.3073233486333243,3.0285067330183088e-05
0.3081174658132554,-8.738530514798275e-06,0.3081174658132554,-2.027050936999213e-05,0.3081174658132554,1.098683312540469e-05,0.3081174658132554,3.130484526383948e-05
0.3089115829931864,-1.02388e-05,0.3089115829931864,-1.9026023058886188e-05,0.3089115829931864,7.286615364717547e-06,0.3089115829931864,1.9718528552459792e-05
0.3097057001731175,-1.0041425528538917e-05,0.3097057001731175,-1.975515171594949e-05,0.3097057001731175,4.690069530312933e-06,0.3097057001731175,6.483639293960588e-05
0.3104998173530486,-6.8828726069231775e-06,0.3104998173530486,-2.098108186015109e-05,0.3104998173530486,6.880635816721491e-06,0.3104998173530486,6.362095247315055e-05
0.3112939345329796,-4.295182424255345e-06,0.3112939345329796,-2.0823333377112283e-05,0.3112939345329796,5.90662455939221e-06,0.3112939345329796,-1.1703874362904957e-06
0.3120880517129107,-6.090733934579516e-06,0.3120880517129107,-2.0781560722538936e-05,0.3120880517129107,-2.6140519777980192e-06,0.3120880517129107,-3.8445412334990535e-05
0.3128821688928418,-8.263716445864515e-06,0.3128821688928418,-2.29953e-05,0.3128821688928418,-6.0702522293225785e-06,0.3128821688928418,-7.004493956129183e-05
0.3136762860727728,-8.56031e-06,0.3136762860727728,-2.23239e-05,0.3136762860727728,-4.792087996914646e-06,0.3136762860727728,-0.0001030934328899
0.314470403252704,-7.692098730116664e-06,0.314470403252704,-2.405946642670872e-05,0.314470403252704,3.24706782739012e-06,0.314470403252704,-0.000120378892471
0.315264520432635,-4.216344288115924e-06,0.315264520432635,-2.538491339850109e-05,0.315264520432635,2.6763117492984528e-06,0.315264520432635,-0.0001391283623003
0.3160586376125661,-3.18914e-06,0.3160586376125661,-2.2345621034600356e-05,0.3160586376125661,5.331789353056175e-07,0.3160586376125661,-0.0001098827944922
0.3168527547924971,-3.406259088802937e-06,0.3168527547924971,-2.1267142029868143e-05,0.3168527547924971,5.103210414029051e-06,0.3168527547924971,-4.476661812562696e-05
0.3176468719724282,-4.0379874875618e-06,0.3176468719724282,-2.1267504190144785e-05,0.3176468719724282,1.6297599834157333e-05,0.3176468719724282,3.2155147174830585e-06
0.3184409891523593,-3.130686719696617e-06,0.3184409891523593,-2.169219975384801e-05,0.3184409891523593,2.5184859840910147e-05,0.3184409891523593,4.7522404069626815e-05
0.3192351063322903,-2.823375277628069e-06,0.3192351063322903,-2.29953e-05,0.3192351063322903,2.905693644420491e-05,0.3192351063322903,7.607075277628069e-05
0.3200292235122214,-6.012802117860768e-06,0.3200292235122214,-2.254108721955156e-05,0.3200292235122214,2.123918125102963e-05,0.3200292235122214,4.715098630273938e-05
0.3208233406921525,-8.728812449893288e-06,0.3208233406921525,-2.173219979491924e-05,0.3208233406921525,1.0476068415069512e-05,0.3208233406921525,-7.755233255463348e-06
0.3216174578720835,-1.1818866120973156e-05,0.3216174578720835,-1.9619455032192223e-05,0.3216174578720835,1.3655868717439015e-05,0.3216174578720835,-4.048771945052012e-05
0.3224115750520147,-1.0712696462448745e-05,0.3224115750520147,-1.768323846843165e-05,0.3224115750520147,7.690853974080716e-06,0.3224115750520147,-8.689889587034604e-05
0.3232056922319457,-1.2351682972611148e-05,0.3232056922319457,-1.8926100826698835e-05,0.3232056922319457,-1.2533561134486304e-06,0.3232056922319457,-8.401760395607717e-05
0.3239998094118768,-1.2253137297066453e-05,0.3239998094118768,-2.232291382580939e-05,0.3239998094118768,-8.558387849249392e-06,0.3239998094118768,-4.348192426842078e-05
0.3247939265918079,-7.49687014886681e-06,0.3247939265918079,-2.3982443518805742e-05,0.3247939265918079,-1.25887e-05,0.3247939265918079,-4.3649609213654894e-05
0.3255880437717389,-3.485802191781864e-06,0.3255880437717389,-2.228503991528257e-05,0.3255880437717389,-6.767341605654754e-06,0.3255880437717389,-8.734871390038307e-06
0.32638216095167,-5.25053275592768e-06,0.32638216095167,-2.224469456325951e-05,0.32638216095167,-1.5888414257015745e-06,0.32638216095167,6.026354965765121e-05
0.3271762781316011,-6.05349509370074e-06,0.3271762781316011,-2.224479228895418e-05,0.3271762781316011,-1.0776117265125515e-06,0.3271762781316011,9.322584190816724e-05
0.3279703953115321,-1.4334463710451304e-06,0.3279703953115321,-2.16526e-05,0.3279703953115321,4.057329395373476e-06,0.3279703953115321,6.963406738556694e-05
0.3287645124914632,-7.989772434790407e-07,0.3287645124914632,-2.302490490812461e-05,0.3287645124914632,-8.422372078028722e-09,0.3287645124914632,3.331712301540769e-05
0.3295586296713942,-4.117192142906491e-06,0.3295586296713942,-2.186145314943224e-05,0.3295586296713942,-7.335864862926719e-06,0.3295586296713942,1.6340886342421458e-05
0.3303527468513254,-3.3277571731372288e-06,0.3303527468513254,-2.080299679379549e-05,0.3303527468513254,-8.540269470902745e-06,0.3303527468513254,9.811955079438945e-07
0.3311468640312564,-6.825501226817587e-07,0.3311468640312564,-2.080350017228213e-05,0.3311468640312564,-9.094212965223449e-06,0.3311468640312564,-2.5633231401659604e-05
0.3319409812111875,1.7684256891766085e-06,0.3319409812111875,-1.9164522279213968e-05,0.3319409812111875,-6.803905805224828e-06,0.3319409812111875,-4.7000646037605774e-05
0.3327350983911186,-5.225609764027868e-07,0.3327350983911186,-2.0881511425093957e-05,0.3327350983911186,-4.256388048299234e-06,0.3327350983911186,-5.932685424544245e-05
0.3335292155710496,-1.5503632757252668e-06,0.3335292155710496,-2.096137706820019e-05,0.3335292155710496,-8.789646869843081e-07,0.3335292155710496,-6.1265e-05
0.3343233327509807,1.0367539247308996e-06,0.3343233327509807,-2.03098e-05,0.3343233327509807,3.703962360733537e-06,0.3343233327509807,-6.50181872270404e-05
0.3351174499309118,1.0267896421414329e-06,0.3351174499309118,-2.16526e-05,0.3351174499309118,1.6787775460397495e-05,0.3351174499309118,-8.154951640962656e-05
0.3359115671108428,-2.024229297326971e-06,0.3359115671108428,-2.133658462599241e-05,0.3359115671108428,2.1593304390924943e-05,0.3359115671108428,-9.736258682722518e-05
0.3367056842907739,-3.2486353612587274e-06,0.3367056842907739,-2.03098e-05,0.3367056842907739,1.698278324538121e-05,0.3367056842907739,-8.38187697389213e-05
0.337499801470705,-1.5109260355550758e-06,0.337499801470705,-2.1652086348482986e-05,0.337499801470705,2.1314397167591658e-05,0.337499801470705,-4.717646930849003e-05
0.338293918650636,-2.6555122194345577e-06,0.338293918650636,-2.275850817070377e-05,0.338293918650636,2.953081164408044e-05,0.338293918650636,1.7104808703872705e-06
0.3390880358305671,-5.299550249919919e-06,0.3390880358305671,-2.3043872394209955e-05,0.3390880358305671,2.2035268008322263e-05,0.3390880358305671,1.1307363850971296e-05
0.3398821530104982,-7.100235060488703e-06,0.3398821530104982,-2.3538501626036797e-05,0.3398821530104982,7.160973958035744e-06,0.3398821530104982,-2.194499216458012e-05
0.3406762701904293,-5.934317418611338e-06,0.3406762701904293,-2.2165693298674237e-05,0.3406762701904293,-9.498766631481754e-06,0.3406762701904293,-4.358605647400796e-05
0.3414703873703603,-5.87472e-06,0.3414703873703603,-2.1089635454232105e-05,0.3414703873703603,-1.5964988155493403e-05,0.3414703873703603,-1.74236957718823e-05
0.3422645045502914,-7.355131094745812e-06,0.3422645045502914,-2.0191425905461124e-05,0.3422645045502914,-1.5037643277685568e-05,0.3422645045502914,1.551007235279006e-05
0.3430586217302225,-9.21194465556063e-06,0.3430586217302225,-1.940171747146983e-05,0.3430586217302225,-1.2529512338316511e-05,0.3430586217302225,4.720317772872634e-06
0.3438527389101535,-1.29235374327572e-05,0.3438527389101535,-1.8059370218852338e-05,0.3438527389101535,-1.170018590937948e-05,0.3438527389101535,-2.196641713737596e-05
0.3446468560900846,-1.381320647431955e-05,0.3446468560900846,-1.7160114378564147e-05,0.3446468560900846,-1.2508767628402249e-05,0.3446468560900846,-4.8804754915982495e-06
0.3454409732700157,-1.574631072518266e-05,0.3454409732700157,-1.7861143987030233e-05,0.3454409732700157,-1.64761296074038e-05,0.3454409732700157,2.653221631407696e-05
0.3462350904499467,-1.6933809321483883e-05,0.3462350904499467,-1.70716980190862e-05,0.3462350904499467,-2.0921013348145145e-05,0.3462350904499467,1.7332887003904885e-05
0.3470292076298778,-1.273718144121582e-05,0.3470292076298778,-1.839429498516381e-05,0.3470292076298778,-2.0665371668025803e-05,0.3470292076298778,5.219263249371758e-05
0.3478233248098089,-1.0258428777629776e-05,0.3478233248098089,-1.8255783920486268e-05,0.3478233248098089,-1.8837764725206004e-05,0.3478233248098089,0.0001302261950056
0.34861744198974,-9.27109736353609e-06,0.34861744198974,-1.999299360265623e-05,0.34861744198974,-9.032043912746565e-06,0.34861744198974,0.000147380023993
0.349411559169671,-8.619594143047602e-06,0.349411559169671,-2.09812e-05,0.349411559169671,-2.339883453850091e-06,0.349411559169671,0.000106266537073
0.3502056763496021,-8.451991159649548e-06,0.3502056763496021,-2.2283012783450507e-05,0.3502056763496021,3.4250782267870207e-06,0.3502056763496021,5.568260777389267e-05
0.3509997935295332,-6.882043107732933e-06,0.3509997935295332,-2.265973354939441e-05,0.3509997935295332,1.3089597107463994e-05,0.3509997935295332,-2.8373763141199818e-06
0.3517939107094642,-7.690973701563888e-06,0.3517939107094642,-2.18204e-05,0.3517939107094642,1.9853743013628405e-05,0.3517939107094642,-4.435170530311698e-05
0.3525880278893953,-6.872745470591299e-06,0.3525880278893953,-2.2975877336281254e-05,0.3525880278893953,1.8457092070601715e-05,0.3525880278893953,-4.774991657593412e-05
0.3533821450693264,-4.937756882941485e-06,0.3533821450693264,-2.206753625277129e-05,0.3533821450693264,1.0855008696176036e-05,0.3533821450693264,-5.288172041740855e-05
0.3541762622492574,-5.852802939553445e-06,0.3541762622492574,-2.2008068856587312e-05,0.3541762622492574,8.993297442710155e-06,0.3541762622492574,-6.169798744271015e-05
0.3549703794291886,-6.605949107410909e-06,0.3549703794291886,-2.204766711326042e-05,0.3549703794291886,1.3970053428142546e-05,0.3549703794291886,-6.356266028442764e-05
0.3557644966091196,-5.104267210468419e-06,0.3557644966091196,-2.159341808924575e-05,0.3557644966091196,7.723830787598906e-06,0.3557644966091196,-7.763163516199168e-05
0.3565586137890507,-8.402141969325986e-06,0.3565586137890507,-2.155357740189292e-05,0.3565586137890507,-4.511752372696548e-06,0.3565586137890507,-9.274111326299264e-05
0.3573527309689818,-1.1344416715213744e-05,0.3573527309689818,-2.40024e-05,0.3573527309689818,-4.4534882119656425e-06,0.3573527309689818,-8.794576409076174e-05
0.3581468481489128,-1.1699887792666762e-05,0.3581468481489128,-2.271895179585704e-05,0.3581468481489128,-1.581022518920546e-06,0.3581468481489128,-7.896575351200114e-05
0.3589409653288439,-1.008306333798588e-05,0.3589409653288439,-2.26596e-05,0.3589409653288439,1.8828953112302928e-06,0.3589409653288439,-9.053386461082232e-05
0.3597350825087749,-6.527152204328379e-06,0.3597350825087749,-2.238335414605829e-05,0.3597350825087749,5.972873205498163e-06,0.3597350825087749,-6.866362388613797e-05
0.360529199688706,-6.408094664171956e-06,0.360529199688706,-2.3291561076552984e-05,0.360529199688706,6.6443797092201424e-06,0.360529199688706,-2.432288965034283e-05
0.3613233168686371,-5.53903e-06,0.3613233168686371,-2.368661653414583e-05,0.3613233168686371,1.9827839329191688e-05,0.3613233168686371,-2.5378378833481114e-06
0.3621174340485681,-5.53903e-06,0.3621174340485681,-2.080388660200693e-05,0.3621174340485681,2.986773693283243e-05,0.3621174340485681,-1.3678024430789802e-05
0.3629115512284993,-5.341543661489888e-06,0.3629115512284993,-2.1257815302931853e-05,0.3629115512284993,1.6863468766572388e-05,0.3629115512284993,-3.026242240063146e-05
0.3637056684084303,-5.933690155174565e-06,0.3637056684084303,-2.115929020287079e-05,0.3637056684084303,2.8353602516359395e-06,0.3637056684084303,-2.071223689407791e-06
0.3644997855883614,-7.552911081600508e-06,0.3644997855883614,-2.2323345297674063e-05,0.3644997855883614,-1.1242038538410788e-05,0.3644997855883614,6.208666894984547e-05
0.3652939027682925,-5.736977764292712e-06,0.3652939027682925,-2.418021283105163e-05,0.3652939027682925,-2.141172378231343e-05,0.3652939027682925,8.295173176989262e-05
0.3660880199482235,-6.642254414086453e-06,0.3660880199482235,-2.2304488256986852e-05,0.3660880199482235,-2.6232516314999106e-05,0.3660880199482235,2.6226713999647217e-05
0.3668821371281546,-8.89601e-06,0.3668821371281546,-2.1001454779176263e-05,0.3668821371281546,-2.596146486190318e-05,0.3668821371281546,1.5871703517620127e-05
0.3676762543080857,-9.172101139966464e-06,0.3676762543080857,-2.1139365691282013e-05,0.3676762543080857,-1.8854015143916827e-05,0.3676762543080857,5.238314563517764e-05
0.3684703714880167,-6.982236832670215e-06,0.3684703714880167,-2.23239e-05,0.3684703714880167,-1.5432517363675488e-05,0.3684703714880167,3.594162105319241e-05
0.3692644886679478,-5.933398313870632e-06,0.3692644886679478,-2.046796967728274e-05,0.3692644886679478,-1.0932350262292668e-05,0.3692644886679478,1.0815011285009174e-05
0.3700586058478789,-6.585673620933568e-06,0.3700586058478789,-1.940172772474432e-05,0.3700586058478789,7.794055580289632e-07,0.3700586058478789,-1.8853890212413344e-06
0.3708527230278099,-4.779170813923999e-06,0.3708527230278099,-2.0152334025295524e-05,0.3708527230278099,5.854631406617541e-06,0.3708527230278099,-3.948992718914112e-06
0.371646840207741,-2.6760169105204505e-06,0.371646840207741,-1.9125030991373195e-05,0.371646840207741,5.165031165527131e-06,0.371646840207741,-6.88182e-06
0.3724409573876721,-2.9410161464793853e-06,0.3724409573876721,-2.050729151939045e-05,0.3724409573876721,1.0192492017541524e-06,0.3724409573876721,-4.964936893835847e-06
0.3732350745676032,-5.261869298723982e-06,0.3732350745676032,-2.1809922152279688e-05,0.3732350745676032,-2.536684912827408e-06,0.3732350745676032,-9.88075068451879e-06
0.3740291917475342,-4.907419101740352e-06,0.3740291917475342,-2.206717412512244e-05,0.3740291917475342,3.841832874078058e-07,0.3740291917475342,-1.7465043593038592e-05
0.3748233089274653,-2.873054447692593e-06,0.3748233089274653,-2.0685326332788285e-05,0.3748233089274653,1.0180415768481408e-05,0.3748233089274653,-4.081105468543928e-05
0.3756174261073964,-4.042409211121465e-07,0.3756174261073964,-2.14549484475009e-05,0.3756174261073964,1.519550234087299e-05,0.3756174261073964,-7.815407845120115e-05
0.3764115432873274,1.7475996972518e-06,0.3764115432873274,-2.0388600142151624e-05,0.3764115432873274,1.0870635761525196e-05,0.3764115432873274,-9.38475672659568e-05
0.3772056604672585,-2.1025973044031038e-06,0.3772056604672585,-2.000164910741056e-05,0.3772056604672585,9.42902714217785e-06,0.3772056604672585,-8.087902655040583e-05
0.3779997776471896,-5.202529100445852e-06,0.3779997776471896,-2.1987868532725745e-05,0.3779997776471896,9.23203035505014e-06,0.3779997776471896,-3.37522763241703e-05
0.3787938948271206,-1.023674894675377e-05,0.3787938948271206,-2.062558461092712e-05,0.3787938948271206,9.507178591202876e-06,0.3787938948271206,-3.335229410721849e-06
0.3795880120070517,-1.1227808271319682e-05,0.3795880120070517,-2.110737764814421e-05,0.3795880120070517,1.4836885111624573e-05,0.3795880120070517,-7.757860706830024e-06
0.3803821291869828,-1.0199722219204006e-05,0.3803821291869828,-2.306448865029977e-05,0.3803821291869828,1.5476766630448077e-05,0.3803821291869828,-3.614451074150228e-05
0.3811762463669139,-1.0179185419255337e-05,0.3811762463669139,-2.102073924110192e-05,0.3811762463669139,5.843445448895458e-06,0.3811762463669139,-6.318490218946885e-05
0.3819703635468449,-1.5428330649814558e-05,0.3819703635468449,-2.2401435986559824e-05,0.3819703635468449,-4.0957731225224765e-06,0.3819703635468449,-6.835947274816866e-05
0.382764480726776,-2.0744594764085536e-05,0.382764480726776,-2.3311687800000643e-05,0.382764480726776,-8.210553431142865e-07,0.382764480726776,-3.487432959234124e-05
0.3835585979067071,-1.839451271740238e-05,0.3835585979067071,-1.9995929959671093e-05,0.3835585979067071,3.781400415370428e-06,0.3835585979067071,1.0868227849290022e-05
0.3843527150866381,-1.5275308756530527e-05,0.3843527150866381,-2.107849145368024e-05,0.3843527150866381,1.6493524336823418e-06,0.3843527150866381,2.1119912433682343e-05
0.3851468322665692,-1.9524933806308977e-06,0.3851468322665692,-2.210681917877141e-05,0.3851468322665692,1.67849e-07,0.3851468322665692,1.0917215464085935e-05
0.3859409494465003,1.6524594123450984e-05,0.3859409494465003,-2.117868126611597e-05,0.3859409494465003,-4.427042256996179e-07,0.3859409494465003,-1.4612445863894713e-05
0.3867350666264313,1.957986892833857e-05,0.3867350666264313,-2.16526e-05,0.3867350666264313,-2.6950510149914747e-06,0.3867350666264313,-2.1576888289215504e-05
0.3875291838063624,1.5590745957374587e-05,0.3875291838063624,-2.018139990308415e-05,0.3875291838063624,-1.2346622100409131e-06,0.3875291838063624,6.226284967744673e-06
0.3883233009862935,9.922330029900504e-06,0.3883233009862935,-1.9046662918850988e-05,0.3883233009862935,7.00635530536141e-07,0.3883233009862935,2.096116899872873e-05
0.3891174181662246,4.215169889392232e-06,0.3891174181662246,-1.999291655492856e-05,0.3891174181662246,-5.658758471524473e-06,0.3891174181662246,1.5154563876081284e-05
0.3899115353461556,-1.0663802785877404e-06,0.3899115353461556,-2.1613189655893808e-05,0.3899115353461556,-7.691441009997866e-06,0.3899115353461556,2.007288085604436e-05
0.3907056525260867,-6.032298598949126e-06,0.3907056525260867,-2.1789651625759832e-05,0.3907056525260867,-4.078398478422999e-06,0.3907056525260867,4.814219244570986e-06
0.3914997697060178,-9.901772804908233e-06,0.3914997697060178,-2.366610416424023e-05,0.3914997697060178,-3.3661044946719985e-07,0.3914997697060178,-3.641135520463865e-05
0.3922938868859488,-1.1906560865164154e-05,0.3922938868859488,-2.185951497126333e-05,0.3922938868859488,3.305351547631127e-06,0.3922938868859488,-5.84158899085738e-05
0.3930880040658799,-1.4611910993734338e-05,0.3930880040658799,-2.1394523235562613e-05,0.3930880040658799,1.3263385410014716e-05,0.3930880040658799,-5.065392179269294e-05
0.393882121245811,-1.537556771330641e-05,0.393882121245811,-2.28569587711344e-05,0.393882121245811,1.8693495665524144e-05,0.393882121245811,-3.365955590443547e-05
0.394676238425742,-1.083500301455786e-05,0.394676238425742,-2.291623177107072e-05,0.394676238425742,1.3304143617469432e-05,0.394676238425742,-4.466156509885146e-05
0.3954703556056732,-8.915252389804652e-06,0.3954703556056732,-2.189013464722853e-05,0.3954703556056732,6.785608624178703e-06,0.3954703556056732,-8.849711555676231e-05
0.3962644727856042,-1.0752474617479209e-05,0.3962644727856042,-2.171176650120875e-05,0.3962644727856042,6.821067596721928e-06,0.3962644727856042,-9.942349329318627e-05
0.3970585899655353,-8.659250793007912e-06,0.3970585899655353,-2.1751637978018862e-05,0.3970585899655353,1.2904214320620598e-05,0.3970585899655353,-5.27975452018009e-05
0.3978527071454664,-5.579279515425976e-06,0.3978527071454664,-2.23239e-05,0.3978527071454664,1.3694282317131452e-05,0.3978527071454664,-2.816953536573709e-05
0.3986468243253974,-4.19623e-06,0.3986468243253974,-2.1938926882779156e-05,0.3986468243253974,8.880498696798476e-06,0.3986468243253974,-1.8309945433805375e-05
0.3994409415053285,-2.7561898565722703e-06,0.3994409415053285,-2.218574160101352e-05,0.3994409415053285,-4.624128892920376e-06,0.3994409415053285,4.5276008783735815e-05
0.4002350586852595,1.0754976502988504e-07,0.4002350586852595,-2.1969065031464696e-05,0.4002350586852595,-1.4659597441415364e-05,0.4002350586852595,0.0001454889637533
0.4010291758651906,-7.99409899560545e-07,0.4010291758651906,-2.1415636077285147e-05,0.4010291758651906,-1.2016887168572958e-05,0.4010291758651906,0.000192246746368
0.4018232930451217,-3.2091349110593974e-06,0.4018232930451217,-2.157292682787446e-05,0.4018232930451217,-1.0950193354009145e-05,0.4018232930451217,0.0001528272300127
0.4026174102250527,-9.015668209674392e-06,0.4026174102250527,-2.1594572425693316e-05,0.4026174102250527,-1.782267645290893e-05,0.4026174102250527,0.0001037352823972
0.4034115274049838,-1.4484381716061607e-05,0.4034115274049838,-1.872985154284124e-05,0.4034115274049838,-2.4693529673628087e-05,0.4034115274049838,8.941434291296527e-05
0.4042056445849149,-1.3497151425471103e-05,0.4042056445849149,-1.9597377550334843e-05,0.4042056445849149,-2.591945504441209e-05,0.4042056445849149,5.951432138408162e-05
0.404999761764846,-1.3595628378666922e-05,0.404999761764846,-2.03098e-05,0.404999761764846,-1.0244635125324636e-05,0.404999761764846,1.1932059383521245e-05
0.4057938789447771,-1.2963122333946271e-05,0.4057938789447771,-2.2482454179701805e-05,0.4057938789447771,6.935528906467963e-06,0.4057938789447771,-2.466070916548557e-05
0.4065879961247081,-1.3715652481165413e-05,0.4065879961247081,-2.319230028668701e-05,0.4065879961247081,7.301301898966031e-06,0.4065879961247081,-4.999547518834586e-05
0.4073821133046392,-1.2331132629537072e-05,0.4073821133046392,-2.386405363461921e-05,0.4073821133046392,2.9865334497684747e-06,0.4073821133046392,-6.215853156152692e-05
0.4081762304845703,-1.3476547955666326e-05,0.4081762304845703,-2.3587642024345203e-05,0.4081762304845703,1.0411139242004e-05,0.4081762304845703,-5.833313015240096e-05
0.4089703476645013,-1.0358577915474465e-05,0.4089703476645013,-2.212772522326408e-05,0.4089703476645013,1.2550238103235118e-05,0.4089703476645013,-6.624581578876717e-05
0.4097644648444324,-8.718023941098543e-06,0.4097644648444324,-2.155352783549014e-05,0.4097644648444324,7.68387006248074e-06,0.4097644648444324,-6.936449922657818e-05
0.4105585820243635,-1.0811230542094425e-05,0.4105585820243635,-2.2422943104656104e-05,0.4105585820243635,-1.2335250461572791e-06,0.4105585820243635,-4.904363641834725e-05
0.4113526992042945,-1.1384658297791952e-05,0.4113526992042945,-2.1731317577806716e-05,0.4113526992042945,-1.1167624155685046e-06,0.4113526992042945,-1.976372253779093e-05
0.4121468163842256,-7.278498160970567e-06,0.4121468163842256,-2.21165963184452e-05,0.4121468163842256,4.806645361962427e-06,0.4121468163842256,-1.2520337099834971e-05
0.4129409335641567,-5.577918012127282e-06,0.4129409335641567,-2.078373924043301e-05,0.4129409335641567,6.229864295671858e-06,0.4129409335641567,-4.471333154806229e-05
0.4137350507440878,-7.2363962642941185e-06,0.4137350507440878,-1.9757349384237888e-05,0.4137350507440878,1.01370216438816e-05,0.4137350507440878,-3.542727903598906e-05
0.4145291679240188,-1.094926151507052e-05,0.4145291679240188,-1.8828792700631003e-05,0.4145291679240188,1.52743e-05,0.4145291679240188,-2.284773472055651e-06
0.4153232851039499,-1.0001693530616213e-05,0.4153232851039499,-1.7220210215874728e-05,0.4153232851039499,1.1057786179099776e-05,0.4153232851039499,9.507518239110804e-06
0.416117402283881,-6.525747054692458e-06,0.416117402283881,-1.817633215182161e-05,0.416117402283881,3.6424219806641634e-06,0.416117402283881,-4.504686998281523e-06
0.416911519463812,-9.991887409957691e-06,0.416911519463812,-1.9598969109833192e-05,0.416911519463812,-1.5500875512618444e-06,0.416911519463812,7.533079586522558e-06
0.4177056366437431,-1.0259474523270762e-05,0.4177056366437431,-2.129637850213704e-05,0.4177056366437431,-3.0706114207575844e-06,0.4177056366437431,3.284834273212135e-05
0.4184997538236742,-6.546829362893732e-06,0.4184997538236742,-2.1149238871671785e-05,0.4184997538236742,-2.182572026132364e-06,0.4184997538236742,2.333702962950013e-05
0.4192938710036052,-8.22461e-06,0.4192938710036052,-2.003314576835156e-05,0.4192938710036052,3.167544930455874e-06,0.4192938710036052,-1.128833018771654e-05
0.4200879881835363,-5.362171240535469e-06,0.4200879881835363,-2.0742479127644283e-05,0.4200879881835363,1.060993307511592e-06,0.4200879881835363,-3.97324064479504e-05
0.4208821053634674,-5.726400290877444e-06,0.4208821053634674,-2.163320965021604e-05,0.4208821053634674,-2.009954764298861e-06,0.4208821053634674,-4.676025396211731e-05
0.4216762225433985,-5.598659966537684e-06,0.4216762225433985,-2.080359544476051e-05,0.4216762225433985,9.02408179053428e-06,0.4216762225433985,-6.768293061950501e-05
0.4224703397233295,-3.1314767653795765e-06,0.4224703397233295,-2.2855854232205392e-05,0.4224703397233295,2.486604220700036e-05,0.4224703397233295,-8.782132048720043e-05
0.4232644569032606,-1.865470624271844e-06,0.4232644569032606,-2.2304680252683578e-05,0.4232644569032606,2.5782398491842105e-05,0.4232644569032606,-7.734724849831461e-05
0.4240585740831917,-5.390532520892508e-06,0.4240585740831917,-2.0172196462586704e-05,0.4240585740831917,1.4959295365389172e-05,0.4240585740831917,-3.634857324620465e-05
0.4248526912631227,-7.90907738886385e-06,0.4248526912631227,-2.181000143532618e-05,0.4248526912631227,4.652894933746764e-06,0.4248526912631227,-2.1137732260595324e-05
0.4256468084430538,-8.59846124282722e-06,0.4256468084430538,-2.2837227916505495e-05,0.4256468084430538,-5.170912049453558e-06,0.4256468084430538,-3.383308691397359e-05
0.4264409256229849,-9.844784891071268e-06,0.4264409256229849,-2.1889574746853785e-05,0.4264409256229849,-1.2072808501265032e-05,0.4264409256229849,-4.100121839878287e-05
0.4272350428029159,-7.613575913591314e-06,0.4272350428029159,-2.1100159657268263e-05,0.4272350428029159,-1.537236503608731e-05,0.4272350428029159,-4.512125906542357e-05
0.428029159982847,-5.22327031655905e-06,0.428029159982847,-2.1297184935018823e-05,0.428029159982847,-1.2668461266236198e-05,0.428029159982847,-4.0502345651793205e-05
0.4288232771627781,-3.050662120338266e-06,0.4288232771627781,-2.153305948198815e-05,0.4288232771627781,-1.0317490150422831e-05,0.4288232771627781,-4.333553713399975e-05
0.4296173943427092,-2.466921709421162e-07,0.4296173943427092,-2.271924419711957e-05,0.4296173943427092,-1.035124350089363e-06,0.4296173943427092,-4.933748704647336e-05
0.4304115115226402,3.603751321960297e-06,0.4304115115226402,-2.1692035288731415e-05,0.4304115115226402,6.625146979675349e-06,0.4304115115226402,-3.5910173510844344e-05
0.4312056287025713,5.262175495754412e-06,0.4312056287025713,-1.999463177089327e-05,0.4312056287025713,-4.717183542288152e-06,0.4312056287025713,-1.94634532359726e-05
0.4319997458825024,7.216970811734264e-06,0.4319997458825024,-2.0645006894543675e-05,0.4319997458825024,-1.4936128680070011e-05,0.4319997458825024,-1.2253183062755245e-05
0.4327938630624334,4.355550106893501e-06,0.4327938630624334,-2.3706448593903e-05,0.4327938630624334,-2.05635557648343e-05,0.4327938630624334,-1.3830109592318572e-07
0.4335879802423645,1.9662383452749863e-06,0.4335879802423645,-2.4279924466116864e-05,0.4335879802423645,-1.6605140899012426e-05,0.4335879802423645,1.3302072104231224e-05
0.4343820974222956,3.473293030666167e-07,0.4343820974222956,-2.214699861609708e-05,0.4343820974222956,-6.647492070938467e-06,0.4343820974222956,-1.2879591774358606e-05
0.4351762146022266,-1.943491211550098e-06,0.4351762146022266,-2.03098e-05,0.4351762146022266,-1.002770114876794e-06,0.4351762146022266,-7.101945170771678e-05
0.4359703317821577,-3.2970697958327862e-06,0.4359703317821577,-1.9876000850595887e-05,0.4359703317821577,1.1279744115969778e-05,0.4359703317821577,-9.957301613107604e-05
0.4367644489620888,-2.6169034126187813e-06,0.4367644489620888,-2.042810218332649e-05,0.4367644489620888,2.216385945000436e-05,0.4367644489620888,-7.648271692371931e-05
0.4375585661420199,-2.794023573394073e-06,0.4375585661420199,-2.050790671586126e-05,0.4375585661420199,2.3489443804282476e-05,0.4375585661420199,-2.1026757656163335e-05
0.438352683321951,-4.53193e-06,0.438352683321951,-2.129600577337884e-05,0.438352683321951,3.826266433692927e-06,0.438352683321951,2.1554445125182052e-05
0.439146800501882,-6.031100239500137e-06,0.439146800501882,-2.258055882173757e-05,0.439146800501882,-4.53193e-06,0.439146800501882,5.753203000930818e-05
0.4399409176818131,-1.1007364148222005e-05,0.4399409176818131,-2.1553879873491048e-05,0.4399409176818131,-6.171554919586077e-06,0.4399409176818131,6.502668228102359e-05
0.4407350348617442,-1.3358147873954057e-05,0.4407350348617442,-2.117875134241455e-05,0.4407350348617442,-2.4612461444168566e-06,0.4407350348617442,5.2914056378137824e-05
0.4415291520416752,-1.72086929680753e-05,0.4415291520416752,-2.121813310362381e-05,0.4415291520416752,6.387381204737081e-06,0.4415291520416752,6.05627759057758e-05
0.4423232692216063,-1.770294382632537e-05,0.4423232692216063,-2.1948448034025472e-05,0.4423232692216063,1.6482392447477785e-06,0.4423232692216063,4.441909005598444e-05
0.4431173864015373,-1.2864692462424477e-05,0.4431173864015373,-2.137655447014996e-05,0.4431173864015373,-1.14644536308166e-05,0.4431173864015373,1.1716753008215251e-05
0.4439115035814684,-9.56741e-06,0.4439115035814684,-2.03492514362275e-05,0.4439115035814684,-1.7861015523423025e-05,0.4439115035814684,1.4108798748043748e-05
0.4447056207613995,-1.150198825292675e-05,0.4447056207613995,-2.25980269278126e-05,0.4447056207613995,-2.104002550195117e-05,0.4447056207613995,1.3166781989806927e-05
0.4454997379413306,-1.3092105636384698e-05,0.4454997379413306,-2.36667e-05,0.4454997379413306,-2.131727756693274e-05,0.4454997379413306,-2.969212079116348e-05
0.4462938551212617,-1.1009209754392375e-05,0.4462938551212617,-2.111925396411821e-05,0.4462938551212617,-1.5653336561493275e-05,0.4462938551212617,-4.524432669192831e-05
0.4470879723011927,-1.0160895064928585e-05,0.4470879723011927,-2.16526e-05,0.4470879723011927,1.3185325851144046e-06,0.4470879723011927,-1.59880635080506e-05
0.4478820894811238,-8.443163816032354e-06,0.4478820894811238,-2.16526e-05,0.4478820894811238,2.0957881293672973e-05,0.4478820894811238,1.82181021126782e-05
0.4486762066610549,-7.001106368600323e-06,0.4486762066610549,-2.090217278416872e-05,0.4486762066610549,2.222685497038972e-05,0.4486762066610549,3.03807e-05
0.4494703238409859,-4.67098506382627e-06,0.4494703238409859,-1.944222224725253e-05,0.4494703238409859,1.436057642144781e-05,0.4494703238409859,1.689988882266807e-05
0.450264441020917,-4.511589233663796e-06,0.450264441020917,-1.999327573088836e-05,0.450264441020917,2.285004854224501e-06,0.450264441020917,1.272476547943245e-05
0.4510585582008481,-5.69696498587172e-06,0.4510585582008481,-2.16526e-05,0.4510585582008481,-1.4985948701145237e-05,0.4510585582008481,2.7031427464339674e-05
0.4518526753807791,-6.269735886744554e-06,0.4518526753807791,-2.19883e-05,0.4518526753807791,-1.944152709395643e-05,0.4518526753807791,1.771256639118599e-05
0.4526467925607102,-6.092172338429218e-06,0.4526467925607102,-2.1218338944332788e-05,0.4526467925607102,-1.3756123384292177e-05,0.4526467925607102,-4.121737391758397e-05
0.4534409097406413,-4.53193e-06,0.4534409097406413,-2.209680279656302e-05,0.4534409097406413,-8.998585997839174e-06,0.4534409097406413,-8.24500874081434e-05
0.4542350269205724,-4.2754530960597625e-06,0.4542350269205724,-2.2196506495220597e-05,0.4542350269205724,6.956158704374526e-07,0.4542350269205724,-8.205204669255319e-05
0.4550291441005034,-6.48623569912663e-06,0.4550291441005034,-2.0546722830593475e-05,0.4550291441005034,1.9930452184703957e-05,0.4550291441005034,-6.940343701917379e-05
0.4558232612804345,-8.718230310030961e-06,0.4558232612804345,-2.1868728722164583e-05,0.4558232612804345,3.7272797933126926e-05,0.4558232612804345,-5.508370258359134e-05
0.4566173784603656,-7.296385280634737e-06,0.4566173784603656,-2.2719264743180222e-05,0.4566173784603656,4.6949246559527136e-05,0.4566173784603656,-4.2988075610516826e-05
0.4574114956402966,-7.276712414828346e-06,0.4574114956402966,-2.058611676169619e-05,0.4574114956402966,5.312913862224252e-05,0.4574114956402966,-3.924715379258583e-05
0.4582056128202277,-7.94771963198614e-06,0.4582056128202277,-2.1255196110251664e-05,0.4582056128202277,4.537138831724955e-05,0.4582056128202277,-3.9859946145155616e-05
0.4589997300001588,-1.0238021989084174e-05,0.4589997300001588,-2.165294923100848e-05,0.4589997300001588,3.273449008354906e-05,0.4589997300001588,-3.139188458772651e-05
0.4597938471800898,-1.1383569025187843e-05,0.4597938471800898,-2.0132023124554595e-05,0.4597938471800898,2.124432671510968e-05,0.4597938471800898,-1.3605326571806616e-05
0.4605879643600209,-1.1108036052346188e-05,0.4605879643600209,-2.1039344714792e-05,0.4605879643600209,6.4565177356964e-06,0.4605879643600209,4.639446717164321e-06
0.461382081539952,-9.450279851858773e-06,0.461382081539952,-2.159363382288288e-05,0.461382081539952,-6.007548266477174e-06,0.461382081539952,2.2277421036546004e-05
0.4621761987198831,-7.180062748204758e-06,0.4621761987198831,-2.038881696255673e-05,0.4621761987198831,-1.1775810536761484e-05,0.4621761987198831,4.748052361294116e-05
0.4629703158998141,-4.157859634612855e-06,0.4629703158998141,-2.1848692598613526e-05,0.4629703158998141,-1.205637222595964e-05,0.4629703158998141,6.0142788903838565e-05
0.4637644330797452,-3.425639914765336e-06,0.4637644330797452,-2.220563597989792e-05,0.4637644330797452,-9.666600085234664e-06,0.4637644330797452,4.0664169803632746e-05
0.4645585502596763,-5.459762233749097e-06,0.4645585502596763,-2.070605444482054e-05,0.4645585502596763,-8.42218541234409e-06,0.4645585502596763,2.9532135532501808e-05
0.4653526674396073,-4.887842519508508e-06,0.4653526674396073,-2.0881591095238063e-05,0.4653526674396073,-8.658734986994327e-06,0.4653526674396073,2.8939475013005677e-05
0.4661467846195384,-3.18914e-06,0.4661467846195384,-2.11393029025855e-05,0.4661467846195384,-7.969103879464214e-06,0.4661467846195384,2.3117664365584684e-05
0.4669409017994695,-1.8269186363829765e-06,0.4669409017994695,-2.117861974646892e-05,0.4669409017994695,-5.53903e-06,0.4669409017994695,1.62911077891419e-05
0.4677350189794005,-2.023582366458228e-06,0.4677350189794005,-2.137639523817963e-05,0.4677350189794005,-5.026087633541772e-06,0.4677350189794005,1.6064531424617637e-05
0.4685291361593316,-2.5377146408255908e-06,0.4685291361593316,-2.291618139390798e-05,0.4685291361593316,-4.3540926795872045e-06,0.4685291361593316,5.83864218434877e-06
0.4693232533392627,-1.273624884802756e-06,0.4693232533392627,-2.3262849610943683e-05,0.4693232533392627,-5.361267472164213e-06,0.4693232533392627,-1.098950845759318e-05
0.4701173705191938,1.284102743060639e-07,0.4701173705191938,-2.129823754052643e-05,0.4701173705191938,-2.7543725891291258e-06,0.4701173705191938,-2.2956810456405432e-05
0.4709114876991248,-1.036682945526908e-06,0.4709114876991248,-2.03098e-05,0.4709114876991248,-2.30040189760178e-06,0.4709114876991248,-2.728032142320133e-05
0.4717056048790559,-2.379279818920749e-06,0.4717056048790559,-2.2817168705007865e-05,0.4717056048790559,-3.327593118818585e-06,0.4717056048790559,-3.2038299094603746e-05
0.472499722058987,-2.85344e-06,0.472499722058987,-2.064675839266341e-05,0.472499722058987,-2.85344e-06,0.472499722058987,-3.977709640178341e-05
0.473293839238918,-6.524374406755149e-06,0.473293839238918,-2.1623218086347503e-05,0.473293839238918,9.659097642276064e-08,0.473293839238918,-5.4997748269085056e-05
0.4740879564188491,-7.4153617853598754e-06,0.4740879564188491,-2.2649914668433736e-05,0.4740879564188491,4.816587859290907e-06,0.4740879564188491,-6.81194728671743e-05
0.4748820735987802,-6.151863525449925e-06,0.4748820735987802,-2.2195837462455062e-05,0.4748820735987802,6.132345863472993e-06,0.4748820735987802,-7.658998705089986e-05
0.4756761907787112,-5.568855535839273e-06,0.4756761907787112,-2.1948796645358907e-05,0.4756761907787112,4.158803128611883e-06,0.4756761907787112,-7.238745550866851e-05
0.4764703079586423,-5.53903e-06,0.4764703079586423,-2.1435715834843465e-05,0.4764703079586423,9.97506300711386e-07,0.4764703079586423,-6.419284432113173e-05
0.4772644251385734,-6.6249483669937714e-06,0.4772644251385734,-2.1257764317882287e-05,0.4772644251385734,2.91187948678992e-06,0.4772644251385734,-5.253951776110588e-05
0.4780585423185045,-6.88182e-06,0.4780585423185045,-2.0034674951369648e-05,0.4780585423185045,3.248607433241589e-06,0.4780585423185045,-4.375051153919262e-05
0.4788526594984356,-9.092837041933958e-06,0.4788526594984356,-2.062456758092347e-05,0.4788526594984356,2.4584183802417447e-06,0.4788526594984356,-3.143099450887974e-05
0.4796467766783666,-9.803878869007704e-06,0.4796467766783666,-2.2294170305366628e-05,0.4796467766783666,1.8273314133697837e-06,0.4796467766783666,-3.502464157150472e-05
0.4804408938582977,-1.09102e-05,0.4804408938582977,-2.4535509493194367e-05,0.4804408938582977,1.5300556306032954e-06,0.4804408938582977,-4.283228419009126e-05
0.4812350110382288,-1.0012578520908743e-05,0.4812350110382288,-2.3904701498779147e-05,0.4812350110382288,1.0769481962790202e-06,0.4812350110382288,-1.4955332585714313e-05
0.4820291282181598,-7.277472949065681e-06,0.4820291282181598,-2.005324428866797e-05,0.4820291282181598,-2.9513340098104187e-06,0.4820291282181598,1.7245456775233545e-05
0.4828232453980909,-8.027204112027959e-06,0.4828232453980909,-2.015033061645473e-05,0.4828232453980909,-8.817092787419008e-06,0.4828232453980909,9.744544320025004e-06
0.483617362578022,-1.0979482390825557e-05,0.483617362578022,-2.240228095581536e-05,0.483617362578022,-1.1285344693673132e-05,0.483617362578022,-3.484720441817135e-05
0.484411479757953,-8.83714697800929e-06,0.484411479757953,-2.1731558630050857e-05,0.484411479757953,-2.794876969378467e-06,0.484411479757953,-3.337391815610168e-05
0.4852055969378841,-3.3276045846752075e-06,0.4852055969378841,-2.1412698043622556e-05,0.4852055969378841,4.827772529340024e-06,0.4852055969378841,9.141695286875896e-06
0.4859997141178152,-5.201888386937184e-06,0.4859997141178152,-2.366614525636161e-05,0.4859997141178152,6.210008114935489e-06,0.4859997141178152,4.916847305336675e-05
0.4867938312977463,-6.427783476716747e-06,0.4867938312977463,-2.272867657338102e-05,0.4867938312977463,7.316546953433493e-06,0.4867938312977463,1.9211604124102773e-05
0.4875879484776773,-7.828920856833917e-06,0.4875879484776773,-2.1613857402865955e-05,0.4875879484776773,2.623071426943369e-06,0.4875879484776773,-2.2706838347855925e-05
0.4883820656576084,-7.240965829211707e-06,0.4883820656576084,-2.1375845631056428e-05,0.4883820656576084,-7.70934650404299e-06,0.4883820656576084,-2.788633668877697e-05
0.4891761828375395,-4.315550692866907e-06,0.4891761828375395,-2.183030708798459e-05,0.4891761828375395,-5.859590256383333e-06,0.4891761828375395,-4.224276366663041e-05
0.4899703000174705,-1.630587421621874e-06,0.4899703000174705,-2.086237902864137e-05,0.4899703000174705,-3.1699729855589057e-06,0.4899703000174705,-4.807688850075403e-05
0.4907644171974016,-1.3121804688908269e-06,0.4907644171974016,-2.0191538908794956e-05,0.4907644171974016,-6.041842637664972e-07,0.4907644171974016,-4.357497055443214e-05
0.4915585343773327,-3.485173775478271e-06,0.4915585343773327,-1.96384e-05,0.4915585343773327,6.930009271260066e-06,0.4915585343773327,-2.769786585806477e-05
0.4923526515572637,-2.2022869175906386e-06,0.4923526515572637,-2.1888636836540707e-05,0.4923526515572637,7.149484787071271e-06,0.4923526515572637,-1.3757775340725107e-05
0.4931467687371948,-1.983561850118708e-06,0.4931467687371948,-2.342951482703061e-05,0.4931467687371948,4.115982312648385e-06,0.4931467687371948,1.5806036589592942e-05
0.4939408859171259,-3.644155834217749e-06,0.4939408859171259,-2.370630114012017e-05,0.4939408859171259,1.262178805420253e-05,0.4939408859171259,6.663267715176521e-05
0.494735003097057,-2.4687503872895947e-06,0.494735003097057,-2.16144098302497e-05,0.494735003097057,2.068297793445549e-05,0.494735003097057,0.0001002539009141
0.495529120276988,-5.321181488673117e-06,0.495529120276988,-2.0072907988497568e-05,0.495529120276988,1.926483390385504e-05,0.495529120276988,0.0001228915294476
0.4963232374569191,-7.23727464238623e-06,0.4963232374569191,-1.96384e-05,0.4963232374569191,5.084790380930323e-06,0.4963232374569191,0.0001207232656865
0.4971173546368502,-1.1265997761674204e-05,0.4971173546368502,-2.0921504437728735e-05,0.4971173546368502,-1.508816968065607e-05,0.4971173546368502,7.680157045179275e-05
0.4979114718167812,-1.2786129008373028e-05,0.4979114718167812,-2.100094626417444e-05,0.4979114718167812,-2.6016275976742435e-05,0.4979114718167812,9.1176250914028e-06
0.4987055889967123,-1.3398583113134084e-05,0.4987055889967123,-2.078247529593246e-05,0.4987055889967123,-3.079399287776254e-05,0.4987055889967123,-2.8254134394283365e-05
0.4994997061766434,-1.2756605864681485e-05,0.4994997061766434,-2.198791989787743e-05,0.4994997061766434,-3.64213950032033e-05,0.4994997061766434,-3.860318333689255e-05
0.5002938233565745,-1.0832996118683163e-05,0.5002938233565745,-2.0961377068200222e-05,0.5002938233565745,-3.324759223736633e-05,0.5002938233565745,-3.315945920330761e-05
0.5010879405365055,-8.461383374306343e-06,0.5010879405365055,-2.0367898486155488e-05,0.5010879405365055,-2.1071991855487765e-05,0.5010879405365055,-3.601458295005662e-05
0.5018820577164366,-8.661854060496164e-06,0.5018820577164366,-2.072494696296097e-05,0.5018820577164366,-2.541413394317101e-06,0.5018820577164366,-6.92899572391035e-05
0.5026761748963677,-5.777692491215279e-06,0.5026761748963677,-2.1178653742429917e-05,0.5026761748963677,1.035091254755791e-05,0.5026761748963677,-9.802065191852036e-05
0.5034702920762988,-6.5652708584270685e-06,0.5034702920762988,-2.157529514285196e-05,0.5034702920762988,1.3367937146845392e-05,0.5034702920762988,-8.80160831085543e-05
0.5042644092562298,-7.632034577733457e-06,0.5042644092562298,-1.94800762272622e-05,0.5042644092562298,1.335934922328528e-05,0.5042644092562298,-5.298342176279945e-05
0.5050585264361609,-7.88891e-06,0.5050585264361609,-2.101966302664929e-05,0.5050585264361609,1.037763898422708e-05,0.5050585264361609,-1.105496404616754e-05
0.505852643616092,-1.0869675301282086e-05,0.505852643616092,-2.16526e-05,0.505852643616092,7.88891e-06,0.505852643616092,4.590364596888632e-05
0.506646760796023,-1.1997576352420188e-05,0.506646760796023,-2.16526e-05,0.506646760796023,6.725650415125811e-06,0.506646760796023,7.153881589754028e-05
0.507440877975954,-9.961312493727524e-06,0.507440877975954,-2.090227846649874e-05,0.507440877975954,5.20333e-06,0.507440877975954,4.685322258905272e-05
0.5082349951558852,-9.8843915549977e-06,0.5082349951558852,-2.03098e-05,0.5082349951558852,3.6646135128060377e-06,0.5082349951558852,5.341904000992954e-06
0.5090291123358163,-7.593232632165728e-06,0.5090291123358163,-2.10404027937379e-05,0.5090291123358163,1.17494e-06,0.5090291123358163,-4.383862948568821e-05
0.5098232295157473,-7.3952292768540284e-06,0.5098232295157473,-2.159277766178912e-05,0.5098232295157473,4.3146668804438085e-06,0.5098232295157473,-6.156125583425634e-05
0.5106173466956784,-8.81709768059883e-06,0.5106173466956784,-2.07052058353016e-05,0.5106173466956784,9.587453073075071e-06,0.5106173466956784,-5.794745615970059e-05
0.5114114638756094,-6.092132779506297e-06,0.5114114638756094,-1.967790280137919e-05,0.5114114638756094,1.324011637679658e-05,0.5114114638756094,-6.922182307454729e-05
0.5122055810555405,-6.170528131257653e-06,0.5122055810555405,-2.0761866477311565e-05,0.5122055810555405,1.3457305420838436e-05,0.5122055810555405,-7.162456725379869e-05
0.5129996982354716,-6.210854774043658e-06,0.5129996982354716,-2.265901449541413e-05,0.5129996982354716,1.4937947838934513e-05,0.5129996982354716,-6.160450424050383e-05
0.5137938154154027,-5.283073098446127e-06,0.5137938154154027,-2.161292763340801e-05,0.5137938154154027,1.3458176838921796e-05,0.5137938154154027,-6.098714186345656e-05
0.5145879325953338,-5.607946401722182e-06,0.5145879325953338,-1.9854605447521484e-05,0.5145879325953338,1.3535782031198006e-05,0.5145879325953338,-5.797462070361895e-05
0.5153820497752648,-4.19623e-06,0.5153820497752648,-2.02508749150043e-05,0.5153820497752648,1.3697377296046518e-05,0.5153820497752648,-4.453513675186343e-05
0.5161761669551959,-4.19623e-06,0.5161761669551959,-1.950013987364668e-05,0.5161761669551959,9.985110737456707e-06,0.5161761669551959,-2.2323612678174737e-05
0.5169702841351269,-5.311173986188643e-06,0.5169702841351269,-2.1414937511222e-05,0.5169702841351269,6.073866888304252e-06,0.5169702841351269,-5.6398873255507e-06
0.5177644013150581,-5.696650062053317e-06,0.5177644013150581,-2.23239e-05,0.5177644013150581,5.638288733086173e-06,0.5177644013150581,-1.1744943376275318e-05
0.5185585184949891,-6.842140252764956e-06,0.5185585184949891,-2.090427519085061e-05,0.5185585184949891,4.551769873617522e-06,0.5185585184949891,-2.7139589448710462e-05
0.5193526356749202,-6.664780438557615e-06,0.5193526356749202,-2.149258543868173e-05,0.5193526356749202,7.265192903135989e-06,0.5193526356749202,-4.056733298307816e-05
0.5201467528548512,-6.309682006995428e-06,0.5201467528548512,-2.406135978644455e-05,0.5201467528548512,1.2281403092094142e-05,0.5201467528548512,-5.1421483874082296e-05
0.5209408700347823,-6.901218431562187e-06,0.5209408700347823,-2.59179106333146e-05,0.5209408700347823,1.3970296863124376e-05,0.5209408700347823,-7.84707330524232e-05
0.5217349872147133,-6.961071699615311e-06,0.5217349872147133,-2.3747610489682456e-05,0.5217349872147133,1.5628693201538753e-05,0.5217349872147133,-8.926778658979803e-05
0.5225291043946444,-6.960739898371364e-06,0.5225291043946444,-2.33408359589662e-05,0.5225291043946444,2.249948972977321e-05,0.5225291043946444,-5.82953521261181e-05
0.5233232215745756,-5.736571419604172e-06,0.5233232215745756,-2.36667e-05,0.5233232215745756,2.8781119051706388e-05,0.5233232215745756,3.089348838113186e-06
0.5241173387545066,-1.7474101807748042e-06,0.5241173387545066,-2.305501610833192e-05,0.5241173387545066,3.308630485828606e-05,0.5241173387545066,6.038926877116384e-05
0.5249114559344377,-3.2282569156466594e-06,0.5249114559344377,-2.1711863726437936e-05,0.5249114559344377,2.8446549153087307e-05,0.5249114559344377,0.0001158212139689
0.5257055731143687,-5.144642090377723e-06,0.5257055731143687,-2.259784202244705e-05,0.5257055731143687,9.928948266847309e-06,0.5257055731143687,0.000148070254459
0.5264996902942998,-3.5252762154659056e-06,0.5264996902942998,-2.383449980811741e-05,0.5264996902942998,-1.325162193804881e-05,0.5264996902942998,0.0001502265618205
0.5272938074742308,-4.19623e-06,0.5272938074742308,-2.196845056367791e-05,0.5272938074742308,-2.4767623064174566e-05,0.5272938074742308,0.0001146676054415
0.528087924654162,-2.026430768031798e-06,0.528087924654162,-1.967711177804305e-05,0.528087924654162,-3.9233293831422e-05,0.528087924654162,4.7710595382034746e-05
0.528882041834093,3.86504311940224e-07,0.528882041834093,-2.03098e-05,0.528882041834093,-5.876632378819564e-05,0.528882041834093,-2.0199159742687097e-05
0.5296761590140241,-1.883653879329088e-06,0.5296761590140241,-2.060601715190788e-05,0.5296761590140241,-6.556942249143325e-05,0.5296761590140241,-3.8400187542833766e-05
0.5304702761939551,-2.4290330061043566e-06,0.5304702761939551,-1.9008618285424864e-05,0.5304702761939551,-6.0517088097669706e-05,0.5304702761939551,-1.839475783347623e-05
0.5312643933738862,-1.0378099121007997e-06,0.5312643933738862,-1.9203460544228075e-05,0.5312643933738862,-5.352652870605877e-05,0.5312643933738862,-2.0302021338859868e-05
0.5320585105538173,1.7669580464117068e-06,0.5320585105538173,-1.959996773317437e-05,0.5320585105538173,-4.481737531273126e-05,0.5320585105538173,-4.148522074033879e-05
0.5328526277337483,-4.629479194141905e-07,0.5328526277337483,-2.062448539668068e-05,0.5328526277337483,-2.607362844577472e-05,0.5328526277337483,-3.548022046085568e-05
0.5336467449136795,-3.543776269069764e-06,0.5336467449136795,-2.16526e-05,0.5336467449136795,-6.021026885205597e-06,0.5336467449136795,-2.712297347302283e-05
0.5344408620936105,-5.674777734480911e-06,0.5344408620936105,-1.96384e-05,0.5344408620936105,8.228278758522845e-06,0.5344408620936105,-2.6965521904354383e-05
0.5352349792735416,-8.658237739020935e-06,0.5352349792735416,-2.0466937237733597e-05,0.5352349792735416,1.735379611543103e-05,0.5352349792735416,-2.5760157420326355e-05
0.5360290964534726,-7.75111247354558e-06,0.5360290964534726,-2.13169e-05,0.5360290964534726,2.490934076031684e-05,0.5360290964534726,-2.384456592396832e-05
0.5368232136334037,-9.13291052531783e-06,0.5368232136334037,-2.190852429512936e-05,0.5368232136334037,2.57995249582615e-05,0.5368232136334037,-2.854364617841974e-05
0.5376173308133347,-9.64634407577465e-06,0.5376173308133347,-2.117891319068118e-05,0.5376173308133347,2.459486474854392e-05,0.5376173308133347,-5.565835709031591e-05
0.5384114479932659,-1.0672710403385447e-05,0.5384114479932659,-2.0349323347439808e-05,0.5384114479932659,2.5355241073660123e-05,0.5384114479932659,-7.411970628398744e-05
0.539205565173197,-1.3142770044865086e-05,0.539205565173197,-2.1433168182454203e-05,0.539205565173197,2.076527880047322e-05,0.539205565173197,-6.27723321268287e-05
0.539999682353128,-9.568554135403928e-06,0.539999682353128,-2.500785631514544e-05,0.539999682353128,1.829582882844408e-05,0.539999682353128,-3.307911432470373e-05
0.5407937995330591,-1.1383500229023288e-05,0.5407937995330591,-2.3271623661873668e-05,0.5407937995330591,2.4530881223151423e-05,0.5407937995330591,-8.549061007090258e-06
0.5415879167129901,-1.1521559099143158e-05,0.5415879167129901,-2.16526e-05,0.5415879167129901,2.4965151159034084e-05,0.5415879167129901,-1.3737787877127384e-05
0.5423820338929212,-1.1070360731177648e-05,0.5423820338929212,-2.16526e-05,0.5423820338929212,1.914666406147417e-05,0.5423820338929212,-4.689038654550103e-05
0.5431761510728523,-9.045218073194657e-06,0.5431761510728523,-2.106015544290971e-05,0.5431761510728523,1.630379937566717e-05,0.5431761510728523,-8.882184141712297e-05
0.5439702682527834,-9.329972400620364e-06,0.5439702682527834,-2.2519969331430128e-05,0.5439702682527834,1.20182421304383e-05,0.5439702682527834,-9.578990985715442e-05
0.5447643854327144,-1.1896799053753126e-05,0.5447643854327144,-2.23239e-05,0.5447643854327144,8.738410473123438e-06,0.5447643854327144,-7.876870993559218e-05
0.5455585026126455,-9.765922805108078e-06,0.5455585026126455,-2.1614153594357647e-05,0.5455585026126455,7.277073427593259e-06,0.5455585026126455,-4.555383328795989e-05
0.5463526197925765,-3.99951761834029e-06,0.5463526197925765,-2.074520136203501e-05,0.5463526197925765,6.21042e-06,0.5463526197925765,1.7334961342854543e-06
0.5471467369725076,-5.5981302440122e-06,0.5471467369725076,-2.1000570918464755e-05,0.5471467369725076,3.9408958688510696e-06,0.5471467369725076,3.929824042772308e-05
0.5479408541524387,-5.932880896604206e-06,0.5479408541524387,-2.186975425422008e-05,0.5479408541524387,1.2137139310694708e-06,0.5479408541524387,7.064511303446526e-05
0.5487349713323698,-6.88182e-06,0.5487349713323698,-2.14359521145412e-05,0.5487349713323698,3.1285166559429062e-06,0.5487349713323698,5.4686227991983e-05
0.5495290885123009,-6.921906578717591e-06,0.5495290885123009,-2.22251156422111e-05,0.5495290885123009,7.716111482641978e-07,0.5495290885123009,1.6624610296291933e-05
0.5503232056922319,-7.237137346001424e-06,0.5503232056922319,-2.206807407462447e-05,0.5503232056922319,-4.038189555036037e-06,0.5503232056922319,-8.39246e-07
0.551117322872163,-7.711112259114552e-06,0.551117322872163,-2.04477816728037e-05,0.551117322872163,-3.682723434966764e-06,0.551117322872163,6.862607846465767e-06
0.551911440052094,-3.406611575158385e-06,0.551911440052094,-2.096143318976484e-05,0.551911440052094,1.4309156450557047e-06,0.551911440052094,1.270802100786326e-05
0.5527055572320251,-4.19623e-06,0.5527055572320251,-2.1275651543667257e-05,0.5527055572320251,5.20333e-06,0.5527055572320251,-3.6196013679466415e-06
0.5534996744119562,-2.518912738788735e-06,0.5534996744119562,-2.232368946561179e-05,0.5534996744119562,3.190547287943856e-06,0.5534996744119562,-7.890317287943857e-06
0.5542937915918873,-2.575539716740981e-06,0.5542937915918873,-2.1385962147062732e-05,0.5542937915918873,1.9453956185020043e-06,0.5542937915918873,2.492722792575869e-05
0.5550879087718184,-4.876489541394744e-06,0.5550879087718184,-2.027110876801771e-05,0.5550879087718184,-2.846541385902298e-06,0.5550879087718184,5.645591923050533e-05
0.5558820259517494,-6.249423251617799e-06,0.5558820259517494,-2.04275885318094e-05,0.5558820259517494,-1.08711967483822e-05,0.5558820259517494,5.809603171602622e-05
0.5566761431316805,-8.478189128121383e-06,0.5566761431316805,-2.1731533431340585e-05,0.5566761431316805,-8.918441921889617e-06,0.5566761431316805,4.6621190049791e-05
0.5574702603116115,-1.1778107639107115e-05,0.5574702603116115,-2.362502007639285e-05,0.5574702603116115,-9.922209808182034e-06,0.5574702603116115,3.5263359258095384e-05
0.5582643774915427,-1.2449973371035692e-05,0.5582643774915427,-2.337119329131948e-05,0.5582643774915427,-7.179768309767972e-06,0.5582643774915427,3.119246553000059e-05
0.5590584946714737,-1.198679679674299e-05,0.5590584946714737,-2.1751699497665915e-05,0.5590584946714737,-2.972581844439322e-06,0.5590584946714737,1.2890290645148325e-05
0.5598526118514048,-9.825094652764744e-06,0.5598526118514048,-2.3331e-05,0.5598526118514048,-3.840200622432754e-06,0.5598526118514048,-3.628799387108761e-05
0.5606467290313358,-6.645416405077638e-06,0.5606467290313358,-2.2304626068642287e-05,0.5606467290313358,-8.262427263712647e-06,0.5606467290313358,-6.832873594922361e-05
0.5614408462112669,-6.565501232521082e-06,0.5614408462112669,-2.151424797354729e-05,0.5614408462112669,-1.0277562465042165e-05,0.5614408462112669,-7.137781910192358e-05
0.5622349633911979,-6.368957723497206e-06,0.5622349633911979,-2.2816724152093087e-05,0.5622349633911979,-9.628051947442396e-06,0.5622349633911979,-6.547530931322285e-05
0.563029080571129,-5.894779432080938e-06,0.563029080571129,-2.167260586035548e-05,0.563029080571129,-3.3495710098884904e-06,0.563029080571129,-5.390226994242072e-05
0.5638231977510602,-6.19038191284263e-06,0.5638231977510602,-1.9294392422839204e-05,0.5638231977510602,3.07071173806489e-06,0.5638231977510602,-4.548757741255394e-05
0.5646173149309912,-1.1305247533735548e-05,0.5646173149309912,-2.0546608818715656e-05,0.5646173149309912,1.3328563670213946e-06,0.5646173149309912,-3.293759005140179e-05
0.5654114321109223,-1.211470034330453e-05,0.5654114321109223,-2.06455e-05,0.5654114321109223,-3.652487552784844e-07,0.5654114321109223,-1.525659004416865e-05
0.5662055492908533,-8.700175263717611e-06,0.5662055492908533,-2.16526e-05,0.5662055492908533,-1.51064e-06,0.5662055492908533,-9.841844182193407e-06
0.5669996664707844,-6.21042e-06,0.5669996664707844,-2.0646147200911388e-05,0.5669996664707844,5.021063893912672e-07,0.5669996664707844,-1.6782136932324583e-05
0.5677937836507154,-4.741064482447428e-06,0.5677937836507154,-2.133667156664802e-05,0.5677937836507154,1.17494e-06,0.5677937836507154,-2.3996886533124464e-05
0.5685879008306466,-1.1572532771337771e-06,0.5685879008306466,-2.094251904104796e-05,0.5685879008306466,1.51064e-06,0.5685879008306466,-3.819025208860505e-05
0.5693820180105776,8.002487137313786e-07,0.5693820180105776,-2.0704383992874404e-05,0.5693820180105776,9.486034897582444e-07,0.5693820180105776,-4.068729181164642e-05
0.5701761351905087,-1.1524741096574902e-06,0.5701761351905087,-2.1613132531819698e-05,0.5701761351905087,1.0555520811717485e-06,0.5701761351905087,-1.756514772865398e-05
0.5709702523704397,-2.18204e-06,0.5709702523704397,-2.13169e-05,0.5709702523704397,4.2153236513159895e-06,0.5709702523704397,-6.052116825657995e-06
0.5717643695503708,-5.240941201275006e-07,0.5717643695503708,-2.153440054697696e-05,0.5717643695503708,4.847080941078076e-06,0.5717643695503708,-1.1461718254112235e-05
0.5725584867303019,5.03548e-07,0.5725584867303019,-2.09812e-05,0.5725584867303019,6.506394388655137e-06,0.5725584867303019,-1.3575937194327569e-05
