X [s],R BICEPS BRACHII: EMG 1 [V],X [s].1,R DELTOID ANTERIOR: EMG 2 [V],X [s].5,R DELTOID MEDIUS: EMG 6 [V],X [s].6,R DELTOID POSTERIOR: EMG 7 [V]
0.0,-2.36667e-05,0.0,0.000135454,0.0,2.51774e-06,0.0,-1.8967e-05
0.000794117179931,-3.760812265108026e-05,0.000794117179931,7.720085532281157e-05,0.000794117179931,-3.919773937989531e-06,0.000794117179931,-1.553101200425084e-05
0.0015882343598621,-4.993018324478952e-05,0.0015882343598621,1.8552249842060924e-05,0.0015882343598621,-6.921313387115506e-06,0.0015882343598621,-1.410919349379682e-05
0.0023823515397932,-6.046517024920735e-05,0.0023823515397932,-1.229256288004475e-05,0.0023823515397932,-1.1818545916202632e-05,0.0023823515397932,-1.6873818027932457e-05
0.0031764687197242,-6.217336670208419e-05,0.0031764687197242,-1.9746963095329372e-05,0.0031764687197242,-1.3181071336885314e-05,0.0031764687197242,-1.4069733404168388e-05
0.0039705858996553,-5.0068540301351696e-05,0.0039705858996553,-2.7013746002663062e-05,0.0039705858996553,-1.221352280018644e-05,0.0039705858996553,-1.2687405419888374e-05
0.0047647030795864,-3.303666849937178e-05,0.0047647030795864,-4.562529970251585e-05,0.0047647030795864,-7.829683635138983e-06,0.0047647030795864,-1.35958e-05
0.0055588202595174,-1.166075255298395e-05,0.0055588202595174,-4.001734270952218e-05,0.0055588202595174,-1.3625790207990617e-06,0.0055588202595174,-1.2489933324168553e-05
0.0063529374394485,4.0479679325154553e-07,0.0063529374394485,-2.82874670218711e-05,0.0063529374394485,-9.379761214690044e-07,0.0063529374394485,-1.1384133404168385e-05
0.0071470546193796,1.2351590452564011e-05,0.0071470546193796,-4.6257132582339646e-05,0.0071470546193796,-2.498007126702976e-06,0.0071470546193796,-1.02388e-05
0.0079411717993107,3.099284135676332e-05,0.0079411717993107,-6.612273766339212e-05,0.0079411717993107,2.0437975237756647e-06,0.0079411717993107,-1.1028732531015906e-05
0.0087352889792417,3.592961357334364e-05,0.0087352889792417,-5.293179739934475e-05,0.0087352889792417,6.743563073120371e-06,0.0087352889792417,-8.185161000446526e-06
0.0095294061591728,3.517925026563145e-05,0.0095294061591728,-1.4822453561562977e-07,0.0095294061591728,1.0416494065749882e-05,0.0095294061591728,-5.785857486718428e-06
0.0103235233391039,1.94219417032838e-05,0.0103235233391039,3.450804335250453e-05,0.0103235233391039,1.255907914364007e-05,0.0103235233391039,-7.237162660343117e-06
0.0111176405190349,-1.3082627033558286e-05,0.0111176405190349,5.785037681992139e-06,0.0111176405190349,1.1680319992321886e-05,0.0111176405190349,-8.89601e-06
0.011911757698966,-5.631049119436842e-05,0.011911757698966,-6.056388825788665e-05,0.011911757698966,9.113124963276832e-06,0.011911757698966,-6.348624770047463e-06
0.0127058748788971,-0.0001077666314855,0.0127058748788971,-8.902923645905931e-05,0.0127058748788971,6.447411306453778e-06,0.0127058748788971,-7.049440954758808e-06
0.0134999920588282,-0.0001707023185092,0.0134999920588282,-3.709542910113014e-05,0.0134999920588282,6.378267136572102e-06,0.0134999920588282,-1.2252945595040528e-05
0.0142941092387592,-0.0002225589320406,0.0142941092387592,3.940419466666277e-05,0.0142941092387592,2.162138531852881e-06,0.0142941092387592,-1.35958e-05
0.0150882264186903,-0.0001575798928858,0.0150882264186903,4.784765459805753e-05,0.0150882264186903,-3.2478315118943907e-06,0.0150882264186903,-1.1492957343011864e-05
0.0158823435986214,1.59402776239734e-05,0.0158823435986214,1.0704019068206308e-05,0.0158823435986214,-9.0144455117844e-06,0.0158823435986214,-9.330537800414044e-06
0.0166764607785524,0.0002170708322853,0.0166764607785524,-1.400997429677317e-05,0.0166764607785524,-1.0179564475531832e-05,0.0166764607785524,-5.894441382271474e-06
0.0174705779584835,0.000356499993792,0.0174705779584835,-3.097358085366899e-05,0.0174705779584835,-5.223247702738004e-06,0.0174705779584835,-4.86763e-06
0.0182646951384146,0.0003756195492466,0.0182646951384146,-4.309738439085809e-05,0.0182646951384146,1.8066457975830964e-06,0.0182646951384146,-5.953683518723501e-06
0.0190588123183456,0.0002982094064638,0.0190588123183456,-5.178654121331886e-05,0.0190588123183456,4.808377294964443e-06,0.0190588123183456,-5.894470901678519e-06
0.0198529294982767,0.0001624240518745,0.0198529294982767,-5.222093811578189e-05,0.0198529294982767,4.966399355838927e-06,0.0198529294982767,-7.513821596421221e-06
0.0206470466782078,3.360541864331385e-05,0.0206470466782078,-4.914024699731325e-05,0.0206470466782078,6.111616283026298e-06,0.0206470466782078,-1.1147096283026298e-05
0.0214411638581389,-4.750016041606617e-05,0.0214411638581389,-4.12815981915633e-05,0.0214411638581389,6.3486694183333055e-06,0.0214411638581389,-1.229246744222226e-05
0.0222352810380699,-8.70647671486844e-05,0.0222352810380699,-2.7300061367790813e-05,0.0222352810380699,4.847850444446869e-06,0.0222352810380699,-1.241096139858178e-05
0.023029398218001,-9.39660067762858e-05,0.023029398218001,-1.843370309540024e-05,0.023029398218001,3.2286509275136853e-06,0.023029398218001,-1.1068170944551012e-05
0.0238235153979321,-7.889973133907588e-05,0.0238235153979321,-2.730013132468632e-05,0.0238235153979321,1.727903312198444e-06,0.0238235153979321,-1.2193781656099222e-05
0.0246176325778631,-6.440480976473544e-05,0.0246176325778631,-3.7311925833920063e-05,0.0246176325778631,1.17494e-06,0.0246176325778631,-1.0732484306004966e-05
0.0254117497577942,-5.493581062587268e-05,0.0254117497577942,-3.46263821251794e-05,0.0254117497577942,3.5644606387607983e-06,0.0254117497577942,-1.1591578189416578e-05
0.0262058669377253,-5.226021186676171e-05,0.0262058669377253,-3.1111378151422374e-05,0.0262058669377253,5.104627033309574e-06,0.0262058669377253,-1.4069794066619149e-05
0.0269999841176564,-5.555801982401885e-05,0.0269999841176564,-2.7359482152584693e-05,0.0269999841176564,3.860564361134779e-06,0.0269999841176564,-1.35958e-05
0.0277941012975874,-5.674297062943194e-05,0.0277941012975874,-2.392342811040858e-05,0.0277941012975874,6.289467696214189e-06,0.0277941012975874,-1.4978122377659164e-05
0.0285882184775185,-6.0317224821039856e-05,0.0285882184775185,-2.895864328099013e-05,0.0285882184775185,6.941144821039855e-06,0.0285882184775185,-1.6557775178960146e-05
0.0293823356574496,-5.593362929475111e-05,0.0293823356574496,-3.831872409527412e-05,0.0293823356574496,4.137199485066007e-06,0.0293823356574496,-1.636034633815611e-05
0.0301764528373806,-4.5111989882046085e-05,0.0301764528373806,-3.5317999055771475e-05,0.0301764528373806,4.8379971654342e-07,0.0301764528373806,-1.8888011240732252e-05
0.0309705700173117,-3.549534462348798e-05,0.0309705700173117,-2.0724132757062074e-05,0.0309705700173117,1.4813728218844952e-07,0.0309705700173117,-2.183030615294578e-05
0.0317646871972428,-2.8761806497587556e-05,0.0317646871972428,-8.75756740207583e-06,0.0317646871972428,-2.666755652106132e-07,0.0317646871972428,-1.9993968832529183e-05
0.0325588043771738,-2.0941843542811155e-05,0.0325588043771738,-3.281022129532827e-05,0.0325588043771738,1.7673139566790176e-06,0.0325588043771738,-1.6439453028274545e-05
0.0333529215571049,-1.6972513146808993e-05,0.0333529215571049,-7.591749663482015e-05,0.0333529215571049,3.7815848577978753e-06,0.0333529215571049,-1.5373057902127337e-05
0.034147038737036,-1.6153111604466943e-05,0.034147038737036,-4.331471601898462e-05,0.034147038737036,2.2416035053188518e-06,0.034147038737036,-1.6389996433781642e-05
0.0349411559169671,-1.5827007936808663e-05,0.0349411559169671,2.263740365528748e-05,0.0349411559169671,-1.253851977021332e-06,0.0349411559169671,-1.5886516017233998e-05
0.0357352730968981,-2.3666754284379134e-05,0.0357352730968981,2.0388934187511397e-05,0.0357352730968981,-3.0311671477066222e-06,0.0357352730968981,-1.3398318556880132e-05
0.0365293902768292,-3.865439134883119e-05,0.0365293902768292,-4.878213330464615e-05,0.0365293902768292,-1.9864612379624254e-08,0.0365293902768292,-1.1601369562149574e-05
0.0373235074567603,-5.147000187271967e-05,0.0373235074567603,-3.626595746103748e-05,0.0373235074567603,1.945190590133168e-06,0.0373235074567603,-9.330559531820085e-06
0.0381176246366913,-6.018862973482062e-05,0.0381176246366913,2.6845859345585168e-05,0.0381176246366913,2.468522537042156e-07,0.0381176246366913,-7.039826036728617e-06
0.0389117418166224,-7.548328349715573e-05,0.0389117418166224,5.243969480889432e-06,0.0389117418166224,1.3922202868875974e-06,0.0389117418166224,-7.67174922221797e-06
0.0397058589965535,-9.258295031702332e-05,0.0397058589965535,-7.860165533167586e-05,0.0397058589965535,1.6294683695397994e-06,0.0397058589965535,-8.46161276016537e-06
0.0404999761764846,-0.0001015487594618,0.0404999761764846,-6.730887862076782e-05,0.0404999761764846,-4.867406653545115e-06,0.0404999761764846,-8.22461e-06
0.0412940933564156,-8.997680659126995e-05,0.0412940933564156,2.5677938065250845e-05,0.0412940933564156,-6.980551600969408e-06,0.0412940933564156,-9.685894199515296e-06
0.0420882105363467,-2.963773645260964e-05,0.0420882105363467,6.326014632741531e-05,0.0420882105363467,-6.21042e-06,0.0420882105363467,-1.1531997800656034e-05
0.0428823277162778,7.030431066148472e-05,0.0428823277162778,4.114435788353898e-05,0.0428823277162778,-6.9607548844445175e-06,0.0428823277162778,-1.3042802326666776e-05
0.0436764448962088,0.0001551022093408,0.0436764448962088,1.128661327094891e-05,0.0436764448962088,-7.55322e-06,0.0436764448962088,-1.697248324002261e-05
0.0444705620761399,0.0001627259345595,0.0444705620761399,-1.3951541154134154e-05,0.0444705620761399,-1.2055210689050235e-05,0.0444705620761399,-1.901642203723272e-05
0.045264679256071,0.0001257221920671,0.045264679256071,-3.5434784384815204e-05,0.045264679256071,-1.7387343804964286e-05,0.045264679256071,-1.531408347990476e-05
0.046058796436002,7.988755078346762e-05,0.046058796436002,-5.455105096540965e-05,0.046058796436002,-1.2509910620071454e-05,0.046058796436002,-1.0416661198511004e-05
0.0468529136159331,4.473646415190319e-05,0.0468529136159331,-4.423578360622453e-05,0.0468529136159331,-5.479689742078947e-06,0.0468529136159331,-1.0001849977661364e-05
0.0476470307958642,1.5967649569679724e-05,0.0476470307958642,-1.355640450668598e-05,0.0476470307958642,5.202553108472044e-06,0.0476470307958642,-9.765056776845245e-06
0.0484411479757953,-1.0040316500916154e-05,0.0484411479757953,-3.112781806976294e-05,0.0484411479757953,1.304247581477722e-05,0.0484411479757953,-8.817121517898658e-06
0.0492352651557263,-2.620418632217957e-05,0.0492352651557263,-7.121692318547485e-05,0.0492352651557263,2.1218033388544034e-05,0.0492352651557263,-6.65474253550869e-06
0.0500293823356574,-1.3991429678776983e-05,0.0500293823356574,-6.430941388993998e-05,0.0500293823356574,2.530563797319763e-05,0.0500293823356574,-9.132805522240815e-06
0.0508234995155885,1.555851492821215e-05,0.0508234995155885,-1.6282572239658142e-05,0.0508234995155885,2.38251295812471e-05,0.0508234995155885,-1.3872293109810817e-05
0.0516176166955195,4.574323255858091e-05,0.0516176166955195,-3.8503123639525735e-06,0.0516176166955195,1.6943050012011043e-05,0.0516176166955195,-1.2411030120851326e-05
0.0524117338754506,5.449174390122971e-05,0.0524117338754506,-3.18113404075389e-05,0.0524117338754506,1.1621019506148535e-05,0.0524117338754506,-1.2055521950614854e-05
0.0532058510553817,3.765020073424868e-05,0.0532058510553817,-4.914024016400267e-05,0.0532058510553817,2.9528728480321355e-06,0.0532058510553817,-1.241075756489418e-05
0.0539999682353128,-3.1873074170631684e-06,0.0539999682353128,-4.196278264337607e-05,0.0539999682353128,-6.545730575580021e-06,0.0539999682353128,-1.527418546288407e-05
0.0547940854152438,-6.597438275474485e-05,0.0547940854152438,-2.384528954347841e-05,0.0547940854152438,-5.479809379253533e-06,0.0547940854152438,-1.3516823966951215e-05
0.0555882025951749,-0.0001247268522191,0.0555882025951749,-1.2865233660245222e-05,0.0555882025951749,2.41852110585629e-06,0.0555882025951749,-1.1700295456926072e-05
0.056382319775106,-0.0001738403278227,0.056382319775106,-1.2509613220699534e-05,0.056382319775106,5.1341331129107895e-06,0.056382319775106,-8.777624853900605e-06
0.057176436955037,-0.0001833706687874,0.057176436955037,-1.5017529529298724e-05,0.057176436955037,6.151167294964443e-06,0.057176436955037,-8.165357294964444e-06
0.0579705541349681,-7.021905358781921e-05,0.0579705541349681,-1.7564965770376133e-05,0.0579705541349681,5.519335889870553e-06,0.0579705541349681,-1.264776821016508e-05
0.0587646713148992,0.0001127342796113,0.0587646713148992,-2.2521149107422058e-05,0.0587646713148992,2.7154619710633342e-06,0.0587646713148992,-1.5412278028936666e-05
0.0595587884948302,0.0002202650191623,0.0595587884948302,-2.169211560255405e-05,0.0595587884948302,-7.206383309307355e-07,0.0595587884948302,-1.7268731917754094e-05
0.0603529056747613,0.0001824525497717,0.0603529056747613,-8.857507653649583e-06,0.0603529056747613,-6.486881005584875e-06,0.0603529056747613,-1.717001749735207e-05
0.0611470228546924,9.20982901632128e-05,0.0611470228546924,8.983893670761028e-07,0.0611470228546924,-2.9727423862057326e-06,0.0611470228546924,-1.853246192189153e-05
0.0619411400346235,9.27425769215e-06,0.0619411400346235,-1.5495414779716403e-06,0.0619411400346235,4.6009373045768905e-06,0.0619411400346235,-1.8197017297281306e-05
0.0627352572145545,-3.7726027208502864e-05,0.0627352572145545,-1.0672979130833771e-05,0.0627352572145545,5.06512234641724e-06,0.0627352572145545,-1.648871070607151e-05
0.0635293743944856,-6.39101961195366e-05,0.0635293743944856,-2.950027337371464e-05,0.0635293743944856,2.893019634511617e-06,0.0635293743944856,-1.7268707535347227e-05
0.0643234915744167,-7.601551279666725e-05,0.0643234915744167,-4.1873235367826246e-05,0.0643234915744167,1.4834313621641984e-07,0.0643234915744167,-1.714048827409678e-05
0.0651176087543477,-8.646166857328412e-05,0.0651176087543477,-4.570426423134645e-05,0.0651176087543477,-1.8068267429313648e-06,0.0651176087543477,-1.6301150743330702e-05
0.0659117259342788,-8.881195305787687e-05,0.0659117259342788,-3.954379724108312e-05,0.0659117259342788,-4.443031196626922e-07,0.0659117259342788,-1.3358821419765243e-05
0.0667058431142099,-7.745862691917012e-05,0.0667058431142099,-2.3123779390261997e-05,0.0667058431142099,-1.4313589529172096e-06,0.0667058431142099,-9.172666855507844e-06
0.067499960294141,-6.898625770851087e-05,0.067499960294141,-4.112166232976776e-05,0.067499960294141,-3.356937049434495e-06,0.067499960294141,-7.888938634278985e-06
0.068294077474072,-6.76236011327336e-05,0.068294077474072,-7.712007873477018e-05,0.068294077474072,-1.806869164043016e-06,0.068294077474072,-5.16385622263537e-06
0.0690881946540031,-4.973553193999856e-05,0.0690881946540031,-7.809292523712452e-05,0.0690881946540031,-1.2143514974795675e-06,0.0690881946540031,-6.368048337586627e-06
0.0698823118339342,-1.952230659475723e-05,0.0698823118339342,-4.005887567579349e-06,0.0698823118339342,-2.260951977021333e-06,0.0698823118339342,-9.883056732750554e-06
0.0706764290138652,1.7376223105324377e-05,0.0706764290138652,8.215544864154696e-05,0.0706764290138652,-1.7476737275654198e-06,0.0706764290138652,-1.3635207840543223e-05
0.0714705461937963,4.5949899113190696e-05,0.0714705461937963,8.482336764093488e-05,0.0714705461937963,1.8660179521367517e-06,0.0714705461937963,-1.5027418022592414e-05
0.0722646633737274,6.392022710624182e-05,0.0722646633737274,3.549956739692951e-05,0.0722646633737274,3.456674828561424e-07,0.0722646633737274,-1.4109318777399383e-05
0.0730587805536585,6.353625362800072e-05,0.0730587805536585,-1.4424424867793736e-05,0.0730587805536585,1.4117716024268363e-06,0.0730587805536585,-1.1700242854610226e-05
0.0738528977335895,4.430258211378453e-05,0.0738528977335895,-3.113178107346633e-05,0.0738528977335895,2.28076354099255e-06,0.0738528977335895,-9.56741e-06
0.0746470149135206,2.017367638168433e-05,0.0746470149135206,-1.7910938388098057e-05,0.0746470149135206,1.8267642977301208e-06,0.0746470149135206,-8.659159531820081e-06
0.0754411320934517,-1.2722669154826106e-06,0.0754411320934517,-1.4502560884549202e-05,0.0754411320934517,1.964604294972013e-06,0.0754411320934517,-8.945287034219841e-06
0.0762352492733827,-2.181000811914029e-05,0.0762352492733827,-3.448731449784729e-05,0.0762352492733827,3.86053e-06,0.0762352492733827,-9.86360055004203e-06
0.0770293664533138,-3.184184021023904e-05,0.0770293664533138,-4.641587245014607e-05,0.0770293664533138,5.163717463155724e-06,0.0770293664533138,-1.1699940210239042e-05
0.0778234836332449,-3.346119543647759e-05,0.0778234836332449,-2.781476994079897e-05,0.0778234836332449,5.993110872955176e-06,0.0778234836332449,-1.1897827381134472e-05
0.078617600813176,-3.433006203215116e-05,0.078617600813176,-1.6301054621444085e-05,0.078617600813176,8.175106765626985e-06,0.078617600813176,-7.573188500897183e-06
0.079411717993107,-3.1763034043264444e-05,0.079411717993107,-1.981591233106383e-05,0.079411717993107,8.639310212979334e-06,0.079411717993107,-5.53903e-06
0.0802058351730381,-2.544484844703524e-05,0.0802058351730381,-2.0763848869525305e-05,0.0802058351730381,7.21752e-06,0.0802058351730381,-7.51355723827061e-06
0.0809999523529692,-1.4939287222695676e-05,0.0809999523529692,-2.9708560635914677e-05,0.0809999523529692,5.707024625106528e-06,0.0809999523529692,-8.22461e-06
0.0817940695329002,-4.630909242927574e-06,0.0817940695329002,-4.58419309161266e-05,0.0817940695329002,1.6292315457691688e-06,0.0817940695329002,-9.271163655389618e-06
0.0825881867128313,6.604391999415649e-06,0.0825881867128313,-3.308961195857864e-05,0.0825881867128313,-2.023901705142228e-06,0.0825881867128313,-1.1324694046170672e-05
0.0833823038927624,1.3378450784964605e-05,0.0833823038927624,1.7778003324109496e-05,0.0833823038927624,-1.51064e-06,0.0833823038927624,-1.1502699476690264e-05
0.0841764210726934,1.42672e-05,0.0841764210726934,3.964389320349168e-05,0.0841764210726934,-2.6163833650113843e-06,0.0841764210726934,-1.09102e-05
0.0849705382526245,1.874929900531098e-05,0.0849705382526245,4.513109629593986e-06,0.0849705382526245,-6.338599334073821e-06,0.0849705382526245,-1.1107549751327744e-05
0.0857646554325556,2.384453023111096e-05,0.0857646554325556,-4.056816422337335e-05,0.0857646554325556,-7.612192070870661e-06,0.0857646554325556,-1.3398009306667114e-05
0.0865587726124866,2.396284092808499e-05,0.0865587726124866,-5.121384439121248e-05,0.0865587726124866,-9.685811160106242e-06,0.0865587726124866,-1.49386e-05
0.0873528897924177,1.547211869078572e-05,0.0873528897924177,-5.336525616906436e-05,0.0873528897924177,-7.59278020839973e-06,0.0873528897924177,-1.501753021820238e-05
0.0881470069723488,-7.313181744315624e-06,0.0881470069723488,-5.696023273673436e-05,0.0881470069723488,-6.92093351586534e-06,0.0881470069723488,-1.8097878028936683e-05
0.0889411241522799,-3.930380442691088e-05,0.0889411241522799,-4.195311060276511e-05,0.0889411241522799,-6.092547414903886e-06,0.0889411241522799,-1.890788473950356e-05
0.0897352413322109,-7.192723819006319e-05,0.0897352413322109,-5.652429220903286e-05,0.0897352413322109,-4.838842160667979e-07,0.0897352413322109,-1.8216590666430128e-05
0.090529358512142,-9.262244632843998e-05,0.090529358512142,-0.0001060264234233,0.090529358512142,-6.023334663399913e-07,0.090529358512142,-1.76242e-05
0.0913234756920731,-8.820294534479789e-05,0.0913234756920731,-0.0001158266373365,0.0913234756920731,1.4708885481089946e-06,0.0913234756920731,-1.7772165458190685e-05
0.0921175928720041,-4.083002166272476e-05,0.0921175928720041,-3.822374711548851e-05,0.0921175928720041,4.334307623480796e-06,0.0921175928720041,-1.950005762535966e-05
0.0929117100519352,2.0605040188799063e-05,0.0929117100519352,4.372632622597782e-06,0.0929117100519352,3.880331537974632e-06,0.0929117100519352,-1.9243478262364487e-05
0.0937058272318663,6.076848989732113e-05,0.0937058272318663,-3.4455088983677965e-05,0.0937058272318663,3.287811393050928e-06,0.0937058272318663,-1.849294866482288e-05
0.0944999444117974,7.838479824018855e-05,0.0944999444117974,-5.35438640582442e-05,0.0944999444117974,5.203129560047136e-06,0.0944999444117974,-1.930265991200943e-05
