X [s],L BICEPS BRACHII: EMG 4 [V],L BICEPS BRACHII: EMG 4->filter (FilterSlidingRMS62) [V]
0.000000e+000,0.000000e+000,0.000000e+000
7.941176e-004,0.000000e+000,0.000000e+000
1.588235e-003,0.000000e+000,0.000000e+000
2.382353e-003,0.000000e+000,0.000000e+000
3.176471e-003,0.000000e+000,0.000000e+000
3.970588e-003,0.000000e+000,0.000000e+000
4.764706e-003,0.000000e+000,0.000000e+000
5.558824e-003,0.000000e+000,0.000000e+000
6.352941e-003,0.000000e+000,0.000000e+000
7.147059e-003,0.000000e+000,0.000000e+000
7.941176e-003,0.000000e+000,0.000000e+000
8.735294e-003,0.000000e+000,0.000000e+000
9.529412e-003,0.000000e+000,0.000000e+000
1.032353e-002,0.000000e+000,0.000000e+000
1.111765e-002,0.000000e+000,0.000000e+000
1.191176e-002,0.000000e+000,0.000000e+000
1.270588e-002,0.000000e+000,0.000000e+000
1.350000e-002,0.000000e+000,0.000000e+000
1.429412e-002,0.000000e+000,0.000000e+000
1.508824e-002,0.000000e+000,0.000000e+000
1.588235e-002,0.000000e+000,0.000000e+000
1.667647e-002,0.000000e+000,0.000000e+000
1.747059e-002,0.000000e+000,0.000000e+000
1.826471e-002,0.000000e+000,0.000000e+000
1.905882e-002,0.000000e+000,0.000000e+000
1.985294e-002,0.000000e+000,0.000000e+000
2.064706e-002,0.000000e+000,0.000000e+000
2.144118e-002,0.000000e+000,0.000000e+000
2.223529e-002,0.000000e+000,0.000000e+000
2.302941e-002,0.000000e+000,0.000000e+000
2.382353e-002,0.000000e+000,0.000000e+000
2.461765e-002,0.000000e+000,0.000000e+000
2.541176e-002,0.000000e+000,0.000000e+000
2.620588e-002,0.000000e+000,0.000000e+000
2.700000e-002,0.000000e+000,0.000000e+000
2.779412e-002,0.000000e+000,0.000000e+000
2.858824e-002,0.000000e+000,0.000000e+000
2.938235e-002,0.000000e+000,0.000000e+000
3.017647e-002,0.000000e+000,0.000000e+000
3.097059e-002,0.000000e+000,0.000000e+000
3.176471e-002,0.000000e+000,0.000000e+000
3.255882e-002,0.000000e+000,0.000000e+000
3.335294e-002,0.000000e+000,0.000000e+000
3.414706e-002,0.000000e+000,0.000000e+000
3.494118e-002,0.000000e+000,0.000000e+000
3.573529e-002,0.000000e+000,0.000000e+000
3.652941e-002,0.000000e+000,0.000000e+000
3.732353e-002,0.000000e+000,0.000000e+000
3.811765e-002,0.000000e+000,0.000000e+000
3.891176e-002,0.000000e+000,0.000000e+000
3.970588e-002,0.000000e+000,0.000000e+000
4.050000e-002,0.000000e+000,0.000000e+000
4.129412e-002,0.000000e+000,0.000000e+000
4.208824e-002,0.000000e+000,0.000000e+000
4.288235e-002,0.000000e+000,0.000000e+000
4.367647e-002,0.000000e+000,0.000000e+000
4.447059e-002,0.000000e+000,0.000000e+000
4.526471e-002,0.000000e+000,0.000000e+000
4.605882e-002,0.000000e+000,0.000000e+000
4.685294e-002,0.000000e+000,0.000000e+000
4.764706e-002,0.000000e+000,0.000000e+000
4.844118e-002,0.000000e+000,0.000000e+000
4.923529e-002,0.000000e+000,0.000000e+000
5.002941e-002,0.000000e+000,0.000000e+000
5.082353e-002,0.000000e+000,0.000000e+000
5.161765e-002,0.000000e+000,0.000000e+000
5.241176e-002,0.000000e+000,0.000000e+000
5.320588e-002,0.000000e+000,0.000000e+000
5.400000e-002,0.000000e+000,0.000000e+000
5.479412e-002,0.000000e+000,0.000000e+000
5.558824e-002,0.000000e+000,0.000000e+000
5.638235e-002,0.000000e+000,0.000000e+000
5.717647e-002,0.000000e+000,0.000000e+000
5.797059e-002,0.000000e+000,0.000000e+000
5.876471e-002,0.000000e+000,0.000000e+000
5.955882e-002,0.000000e+000,0.000000e+000
6.035294e-002,0.000000e+000,0.000000e+000
6.114706e-002,0.000000e+000,0.000000e+000
6.194118e-002,0.000000e+000,0.000000e+000
6.273529e-002,0.000000e+000,0.000000e+000
6.352941e-002,0.000000e+000,0.000000e+000
6.432353e-002,0.000000e+000,0.000000e+000
6.511765e-002,0.000000e+000,0.000000e+000
6.591176e-002,0.000000e+000,0.000000e+000
6.670588e-002,0.000000e+000,0.000000e+000
6.750000e-002,0.000000e+000,0.000000e+000
6.829412e-002,0.000000e+000,0.000000e+000
6.908824e-002,0.000000e+000,0.000000e+000
6.988235e-002,0.000000e+000,0.000000e+000
7.067647e-002,0.000000e+000,0.000000e+000
7.147059e-002,0.000000e+000,0.000000e+000
7.226471e-002,0.000000e+000,0.000000e+000
7.305882e-002,0.000000e+000,0.000000e+000
7.385294e-002,0.000000e+000,0.000000e+000
7.464706e-002,0.000000e+000,0.000000e+000
7.544118e-002,0.000000e+000,0.000000e+000
7.623529e-002,0.000000e+000,0.000000e+000
7.702941e-002,0.000000e+000,0.000000e+000
7.782353e-002,0.000000e+000,0.000000e+000
7.861765e-002,0.000000e+000,0.000000e+000
7.941176e-002,0.000000e+000,0.000000e+000
8.020588e-002,0.000000e+000,0.000000e+000
8.100000e-002,0.000000e+000,0.000000e+000
8.179412e-002,0.000000e+000,0.000000e+000
8.258824e-002,0.000000e+000,0.000000e+000
8.338235e-002,0.000000e+000,0.000000e+000
8.417647e-002,0.000000e+000,0.000000e+000
8.497059e-002,0.000000e+000,0.000000e+000
8.576471e-002,0.000000e+000,0.000000e+000
8.655882e-002,0.000000e+000,0.000000e+000
8.735294e-002,0.000000e+000,0.000000e+000
8.814706e-002,0.000000e+000,0.000000e+000
8.894118e-002,0.000000e+000,0.000000e+000
8.973529e-002,0.000000e+000,0.000000e+000
9.052941e-002,0.000000e+000,0.000000e+000
9.132353e-002,0.000000e+000,0.000000e+000
9.211765e-002,0.000000e+000,0.000000e+000
9.291176e-002,0.000000e+000,0.000000e+000
9.370588e-002,0.000000e+000,0.000000e+000
9.450000e-002,3.189136e-006,0.000000e+000
9.529412e-002,9.567407e-006,0.000000e+000
9.608824e-002,6.210422e-006,0.000000e+000
9.688235e-002,3.860533e-006,0.000000e+000
9.767647e-002,1.678492e-007,0.000000e+000
9.847059e-002,-1.510643e-006,0.000000e+000
9.926471e-002,5.035477e-007,0.000000e+000
1.000588e-001,2.853437e-006,0.000000e+000
1.008529e-001,3.692683e-006,0.000000e+000
1.016471e-001,4.531929e-006,0.000000e+000
1.024412e-001,6.546120e-006,0.000000e+000
1.032353e-001,4.364080e-006,0.000000e+000
1.040294e-001,-1.678492e-007,0.000000e+000
1.048235e-001,-8.560311e-006,0.000000e+000
1.056176e-001,-2.064546e-005,0.000000e+000
1.064118e-001,-3.038071e-005,0.000000e+000
1.072059e-001,-4.078737e-005,0.000000e+000
1.080000e-001,-4.884413e-005,0.000000e+000
1.087941e-001,-4.867628e-005,0.000000e+000
1.095882e-001,-5.572595e-005,0.000000e+000
1.103824e-001,-6.546120e-005,0.000000e+000
1.111765e-001,-5.925078e-005,0.000000e+000
1.119706e-001,-4.750134e-005,0.000000e+000
1.127647e-001,-3.575189e-005,0.000000e+000
1.135588e-001,-2.500954e-005,0.000000e+000
1.143529e-001,-1.628138e-005,0.000000e+000
1.151471e-001,-4.531929e-006,0.000000e+000
1.159412e-001,-1.510643e-006,0.000000e+000
1.167353e-001,2.182040e-006,0.000000e+000
1.175294e-001,3.189136e-006,0.000000e+000
1.183235e-001,7.217518e-006,0.000000e+000
1.191176e-001,7.888914e-006,0.000000e+000
1.199118e-001,-1.678492e-007,0.000000e+000
1.207059e-001,-3.021286e-006,0.000000e+000
1.215000e-001,-2.517739e-006,0.000000e+000
1.222941e-001,3.189136e-006,0.000000e+000
1.230882e-001,4.531929e-006,0.000000e+000
1.238824e-001,3.860533e-006,0.000000e+000
1.246765e-001,1.174945e-006,0.000000e+000
1.254706e-001,1.393149e-005,0.000000e+000
1.262647e-001,1.191730e-005,0.000000e+000
1.270588e-001,-2.584878e-005,0.000000e+000
1.278529e-001,-5.387960e-005,0.000000e+000
1.286471e-001,-4.246586e-005,0.000000e+000
1.294412e-001,-1.762417e-005,0.000000e+000
1.302353e-001,-1.091020e-005,0.000000e+000
1.310294e-001,-9.567407e-006,0.000000e+000
1.318235e-001,-1.326009e-005,0.000000e+000
1.326176e-001,-2.047761e-005,0.000000e+000
1.334118e-001,-2.366674e-005,0.000000e+000
1.342059e-001,-1.930266e-005,0.000000e+000
1.350000e-001,-1.795987e-005,0.000000e+000
1.357941e-001,-2.114900e-005,0.000000e+000
1.365882e-001,-2.735943e-005,0.000000e+000
1.373824e-001,-2.500954e-005,0.000000e+000
1.381765e-001,-1.393149e-005,0.000000e+000
1.389706e-001,-5.539025e-006,0.000000e+000
1.397647e-001,-2.853437e-006,0.000000e+000
1.405588e-001,8.392462e-007,0.000000e+000
1.413529e-001,3.524834e-006,0.000000e+000
1.421471e-001,1.846342e-006,0.000000e+000
1.429412e-001,-2.182040e-006,0.000000e+000
1.437353e-001,-3.189136e-006,0.000000e+000
1.445294e-001,-5.874723e-006,0.000000e+000
1.453235e-001,-2.182040e-006,0.000000e+000
1.461176e-001,-1.510643e-006,0.000000e+000
1.469118e-001,2.853437e-006,0.000000e+000
1.477059e-001,5.874723e-006,0.000000e+000
1.485000e-001,-1.678492e-007,0.000000e+000
1.492941e-001,-7.888914e-006,0.000000e+000
1.500882e-001,-1.158160e-005,0.000000e+000
1.508824e-001,-1.527428e-005,0.000000e+000
1.516765e-001,-9.903105e-006,0.000000e+000
1.524706e-001,-1.258869e-005,0.000000e+000
1.532647e-001,-1.393149e-005,0.000000e+000
1.540588e-001,-1.426719e-005,0.000000e+000
1.548529e-001,-1.393149e-005,0.000000e+000
1.556471e-001,-1.762417e-005,0.000000e+000
1.564412e-001,-1.980621e-005,0.000000e+000
1.572353e-001,-1.795987e-005,0.000000e+000
1.580294e-001,-1.930266e-005,0.000000e+000
1.588235e-001,-2.098116e-005,0.000000e+000
1.596176e-001,-2.165255e-005,0.000000e+000
1.604118e-001,-2.098116e-005,0.000000e+000
1.612059e-001,-1.963836e-005,0.000000e+000
1.620000e-001,-2.030976e-005,0.000000e+000
1.627941e-001,-1.258869e-005,0.000000e+000
1.635882e-001,-9.567407e-006,0.000000e+000
1.643824e-001,-6.210422e-006,0.000000e+000
1.651765e-001,-5.203327e-006,0.000000e+000
1.659706e-001,-4.196231e-006,0.000000e+000
1.667647e-001,-2.349889e-006,0.000000e+000
1.675588e-001,-2.853437e-006,0.000000e+000
1.683529e-001,-6.378271e-006,0.000000e+000
1.691471e-001,-8.224612e-006,0.000000e+000
1.699412e-001,-1.225299e-005,0.000000e+000
1.707353e-001,-1.359579e-005,0.000000e+000
1.715294e-001,-2.568093e-005,0.000000e+000
1.723235e-001,-3.121996e-005,0.000000e+000
1.731176e-001,-2.769513e-005,0.000000e+000
1.739118e-001,-1.896696e-005,0.000000e+000
1.747059e-001,-8.896010e-006,0.000000e+000
1.755000e-001,-6.546120e-006,0.000000e+000
1.762941e-001,-1.124590e-005,0.000000e+000
1.770882e-001,-2.635233e-005,0.000000e+000
1.778824e-001,-4.280156e-005,0.000000e+000
1.786765e-001,-4.213016e-005,0.000000e+000
1.794706e-001,-2.131685e-005,0.000000e+000
1.802647e-001,8.392462e-007,0.000000e+000
1.810588e-001,1.527428e-005,0.000000e+000
1.818529e-001,1.863127e-005,0.000000e+000
1.826471e-001,1.493858e-005,0.000000e+000
1.834412e-001,2.601663e-005,0.000000e+000
1.842353e-001,3.692683e-005,0.000000e+000
1.850294e-001,4.397650e-005,0.000000e+000
1.858235e-001,4.649424e-005,0.000000e+000
1.866176e-001,4.682994e-005,0.000000e+000
1.874118e-001,3.205920e-005,0.000000e+000
1.882059e-001,-5.035477e-007,0.000000e+000
1.890000e-001,-8.560311e-006,0.000000e+000
1.897941e-001,3.189136e-006,0.000000e+000
1.905882e-001,-4.196231e-006,0.000000e+000
1.913824e-001,-2.030976e-005,0.000000e+000
1.921765e-001,-4.985122e-005,0.000000e+000
1.929706e-001,-8.476387e-005,0.000000e+000
1.937647e-001,-1.035630e-004,0.000000e+000
1.945588e-001,-1.089342e-004,0.000000e+000
1.953529e-001,-8.476387e-005,0.000000e+000
1.961471e-001,-5.119402e-005,0.000000e+000
1.969412e-001,-3.944457e-005,0.000000e+000
1.977353e-001,-3.239490e-005,0.000000e+000
1.985294e-001,-2.568093e-005,0.000000e+000
1.993235e-001,-2.232395e-005,0.000000e+000
2.001176e-001,-2.182040e-005,0.000000e+000
2.009118e-001,-2.232395e-005,0.000000e+000
2.017059e-001,-2.030976e-005,0.000000e+000
2.025000e-001,-1.896696e-005,0.000000e+000
2.032941e-001,-1.712062e-005,0.000000e+000
2.040882e-001,-1.393149e-005,0.000000e+000
2.048824e-001,-1.191730e-005,0.000000e+000
2.056765e-001,-8.392462e-006,0.000000e+000
2.064706e-001,-1.510643e-006,0.000000e+000
2.072647e-001,3.860533e-006,0.000000e+000
2.080588e-001,9.231709e-006,0.000000e+000
2.088529e-001,1.258869e-005,0.000000e+000
2.096471e-001,1.527428e-005,0.000000e+000
2.104412e-001,9.903105e-006,0.000000e+000
2.112353e-001,5.203327e-006,0.000000e+000
2.120294e-001,5.035477e-007,0.000000e+000
2.128235e-001,-1.678492e-006,0.000000e+000
2.136176e-001,-8.392462e-007,0.000000e+000
2.144118e-001,-2.517739e-006,0.000000e+000
2.152059e-001,-8.224612e-006,0.000000e+000
2.160000e-001,-1.023880e-005,0.000000e+000
2.167941e-001,-1.309224e-005,0.000000e+000
2.175882e-001,-1.493858e-005,0.000000e+000
2.183824e-001,-1.359579e-005,0.000000e+000
2.191765e-001,-9.567407e-006,0.000000e+000
2.199706e-001,-5.035477e-006,0.000000e+000
2.207647e-001,-4.196231e-006,0.000000e+000
2.215588e-001,5.035477e-007,0.000000e+000
2.223529e-001,5.706874e-006,0.000000e+000
2.231471e-001,1.678492e-006,0.000000e+000
2.239412e-001,-4.867628e-006,0.000000e+000
2.247353e-001,-8.224612e-006,0.000000e+000
2.255294e-001,-4.196231e-006,0.000000e+000
2.263235e-001,-4.867628e-006,0.000000e+000
2.271176e-001,-7.888914e-006,0.000000e+000
2.279118e-001,-8.224612e-006,0.000000e+000
2.287059e-001,-9.063859e-006,0.000000e+000
2.295000e-001,-1.460288e-005,0.000000e+000
2.302941e-001,-1.728847e-005,0.000000e+000
2.310882e-001,-1.493858e-005,0.000000e+000
2.318824e-001,-1.426719e-005,0.000000e+000
2.326765e-001,-1.762417e-005,0.000000e+000
2.334706e-001,-1.963836e-005,0.000000e+000
2.342647e-001,-1.863127e-005,0.000000e+000
2.350588e-001,-1.795987e-005,0.000000e+000
2.358529e-001,-1.762417e-005,0.000000e+000
2.366471e-001,-1.779202e-005,0.000000e+000
2.374412e-001,-1.527428e-005,0.000000e+000
2.382353e-001,-1.661708e-005,0.000000e+000
2.390294e-001,-1.762417e-005,0.000000e+000
2.398235e-001,-1.628138e-005,0.000000e+000
2.406176e-001,-1.896696e-005,0.000000e+000
2.414118e-001,-1.896696e-005,0.000000e+000
2.422059e-001,-1.896696e-005,0.000000e+000
2.430000e-001,-1.695277e-005,0.000000e+000
2.437941e-001,-1.829557e-005,0.000000e+000
2.445882e-001,-1.628138e-005,0.000000e+000
2.453824e-001,-1.510643e-005,0.000000e+000
2.461765e-001,-7.217518e-006,0.000000e+000
2.469706e-001,-4.867628e-006,0.000000e+000
2.477647e-001,-6.210422e-006,0.000000e+000
2.485588e-001,-1.359579e-005,0.000000e+000
2.493529e-001,-1.728847e-005,1.910702e-005
2.501471e-001,-2.030976e-005,1.913191e-005
2.509412e-001,-1.963836e-005,1.916621e-005
2.517353e-001,-1.628138e-005,1.919823e-005
2.525294e-001,-1.628138e-005,1.922020e-005
2.533235e-001,-1.728847e-005,1.924215e-005
2.541176e-001,-1.930266e-005,1.926687e-005
2.549118e-001,-1.997406e-005,1.929764e-005
2.557059e-001,-1.795987e-005,1.933053e-005
2.565000e-001,-1.057450e-005,1.935708e-005
2.572941e-001,-1.158160e-005,1.936628e-005
2.580882e-001,-1.493858e-005,1.937730e-005
2.588824e-001,-5.203327e-006,1.939563e-005
2.596765e-001,8.392462e-006,1.939786e-005
2.604706e-001,1.124590e-005,1.940364e-005
2.612647e-001,9.231709e-006,1.941401e-005
2.620588e-001,5.203327e-006,1.942100e-005
2.628529e-001,1.460288e-005,1.942322e-005
2.636471e-001,2.450599e-005,1.944070e-005
2.644412e-001,1.023880e-005,1.948982e-005
2.652353e-001,-1.510643e-006,1.949839e-005
2.660294e-001,-1.091020e-005,1.949857e-005
2.668235e-001,-1.930266e-005,1.950829e-005
2.676176e-001,-2.735943e-005,1.953868e-005
2.684118e-001,-3.239490e-005,1.959959e-005
2.692059e-001,-2.937362e-005,1.968466e-005
2.700000e-001,-3.306630e-005,1.975434e-005
2.707941e-001,-3.575189e-005,1.984228e-005
2.715882e-001,-2.769513e-005,1.994459e-005
2.723824e-001,-1.963836e-005,2.000573e-005
2.731765e-001,-1.091020e-005,2.003641e-005
2.739706e-001,-8.224612e-006,2.004587e-005
2.747647e-001,-1.040665e-005,2.005124e-005
2.755588e-001,-7.553216e-006,2.005984e-005
2.763529e-001,-4.867628e-006,2.006436e-005
2.771471e-001,-9.231709e-006,2.006625e-005
2.779412e-001,-1.443504e-005,2.007301e-005
2.787353e-001,-2.047761e-005,2.008953e-005
2.795294e-001,-2.735943e-005,2.012274e-005
2.803235e-001,-3.172351e-005,2.018189e-005
2.811176e-001,-3.306630e-005,2.026114e-005
2.819118e-001,-3.172351e-005,2.034688e-005
2.827059e-001,-2.870222e-005,2.042549e-005
2.835000e-001,-1.393149e-005,2.048962e-005
2.842941e-001,-2.182040e-006,2.050469e-005
2.850882e-001,3.860533e-006,2.050507e-005
2.858824e-001,-5.035477e-007,2.050622e-005
2.866765e-001,-1.762417e-005,2.050624e-005
2.874706e-001,-1.594568e-005,2.053035e-005
2.882647e-001,-4.531929e-006,2.055006e-005
2.890588e-001,5.874723e-006,2.055165e-005
2.898529e-001,6.210422e-006,2.055432e-005
2.906471e-001,3.524834e-006,2.055731e-005
2.914412e-001,1.846342e-005,2.055827e-005
2.922353e-001,2.769513e-005,2.058466e-005
2.930294e-001,4.531929e-006,2.064391e-005
2.938235e-001,-1.762417e-005,2.064550e-005
2.946176e-001,-2.635233e-005,2.066944e-005
2.954118e-001,-2.333104e-005,2.072287e-005
2.962059e-001,-1.896696e-005,2.076465e-005
2.970000e-001,-2.433814e-005,2.079222e-005
2.977941e-001,-2.433814e-005,2.083754e-005
2.985882e-001,-1.292439e-005,2.088275e-005
2.993824e-001,-8.392462e-007,2.089549e-005
3.001765e-001,2.517739e-006,2.089554e-005
3.009706e-001,7.553216e-006,2.089602e-005
3.017647e-001,1.023880e-005,2.090037e-005
3.025588e-001,1.527428e-005,2.090836e-005
3.033529e-001,1.728847e-005,2.092612e-005
3.041471e-001,7.888914e-006,2.094885e-005
3.049412e-001,-4.531929e-006,2.095358e-005
3.057353e-001,-1.493858e-005,2.095514e-005
3.065294e-001,-2.500954e-005,2.097209e-005
3.073235e-001,-2.769513e-005,2.101953e-005
3.081176e-001,-2.601663e-005,2.107755e-005
3.089118e-001,-2.970932e-005,2.112863e-005
3.097059e-001,-3.440909e-005,2.119504e-005
3.105000e-001,-3.558404e-005,2.128381e-005
3.112941e-001,-2.903792e-005,2.137833e-005
3.120882e-001,-2.702373e-005,2.144105e-005
3.128824e-001,-3.642328e-005,2.149521e-005
3.136765e-001,-2.098116e-005,2.159327e-005
3.144706e-001,-5.874723e-006,2.162571e-005
3.152647e-001,-8.224612e-006,2.162825e-005
3.160588e-001,-1.091020e-005,2.163323e-005
3.168529e-001,-1.359579e-005,2.164199e-005
3.176471e-001,-1.409934e-005,2.165558e-005
3.184412e-001,-6.881819e-006,2.167020e-005
3.192353e-001,3.189136e-006,2.167368e-005
3.200294e-001,6.546120e-006,2.167442e-005
3.208235e-001,-1.678492e-007,2.167757e-005
3.216176e-001,-1.091020e-005,2.167757e-005
3.224118e-001,-1.661708e-005,2.168632e-005
3.232059e-001,-1.762417e-005,2.170658e-005
3.240000e-001,-2.517739e-005,2.172935e-005
3.247941e-001,-1.359579e-005,2.177576e-005
3.255882e-001,-5.203327e-006,2.178927e-005
3.263824e-001,-1.695277e-005,2.179125e-005
3.271765e-001,-3.407340e-005,2.181224e-005
3.279706e-001,-4.179446e-005,2.189683e-005
3.287647e-001,-2.836652e-005,2.202349e-005
3.295588e-001,-8.896010e-006,2.208159e-005
3.303529e-001,-2.182040e-006,2.208730e-005
3.311471e-001,-1.007095e-006,2.208764e-005
3.319412e-001,-7.553216e-006,2.208772e-005
3.327353e-001,-1.560998e-005,2.209183e-005
3.335294e-001,-2.165255e-005,2.210939e-005
3.343235e-001,-1.913481e-005,2.214313e-005
3.351176e-001,-1.628138e-005,2.216944e-005
3.359118e-001,-2.232395e-005,2.218847e-005
3.367059e-001,-2.601663e-005,2.222421e-005
3.375000e-001,-2.903792e-005,2.227265e-005
3.382941e-001,-2.568093e-005,2.233286e-005
3.390882e-001,-2.635233e-005,2.237983e-005
3.398824e-001,-2.232395e-005,2.242919e-005
3.406765e-001,-1.493858e-005,2.246454e-005
3.414706e-001,-7.553216e-006,2.248035e-005
3.422647e-001,-5.203327e-006,2.248439e-005
3.430588e-001,1.007095e-006,2.248631e-005
3.438529e-001,7.217518e-006,2.248638e-005
3.446471e-001,4.867628e-006,2.248935e-005
3.454412e-001,4.196231e-006,2.248455e-005
3.462353e-001,5.203327e-006,2.248306e-005
3.470294e-001,6.210422e-006,2.248392e-005
3.478235e-001,-9.567407e-006,2.248665e-005
3.486176e-001,-3.659113e-005,2.249297e-005
3.494118e-001,-2.433814e-005,2.258754e-005
3.502059e-001,3.189136e-006,2.262869e-005
3.510000e-001,1.913481e-005,2.262845e-005
3.517941e-001,2.114900e-005,2.265275e-005
3.525882e-001,1.577783e-005,2.268116e-005
3.533824e-001,-1.846342e-006,2.269730e-005
3.541765e-001,-1.359579e-005,2.269754e-005
3.549706e-001,-6.881819e-006,2.270536e-005
3.557647e-001,-4.867628e-006,2.267877e-005
3.565588e-001,-8.392462e-007,2.261554e-005
3.573529e-001,1.695277e-005,2.249815e-005
3.581471e-001,2.601663e-005,2.234914e-005
3.589412e-001,4.531929e-006,2.222823e-005
3.597353e-001,-2.064546e-005,2.200613e-005
3.605294e-001,-2.903792e-005,2.172511e-005
3.613235e-001,-3.105211e-005,2.152870e-005
3.621176e-001,-3.172351e-005,2.143292e-005
3.629118e-001,-2.853437e-005,2.141271e-005
3.637059e-001,-2.299535e-005,2.142675e-005
3.645000e-001,-1.963836e-005,2.144633e-005
3.652941e-001,-2.333104e-005,2.147343e-005
3.660882e-001,-3.239490e-005,2.151359e-005
3.668824e-001,-3.910887e-005,2.159077e-005
3.676765e-001,-3.776608e-005,2.170253e-005
3.684706e-001,-3.642328e-005,2.180313e-005
3.692647e-001,-3.172351e-005,2.189528e-005
3.700588e-001,-2.467384e-005,2.196834e-005
3.708529e-001,-1.359579e-005,2.201177e-005
3.716471e-001,-4.531929e-006,2.202468e-005
3.724412e-001,-4.531929e-006,2.202543e-005
3.732353e-001,-3.860533e-006,2.202543e-005
3.740294e-001,-6.210422e-006,2.202543e-005
3.748235e-001,-6.042573e-006,2.202812e-005
3.756176e-001,-8.560311e-006,2.201672e-005
3.764118e-001,-8.896010e-006,2.201175e-005
3.772059e-001,-8.896010e-006,2.196910e-005
3.780000e-001,-7.553216e-006,2.176346e-005
3.787941e-001,-5.539025e-006,2.163531e-005
3.795882e-001,-6.881819e-006,2.161470e-005
3.803824e-001,-9.231709e-006,2.160942e-005
3.811765e-001,-1.023880e-005,2.160895e-005
3.819706e-001,-1.225299e-005,2.160372e-005
3.827647e-001,-1.661708e-005,2.158387e-005
3.835588e-001,-1.628138e-005,2.156291e-005
3.843529e-001,-1.426719e-005,2.155497e-005
3.851471e-001,-2.098116e-005,2.154617e-005
3.859412e-001,-2.064546e-005,2.154565e-005
3.867353e-001,-1.493858e-005,2.152182e-005
3.875294e-001,-5.874723e-006,2.149203e-005
3.883235e-001,-3.189136e-006,2.148020e-005
3.891176e-001,2.349889e-006,2.147868e-005
3.899118e-001,1.678492e-007,2.147849e-005
3.907059e-001,2.349889e-006,2.147844e-005
3.915000e-001,-2.853437e-006,2.147793e-005
3.922941e-001,-1.124590e-005,2.147828e-005
3.930882e-001,-1.242084e-005,2.148730e-005
3.938824e-001,-1.393149e-005,2.149798e-005
3.946765e-001,-7.217518e-006,2.150979e-005
3.954706e-001,-1.678492e-007,2.151330e-005
3.962647e-001,-5.203327e-006,2.151313e-005
3.970588e-001,-6.881819e-006,2.151453e-005
3.978529e-001,-1.023880e-005,2.151548e-005
3.986471e-001,-1.023880e-005,2.152324e-005
3.994412e-001,-1.023880e-005,2.152639e-005
4.002353e-001,-1.359579e-005,2.152422e-005
4.010294e-001,-1.628138e-005,2.152064e-005
4.018235e-001,-1.644922e-005,2.153299e-005
4.026176e-001,-1.779202e-005,2.154128e-005
4.034118e-001,-1.628138e-005,2.155033e-005
4.042059e-001,-1.594568e-005,2.155488e-005
4.050000e-001,-1.628138e-005,2.155932e-005
4.057941e-001,-1.628138e-005,2.155596e-005
4.065882e-001,-1.594568e-005,2.154656e-005
4.073824e-001,-1.426719e-005,2.154151e-005
4.081765e-001,-1.510643e-005,2.152901e-005
4.089706e-001,-1.560998e-005,2.151333e-005
4.097647e-001,-1.863127e-005,2.149665e-005
4.105588e-001,-2.047761e-005,2.148976e-005
4.113529e-001,-2.299535e-005,2.149225e-005
4.121471e-001,-1.829557e-005,2.150087e-005
4.129412e-001,-1.560998e-005,2.151392e-005
4.137353e-001,-1.963836e-005,2.152517e-005
4.145294e-001,-1.359579e-005,2.155084e-005
4.153235e-001,5.203327e-006,2.156249e-005
4.161176e-001,1.527428e-005,2.156319e-005
4.169118e-001,7.888914e-006,2.158000e-005
4.177059e-001,1.678492e-007,2.158400e-005
4.185000e-001,-1.393149e-005,2.158100e-005
4.192941e-001,-2.534523e-005,2.159032e-005
4.200882e-001,-2.937362e-005,2.162660e-005
4.208824e-001,-2.870222e-005,2.167646e-005
4.216765e-001,-2.265965e-005,2.168853e-005
4.224706e-001,-2.114900e-005,2.165464e-005
4.232647e-001,-2.568093e-005,2.163111e-005
4.240588e-001,-2.735943e-005,2.165317e-005
4.248529e-001,-2.232395e-005,2.170234e-005
4.256471e-001,-9.231709e-006,2.173573e-005
4.264412e-001,-1.678492e-006,2.173271e-005
4.272353e-001,1.174945e-006,2.168198e-005
4.280294e-001,1.678492e-007,2.154712e-005
4.288235e-001,-2.853437e-006,2.141554e-005
4.296176e-001,-8.392462e-007,2.138234e-005
4.304118e-001,-2.182040e-006,2.138234e-005
4.312059e-001,-3.189136e-006,2.136531e-005
4.320000e-001,-8.896010e-006,2.134018e-005
4.327941e-001,-1.359579e-005,2.132943e-005
4.335882e-001,-1.376364e-005,2.129267e-005
4.343824e-001,-1.023880e-005,2.120468e-005
4.351765e-001,-5.539025e-006,2.106687e-005
4.359706e-001,-3.860533e-006,2.090518e-005
4.367647e-001,-2.853437e-006,2.073861e-005
4.375588e-001,-2.517739e-006,2.066017e-005
4.383529e-001,-5.539025e-006,2.066064e-005
4.391471e-001,-5.874723e-006,2.065735e-005
4.399412e-001,-1.292439e-005,2.065923e-005
4.407353e-001,-1.426719e-005,2.067074e-005
4.415294e-001,-1.191730e-005,2.065464e-005
4.423235e-001,-1.359579e-005,2.047320e-005
4.431176e-001,-1.409934e-005,1.992132e-005
4.439118e-001,-1.393149e-005,1.906135e-005
4.447059e-001,-1.762417e-005,1.805993e-005
4.455000e-001,-1.896696e-005,1.744329e-005
4.462941e-001,-1.560998e-005,1.723565e-005
4.470882e-001,-1.242084e-005,1.711399e-005
4.478824e-001,-1.158160e-005,1.703050e-005
4.486765e-001,-1.057450e-005,1.698130e-005
4.494706e-001,-8.896010e-006,1.694502e-005
4.502647e-001,-1.091020e-005,1.690767e-005
4.510588e-001,-1.292439e-005,1.687191e-005
4.518529e-001,-1.258869e-005,1.684873e-005
4.526471e-001,-9.567407e-006,1.682969e-005
4.534412e-001,-9.903105e-006,1.681061e-005
4.542353e-001,-2.030976e-005,1.680151e-005
4.550294e-001,-2.030976e-005,1.682713e-005
4.558235e-001,-8.896010e-006,1.685946e-005
4.566176e-001,-2.182040e-006,1.686672e-005
4.574118e-001,5.035477e-007,1.686576e-005
4.582059e-001,4.531929e-006,1.685774e-005
4.590000e-001,1.846342e-006,1.684471e-005
4.597941e-001,-4.531929e-006,1.682296e-005
4.605882e-001,-8.224612e-006,1.681562e-005
4.613824e-001,-1.863127e-005,1.681946e-005
4.621765e-001,-1.393149e-005,1.685227e-005
4.629706e-001,-8.392462e-007,1.687033e-005
4.637647e-001,1.510643e-006,1.687033e-005
4.645588e-001,-2.853437e-006,1.686995e-005
4.653529e-001,-1.124590e-005,1.686433e-005
4.661471e-001,-2.030976e-005,1.686637e-005
4.669412e-001,-3.189136e-005,1.688912e-005
4.677353e-001,-3.205920e-005,1.696380e-005
4.685294e-001,-2.702373e-005,1.704275e-005
4.693235e-001,-1.963836e-005,1.710232e-005
4.701176e-001,-1.762417e-005,1.713584e-005
4.709118e-001,-1.829557e-005,1.716304e-005
4.717059e-001,-2.098116e-005,1.719405e-005
4.725000e-001,-2.500954e-005,1.723176e-005
4.732941e-001,-2.735943e-005,1.728920e-005
4.740882e-001,-2.467384e-005,1.735583e-005
4.748824e-001,-1.661708e-005,1.740541e-005
4.756765e-001,-1.091020e-005,1.742905e-005
4.764706e-001,-1.091020e-005,1.743775e-005
4.772647e-001,-1.359579e-005,1.744294e-005
4.780588e-001,-1.225299e-005,1.745364e-005
4.788529e-001,-1.309224e-005,1.745984e-005
4.796471e-001,-8.896010e-006,1.745602e-005
4.804412e-001,-1.191730e-005,1.743596e-005
4.812353e-001,-1.225299e-005,1.742855e-005
4.820294e-001,-7.553216e-006,1.742367e-005
4.828235e-001,-5.874723e-006,1.740048e-005
4.836176e-001,-1.124590e-005,1.736832e-005
4.844118e-001,-1.124590e-005,1.734808e-005
4.852059e-001,-9.903105e-006,1.733007e-005
4.860000e-001,-1.225299e-005,1.731052e-005
4.867941e-001,-1.896696e-005,1.729520e-005
4.875882e-001,-1.963836e-005,1.730684e-005
4.883824e-001,-1.628138e-005,1.731692e-005
4.891765e-001,-2.030976e-005,1.731273e-005
4.899706e-001,-2.500954e-005,1.732628e-005
4.907647e-001,-1.997406e-005,1.735069e-005
4.915588e-001,-7.721065e-006,1.735428e-005
4.923529e-001,3.860533e-006,1.732672e-005
4.931471e-001,8.896010e-006,1.730166e-005
4.939412e-001,7.217518e-006,1.727812e-005
4.947353e-001,3.524834e-006,1.725848e-005
4.955294e-001,-2.853437e-006,1.723856e-005
4.963235e-001,-8.896010e-006,1.723450e-005
4.971176e-001,-1.023880e-005,1.723962e-005
4.979118e-001,-1.158160e-005,1.724574e-005
4.987059e-001,-1.023880e-005,1.724106e-005
4.995000e-001,-8.896010e-006,1.722313e-005
5.002941e-001,-8.224612e-006,1.719228e-005
5.010882e-001,-8.224612e-006,1.716280e-005
5.018824e-001,-1.158160e-005,1.714447e-005
5.026765e-001,-1.326009e-005,1.713231e-005
5.034706e-001,-1.460288e-005,1.712086e-005
5.042647e-001,-1.510643e-005,1.710604e-005
5.050588e-001,-1.158160e-005,1.709014e-005
5.058529e-001,-1.124590e-005,1.707257e-005
5.066471e-001,-9.231709e-006,1.707394e-005
5.074412e-001,-5.203327e-006,1.706938e-005
5.082353e-001,-6.546120e-006,1.705107e-005
5.090294e-001,-8.392462e-006,1.705255e-005
5.098235e-001,-7.553216e-006,1.705255e-005
5.106176e-001,-9.231709e-006,1.704606e-005
5.114118e-001,-1.712062e-005,1.704606e-005
5.122059e-001,-1.779202e-005,1.707090e-005
5.130000e-001,-1.560998e-005,1.708053e-005
5.137941e-001,-2.131685e-005,1.704723e-005
5.145882e-001,-2.903792e-005,1.707985e-005
5.153824e-001,-2.484169e-005,1.715807e-005
5.161765e-001,-1.963836e-005,1.720423e-005
5.169706e-001,-1.527428e-005,1.720544e-005
5.177647e-001,-8.896010e-006,1.715769e-005
5.185588e-001,-9.567407e-006,1.706740e-005
5.193529e-001,-6.881819e-006,1.699529e-005
5.201471e-001,1.174945e-006,1.689700e-005
5.209412e-001,1.174945e-006,1.677625e-005
5.217353e-001,-2.182040e-006,1.670342e-005
5.225294e-001,-4.531929e-006,1.666707e-005
5.233235e-001,-8.560311e-006,1.665765e-005
5.241176e-001,7.217518e-006,1.665819e-005
5.249118e-001,2.635233e-005,1.665282e-005
5.257059e-001,1.963836e-005,1.671365e-005
5.265000e-001,-1.510643e-006,1.674810e-005
5.272941e-001,-2.702373e-005,1.674022e-005
5.280882e-001,-3.877317e-005,1.678979e-005
5.288824e-001,-3.994812e-005,1.689229e-005
5.296765e-001,-3.709468e-005,1.697197e-005
5.304706e-001,-3.642328e-005,1.700662e-005
5.312647e-001,-2.903792e-005,1.702844e-005
5.320588e-001,-2.433814e-005,1.701318e-005
5.328529e-001,-1.997406e-005,1.699150e-005
5.336471e-001,-1.426719e-005,1.701069e-005
5.344412e-001,-1.124590e-005,1.702929e-005
5.352353e-001,-1.359579e-005,1.703971e-005
5.360294e-001,2.517739e-006,1.705696e-005
5.368235e-001,1.443504e-005,1.702853e-005
5.376176e-001,-1.510643e-006,1.702423e-005
5.384118e-001,-1.930266e-005,1.702253e-005
5.392059e-001,-2.500954e-005,1.705412e-005
5.400000e-001,-3.038071e-005,1.710884e-005
5.407941e-001,-2.702373e-005,1.719338e-005
5.415882e-001,-2.366674e-005,1.722940e-005
5.423824e-001,-4.145876e-005,1.721027e-005
5.431765e-001,-4.045167e-005,1.736669e-005
5.439706e-001,-2.182040e-005,1.748782e-005
5.447647e-001,-4.867628e-006,1.746793e-005
5.455588e-001,1.023880e-005,1.742041e-005
5.463529e-001,1.863127e-005,1.739709e-005
5.471471e-001,1.863127e-005,1.737463e-005
5.479412e-001,9.231709e-006,1.735214e-005
5.487353e-001,-2.853437e-006,1.734463e-005
5.495294e-001,-4.867628e-006,1.734531e-005
5.503235e-001,3.860533e-006,1.734691e-005
5.511176e-001,1.460288e-005,1.734304e-005
5.519118e-001,2.517739e-006,1.735299e-005
5.527059e-001,-1.896696e-005,1.733215e-005
5.535000e-001,-2.769513e-005,1.733774e-005
5.542941e-001,-3.843748e-005,1.740235e-005
5.550882e-001,-3.994812e-005,1.753515e-005
5.558824e-001,-4.045167e-005,1.765937e-005
5.566765e-001,-3.508049e-005,1.775028e-005
5.574706e-001,-3.038071e-005,1.779182e-005
5.582647e-001,-2.467384e-005,1.781384e-005
5.590588e-001,-1.661708e-005,1.778934e-005
5.598529e-001,-8.224612e-006,1.770789e-005
5.606471e-001,-3.860533e-006,1.759978e-005
5.614412e-001,-9.903105e-006,1.752468e-005
5.622353e-001,-2.299535e-005,1.746714e-005
5.630294e-001,-1.695277e-005,1.739425e-005
5.638235e-001,-8.560311e-006,1.738026e-005
5.646176e-001,-1.896696e-005,1.738381e-005
5.654118e-001,-1.628138e-005,1.741055e-005
5.662059e-001,-7.553216e-006,1.742390e-005
5.670000e-001,3.021286e-006,1.741222e-005
5.677941e-001,2.047761e-005,1.739486e-005
5.685882e-001,1.930266e-005,1.742888e-005
5.693824e-001,1.426719e-005,1.746196e-005
5.701765e-001,3.189136e-006,1.747661e-005
5.709706e-001,-4.867628e-006,1.747753e-005
5.717647e-001,-9.567407e-006,1.746884e-005
5.725588e-001,-1.762417e-005,1.745201e-005
5.733529e-001,-1.460288e-005,1.745201e-005
5.741471e-001,-2.182040e-006,1.741359e-005
5.749412e-001,-8.392462e-007,1.739711e-005
5.757353e-001,-7.553216e-006,1.739470e-005
5.765294e-001,-1.695277e-005,1.737360e-005
5.773235e-001,-1.980621e-005,1.729335e-005
5.781176e-001,-1.762417e-005,1.716817e-005
5.789118e-001,-1.896696e-005,1.712229e-005
5.797059e-001,-1.393149e-005,1.714836e-005
5.805000e-001,-3.860533e-006,1.716593e-005
5.812941e-001,3.860533e-006,1.716722e-005
5.820882e-001,8.392462e-007,1.716331e-005
5.828824e-001,-1.007095e-006,1.714076e-005
5.836765e-001,-2.853437e-006,1.709724e-005
5.844706e-001,-5.539025e-006,1.706387e-005
5.852647e-001,-1.158160e-005,1.704198e-005
5.860588e-001,-1.376364e-005,1.700791e-005
5.868529e-001,-1.896696e-005,1.696221e-005
5.876471e-001,-2.433814e-005,1.691677e-005
5.884412e-001,-2.601663e-005,1.691045e-005
5.892353e-001,-2.064546e-005,1.690879e-005
5.900294e-001,-1.292439e-005,1.690200e-005
5.908235e-001,-1.426719e-005,1.689671e-005
5.916176e-001,-1.191730e-005,1.691051e-005
5.924118e-001,-6.210422e-006,1.692133e-005
5.932059e-001,-5.203327e-006,1.692486e-005
5.940000e-001,-6.546120e-006,1.692251e-005
5.947941e-001,-9.567407e-006,1.692431e-005
5.955882e-001,-1.091020e-005,1.693127e-005
5.963824e-001,-9.903105e-006,1.693991e-005
5.971765e-001,-8.896010e-006,1.694550e-005
5.979706e-001,-1.124590e-005,1.694434e-005
5.987647e-001,-1.460288e-005,1.683001e-005
5.995588e-001,-1.560998e-005,1.679411e-005
6.003529e-001,-1.091020e-005,1.681623e-005
6.011471e-001,-7.217518e-006,1.679282e-005
6.019412e-001,-1.225299e-005,1.675530e-005
6.027353e-001,-1.594568e-005,1.674591e-005
6.035294e-001,-2.131685e-005,1.676975e-005
6.043235e-001,-2.836652e-005,1.679532e-005
6.051176e-001,-3.373770e-005,1.686697e-005
6.059118e-001,-4.011597e-005,1.697186e-005
6.067059e-001,-4.313725e-005,1.712212e-005
6.075000e-001,-4.179446e-005,1.726783e-005
6.082941e-001,-3.575189e-005,1.736621e-005
6.090882e-001,-2.299535e-005,1.748115e-005
6.098824e-001,-8.896010e-006,1.749049e-005
6.106765e-001,-3.692683e-006,1.742079e-005
6.114706e-001,-5.539025e-006,1.733368e-005
6.122647e-001,-8.224612e-006,1.724381e-005
6.130588e-001,-8.392462e-007,1.717473e-005
6.138529e-001,9.063859e-006,1.712570e-005
6.146471e-001,9.231709e-006,1.709746e-005
6.154412e-001,2.517739e-006,1.705465e-005
6.162353e-001,-5.035477e-007,1.695698e-005
6.170294e-001,-6.881819e-006,1.681276e-005
6.178235e-001,-1.023880e-005,1.668165e-005
6.186176e-001,-9.231709e-006,1.656461e-005
6.194118e-001,-7.553216e-006,1.647582e-005
6.202059e-001,-4.196231e-006,1.642241e-005
6.210000e-001,-6.881819e-006,1.640618e-005
6.217941e-001,-2.098116e-005,1.640879e-005
6.225882e-001,-3.776608e-005,1.644946e-005
6.233824e-001,-3.457694e-005,1.658552e-005
6.241765e-001,-1.560998e-005,1.669624e-005
6.249706e-001,-2.853437e-006,1.671598e-005
6.257647e-001,1.174945e-006,1.670978e-005
6.265588e-001,8.392462e-006,1.670236e-005
6.273529e-001,9.903105e-006,1.670153e-005
6.281471e-001,4.531929e-006,1.670544e-005
6.289412e-001,-5.035477e-007,1.670448e-005
6.297353e-001,-5.874723e-006,1.669999e-005
6.305294e-001,-8.224612e-006,1.669515e-005
6.313235e-001,-5.203327e-006,1.669160e-005
6.321176e-001,-1.510643e-006,1.667986e-005
6.329118e-001,9.903105e-006,1.665370e-005
6.337059e-001,2.165255e-005,1.663772e-005
6.345000e-001,1.124590e-005,1.666309e-005
6.352941e-001,-5.539025e-006,1.663308e-005
6.360882e-001,-1.963836e-005,1.659517e-005
6.368824e-001,-3.172351e-005,1.661075e-005
6.376765e-001,-3.944457e-005,1.670366e-005
6.384706e-001,-4.783703e-005,1.685037e-005
6.392647e-001,-4.682994e-005,1.706473e-005
6.400588e-001,-3.978027e-005,1.726816e-005
6.408529e-001,-4.179446e-005,1.741297e-005
6.416471e-001,-3.978027e-005,1.757124e-005
6.424412e-001,-3.508049e-005,1.770269e-005
6.432353e-001,-3.373770e-005,1.779925e-005
6.440294e-001,-3.508049e-005,1.788352e-005
6.448235e-001,-3.071641e-005,1.798815e-005
6.456176e-001,-1.863127e-005,1.807147e-005
6.464118e-001,-1.359579e-005,1.809965e-005
6.472059e-001,-4.196231e-006,1.811174e-005
6.480000e-001,5.035477e-007,1.810407e-005
6.487941e-001,3.692683e-006,1.809487e-005
6.495882e-001,5.203327e-006,1.808685e-005
6.503824e-001,5.203327e-006,1.807295e-005
6.511765e-001,9.231709e-006,1.805197e-005
6.519706e-001,9.903105e-006,1.803561e-005
6.527647e-001,7.888914e-006,1.801631e-005
6.535588e-001,-3.356985e-007,1.799837e-005
6.543529e-001,-1.393149e-005,1.797588e-005
6.551471e-001,-1.393149e-005,1.796959e-005
6.559412e-001,-1.057450e-005,1.796329e-005
6.567353e-001,-4.196231e-006,1.795066e-005
6.575294e-001,-4.531929e-006,1.793416e-005
6.583235e-001,-1.258869e-005,1.791571e-005
6.591176e-001,-1.762417e-005,1.790814e-005
6.599118e-001,-1.712062e-005,1.790489e-005
6.607059e-001,-1.359579e-005,1.789366e-005
6.615000e-001,-1.225299e-005,1.786303e-005
6.622941e-001,-5.874723e-006,1.784656e-005
6.630882e-001,-8.392462e-007,1.782789e-005
6.638824e-001,-1.174945e-006,1.779347e-005
6.646765e-001,-4.867628e-006,1.777705e-005
6.654706e-001,-7.553216e-006,1.777675e-005
6.662647e-001,-1.393149e-005,1.776095e-005
6.670588e-001,-2.030976e-005,1.777277e-005
6.678529e-001,-2.786297e-005,1.780968e-005
6.686471e-001,-2.970932e-005,1.786167e-005
6.694412e-001,-2.165255e-005,1.788307e-005
6.702353e-001,-1.577783e-005,1.784796e-005
6.710294e-001,-4.531929e-006,1.779660e-005
6.718235e-001,1.997406e-005,1.775244e-005
6.726176e-001,1.191730e-005,1.774810e-005
6.734118e-001,-3.524834e-006,1.770161e-005
6.742059e-001,-1.057450e-005,1.763527e-005
6.750000e-001,-1.728847e-005,1.760033e-005
6.757941e-001,-2.131685e-005,1.761966e-005
6.765882e-001,-2.601663e-005,1.766042e-005
6.773824e-001,-2.870222e-005,1.772122e-005
6.781765e-001,-2.769513e-005,1.779509e-005
6.789706e-001,-2.836652e-005,1.786287e-005
6.797647e-001,-3.239490e-005,1.793439e-005
6.805588e-001,-3.004501e-005,1.802691e-005
6.813529e-001,-3.121996e-005,1.810557e-005
6.821471e-001,-2.702373e-005,1.818417e-005
6.829412e-001,-2.500954e-005,1.823187e-005
6.837353e-001,-2.114900e-005,1.826991e-005
6.845294e-001,-1.242084e-005,1.829973e-005
6.853235e-001,-1.846342e-006,1.831048e-005
6.861176e-001,-1.678492e-007,1.830948e-005
6.869118e-001,4.531929e-006,1.830878e-005
6.877059e-001,9.903105e-006,1.831001e-005
6.885000e-001,8.560311e-006,1.831587e-005
6.892941e-001,4.364080e-006,1.831924e-005
6.900882e-001,2.853437e-006,1.830637e-005
6.908824e-001,3.524834e-006,1.828937e-005
6.916765e-001,1.846342e-006,1.827808e-005
6.924706e-001,1.510643e-006,1.826227e-005
6.932647e-001,5.874723e-006,1.824513e-005
6.940588e-001,1.258869e-005,1.823119e-005
6.948529e-001,7.888914e-006,1.821790e-005
6.956471e-001,2.517739e-006,1.819188e-005
6.964412e-001,-9.567407e-006,1.817109e-005
6.972353e-001,-2.568093e-005,1.816559e-005
6.980294e-001,-2.702373e-005,1.821159e-005
6.988235e-001,-1.577783e-005,1.826558e-005
6.996176e-001,-1.225299e-005,1.828038e-005
7.004118e-001,-1.023880e-005,1.828309e-005
7.012059e-001,-1.426719e-005,1.827767e-005
7.020000e-001,-1.560998e-005,1.828160e-005
7.027941e-001,-1.527428e-005,1.829484e-005
7.035882e-001,-2.165255e-005,1.830661e-005
7.043824e-001,-2.702373e-005,1.831151e-005
7.051765e-001,-2.433814e-005,1.833913e-005
7.059706e-001,-2.165255e-005,1.838363e-005
7.067647e-001,-1.695277e-005,1.842379e-005
7.075588e-001,-1.393149e-005,1.844859e-005
7.083529e-001,-1.359579e-005,1.846356e-005
7.091471e-001,-1.493858e-005,1.847920e-005
7.099412e-001,-1.863127e-005,1.849665e-005
7.107353e-001,-1.359579e-005,1.852070e-005
7.115294e-001,-1.057450e-005,1.850674e-005
7.123235e-001,-8.560311e-006,1.849966e-005
7.131176e-001,-7.553216e-006,1.850591e-005
7.139118e-001,-7.553216e-006,1.851062e-005
7.147059e-001,-6.881819e-006,1.851482e-005
7.155000e-001,-7.049668e-006,1.850802e-005
7.162941e-001,-6.881819e-006,1.847678e-005
7.170882e-001,-8.224612e-006,1.839302e-005
7.178824e-001,-1.174945e-005,1.830971e-005
7.186765e-001,-1.460288e-005,1.825813e-005
7.194706e-001,-1.527428e-005,1.824309e-005
7.202647e-001,-1.426719e-005,1.823634e-005
7.210588e-001,-1.225299e-005,1.822488e-005
7.218529e-001,-1.124590e-005,1.819952e-005
7.226471e-001,-1.560998e-005,1.815580e-005
7.234412e-001,-2.232395e-005,1.811147e-005
7.242353e-001,-2.030976e-005,1.810176e-005
7.250294e-001,-1.628138e-005,1.811375e-005
7.258235e-001,-1.527428e-005,1.812658e-005
7.266176e-001,-1.628138e-005,1.813662e-005
7.274118e-001,-1.544213e-005,1.814366e-005
7.282059e-001,-1.594568e-005,1.815141e-005
7.290000e-001,-1.460288e-005,1.815868e-005
7.297941e-001,-1.023880e-005,1.817044e-005
7.305882e-001,-1.107805e-005,1.816718e-005
7.313824e-001,-1.359579e-005,1.816477e-005
7.321765e-001,-1.292439e-005,1.817597e-005
7.329706e-001,-1.258869e-005,1.818758e-005
7.337647e-001,-1.460288e-005,1.819038e-005
7.345588e-001,-1.359579e-005,1.819798e-005
7.353529e-001,-1.426719e-005,1.820557e-005
7.361471e-001,-1.426719e-005,1.821024e-005
7.369412e-001,-1.158160e-005,1.819658e-005
7.377353e-001,-6.881819e-006,1.817455e-005
7.385294e-001,-2.853437e-006,1.815546e-005
7.393235e-001,-2.182040e-006,1.811997e-005
7.401176e-001,-1.678492e-006,1.806534e-005
7.409118e-001,5.035477e-007,1.803039e-005
7.417059e-001,3.524834e-006,1.802514e-005
7.425000e-001,1.678492e-007,1.802492e-005
7.432941e-001,-3.524834e-006,1.801793e-005
7.440882e-001,-9.567407e-006,1.801443e-005
7.448824e-001,-1.493858e-005,1.802142e-005
7.456765e-001,-9.903105e-006,1.804041e-005
7.464706e-001,-2.030976e-005,1.804208e-005
7.472647e-001,-2.333104e-005,1.806921e-005
7.480588e-001,-2.500954e-005,1.810532e-005
7.488529e-001,-4.179446e-005,1.815106e-005
7.496471e-001,-5.622950e-005,1.829677e-005
7.504412e-001,-5.925078e-005,1.856409e-005
7.512353e-001,-4.582284e-005,1.885711e-005
7.520294e-001,-3.508049e-005,1.902237e-005
7.528235e-001,-3.256275e-005,1.911046e-005
7.536176e-001,-2.584878e-005,1.918092e-005
7.544118e-001,-2.568093e-005,1.921740e-005
7.552059e-001,-1.829557e-005,1.926089e-005
7.560000e-001,-1.460288e-005,1.927810e-005
7.567941e-001,-1.359579e-005,1.928867e-005
7.575882e-001,-9.063859e-006,1.930169e-005
7.583824e-001,-1.510643e-006,1.930493e-005
7.591765e-001,9.231709e-006,1.929931e-005
7.599706e-001,2.735943e-005,1.930163e-005
7.607647e-001,3.340200e-005,1.935628e-005
7.615588e-001,3.138781e-005,1.942383e-005
7.623529e-001,1.963836e-005,1.947857e-005
7.631471e-001,3.189136e-006,1.949017e-005
7.639412e-001,-3.189136e-006,1.945385e-005
7.647353e-001,4.364080e-006,1.938554e-005
7.655294e-001,4.699779e-006,1.933635e-005
7.663235e-001,5.203327e-006,1.930639e-005
7.671176e-001,6.546120e-006,1.928937e-005
7.679118e-001,2.349889e-006,1.928637e-005
7.687059e-001,-5.539025e-006,1.927927e-005
7.695000e-001,-8.224612e-006,1.927789e-005
7.702941e-001,-1.023880e-005,1.928337e-005
7.710882e-001,-9.903105e-006,1.929191e-005
7.718824e-001,-9.567407e-006,1.929961e-005
7.726765e-001,-1.359579e-005,1.930547e-005
7.734706e-001,-2.030976e-005,1.931466e-005
7.742647e-001,-2.668803e-005,1.934435e-005
7.750588e-001,-3.054856e-005,1.934582e-005
7.758529e-001,-2.534523e-005,1.939084e-005
7.766471e-001,-1.963836e-005,1.944333e-005
7.774412e-001,-2.198825e-005,1.941509e-005
7.782353e-001,-2.030976e-005,1.933126e-005
7.790294e-001,-1.829557e-005,1.923354e-005
7.798235e-001,-1.829557e-005,1.914713e-005
7.806176e-001,-1.493858e-005,1.906446e-005
7.814118e-001,-1.225299e-005,1.901260e-005
7.822059e-001,-1.359579e-005,1.897553e-005
7.830000e-001,-1.158160e-005,1.895755e-005
7.837941e-001,-9.231709e-006,1.895172e-005
7.845882e-001,-7.553216e-006,1.894826e-005
7.853824e-001,-6.881819e-006,1.893751e-005
7.861765e-001,-8.224612e-006,1.894096e-005
7.869706e-001,-7.553216e-006,1.892913e-005
7.877647e-001,-8.560311e-006,1.893374e-005
7.885588e-001,-7.553216e-006,1.890855e-005
7.893529e-001,-1.091020e-005,1.886062e-005
7.901471e-001,-1.225299e-005,1.879262e-005
7.909412e-001,-9.063859e-006,1.874339e-005
7.917353e-001,-1.846342e-006,1.870275e-005
7.925294e-001,6.881819e-006,1.855612e-005
7.933235e-001,4.531929e-006,1.841926e-005
7.941176e-001,-4.196231e-006,1.837983e-005
7.949118e-001,-1.493858e-005,1.837930e-005
7.957059e-001,-2.500954e-005,1.838955e-005
7.965000e-001,-2.970932e-005,1.841364e-005
7.972941e-001,-2.735943e-005,1.845989e-005
7.980882e-001,-3.508049e-005,1.851702e-005
7.988824e-001,-3.776608e-005,1.862185e-005
7.996765e-001,-2.500954e-005,1.874140e-005
8.004706e-001,-1.795987e-005,1.879321e-005
8.012647e-001,-9.567407e-006,1.880247e-005
8.020588e-001,1.174945e-006,1.880968e-005
8.028529e-001,2.517739e-006,1.877932e-005
8.036471e-001,-5.874723e-006,1.871471e-005
8.044412e-001,-9.903105e-006,1.859153e-005
8.052353e-001,-1.628138e-005,1.846280e-005
8.060294e-001,-2.165255e-005,1.834415e-005
8.068235e-001,-2.316319e-005,1.827790e-005
8.076176e-001,-9.735256e-006,1.824421e-005
8.084118e-001,2.735943e-005,1.819929e-005
8.092059e-001,3.675899e-005,1.824057e-005
8.100000e-001,7.553216e-006,1.835228e-005
8.107941e-001,-2.165255e-005,1.835594e-005
8.115882e-001,-3.709468e-005,1.838808e-005
8.123824e-001,-4.112306e-005,1.846130e-005
8.131765e-001,-4.078737e-005,1.858198e-005
8.139706e-001,-3.709468e-005,1.871776e-005
8.147647e-001,-3.172351e-005,1.880402e-005
8.155588e-001,-2.769513e-005,1.886669e-005
8.163529e-001,-2.601663e-005,1.892652e-005
8.171471e-001,-1.628138e-005,1.898261e-005
8.179412e-001,-1.359579e-005,1.896967e-005
8.187353e-001,-2.165255e-005,1.895390e-005
8.195294e-001,-1.762417e-005,1.897618e-005
8.203235e-001,-9.567407e-006,1.900137e-005
8.211176e-001,-8.560311e-006,1.900706e-005
8.219118e-001,-8.224612e-006,1.900553e-005
8.227059e-001,-6.881819e-006,1.898516e-005
8.235000e-001,-5.539025e-006,1.897124e-005
8.242941e-001,-8.224612e-006,1.897342e-005
8.250882e-001,-1.023880e-005,1.897903e-005
8.258824e-001,-9.903105e-006,1.898304e-005
8.266765e-001,-4.196231e-006,1.896715e-005
8.274706e-001,-8.392462e-007,1.893567e-005
8.282647e-001,-2.182040e-006,1.890959e-005
8.290588e-001,-1.510643e-006,1.887968e-005
8.298529e-001,-5.035477e-007,1.886349e-005
8.306471e-001,1.678492e-007,1.886226e-005
8.314412e-001,-1.678492e-007,1.886100e-005
8.322353e-001,1.174945e-006,1.886094e-005
8.330294e-001,1.846342e-006,1.886097e-005
8.338235e-001,-2.853437e-006,1.886057e-005
8.346176e-001,-2.853437e-006,1.885867e-005
8.354118e-001,-4.196231e-006,1.884803e-005
8.362059e-001,-8.224612e-006,1.883351e-005
8.370000e-001,-1.040665e-005,1.880879e-005
8.377941e-001,-8.560311e-006,1.876777e-005
8.385882e-001,-8.224612e-006,1.871649e-005
8.393824e-001,-1.225299e-005,1.868595e-005
8.401765e-001,-1.493858e-005,1.868451e-005
8.409706e-001,-1.527428e-005,1.868619e-005
8.417647e-001,-1.762417e-005,1.869396e-005
8.425588e-001,-1.896696e-005,1.871712e-005
8.433529e-001,-1.829557e-005,1.874540e-005
8.441471e-001,-1.460288e-005,1.877018e-005
8.449412e-001,-1.091020e-005,1.878050e-005
8.457353e-001,-8.560311e-006,1.878050e-005
8.465294e-001,-1.258869e-005,1.877840e-005
8.473235e-001,-1.158160e-005,1.878513e-005
8.481176e-001,-1.292439e-005,1.878577e-005
8.489118e-001,-1.443504e-005,1.878186e-005
8.497059e-001,-6.881819e-006,1.877886e-005
8.505000e-001,-7.553216e-006,1.877279e-005
8.512941e-001,-9.567407e-006,1.877321e-005
8.520882e-001,-1.359579e-005,1.876824e-005
8.528824e-001,-1.762417e-005,1.876235e-005
8.536765e-001,-2.098116e-005,1.875014e-005
8.544706e-001,-2.232395e-005,1.871916e-005
8.552647e-001,-2.030976e-005,1.866465e-005
8.560588e-001,-1.359579e-005,1.856226e-005
8.568529e-001,-1.359579e-005,1.841793e-005
8.576471e-001,-1.661708e-005,1.828239e-005
8.584412e-001,-1.594568e-005,1.819491e-005
8.592353e-001,-1.963836e-005,1.817086e-005
8.600294e-001,-2.165255e-005,1.819771e-005
8.608235e-001,-1.695277e-005,1.823749e-005
8.616176e-001,-1.158160e-005,1.825989e-005
8.624118e-001,-5.539025e-006,1.826569e-005
8.632059e-001,-3.524834e-006,1.826831e-005
8.640000e-001,-4.196231e-006,1.826223e-005
8.647941e-001,-7.888914e-006,1.825633e-005
8.655882e-001,-1.292439e-005,1.826121e-005
8.663824e-001,-1.661708e-005,1.827574e-005
8.671765e-001,-1.913481e-005,1.829566e-005
8.679706e-001,-1.644922e-005,1.831839e-005
8.687647e-001,-1.963836e-005,1.833450e-005
8.695588e-001,-2.433814e-005,1.836302e-005
8.703529e-001,-3.038071e-005,1.841279e-005
8.711471e-001,-3.373770e-005,1.848836e-005
8.719412e-001,-3.776608e-005,1.854838e-005
8.727353e-001,-1.863127e-005,1.854838e-005
8.735294e-001,-1.174945e-006,1.847540e-005
8.743235e-001,6.546120e-006,1.845450e-005
8.751176e-001,5.203327e-006,1.845750e-005
8.759118e-001,5.874723e-006,1.845972e-005
8.767059e-001,3.524834e-006,1.845662e-005
8.775000e-001,2.182040e-006,1.844923e-005
8.782941e-001,2.517739e-006,1.844786e-005
8.790882e-001,-2.182040e-006,1.844839e-005
8.798824e-001,-6.210422e-006,1.844582e-005
8.806765e-001,-8.896010e-006,1.844331e-005
8.814706e-001,-9.567407e-006,1.844780e-005
8.822647e-001,-1.158160e-005,1.845551e-005
8.830588e-001,-1.359579e-005,1.845862e-005
8.838529e-001,-1.695277e-005,1.843410e-005
8.846471e-001,-1.829557e-005,1.844800e-005
8.854412e-001,-1.896696e-005,1.847422e-005
8.862353e-001,-1.393149e-005,1.847199e-005
8.870294e-001,-1.191730e-005,1.840183e-005
8.878235e-001,-1.493858e-005,1.827908e-005
8.886176e-001,-2.131685e-005,1.809828e-005
8.894118e-001,-2.098116e-005,1.794465e-005
8.902059e-001,-1.292439e-005,1.784301e-005
8.910000e-001,-2.349889e-006,1.770146e-005
8.917941e-001,1.678492e-006,1.755904e-005
8.925882e-001,3.524834e-006,1.744733e-005
8.933824e-001,1.174945e-006,1.734428e-005
8.941765e-001,-3.189136e-006,1.723105e-005
8.949706e-001,-1.023880e-005,1.714459e-005
8.957647e-001,-1.493858e-005,1.712207e-005
8.965588e-001,-1.158160e-005,1.712563e-005
8.973529e-001,-3.189136e-006,1.713646e-005
8.981471e-001,-1.846342e-006,1.713738e-005
8.989412e-001,-9.567407e-006,1.713643e-005
8.997353e-001,-1.225299e-005,1.714242e-005
9.005294e-001,-1.628138e-005,1.715385e-005
9.013235e-001,-2.064546e-005,1.717054e-005
9.021176e-001,-1.863127e-005,1.720094e-005
9.029118e-001,-1.846342e-005,1.722730e-005
9.037059e-001,-2.433814e-005,1.725877e-005
9.045000e-001,-2.635233e-005,1.729547e-005
9.052941e-001,-2.400244e-005,1.734148e-005
9.060882e-001,-1.695277e-005,1.738406e-005
9.068824e-001,-1.510643e-005,1.740875e-005
9.076765e-001,-1.426719e-005,1.742774e-005
9.084706e-001,-1.795987e-005,1.743186e-005
9.092647e-001,-2.735943e-005,1.743295e-005
9.100588e-001,-1.930266e-005,1.747450e-005
9.108529e-001,-8.392462e-007,1.749160e-005
9.116471e-001,4.196231e-006,1.747799e-005
9.124412e-001,5.035477e-007,1.747645e-005
9.132353e-001,-8.392462e-007,1.747641e-005
9.140294e-001,-3.524834e-006,1.747635e-005
9.148235e-001,-7.217518e-006,1.747532e-005
9.156176e-001,-9.231709e-006,1.747487e-005
9.164118e-001,-1.460288e-005,1.746494e-005
9.172059e-001,-1.762417e-005,1.744677e-005
9.180000e-001,-1.560998e-005,1.740421e-005
9.187941e-001,-1.795987e-005,1.734565e-005
9.195882e-001,-2.299535e-005,1.733222e-005
9.203824e-001,-2.030976e-005,1.735791e-005
9.211765e-001,-1.829557e-005,1.739383e-005
9.219706e-001,-1.913481e-005,1.738795e-005
9.227647e-001,-1.762417e-005,1.740846e-005
9.235588e-001,-1.560998e-005,1.743571e-005
9.243529e-001,-1.057450e-005,1.744775e-005
9.251471e-001,-8.896010e-006,1.743067e-005
9.259412e-001,-8.224612e-006,1.739635e-005
9.267353e-001,-6.042573e-006,1.734050e-005
9.275294e-001,-4.867628e-006,1.726805e-005
9.283235e-001,-4.364080e-006,1.719937e-005
9.291176e-001,-6.881819e-006,1.712648e-005
9.299118e-001,-8.224612e-006,1.703306e-005
9.307059e-001,-1.225299e-005,1.695481e-005
9.315000e-001,-1.393149e-005,1.687719e-005
9.322941e-001,-1.527428e-005,1.682653e-005
9.330882e-001,-1.326009e-005,1.678937e-005
9.338824e-001,-1.158160e-005,1.676361e-005
9.346765e-001,-1.158160e-005,1.676169e-005
9.354706e-001,-9.735256e-006,1.677411e-005
9.362647e-001,-8.224612e-006,1.678310e-005
9.370588e-001,-7.553216e-006,1.678757e-005
9.378529e-001,-6.210422e-006,1.678368e-005
9.386471e-001,-7.385367e-006,1.678038e-005
9.394412e-001,-7.553216e-006,1.678375e-005
9.402353e-001,-8.224612e-006,1.678839e-005
9.410294e-001,-7.553216e-006,1.679363e-005
9.418235e-001,-8.560311e-006,1.679871e-005
9.426176e-001,-5.874723e-006,1.680544e-005
9.434118e-001,-3.189136e-006,1.680544e-005
9.442059e-001,-4.364080e-006,1.679138e-005
9.450000e-001,5.874723e-006,1.678729e-005
9.457941e-001,3.256275e-005,1.678996e-005
9.465882e-001,3.474479e-005,1.688159e-005
9.473824e-001,1.527428e-005,1.693317e-005
9.481765e-001,1.846342e-006,1.688637e-005
9.489706e-001,-1.225299e-005,1.686321e-005
9.497647e-001,-2.870222e-005,1.686321e-005
9.505588e-001,-4.917983e-005,1.693096e-005
9.513529e-001,-6.260777e-005,1.713803e-005
9.521471e-001,-6.395056e-005,1.747624e-005
9.529412e-001,-6.428626e-005,1.782416e-005
9.537353e-001,-6.663615e-005,1.814853e-005
9.545294e-001,-6.160067e-005,1.847118e-005
9.553235e-001,-4.531930e-005,1.874521e-005
9.561176e-001,-2.803082e-005,1.887937e-005
9.569118e-001,-2.131685e-005,1.892136e-005
9.577059e-001,-1.846342e-005,1.894325e-005
9.585000e-001,-1.158160e-005,1.895637e-005
9.592941e-001,-4.867628e-006,1.894889e-005
9.600882e-001,2.517739e-006,1.892169e-005
9.608824e-001,6.210422e-006,1.890666e-005
9.616765e-001,2.517739e-006,1.890049e-005
9.624706e-001,-1.510643e-006,1.889485e-005
9.632647e-001,1.846342e-006,1.889023e-005
9.640588e-001,2.517739e-006,1.888571e-005
9.648529e-001,3.189136e-006,1.888225e-005
9.656471e-001,5.203327e-006,1.887892e-005
9.664412e-001,3.189136e-006,1.887721e-005
9.672353e-001,5.035477e-007,1.887236e-005
9.680294e-001,5.035477e-007,1.886073e-005
9.688235e-001,1.174945e-006,1.884274e-005
9.696176e-001,-3.692683e-006,1.882313e-005
9.704118e-001,-5.539025e-006,1.880706e-005
9.712059e-001,-3.524834e-006,1.879694e-005
9.720000e-001,-4.867628e-006,1.878727e-005
9.727941e-001,-8.224612e-006,1.876862e-005
9.735882e-001,-9.567407e-006,1.873204e-005
9.743824e-001,-8.896010e-006,1.870474e-005
9.751765e-001,-7.553216e-006,1.868890e-005
9.759706e-001,-7.553216e-006,1.867388e-005
9.767647e-001,-1.023880e-005,1.865613e-005
9.775588e-001,-1.158160e-005,1.864472e-005
9.783529e-001,-1.023880e-005,1.863446e-005
9.791471e-001,-1.158160e-005,1.862519e-005
9.799412e-001,-1.728847e-005,1.862770e-005
9.807353e-001,-1.628138e-005,1.864275e-005
9.815294e-001,-1.309224e-005,1.864960e-005
9.823235e-001,-1.628138e-005,1.864997e-005
9.831176e-001,-2.165255e-005,1.865908e-005
9.839118e-001,-2.030976e-005,1.868087e-005
9.847059e-001,-1.393149e-005,1.870027e-005
9.855000e-001,-8.224612e-006,1.869946e-005
9.862941e-001,1.174945e-006,1.868789e-005
9.870882e-001,1.057450e-005,1.867657e-005
9.878824e-001,1.728847e-005,1.868207e-005
9.886765e-001,2.131685e-005,1.870683e-005
9.894706e-001,1.863127e-005,1.874507e-005
9.902647e-001,9.231709e-006,1.877429e-005
9.910588e-001,-2.853437e-006,1.878150e-005
9.918529e-001,-1.930266e-005,1.878113e-005
9.926471e-001,-4.112306e-005,1.881270e-005
9.934412e-001,-4.850843e-005,1.895425e-005
9.942353e-001,-4.750134e-005,1.914330e-005
9.950294e-001,-5.522240e-005,1.931168e-005
9.958235e-001,-5.186542e-005,1.955353e-005
9.966176e-001,-4.531930e-005,1.973814e-005
9.974118e-001,-3.709468e-005,1.985954e-005
9.982059e-001,-3.373770e-005,1.991963e-005
9.990000e-001,-2.970932e-005,1.987092e-005
9.997941e-001,-2.333104e-005,1.968744e-005
1.000588e+000,-1.560998e-005,1.944604e-005
1.001382e+000,-6.881819e-006,1.929345e-005
1.002176e+000,-8.392462e-007,1.919554e-005
1.002971e+000,-1.678492e-007,1.910744e-005
1.003765e+000,5.035477e-007,1.905168e-005
1.004559e+000,-3.356985e-007,1.899650e-005
1.005353e+000,-1.846342e-006,1.896843e-005
1.006147e+000,-1.678492e-007,1.895080e-005
1.006941e+000,-8.392462e-007,1.893527e-005
1.007735e+000,8.392462e-007,1.892842e-005
1.008529e+000,1.846342e-006,1.892829e-005
1.009324e+000,-3.356985e-007,1.892140e-005
1.010118e+000,5.035477e-007,1.885831e-005
1.010912e+000,-2.349889e-006,1.876389e-005
1.011706e+000,-4.531929e-006,1.868057e-005
1.012500e+000,-6.881819e-006,1.864942e-005
1.013294e+000,-7.553216e-006,1.865259e-005
1.014088e+000,-5.539025e-006,1.865659e-005
1.014882e+000,-7.217518e-006,1.865759e-005
1.015676e+000,-7.553216e-006,1.866015e-005
1.016471e+000,-4.364080e-006,1.866271e-005
1.017265e+000,-7.553216e-006,1.866067e-005
1.018059e+000,-1.091020e-005,1.866507e-005
1.018853e+000,-1.107805e-005,1.867261e-005
1.019647e+000,-1.225299e-005,1.867730e-005
1.020441e+000,-1.628138e-005,1.868116e-005
1.021235e+000,-1.896696e-005,1.869540e-005
1.022029e+000,-1.980621e-005,1.871823e-005
1.022824e+000,-1.829557e-005,1.873587e-005
1.023618e+000,-1.779202e-005,1.872926e-005
1.024412e+000,-1.661708e-005,1.869558e-005
1.025206e+000,-1.124590e-005,1.863953e-005
1.026000e+000,-7.553216e-006,1.859541e-005
1.026794e+000,-8.896010e-006,1.856725e-005
1.027588e+000,-1.393149e-005,1.853254e-005
1.028382e+000,-2.098116e-005,1.851376e-005
1.029176e+000,-2.450599e-005,1.852283e-005
1.029971e+000,-2.853437e-005,1.854567e-005
1.030765e+000,-3.172351e-005,1.859635e-005
1.031559e+000,-2.635233e-005,1.866952e-005
1.032353e+000,-1.795987e-005,1.871294e-005
1.033147e+000,-1.426719e-005,1.872896e-005
1.033941e+000,-1.158160e-005,1.873902e-005
1.034735e+000,-8.224612e-006,1.874557e-005
1.035529e+000,-7.553216e-006,1.874729e-005
1.036324e+000,-8.560311e-006,1.874639e-005
1.037118e+000,-1.258869e-005,1.874777e-005
1.037912e+000,-1.258869e-005,1.875501e-005
1.038706e+000,-1.124590e-005,1.876361e-005
1.039500e+000,-1.158160e-005,1.876425e-005
1.040294e+000,-1.191730e-005,1.876289e-005
1.041088e+000,-1.124590e-005,1.876797e-005
1.041882e+000,-1.124590e-005,1.877841e-005
1.042676e+000,-1.124590e-005,1.878511e-005
1.043471e+000,-1.124590e-005,1.879409e-005
1.044265e+000,-6.881819e-006,1.880331e-005
1.045059e+000,-5.035477e-006,1.878842e-005
1.045853e+000,-5.539025e-006,1.873749e-005
1.046647e+000,-6.881819e-006,1.866495e-005
1.047441e+000,-1.023880e-005,1.860503e-005
1.048235e+000,-9.903105e-006,1.850842e-005
1.049029e+000,-8.224612e-006,1.839380e-005
1.049824e+000,-7.217518e-006,1.834544e-005
1.050618e+000,-7.553216e-006,1.832195e-005
1.051412e+000,-7.888914e-006,1.831896e-005
1.052206e+000,-8.560311e-006,1.832424e-005
1.053000e+000,-6.881819e-006,1.833006e-005
1.053794e+000,-5.539025e-006,1.833118e-005
1.054588e+000,-6.546120e-006,1.832532e-005
1.055382e+000,-3.021286e-006,1.830600e-005
1.056176e+000,-4.531929e-006,1.826597e-005
1.056971e+000,-6.881819e-006,1.822093e-005
1.057765e+000,-4.867628e-006,1.821679e-005
1.058559e+000,-8.560311e-006,1.815332e-005
1.059353e+000,-7.721065e-006,1.804087e-005
1.060147e+000,-2.517739e-006,1.804110e-005
1.060941e+000,-6.210422e-006,1.800023e-005
1.061735e+000,-1.057450e-005,1.788152e-005
1.062529e+000,-1.124590e-005,1.774033e-005
1.063324e+000,-1.292439e-005,1.760182e-005
1.064118e+000,-1.493858e-005,1.749211e-005
1.064912e+000,-1.695277e-005,1.742066e-005
1.065706e+000,-1.997406e-005,1.737677e-005
1.066500e+000,-1.695277e-005,1.735128e-005
1.067294e+000,-8.896010e-006,1.735333e-005
1.068088e+000,5.874723e-006,1.734363e-005
1.068882e+000,9.903105e-006,1.730370e-005
1.069676e+000,-1.091020e-005,1.728413e-005
1.070471e+000,-2.635233e-005,1.728667e-005
1.071265e+000,-3.306630e-005,1.734379e-005
1.072059e+000,-3.826963e-005,1.743771e-005
1.072853e+000,-3.642328e-005,1.756665e-005
1.073647e+000,-3.273060e-005,1.768373e-005
1.074441e+000,-2.970932e-005,1.777388e-005
1.075235e+000,-2.635233e-005,1.784343e-005
1.076029e+000,-2.970932e-005,1.789657e-005
1.076824e+000,-2.635233e-005,1.797337e-005
1.077618e+000,-1.695277e-005,1.803473e-005
1.078412e+000,-1.158160e-005,1.805967e-005
1.079206e+000,-1.560998e-005,1.807129e-005
1.080000e+000,-2.030976e-005,1.809272e-005
1.080794e+000,-9.903105e-006,1.812899e-005
1.081588e+000,-2.853437e-006,1.813760e-005
1.082382e+000,-8.392462e-007,1.813819e-005
1.083176e+000,-4.196231e-006,1.813795e-005
1.083971e+000,-1.174945e-006,1.813878e-005
1.084765e+000,5.035477e-007,1.813819e-005
1.085559e+000,5.035477e-007,1.813667e-005
1.086353e+000,-8.392462e-007,1.813075e-005
1.087147e+000,-3.524834e-006,1.812130e-005
1.087941e+000,-5.539025e-006,1.811595e-005
1.088735e+000,-7.217518e-006,1.811270e-005
1.089529e+000,-8.896010e-006,1.810408e-005
1.090324e+000,-8.224612e-006,1.809141e-005
1.091118e+000,-9.567407e-006,1.807682e-005
1.091912e+000,-1.359579e-005,1.805751e-005
1.092706e+000,-1.560998e-005,1.804208e-005
1.093500e+000,-1.359579e-005,1.803404e-005
1.094294e+000,-1.359579e-005,1.803154e-005
1.095088e+000,-1.091020e-005,1.803735e-005
1.095882e+000,-1.023880e-005,1.804139e-005
1.096676e+000,-1.242084e-005,1.803665e-005
1.097471e+000,-1.225299e-005,1.803843e-005
1.098265e+000,-1.191730e-005,1.803694e-005
1.099059e+000,-1.107805e-005,1.803108e-005
1.099853e+000,-1.258869e-005,1.803773e-005
1.100647e+000,-1.091020e-005,1.804668e-005
1.101441e+000,-1.426719e-005,1.804911e-005
1.102235e+000,-1.158160e-005,1.805076e-005
1.103029e+000,-1.359579e-005,1.803519e-005
1.103824e+000,-1.258869e-005,1.801263e-005
1.104618e+000,-1.493858e-005,1.798255e-005
1.105412e+000,-1.779202e-005,1.796578e-005
1.106206e+000,-1.594568e-005,1.797745e-005
1.107000e+000,-1.577783e-005,1.798360e-005
1.107794e+000,-1.493858e-005,1.798119e-005
1.108588e+000,-1.527428e-005,1.797844e-005
1.109382e+000,-1.158160e-005,1.796494e-005
1.110176e+000,-7.888914e-006,1.793525e-005
1.110971e+000,-4.531929e-006,1.791524e-005
1.111765e+000,-4.867628e-006,1.790515e-005
1.112559e+000,-4.531929e-006,1.790452e-005
1.113353e+000,-3.692683e-006,1.790525e-005
1.114147e+000,-5.203327e-006,1.790489e-005
1.114941e+000,-8.224612e-006,1.790177e-005
1.115735e+000,-8.224612e-006,1.789292e-005
1.116529e+000,-6.881819e-006,1.787436e-005
1.117324e+000,-1.023880e-005,1.784594e-005
1.118118e+000,-1.258869e-005,1.783114e-005
1.118912e+000,-1.158160e-005,1.781084e-005
1.119706e+000,-1.174945e-005,1.776983e-005
1.120500e+000,-1.158160e-005,1.769935e-005
1.121294e+000,-1.309224e-005,1.760878e-005
1.122088e+000,-1.493858e-005,1.749494e-005
1.122882e+000,-1.359579e-005,1.748365e-005
1.123676e+000,-9.231709e-006,1.750035e-005
1.124471e+000,-6.881819e-006,1.750421e-005
1.125265e+000,-8.560311e-006,1.750605e-005
1.126059e+000,-9.567407e-006,1.750958e-005
1.126853e+000,-7.553216e-006,1.751677e-005
1.127647e+000,-1.091020e-005,1.752152e-005
1.128441e+000,-1.292439e-005,1.753176e-005
1.129235e+000,-1.493858e-005,1.754649e-005
1.130029e+000,-1.242084e-005,1.756324e-005
1.130824e+000,-1.124590e-005,1.757005e-005
1.131618e+000,-8.224612e-006,1.757321e-005
1.132412e+000,-1.695277e-005,1.756719e-005
1.133206e+000,-1.628138e-005,1.757648e-005
1.134000e+000,-8.224612e-006,1.757446e-005
1.134794e+000,-5.035477e-007,1.755025e-005
1.135588e+000,-3.524834e-006,1.751760e-005
1.136382e+000,-1.359579e-005,1.750108e-005
1.137176e+000,-2.232395e-005,1.750497e-005
1.137971e+000,-3.172351e-005,1.752999e-005
1.138765e+000,-3.138781e-005,1.758006e-005
1.139559e+000,-2.433814e-005,1.762935e-005
1.140353e+000,-2.064546e-005,1.766772e-005
1.141147e+000,-1.812772e-005,1.770560e-005
1.141941e+000,-1.695277e-005,1.773488e-005
1.142735e+000,-1.225299e-005,1.775955e-005
1.143529e+000,-8.896010e-006,1.777288e-005
1.144324e+000,-8.392462e-006,1.777906e-005
1.145118e+000,-9.567407e-006,1.777598e-005
1.145912e+000,-1.292439e-005,1.776418e-005
1.146706e+000,-1.628138e-005,1.776713e-005
1.147500e+000,-1.460288e-005,1.778996e-005
1.148294e+000,-1.393149e-005,1.780874e-005
1.149088e+000,-2.299535e-005,1.781790e-005
1.149882e+000,-3.373770e-005,1.785171e-005
1.150676e+000,-3.138781e-005,1.792943e-005
1.151471e+000,-2.601663e-005,1.797900e-005
1.152265e+000,-1.963836e-005,1.800818e-005
1.153059e+000,-8.896010e-006,1.801214e-005
1.153853e+000,-4.364080e-006,1.796671e-005
1.154647e+000,-2.349889e-006,1.790675e-005
1.155441e+000,-3.189136e-006,1.785594e-005
1.156235e+000,-3.524834e-006,1.783120e-005
1.157029e+000,-1.510643e-006,1.781192e-005
1.157824e+000,1.174945e-006,1.779392e-005
1.158618e+000,1.510643e-006,1.776515e-005
1.159412e+000,-4.196231e-006,1.769814e-005
1.160206e+000,-1.124590e-005,1.766617e-005
1.161000e+000,-1.107805e-005,1.767750e-005
1.161794e+000,-1.795987e-005,1.768697e-005
1.162588e+000,-2.568093e-005,1.771596e-005
1.163382e+000,-2.568093e-005,1.777508e-005
1.164176e+000,-2.098116e-005,1.783295e-005
1.164971e+000,-1.829557e-005,1.786757e-005
1.165765e+000,-1.225299e-005,1.788980e-005
1.166559e+000,-4.867628e-006,1.788418e-005
1.167353e+000,-2.182040e-006,1.785861e-005
1.168147e+000,2.517739e-006,1.783730e-005
1.168941e+000,4.196231e-006,1.780905e-005
1.169735e+000,4.196231e-006,1.776328e-005
1.170529e+000,6.546120e-006,1.772785e-005
1.171324e+000,8.560311e-006,1.770161e-005
1.172118e+000,3.189136e-006,1.767525e-005
1.172912e+000,-1.678492e-007,1.764816e-005
1.173706e+000,-4.196231e-006,1.762616e-005
1.174500e+000,-7.553216e-006,1.761765e-005
1.175294e+000,-1.023880e-005,1.761565e-005
1.176088e+000,-1.023880e-005,1.761902e-005
1.176882e+000,-1.124590e-005,1.762519e-005
1.177676e+000,-1.091020e-005,1.763447e-005
1.178471e+000,-1.225299e-005,1.764350e-005
1.179265e+000,-1.091020e-005,1.765277e-005
1.180059e+000,-1.225299e-005,1.765740e-005
1.180853e+000,-1.124590e-005,1.765740e-005
1.181647e+000,-1.493858e-005,1.765131e-005
1.182441e+000,-1.628138e-005,1.765039e-005
1.183235e+000,-1.527428e-005,1.765844e-005
1.184029e+000,-1.359579e-005,1.766738e-005
1.184824e+000,-1.225299e-005,1.767195e-005
1.185618e+000,-1.493858e-005,1.767694e-005
1.186412e+000,-1.963836e-005,1.769094e-005
1.187206e+000,-1.997406e-005,1.772050e-005
1.188000e+000,-1.896696e-005,1.775285e-005
1.188794e+000,-2.131685e-005,1.778021e-005
1.189588e+000,-1.963836e-005,1.781576e-005
1.190382e+000,-1.913481e-005,1.784416e-005
1.191176e+000,-1.661708e-005,1.787172e-005
1.191971e+000,-1.493858e-005,1.788978e-005
1.192765e+000,-1.829557e-005,1.790657e-005
1.193559e+000,-1.493858e-005,1.793541e-005
1.194353e+000,-1.191730e-005,1.795352e-005
1.195147e+000,-7.553216e-006,1.796305e-005
1.195941e+000,-9.231709e-006,1.787389e-005
1.196735e+000,-8.896010e-006,1.777366e-005
1.197529e+000,-7.888914e-006,1.775984e-005
1.198324e+000,-9.567407e-006,1.776511e-005
1.199118e+000,-1.091020e-005,1.775986e-005
1.199912e+000,-1.795987e-005,1.769656e-005
1.200706e+000,-2.030976e-005,1.750693e-005
1.201500e+000,-2.333104e-005,1.718497e-005
1.202294e+000,-2.937362e-005,1.685325e-005
1.203088e+000,-2.433814e-005,1.654141e-005
1.203882e+000,-1.527428e-005,1.616674e-005
1.204676e+000,-1.275654e-005,1.581207e-005
1.205471e+000,-7.553216e-006,1.562047e-005
1.206265e+000,3.356985e-007,1.554601e-005
1.207059e+000,4.867628e-006,1.549941e-005
1.207853e+000,6.546120e-006,1.546679e-005
1.208647e+000,6.546120e-006,1.545739e-005
1.209441e+000,1.174945e-006,1.545936e-005
1.210235e+000,-3.524834e-006,1.545885e-005
1.211029e+000,-7.553216e-006,1.545615e-005
1.211824e+000,-1.393149e-005,1.546138e-005
1.212618e+000,-1.829557e-005,1.548112e-005
1.213412e+000,-2.299535e-005,1.551516e-005
1.214206e+000,-2.433814e-005,1.556869e-005
1.215000e+000,-3.038071e-005,1.562812e-005
1.215794e+000,-3.440909e-005,1.571914e-005
1.216588e+000,-2.903792e-005,1.583760e-005
1.217382e+000,-2.500954e-005,1.592213e-005
1.218176e+000,-1.930266e-005,1.598453e-005
1.218971e+000,-1.628138e-005,1.602147e-005
1.219765e+000,-1.359579e-005,1.604644e-005
1.220559e+000,-1.326009e-005,1.606173e-005
1.221353e+000,-1.158160e-005,1.607793e-005
1.222147e+000,-9.567407e-006,1.608886e-005
1.222941e+000,-7.888914e-006,1.609122e-005
1.223735e+000,-5.539025e-006,1.608832e-005
1.224529e+000,-4.196231e-006,1.608353e-005
1.225324e+000,-5.203327e-006,1.607962e-005
1.226118e+000,-2.853437e-006,1.607665e-005
1.226912e+000,-2.853437e-006,1.606707e-005
1.227706e+000,-7.049668e-006,1.605458e-005
1.228500e+000,-5.203327e-006,1.604911e-005
1.229294e+000,-4.364080e-006,1.603848e-005
1.230088e+000,-7.217518e-006,1.601068e-005
1.230882e+000,-8.560311e-006,1.598948e-005
1.231676e+000,-8.392462e-006,1.597970e-005
1.232471e+000,-8.224612e-006,1.596030e-005
1.233265e+000,-9.567407e-006,1.592022e-005
1.234059e+000,-1.158160e-005,1.588808e-005
1.234853e+000,-9.903105e-006,1.588207e-005
1.235647e+000,-1.225299e-005,1.588512e-005
1.236441e+000,-1.359579e-005,1.590003e-005
1.237235e+000,-1.023880e-005,1.590734e-005
1.238029e+000,-9.903105e-006,1.588790e-005
1.238824e+000,-8.224612e-006,1.585215e-005
1.239618e+000,1.057450e-005,1.582405e-005
1.240412e+000,1.863127e-005,1.582673e-005
1.241206e+000,1.728847e-005,1.586079e-005
1.242000e+000,4.531929e-006,1.585339e-005
1.242794e+000,-9.063859e-006,1.568470e-005
1.243588e+000,-1.779202e-005,1.545243e-005
1.244382e+000,-2.333104e-005,1.525122e-005
1.245176e+000,-3.121996e-005,1.498738e-005
1.245971e+000,-3.608759e-005,1.480401e-005
1.246765e+000,-4.263371e-005,1.472295e-005
1.247559e+000,-3.978027e-005,1.477064e-005
1.248353e+000,-5.706874e-006,1.481845e-005
1.249147e+000,1.057450e-005,1.472682e-005
1.249941e+000,-1.510643e-006,1.467998e-005
1.250735e+000,-1.426719e-005,1.465377e-005
1.251529e+000,-2.114900e-005,1.467074e-005
1.252324e+000,-3.004501e-005,1.471913e-005
1.253118e+000,-2.903792e-005,1.481646e-005
1.253912e+000,-2.601663e-005,1.490678e-005
1.254706e+000,-3.508049e-005,1.497889e-005
1.255500e+000,-3.642328e-005,1.510879e-005
1.256294e+000,-2.836652e-005,1.524797e-005
1.257088e+000,-2.182040e-005,1.533170e-005
1.257882e+000,-1.426719e-005,1.538099e-005
1.258676e+000,-1.124590e-005,1.540170e-005
1.259471e+000,-9.903105e-006,1.541476e-005
1.260265e+000,-8.560311e-006,1.542486e-005
1.261059e+000,-6.881819e-006,1.543185e-005
1.261853e+000,-1.678492e-006,1.543462e-005
1.262647e+000,8.392462e-007,1.543003e-005
1.263441e+000,5.035477e-007,1.542421e-005
1.264235e+000,1.174945e-006,1.542107e-005
1.265029e+000,1.174945e-006,1.541583e-005
1.265824e+000,-8.392462e-007,1.541008e-005
1.266618e+000,5.035477e-007,1.540818e-005
1.267412e+000,2.182040e-006,1.540231e-005
1.268206e+000,-3.524834e-006,1.539049e-005
1.269000e+000,-6.881819e-006,1.537908e-005
1.269794e+000,-8.224612e-006,1.536843e-005
1.270588e+000,-1.124590e-005,1.534796e-005
1.271382e+000,-1.057450e-005,1.532374e-005
1.272176e+000,-9.063859e-006,1.529457e-005
1.272971e+000,-1.023880e-005,1.526825e-005
1.273765e+000,-9.231709e-006,1.524615e-005
1.274559e+000,-8.560311e-006,1.522620e-005
1.275353e+000,-9.231709e-006,1.522064e-005
1.276147e+000,-1.091020e-005,1.522359e-005
1.276941e+000,-9.903105e-006,1.522776e-005
1.277735e+000,-1.023880e-005,1.521771e-005
1.278529e+000,-1.158160e-005,1.518258e-005
1.279324e+000,-1.023880e-005,1.513358e-005
1.280118e+000,-8.224612e-006,1.505876e-005
1.280912e+000,-1.225299e-005,1.495917e-005
1.281706e+000,-1.309224e-005,1.490111e-005
1.282500e+000,-1.225299e-005,1.488496e-005
1.283294e+000,-1.359579e-005,1.487924e-005
1.284088e+000,-1.527428e-005,1.488467e-005
1.284882e+000,-1.426719e-005,1.490238e-005
1.285676e+000,-1.359579e-005,1.491802e-005
1.286471e+000,-1.493858e-005,1.492993e-005
1.287265e+000,-1.628138e-005,1.493683e-005
1.288059e+000,-1.560998e-005,1.494819e-005
1.288853e+000,-1.829557e-005,1.496067e-005
1.289647e+000,-1.527428e-005,1.498200e-005
1.290441e+000,-1.628138e-005,1.499170e-005
1.291235e+000,-1.896696e-005,1.500642e-005
1.292029e+000,-1.930266e-005,1.503115e-005
1.292824e+000,-1.963836e-005,1.505720e-005
1.293618e+000,-1.762417e-005,1.508459e-005
1.294412e+000,-1.795987e-005,1.511235e-005
1.295206e+000,-1.426719e-005,1.514363e-005
1.296000e+000,-1.124590e-005,1.516180e-005
1.296794e+000,-1.091020e-005,1.517011e-005
1.297588e+000,-1.174945e-005,1.517160e-005
1.298382e+000,-1.091020e-005,1.517579e-005
1.299176e+000,-7.553216e-006,1.518118e-005
1.299971e+000,-9.903105e-006,1.518170e-005
1.300765e+000,-9.567407e-006,1.518600e-005
1.301559e+000,-4.531929e-006,1.518908e-005
1.302353e+000,1.678492e-006,1.518355e-005
1.303147e+000,4.531929e-006,1.517887e-005
1.303941e+000,-1.510643e-006,1.517781e-005
1.304735e+000,-7.049668e-006,1.517355e-005
1.305529e+000,-1.309224e-005,1.517781e-005
1.306324e+000,-1.695277e-005,1.519363e-005
1.307118e+000,-2.232395e-005,1.521877e-005
1.307912e+000,-2.735943e-005,1.526835e-005
1.308706e+000,-2.803082e-005,1.533861e-005
1.309500e+000,-2.299535e-005,1.541381e-005
1.310294e+000,-2.165255e-005,1.546769e-005
1.311088e+000,-1.762417e-005,1.551192e-005
1.311882e+000,-1.326009e-005,1.553231e-005
1.312676e+000,-8.896010e-006,1.553737e-005
1.313471e+000,-9.903105e-006,1.552836e-005
1.314265e+000,-1.023880e-005,1.551552e-005
1.315059e+000,-9.567407e-006,1.549678e-005
1.315853e+000,-8.560311e-006,1.546516e-005
1.316647e+000,-1.225299e-005,1.544309e-005
1.317441e+000,-1.292439e-005,1.545041e-005
1.318235e+000,-1.493858e-005,1.546406e-005
1.319029e+000,-1.762417e-005,1.547694e-005
1.319824e+000,-1.493858e-005,1.549664e-005
1.320618e+000,-1.124590e-005,1.544813e-005
1.321412e+000,-1.326009e-005,1.534815e-005
1.322206e+000,-1.292439e-005,1.521385e-005
1.323000e+000,-1.225299e-005,1.509199e-005
1.323794e+000,-1.141375e-005,1.499449e-005
1.324588e+000,-1.292439e-005,1.491438e-005
1.325382e+000,-1.225299e-005,1.485796e-005
1.326176e+000,-1.107805e-005,1.477925e-005
1.326971e+000,-1.091020e-005,1.471752e-005
1.327765e+000,-1.225299e-005,1.469929e-005
1.328559e+000,-1.158160e-005,1.470103e-005
1.329353e+000,-1.023880e-005,1.468916e-005
1.330147e+000,-1.057450e-005,1.465577e-005
1.330941e+000,-1.091020e-005,1.465726e-005
1.331735e+000,-7.553216e-006,1.466930e-005
1.332529e+000,-6.881819e-006,1.467542e-005
1.333324e+000,-8.224612e-006,1.467865e-005
1.334118e+000,-8.896010e-006,1.468583e-005
1.334912e+000,-1.091020e-005,1.469438e-005
1.335706e+000,-8.224612e-006,1.470725e-005
1.336500e+000,-9.567407e-006,1.471449e-005
1.337294e+000,-9.567407e-006,1.472305e-005
1.338088e+000,-1.225299e-005,1.472963e-005
1.338882e+000,-1.292439e-005,1.474023e-005
1.339676e+000,-1.292439e-005,1.474972e-005
1.340471e+000,-1.158160e-005,1.476045e-005
1.341265e+000,-1.158160e-005,1.476504e-005
1.342059e+000,-1.124590e-005,1.475957e-005
1.342853e+000,-8.224612e-006,1.474692e-005
1.343647e+000,-7.217518e-006,1.473426e-005
1.344441e+000,-7.217518e-006,1.471991e-005
1.345235e+000,-8.560311e-006,1.471267e-005
1.346029e+000,-9.903105e-006,1.470925e-005
1.346824e+000,-9.231709e-006,1.470316e-005
1.347618e+000,-9.567407e-006,1.469613e-005
1.348412e+000,-9.903105e-006,1.469066e-005
1.349206e+000,-1.359579e-005,1.468799e-005
1.350000e+000,-9.903105e-006,1.469085e-005
1.350794e+000,-6.881819e-006,1.468858e-005
1.351588e+000,-9.567407e-006,1.467163e-005
1.352382e+000,-6.881819e-006,1.466701e-005
1.353176e+000,-4.867628e-006,1.465208e-005
1.353971e+000,-8.560311e-006,1.463742e-005
1.354765e+000,-6.881819e-006,1.462111e-005
1.355559e+000,-9.567407e-006,1.459176e-005
1.356353e+000,-2.433814e-005,1.457399e-005
1.357147e+000,-2.903792e-005,1.461146e-005
1.357941e+000,-1.426719e-005,1.467888e-005
1.358735e+000,1.023880e-005,1.467565e-005
1.359529e+000,2.635233e-005,1.467247e-005
1.360324e+000,1.527428e-005,1.474092e-005
1.361118e+000,1.376364e-005,1.476389e-005
1.361912e+000,1.191730e-005,1.478176e-005
1.362706e+000,4.531929e-006,1.479484e-005
1.363500e+000,-1.678492e-006,1.479558e-005
1.364294e+000,-1.158160e-005,1.479297e-005
1.365088e+000,-2.366674e-005,1.480012e-005
1.365882e+000,-4.313725e-005,1.485301e-005
1.366676e+000,-6.462196e-005,1.504617e-005
1.367471e+000,-8.006408e-005,1.547103e-005
1.368265e+000,-8.610666e-005,1.610165e-005
1.369059e+000,-6.630045e-005,1.680620e-005
1.369853e+000,-4.246586e-005,1.720488e-005
1.370647e+000,-3.373770e-005,1.735868e-005
1.371441e+000,-2.803082e-005,1.744715e-005
1.372235e+000,-1.493858e-005,1.749842e-005
1.373029e+000,-4.867628e-006,1.750190e-005
1.373824e+000,2.517739e-006,1.749630e-005
1.374618e+000,6.546120e-006,1.749257e-005
1.375412e+000,3.189136e-006,1.748980e-005
1.376206e+000,2.182040e-006,1.748239e-005
1.377000e+000,3.524834e-006,1.747763e-005
1.377794e+000,-8.392462e-007,1.746791e-005
1.378588e+000,-3.524834e-006,1.745274e-005
1.379382e+000,-2.517739e-006,1.743351e-005
1.380176e+000,-1.510643e-006,1.741999e-005
1.380971e+000,-3.189136e-006,1.740863e-005
1.381765e+000,-1.510643e-006,1.740337e-005
1.382559e+000,1.678492e-007,1.737727e-005
1.383353e+000,-2.182040e-006,1.735296e-005
1.384147e+000,-1.510643e-006,1.734719e-005
1.384941e+000,-1.510643e-006,1.734738e-005
1.385735e+000,-1.678492e-006,1.734645e-005
1.386529e+000,-4.867628e-006,1.732973e-005
1.387324e+000,-6.881819e-006,1.728606e-005
1.388118e+000,-5.874723e-006,1.719749e-005
1.388912e+000,-5.539025e-006,1.710924e-005
1.389706e+000,-5.539025e-006,1.705688e-005
1.390500e+000,-6.881819e-006,1.701991e-005
1.391294e+000,-8.224612e-006,1.699358e-005
1.392088e+000,-9.231709e-006,1.697298e-005
1.392882e+000,-1.091020e-005,1.696689e-005
1.393676e+000,-1.292439e-005,1.697063e-005
1.394471e+000,-1.124590e-005,1.697969e-005
1.395265e+000,-1.124590e-005,1.698297e-005
1.396059e+000,-1.225299e-005,1.697916e-005
1.396853e+000,-1.359579e-005,1.696838e-005
1.397647e+000,-1.560998e-005,1.696571e-005
1.398441e+000,-1.426719e-005,1.697037e-005
1.399235e+000,-1.560998e-005,1.693982e-005
1.400029e+000,-1.594568e-005,1.685552e-005
1.400824e+000,-1.393149e-005,1.678633e-005
1.401618e+000,-1.493858e-005,1.674047e-005
1.402412e+000,-1.762417e-005,1.672501e-005
1.403206e+000,-1.829557e-005,1.674703e-005
1.404000e+000,-1.779202e-005,1.677702e-005
1.404794e+000,-1.930266e-005,1.680651e-005
1.405588e+000,-1.628138e-005,1.684082e-005
1.406382e+000,-1.628138e-005,1.686469e-005
1.407176e+000,-1.577783e-005,1.688949e-005
1.407971e+000,-1.359579e-005,1.691281e-005
1.408765e+000,-1.124590e-005,1.692999e-005
1.409559e+000,-8.560311e-006,1.694023e-005
1.410353e+000,-4.867628e-006,1.693523e-005
1.411147e+000,-3.524834e-006,1.692591e-005
1.411941e+000,-2.853437e-006,1.689671e-005
1.412735e+000,-2.182040e-006,1.683521e-005
1.413529e+000,-7.888914e-006,1.677317e-005
1.414324e+000,-9.567407e-006,1.673725e-005
1.415118e+000,-1.158160e-005,1.671410e-005
1.415912e+000,-8.224612e-006,1.671257e-005
1.416706e+000,-3.860533e-006,1.671676e-005
1.417500e+000,-5.539025e-006,1.671772e-005
1.418294e+000,-1.225299e-005,1.672004e-005
1.419088e+000,-1.393149e-005,1.673266e-005
1.419882e+000,-1.963836e-005,1.674944e-005
1.420676e+000,-2.064546e-005,1.678200e-005
1.421471e+000,-2.098116e-005,1.681546e-005
1.422265e+000,-2.232395e-005,1.685613e-005
1.423059e+000,-2.030976e-005,1.690314e-005
1.423853e+000,-2.400244e-005,1.694030e-005
1.424647e+000,-2.098116e-005,1.698902e-005
1.425441e+000,-1.493858e-005,1.702043e-005
1.426235e+000,-1.393149e-005,1.703150e-005
1.427029e+000,-1.493858e-005,1.703782e-005
1.427824e+000,-1.426719e-005,1.704755e-005
1.428618e+000,-1.191730e-005,1.705253e-005
1.429412e+000,-1.225299e-005,1.705468e-005
1.430206e+000,-8.896010e-006,1.705468e-005
1.431000e+000,-9.063859e-006,1.705026e-005
1.431794e+000,-8.896010e-006,1.703709e-005
1.432588e+000,-8.224612e-006,1.701970e-005
1.433382e+000,-8.560311e-006,1.700419e-005
1.434176e+000,-8.224612e-006,1.699374e-005
1.434971e+000,-7.217518e-006,1.698601e-005
1.435765e+000,-6.881819e-006,1.696997e-005
1.436559e+000,-1.124590e-005,1.693819e-005
1.437353e+000,-1.023880e-005,1.691256e-005
1.438147e+000,-1.023880e-005,1.688854e-005
1.438941e+000,-1.359579e-005,1.685555e-005
1.439735e+000,-1.292439e-005,1.683656e-005
1.440529e+000,-1.107805e-005,1.681772e-005
1.441324e+000,-1.091020e-005,1.680319e-005
1.442118e+000,-9.063859e-006,1.679332e-005
1.442912e+000,-1.124590e-005,1.676935e-005
1.443706e+000,-1.225299e-005,1.676017e-005
1.444500e+000,-1.762417e-005,1.676094e-005
1.445294e+000,-1.594568e-005,1.678501e-005
1.446088e+000,-1.493858e-005,1.680104e-005
1.446882e+000,-1.661708e-005,1.681469e-005
1.447676e+000,-1.493858e-005,1.683493e-005
1.448471e+000,-1.359579e-005,1.684737e-005
1.449265e+000,-1.107805e-005,1.685360e-005
1.450059e+000,-9.567407e-006,1.683470e-005
1.450853e+000,-9.231709e-006,1.680432e-005
1.451647e+000,-1.124590e-005,1.676076e-005
1.452441e+000,-5.539025e-006,1.669065e-005
1.453235e+000,1.728847e-005,1.663698e-005
1.454029e+000,1.728847e-005,1.664326e-005
1.454824e+000,-6.210422e-006,1.665628e-005
1.455618e+000,-2.500954e-005,1.665451e-005
1.456412e+000,-3.306630e-005,1.671420e-005
1.457206e+000,-3.038071e-005,1.681580e-005
1.458000e+000,-2.433814e-005,1.689894e-005
1.458794e+000,-1.963836e-005,1.695063e-005
1.459588e+000,-1.292439e-005,1.698670e-005
1.460382e+000,-1.158160e-005,1.700118e-005
1.461176e+000,-1.661708e-005,1.700840e-005
1.461971e+000,-1.896696e-005,1.701608e-005
1.462765e+000,-1.426719e-005,1.701842e-005
1.463559e+000,-1.225299e-005,1.698796e-005
1.464353e+000,-1.359579e-005,1.694646e-005
1.465147e+000,-1.896696e-005,1.687696e-005
1.465941e+000,-2.098116e-005,1.679901e-005
1.466735e+000,-2.064546e-005,1.676077e-005
1.467529e+000,-1.661708e-005,1.674183e-005
1.468324e+000,-1.158160e-005,1.673265e-005
1.469118e+000,-1.191730e-005,1.672019e-005
1.469912e+000,-1.124590e-005,1.671611e-005
1.470706e+000,-1.091020e-005,1.671141e-005
1.471500e+000,-8.224612e-006,1.670997e-005
1.472294e+000,-8.896010e-006,1.670769e-005
1.473088e+000,-1.292439e-005,1.670930e-005
1.473882e+000,-1.225299e-005,1.672229e-005
1.474676e+000,-8.224612e-006,1.673491e-005
1.475471e+000,-7.888914e-006,1.673877e-005
1.476265e+000,-8.224612e-006,1.674391e-005
1.477059e+000,-3.692683e-006,1.674957e-005
1.477853e+000,-6.378271e-006,1.674614e-005
1.478647e+000,-9.063859e-006,1.674744e-005
1.479441e+000,-8.896010e-006,1.675343e-005
1.480235e+000,-6.881819e-006,1.675600e-005
1.481029e+000,-9.735256e-006,1.675354e-005
1.481824e+000,-7.721065e-006,1.675585e-005
1.482618e+000,-6.210422e-006,1.675509e-005
1.483412e+000,-7.553216e-006,1.675006e-005
1.484206e+000,-1.158160e-005,1.674273e-005
1.485000e+000,-1.174945e-005,1.674616e-005
1.485794e+000,-1.057450e-005,1.674501e-005
1.486588e+000,-1.174945e-005,1.673806e-005
1.487382e+000,-1.091020e-005,1.674122e-005
1.488176e+000,-8.560311e-006,1.674322e-005
1.488971e+000,-7.385367e-006,1.674375e-005
1.489765e+000,-9.567407e-006,1.673830e-005
1.490559e+000,-1.258869e-005,1.671397e-005
1.491353e+000,-1.107805e-005,1.670059e-005
1.492147e+000,-1.124590e-005,1.671033e-005
1.492941e+000,-1.393149e-005,1.671455e-005
1.493735e+000,-1.225299e-005,1.670288e-005
1.494529e+000,-1.560998e-005,1.666526e-005
1.495324e+000,-1.510643e-005,1.659526e-005
1.496118e+000,-1.443504e-005,1.649187e-005
1.496912e+000,-1.510643e-005,1.633576e-005
1.497706e+000,-1.695277e-005,1.620321e-005
1.498500e+000,-1.728847e-005,1.622823e-005
1.499294e+000,-1.560998e-005,1.624658e-005
1.500088e+000,-1.225299e-005,1.627022e-005
1.500882e+000,-1.258869e-005,1.626499e-005
1.501676e+000,-1.242084e-005,1.623669e-005
1.502471e+000,-1.091020e-005,1.616313e-005
1.503265e+000,-1.091020e-005,1.609162e-005
1.504059e+000,-1.191730e-005,1.603633e-005
1.504853e+000,-9.903105e-006,1.592786e-005
1.505647e+000,-1.091020e-005,1.580456e-005
1.506441e+000,-1.829557e-005,1.573533e-005
1.507235e+000,-2.668803e-005,1.572102e-005
1.508029e+000,-1.829557e-005,1.577246e-005
1.508824e+000,-4.867628e-006,1.579347e-005
1.509618e+000,-3.860533e-006,1.578597e-005
1.510412e+000,-2.853437e-006,1.578008e-005
1.511206e+000,-2.853437e-006,1.577612e-005
1.512000e+000,-6.210422e-006,1.577666e-005
1.512794e+000,-5.874723e-006,1.578048e-005
1.513588e+000,-4.531929e-006,1.578393e-005
1.514382e+000,-5.539025e-006,1.578587e-005
1.515176e+000,-7.217518e-006,1.578882e-005
1.515971e+000,-1.040665e-005,1.579400e-005
1.516765e+000,-1.258869e-005,1.580489e-005
1.517559e+000,-1.225299e-005,1.582037e-005
1.518353e+000,-1.460288e-005,1.583423e-005
1.519147e+000,-1.393149e-005,1.585090e-005
1.519941e+000,-1.225299e-005,1.586360e-005
1.520735e+000,-9.567407e-006,1.586597e-005
1.521529e+000,-6.881819e-006,1.586394e-005
1.522324e+000,-5.539025e-006,1.586045e-005
1.523118e+000,-6.042573e-006,1.585300e-005
1.523912e+000,-8.896010e-006,1.584810e-005
1.524706e+000,-9.903105e-006,1.584869e-005
1.525500e+000,-1.091020e-005,1.584998e-005
1.526294e+000,-1.393149e-005,1.584998e-005
1.527088e+000,-1.359579e-005,1.585963e-005
1.527882e+000,-1.510643e-005,1.586766e-005
1.528676e+000,-1.896696e-005,1.587710e-005
1.529471e+000,-1.661708e-005,1.590264e-005
1.530265e+000,-1.493858e-005,1.592350e-005
1.531059e+000,-1.577783e-005,1.593080e-005
1.531853e+000,-1.628138e-005,1.593855e-005
1.532647e+000,-1.493858e-005,1.595003e-005
1.533441e+000,-1.560998e-005,1.595386e-005
1.534235e+000,-1.628138e-005,1.595489e-005
1.535029e+000,-1.577783e-005,1.596103e-005
1.535824e+000,-1.493858e-005,1.596742e-005
1.536618e+000,-1.493858e-005,1.596742e-005
1.537412e+000,-1.359579e-005,1.596324e-005
1.538206e+000,-8.392462e-006,1.595737e-005
1.539000e+000,-1.057450e-005,1.593098e-005
1.539794e+000,-9.567407e-006,1.591883e-005
1.540588e+000,-8.224612e-006,1.590146e-005
1.541382e+000,-4.196231e-006,1.587218e-005
1.542176e+000,-3.189136e-006,1.583653e-005
1.542971e+000,-1.678492e-007,1.579873e-005
1.543765e+000,-3.189136e-006,1.576739e-005
1.544559e+000,-7.888914e-006,1.573581e-005
1.545353e+000,-8.560311e-006,1.572151e-005
1.546147e+000,-1.846342e-006,1.571612e-005
1.546941e+000,-2.517739e-006,1.570440e-005
1.547735e+000,-7.553216e-006,1.569104e-005
1.548529e+000,-1.225299e-005,1.568475e-005
1.549324e+000,-1.762417e-005,1.569419e-005
1.550118e+000,-2.047761e-005,1.571574e-005
1.550912e+000,-2.232395e-005,1.574892e-005
1.551706e+000,-2.836652e-005,1.579716e-005
1.552500e+000,-3.121996e-005,1.587778e-005
1.553294e+000,-2.702373e-005,1.597318e-005
1.554088e+000,-2.970932e-005,1.604559e-005
1.554882e+000,-2.836652e-005,1.612804e-005
1.555676e+000,-2.400244e-005,1.619044e-005
1.556471e+000,-2.400244e-005,1.621882e-005
1.557265e+000,-2.433814e-005,1.622645e-005
1.558059e+000,-1.712062e-005,1.621111e-005
1.558853e+000,-1.560998e-005,1.616265e-005
1.559647e+000,-1.930266e-005,1.613454e-005
1.560441e+000,-1.829557e-005,1.612504e-005
1.561235e+000,-1.728847e-005,1.612742e-005
1.562029e+000,-1.174945e-005,1.613957e-005
1.562824e+000,-9.567407e-006,1.614538e-005
1.563618e+000,-4.531929e-006,1.614473e-005
1.564412e+000,2.853437e-006,1.613642e-005
1.565206e+000,5.203327e-006,1.612818e-005
1.566000e+000,4.196231e-006,1.612362e-005
1.566794e+000,3.189136e-006,1.611053e-005
1.567588e+000,-2.182040e-006,1.609501e-005
1.568382e+000,-4.867628e-006,1.607339e-005
1.569176e+000,-4.867628e-006,1.604494e-005
1.569971e+000,-4.196231e-006,1.602514e-005
1.570765e+000,-5.874723e-006,1.601432e-005
1.571559e+000,-7.553216e-006,1.600026e-005
1.572353e+000,-4.196231e-006,1.598931e-005
1.573147e+000,-1.510643e-006,1.597610e-005
1.573941e+000,-5.539025e-006,1.596334e-005
1.574735e+000,-4.867628e-006,1.594973e-005
1.575529e+000,5.035477e-007,1.593710e-005
1.576324e+000,5.035477e-007,1.592486e-005
1.577118e+000,-5.539025e-006,1.591298e-005
1.577912e+000,-9.567407e-006,1.590102e-005
1.578706e+000,-1.493858e-005,1.589676e-005
1.579500e+000,-1.795987e-005,1.590860e-005
1.580294e+000,-1.829557e-005,1.592969e-005
1.581088e+000,-1.896696e-005,1.595123e-005
1.581882e+000,-1.560998e-005,1.598142e-005
1.582676e+000,-1.225299e-005,1.600097e-005
1.583471e+000,-8.392462e-006,1.600917e-005
1.584265e+000,-7.888914e-006,1.600831e-005
1.585059e+000,-1.158160e-005,1.600266e-005
1.585853e+000,-1.762417e-005,1.600927e-005
1.586647e+000,-1.930266e-005,1.603105e-005
1.587441e+000,-8.896010e-006,1.605894e-005
1.588235e+000,8.560311e-006,1.605190e-005
1.589029e+000,1.191730e-005,1.604260e-005
1.589824e+000,-1.510643e-006,1.604011e-005
1.590618e+000,-1.829557e-005,1.602702e-005
1.591412e+000,-3.105211e-005,1.604694e-005
1.592206e+000,-3.776608e-005,1.612985e-005
1.593000e+000,-3.843748e-005,1.626343e-005
1.593794e+000,-3.239490e-005,1.640239e-005
1.594588e+000,-2.836652e-005,1.649893e-005
1.595382e+000,-2.870222e-005,1.656936e-005
1.596176e+000,-3.038071e-005,1.663896e-005
1.596971e+000,-2.601663e-005,1.671895e-005
1.597765e+000,-2.786297e-005,1.677460e-005
1.598559e+000,-2.534523e-005,1.683887e-005
1.599353e+000,-1.728847e-005,1.688208e-005
1.600147e+000,-1.628138e-005,1.690101e-005
1.600941e+000,-1.309224e-005,1.692151e-005
1.601735e+000,-1.326009e-005,1.692902e-005
1.602529e+000,-1.628138e-005,1.694110e-005
1.603324e+000,-1.359579e-005,1.696378e-005
1.604118e+000,-1.359579e-005,1.697425e-005
1.604912e+000,-1.728847e-005,1.698714e-005
1.605706e+000,-2.064546e-005,1.700657e-005
1.606500e+000,-2.769513e-005,1.699101e-005
1.607294e+000,-1.728847e-005,1.698387e-005
1.608088e+000,1.510643e-006,1.699280e-005
1.608882e+000,1.023880e-005,1.698319e-005
1.609676e+000,1.007095e-005,1.692782e-005
1.610471e+000,1.057450e-005,1.691541e-005
1.611265e+000,1.829557e-005,1.690810e-005
1.612059e+000,1.930266e-005,1.692624e-005
1.612853e+000,1.712062e-005,1.695932e-005
1.613647e+000,8.896010e-006,1.698656e-005
1.614441e+000,2.517739e-006,1.698140e-005
1.615235e+000,-3.189136e-006,1.692940e-005
1.616029e+000,-1.258869e-005,1.675442e-005
1.616824e+000,-1.728847e-005,1.636814e-005
1.617618e+000,2.853437e-006,1.576239e-005
1.618412e+000,1.225299e-005,1.499554e-005
1.619206e+000,-7.888914e-006,1.453772e-005
1.620000e+000,-2.232395e-005,1.434575e-005
1.620794e+000,-2.803082e-005,1.427454e-005
1.621588e+000,-3.239490e-005,1.427454e-005
1.622382e+000,-3.205920e-005,1.436642e-005
1.623176e+000,-3.105211e-005,1.447729e-005
1.623971e+000,-2.903792e-005,1.458227e-005
1.624765e+000,-2.165255e-005,1.466940e-005
1.625559e+000,-1.779202e-005,1.471910e-005
1.626353e+000,-1.762417e-005,1.475280e-005
1.627147e+000,-1.812772e-005,1.478495e-005
1.627941e+000,-1.628138e-005,1.482022e-005
1.628735e+000,-8.896010e-006,1.484734e-005
1.629529e+000,-4.364080e-006,1.485515e-005
1.630324e+000,-3.524834e-006,1.485695e-005
1.631118e+000,-8.392462e-007,1.485719e-005
1.631912e+000,2.517739e-006,1.485702e-005
1.632706e+000,-5.035477e-007,1.485769e-005
1.633500e+000,-3.356985e-006,1.485721e-005
1.634294e+000,-3.189136e-006,1.485817e-005
1.635088e+000,-6.210422e-006,1.485902e-005
1.635882e+000,-6.881819e-006,1.486285e-005
1.636676e+000,-6.881819e-006,1.486539e-005
1.637471e+000,-1.091020e-005,1.486539e-005
1.638265e+000,-1.091020e-005,1.487444e-005
1.639059e+000,-1.158160e-005,1.488389e-005
1.639853e+000,-1.158160e-005,1.489496e-005
1.640647e+000,-9.567407e-006,1.490423e-005
1.641441e+000,-1.057450e-005,1.490678e-005
1.642235e+000,-1.426719e-005,1.490962e-005
1.643029e+000,-1.829557e-005,1.491865e-005
1.643824e+000,-1.695277e-005,1.493653e-005
1.644618e+000,-1.728847e-005,1.495368e-005
1.645412e+000,-1.896696e-005,1.497203e-005
1.646206e+000,-1.795987e-005,1.499431e-005
1.647000e+000,-1.863127e-005,1.500892e-005
1.647794e+000,-1.913481e-005,1.501989e-005
1.648588e+000,-1.829557e-005,1.503712e-005
1.649382e+000,-1.628138e-005,1.504676e-005
1.650176e+000,-1.896696e-005,1.504791e-005
1.650971e+000,-1.963836e-005,1.506543e-005
1.651765e+000,-1.829557e-005,1.508259e-005
1.652559e+000,-1.376364e-005,1.508514e-005
1.653353e+000,-1.158160e-005,1.506979e-005
1.654147e+000,-1.225299e-005,1.505050e-005
1.654941e+000,-1.292439e-005,1.502695e-005
1.655735e+000,-1.493858e-005,1.501656e-005
1.656529e+000,-1.493858e-005,1.501211e-005
1.657324e+000,-7.721065e-006,1.500938e-005
1.658118e+000,-5.539025e-006,1.499609e-005
1.658912e+000,-3.524834e-006,1.498591e-005
1.659706e+000,-4.364080e-006,1.497944e-005
1.660500e+000,-6.378271e-006,1.497895e-005
1.661294e+000,-7.217518e-006,1.498195e-005
1.662088e+000,-8.224612e-006,1.498662e-005
1.662882e+000,-9.567407e-006,1.499330e-005
1.663676e+000,-7.553216e-006,1.499641e-005
1.664471e+000,-1.091020e-005,1.499275e-005
1.665265e+000,-1.242084e-005,1.499115e-005
1.666059e+000,-1.493858e-005,1.500035e-005
1.666853e+000,-1.795987e-005,1.502244e-005
1.667647e+000,-1.577783e-005,1.505335e-005
1.668441e+000,-1.091020e-005,1.506379e-005
1.669235e+000,-7.553216e-006,1.505586e-005
1.670029e+000,-1.023880e-005,1.502106e-005
1.670824e+000,-1.091020e-005,1.498695e-005
1.671618e+000,-5.874723e-006,1.495279e-005
1.672412e+000,-7.553216e-006,1.490331e-005
1.673206e+000,-1.091020e-005,1.486529e-005
1.674000e+000,-1.493858e-005,1.481624e-005
1.674794e+000,-9.903105e-006,1.479290e-005
1.675588e+000,-1.426719e-005,1.477943e-005
1.676382e+000,-2.165255e-005,1.478044e-005
1.677176e+000,-1.930266e-005,1.480689e-005
1.677971e+000,-1.661708e-005,1.482506e-005
1.678765e+000,-1.560998e-005,1.483945e-005
1.679559e+000,-1.527428e-005,1.484949e-005
1.680353e+000,-1.393149e-005,1.486601e-005
1.681147e+000,-6.881819e-006,1.487799e-005
1.681941e+000,3.860533e-006,1.487459e-005
1.682735e+000,1.829557e-005,1.486895e-005
1.683529e+000,2.668803e-005,1.489692e-005
1.684324e+000,2.769513e-005,1.496566e-005
1.685118e+000,1.594568e-005,1.504154e-005
1.685912e+000,-2.853437e-006,1.506343e-005
1.686706e+000,-2.500954e-005,1.505091e-005
1.687500e+000,-4.179446e-005,1.510589e-005
1.688294e+000,-5.320821e-005,1.527800e-005
1.689088e+000,-5.488670e-005,1.555136e-005
1.689882e+000,-5.253681e-005,1.584004e-005
1.690676e+000,-4.917983e-005,1.610299e-005
1.691471e+000,-4.783703e-005,1.632881e-005
1.692265e+000,-4.196231e-005,1.654255e-005
1.693059e+000,-2.735943e-005,1.669913e-005
1.693853e+000,-1.829557e-005,1.675610e-005
1.694647e+000,-1.980621e-005,1.675839e-005
1.695441e+000,-1.913481e-005,1.677150e-005
1.696235e+000,-1.359579e-005,1.678507e-005
1.697029e+000,-1.158160e-005,1.677641e-005
1.697824e+000,-9.567407e-006,1.676796e-005
1.698618e+000,-6.881819e-006,1.675909e-005
1.699412e+000,-8.896010e-006,1.675193e-005
1.700206e+000,-1.174945e-005,1.675075e-005
1.701000e+000,-8.896010e-006,1.675577e-005
1.701794e+000,-6.378271e-006,1.675127e-005
1.702588e+000,-2.182040e-006,1.675222e-005
1.703382e+000,-2.517739e-006,1.672424e-005
1.704176e+000,-2.349889e-006,1.669636e-005
1.704971e+000,-1.510643e-006,1.669321e-005
1.705765e+000,-8.392462e-007,1.663366e-005
1.706559e+000,-1.174945e-006,1.652873e-005
1.707353e+000,5.035477e-007,1.643970e-005
1.708147e+000,3.524834e-006,1.638225e-005
1.708941e+000,3.189136e-006,1.634593e-005
1.709735e+000,3.189136e-006,1.633064e-005
1.710529e+000,6.881819e-006,1.631855e-005
1.711324e+000,4.531929e-006,1.629621e-005
1.712118e+000,2.182040e-006,1.626303e-005
1.712912e+000,4.531929e-006,1.624356e-005
1.713706e+000,7.888914e-006,1.623085e-005
1.714500e+000,6.546120e-006,1.621881e-005
1.715294e+000,5.874723e-006,1.618767e-005
1.716088e+000,1.007095e-006,1.614771e-005
1.716882e+000,-5.539025e-006,1.610573e-005
1.717676e+000,-1.225299e-005,1.608144e-005
1.718471e+000,-1.493858e-005,1.608303e-005
1.719265e+000,-1.225299e-005,1.609106e-005
1.720059e+000,-9.903105e-006,1.609340e-005
1.720853e+000,-1.292439e-005,1.609133e-005
1.721647e+000,-2.030976e-005,1.610116e-005
1.722441e+000,-2.970932e-005,1.613409e-005
1.723235e+000,-3.474479e-005,1.620457e-005
1.724029e+000,-2.232395e-005,1.630811e-005
1.724824e+000,-5.539025e-006,1.635011e-005
1.725618e+000,4.531929e-006,1.634704e-005
1.726412e+000,5.203327e-006,1.634245e-005
1.727206e+000,5.035477e-007,1.634376e-005
1.728000e+000,-6.210422e-006,1.633982e-005
1.728794e+000,-1.426719e-005,1.633557e-005
1.729588e+000,-1.762417e-005,1.634769e-005
1.730382e+000,-2.047761e-005,1.637331e-005
1.731176e+000,-2.232395e-005,1.640485e-005
1.731971e+000,-2.500954e-005,1.644738e-005
1.732765e+000,-2.769513e-005,1.650410e-005
1.733559e+000,-2.668803e-005,1.657246e-005
1.734353e+000,-2.635233e-005,1.662792e-005
1.735147e+000,-2.433814e-005,1.668112e-005
1.735941e+000,-2.316319e-005,1.672692e-005
1.736735e+000,-2.299535e-005,1.676481e-005
1.737529e+000,-2.198825e-005,1.680369e-005
1.738324e+000,-1.762417e-005,1.684252e-005
1.739118e+000,-1.510643e-005,1.686671e-005
1.739912e+000,-1.124590e-005,1.687961e-005
1.740706e+000,-9.567407e-006,1.687659e-005
1.741500e+000,-8.560311e-006,1.687364e-005
1.742294e+000,-1.023880e-005,1.686862e-005
1.743088e+000,-1.158160e-005,1.686019e-005
1.743882e+000,-1.393149e-005,1.685868e-005
1.744676e+000,-1.393149e-005,1.685400e-005
1.745471e+000,-1.426719e-005,1.685078e-005
1.746265e+000,-1.426719e-005,1.685032e-005
1.747059e+000,-1.628138e-005,1.684799e-005
1.747853e+000,-1.678492e-005,1.684588e-005
1.748647e+000,-1.560998e-005,1.684426e-005
1.749441e+000,-1.963836e-005,1.684426e-005
1.750235e+000,-1.896696e-005,1.686651e-005
1.751029e+000,-1.795987e-005,1.688550e-005
1.751824e+000,-1.527428e-005,1.690136e-005
1.752618e+000,-1.762417e-005,1.691213e-005
1.753412e+000,-1.527428e-005,1.693015e-005
1.754206e+000,-1.376364e-005,1.693874e-005
1.755000e+000,-1.527428e-005,1.694732e-005
1.755794e+000,-1.393149e-005,1.695806e-005
1.756588e+000,-1.426719e-005,1.694485e-005
1.757382e+000,-1.158160e-005,1.689697e-005
1.758176e+000,-7.888914e-006,1.687806e-005
1.758971e+000,-7.721065e-006,1.688170e-005
1.759765e+000,-4.196231e-006,1.688591e-005
1.760559e+000,-3.189136e-006,1.688681e-005
1.761353e+000,-5.203327e-006,1.688700e-005
1.762147e+000,-5.539025e-006,1.688591e-005
1.762941e+000,-4.867628e-006,1.688555e-005
1.763735e+000,-4.196231e-006,1.688585e-005
1.764529e+000,-6.210422e-006,1.688462e-005
1.765324e+000,-4.196231e-006,1.688334e-005
1.766118e+000,-4.364080e-006,1.687478e-005
1.766912e+000,-7.553216e-006,1.686162e-005
1.767706e+000,-4.867628e-006,1.685283e-005
1.768500e+000,-5.874723e-006,1.683491e-005
1.769294e+000,-5.539025e-006,1.681981e-005
1.770088e+000,-6.881819e-006,1.680850e-005
1.770882e+000,-6.546120e-006,1.680431e-005
1.771676e+000,-7.553216e-006,1.680389e-005
1.772471e+000,-8.224612e-006,1.680638e-005
1.773265e+000,-5.706874e-006,1.680933e-005
1.774059e+000,-1.376364e-005,1.680492e-005
1.774853e+000,-1.997406e-005,1.681358e-005
1.775647e+000,-1.779202e-005,1.684007e-005
1.776441e+000,-1.426719e-005,1.685164e-005
1.777235e+000,-1.460288e-005,1.685341e-005
1.778029e+000,-9.567407e-006,1.685200e-005
1.778824e+000,-1.510643e-006,1.682664e-005
1.779618e+000,7.553216e-006,1.680070e-005
1.780412e+000,6.378271e-006,1.678495e-005
1.781206e+000,-2.853437e-006,1.676518e-005
1.782000e+000,-1.225299e-005,1.674076e-005
1.782794e+000,-2.098116e-005,1.673381e-005
1.783588e+000,-2.366674e-005,1.675250e-005
1.784382e+000,-2.836652e-005,1.678052e-005
1.785176e+000,-3.054856e-005,1.683318e-005
1.785971e+000,-3.071641e-005,1.690021e-005
1.786765e+000,-2.903792e-005,1.696795e-005
1.787559e+000,-3.038071e-005,1.702962e-005
1.788353e+000,-2.735943e-005,1.710915e-005
1.789147e+000,-2.568093e-005,1.716831e-005
1.789941e+000,-2.836652e-005,1.722091e-005
1.790735e+000,-2.970932e-005,1.728892e-005
1.791529e+000,-2.366674e-005,1.736841e-005
1.792324e+000,-1.359579e-005,1.741876e-005
1.793118e+000,-9.903105e-006,1.743564e-005
1.793912e+000,-1.510643e-006,1.744367e-005
1.794706e+000,5.035477e-007,1.743820e-005
1.795500e+000,-3.356985e-007,1.743153e-005
1.796294e+000,3.189136e-006,1.743123e-005
1.797088e+000,1.846342e-006,1.743158e-005
1.797882e+000,-2.853437e-006,1.742668e-005
1.798676e+000,-4.196231e-006,1.741369e-005
1.799471e+000,-2.853437e-006,1.738688e-005
1.800265e+000,-6.546120e-006,1.734918e-005
1.801059e+000,-6.210422e-006,1.730732e-005
1.801853e+000,-1.678492e-007,1.723670e-005
1.802647e+000,1.174945e-006,1.714642e-005
1.803441e+000,-6.881819e-006,1.707859e-005
1.804235e+000,-1.359579e-005,1.700054e-005
1.805029e+000,-1.292439e-005,1.694238e-005
1.805824e+000,-1.225299e-005,1.690389e-005
1.806618e+000,-1.309224e-005,1.686371e-005
1.807412e+000,-2.030976e-005,1.682392e-005
1.808206e+000,-2.500954e-005,1.683521e-005
1.809000e+000,-2.568093e-005,1.687129e-005
1.809794e+000,-2.299535e-005,1.689835e-005
1.810588e+000,-2.114900e-005,1.691662e-005
1.811382e+000,-1.762417e-005,1.693058e-005
1.812176e+000,-1.594568e-005,1.694681e-005
1.812971e+000,-1.292439e-005,1.696209e-005
1.813765e+000,-8.224612e-006,1.697584e-005
1.814559e+000,9.903105e-006,1.698142e-005
1.815353e+000,1.594568e-005,1.698807e-005
1.816147e+000,5.539025e-006,1.701024e-005
1.816941e+000,-4.699779e-006,1.701216e-005
1.817735e+000,-1.493858e-005,1.701378e-005
1.818529e+000,-1.762417e-005,1.703244e-005
1.819324e+000,-1.728847e-005,1.705924e-005
1.820118e+000,-1.762417e-005,1.708548e-005
1.820912e+000,-1.460288e-005,1.711119e-005
1.821706e+000,-1.527428e-005,1.712572e-005
1.822500e+000,-1.661708e-005,1.714577e-005
1.823294e+000,-1.644922e-005,1.717118e-005
1.824088e+000,-1.493858e-005,1.719341e-005
1.824882e+000,-1.963836e-005,1.721187e-005
1.825676e+000,-3.457694e-005,1.724749e-005
1.826471e+000,-3.843748e-005,1.735750e-005
1.827265e+000,-2.366674e-005,1.748972e-005
1.828059e+000,-4.531929e-006,1.753233e-005
1.828853e+000,8.392462e-007,1.751392e-005
1.829647e+000,7.888914e-006,1.748463e-005
1.830441e+000,2.131685e-005,1.745980e-005
1.831235e+000,2.333104e-005,1.746843e-005
1.832029e+000,1.326009e-005,1.749581e-005
1.832824e+000,-1.846342e-006,1.749815e-005
1.833618e+000,-1.628138e-005,1.749205e-005
1.834412e+000,-2.265965e-005,1.751051e-005
1.835206e+000,-2.433814e-005,1.754497e-005
1.836000e+000,-2.635233e-005,1.757052e-005
1.836794e+000,-3.138781e-005,1.759966e-005
1.837588e+000,-3.004501e-005,1.768145e-005
1.838382e+000,-2.903792e-005,1.775599e-005
1.839176e+000,-2.198825e-005,1.781876e-005
1.839971e+000,-1.426719e-005,1.786171e-005
1.840765e+000,-6.546120e-006,1.785001e-005
1.841559e+000,-4.196231e-006,1.776763e-005
1.842353e+000,-8.224612e-006,1.764093e-005
1.843147e+000,-4.196231e-006,1.751321e-005
1.843941e+000,-6.378271e-006,1.741914e-005
1.844735e+000,-9.567407e-006,1.734916e-005
1.845529e+000,-9.567407e-006,1.728182e-005
1.846324e+000,-1.158160e-005,1.720504e-005
1.847118e+000,-1.225299e-005,1.715474e-005
1.847912e+000,-1.460288e-005,1.709651e-005
1.848706e+000,-1.292439e-005,1.705649e-005
1.849500e+000,-9.903105e-006,1.704418e-005
1.850294e+000,-9.567407e-006,1.702857e-005
1.851088e+000,-1.023880e-005,1.702110e-005
1.851882e+000,-6.546120e-006,1.701446e-005
1.852676e+000,-2.517739e-006,1.699364e-005
1.853471e+000,-5.203327e-006,1.697691e-005
1.854265e+000,-2.349889e-006,1.696211e-005
1.855059e+000,-1.678492e-007,1.693454e-005
1.855853e+000,-2.182040e-006,1.689442e-005
1.856647e+000,-2.182040e-006,1.682242e-005
1.857441e+000,-1.678492e-006,1.679456e-005
1.858235e+000,-2.853437e-006,1.679461e-005
1.859029e+000,-4.196231e-006,1.678544e-005
1.859824e+000,-4.196231e-006,1.677748e-005
1.860618e+000,-6.881819e-006,1.676854e-005
1.861412e+000,-8.896010e-006,1.674123e-005
1.862206e+000,-1.158160e-005,1.671329e-005
1.863000e+000,-9.903105e-006,1.669814e-005
1.863794e+000,-1.124590e-005,1.669995e-005
1.864588e+000,-1.628138e-005,1.671140e-005
1.865382e+000,-2.030976e-005,1.673567e-005
1.866176e+000,-1.896696e-005,1.675982e-005
1.866971e+000,-1.644922e-005,1.676560e-005
1.867765e+000,-1.493858e-005,1.679051e-005
1.868559e+000,-1.493858e-005,1.679743e-005
1.869353e+000,-2.165255e-005,1.681268e-005
1.870147e+000,-2.299535e-005,1.680988e-005
1.870941e+000,-1.896696e-005,1.678553e-005
1.871735e+000,-1.829557e-005,1.671997e-005
1.872529e+000,-1.560998e-005,1.665384e-005
1.873324e+000,-1.678492e-005,1.658480e-005
1.874118e+000,-2.165255e-005,1.653080e-005
1.874912e+000,-2.265965e-005,1.653080e-005
1.875706e+000,-2.198825e-005,1.654975e-005
1.876500e+000,-1.896696e-005,1.656638e-005
1.877294e+000,-1.628138e-005,1.656937e-005
1.878088e+000,-1.695277e-005,1.656937e-005
1.878882e+000,-1.963836e-005,1.658937e-005
1.879676e+000,-2.030976e-005,1.662453e-005
1.880471e+000,-1.661708e-005,1.666280e-005
1.881265e+000,-2.165255e-005,1.668910e-005
1.882059e+000,-2.098116e-005,1.673317e-005
1.882853e+000,-1.695277e-005,1.677499e-005
1.883647e+000,-1.560998e-005,1.680118e-005
1.884441e+000,-1.359579e-005,1.682329e-005
1.885235e+000,-1.393149e-005,1.683713e-005
1.886029e+000,-1.158160e-005,1.685101e-005
1.886824e+000,-7.553216e-006,1.685920e-005
1.887618e+000,-5.203327e-006,1.685335e-005
1.888412e+000,-3.189136e-006,1.684466e-005
1.889206e+000,-1.007095e-006,1.683293e-005
1.890000e+000,-1.846342e-006,1.682034e-005
1.890794e+000,2.517739e-006,1.681199e-005
1.891588e+000,2.853437e-006,1.680200e-005
1.892382e+000,-2.182040e-006,1.678347e-005
1.893176e+000,-7.553216e-006,1.675213e-005
1.893971e+000,-1.158160e-005,1.673022e-005
1.894765e+000,-1.426719e-005,1.671453e-005
1.895559e+000,-1.560998e-005,1.669965e-005
1.896353e+000,-1.124590e-005,1.669212e-005
1.897147e+000,-7.553216e-006,1.667106e-005
1.897941e+000,-1.191730e-005,1.664151e-005
1.898735e+000,-1.023880e-005,1.662306e-005
1.899529e+000,-1.426719e-005,1.660770e-005
1.900324e+000,-1.393149e-005,1.659272e-005
1.901118e+000,-1.023880e-005,1.657433e-005
1.901912e+000,-1.191730e-005,1.655223e-005
1.902706e+000,-1.057450e-005,1.654766e-005
1.903500e+000,-9.735256e-006,1.654551e-005
1.904294e+000,-1.762417e-005,1.654019e-005
1.905088e+000,-2.500954e-005,1.655400e-005
1.905882e+000,-3.256275e-005,1.659266e-005
1.906676e+000,-3.575189e-005,1.667281e-005
1.907471e+000,-3.508049e-005,1.678878e-005
1.908265e+000,-2.803082e-005,1.690221e-005
1.909059e+000,-1.762417e-005,1.697491e-005
1.909853e+000,-1.007095e-005,1.700224e-005
1.910647e+000,-6.881819e-006,1.700793e-005
1.911441e+000,-8.224612e-006,1.700748e-005
1.912235e+000,-5.539025e-006,1.700748e-005
1.913029e+000,-3.524834e-006,1.700178e-005
1.913824e+000,-5.203327e-006,1.699760e-005
1.914618e+000,-6.881819e-006,1.698899e-005
1.915412e+000,-2.853437e-006,1.697896e-005
1.916206e+000,7.217518e-006,1.695879e-005
1.917000e+000,3.189136e-006,1.693337e-005
1.917794e+000,-5.035477e-006,1.691090e-005
1.918588e+000,-9.231709e-006,1.690208e-005
1.919382e+000,-6.881819e-006,1.690473e-005
1.920176e+000,-8.224612e-006,1.689932e-005
1.920971e+000,-1.023880e-005,1.689448e-005
1.921765e+000,-1.023880e-005,1.690110e-005
1.922559e+000,-9.567407e-006,1.690560e-005
1.923353e+000,-1.023880e-005,1.690301e-005
1.924147e+000,-3.860533e-006,1.689186e-005
1.924941e+000,-1.678492e-007,1.688402e-005
1.925735e+000,2.517739e-006,1.686481e-005
1.926529e+000,2.517739e-006,1.682109e-005
1.927324e+000,-8.392462e-007,1.678638e-005
1.928118e+000,-2.853437e-006,1.676024e-005
1.928912e+000,-7.888914e-006,1.673784e-005
1.929706e+000,-1.258869e-005,1.672156e-005
1.930500e+000,-2.064546e-005,1.671817e-005
1.931294e+000,-1.896696e-005,1.675422e-005
1.932088e+000,-1.527428e-005,1.678696e-005
1.932882e+000,-1.359579e-005,1.677734e-005
1.933676e+000,-1.695277e-005,1.672721e-005
1.934471e+000,-1.896696e-005,1.668149e-005
1.935265e+000,-1.829557e-005,1.669155e-005
1.936059e+000,-1.695277e-005,1.672268e-005
1.936853e+000,-1.426719e-005,1.669046e-005
1.937647e+000,-1.695277e-005,1.654257e-005
1.938441e+000,-2.568093e-005,1.629588e-005
1.939235e+000,-2.433814e-005,1.606430e-005
1.940029e+000,-1.628138e-005,1.584797e-005
1.940824e+000,-1.359579e-005,1.563009e-005
1.941618e+000,-1.661708e-005,1.541429e-005
1.942412e+000,-1.896696e-005,1.526015e-005
1.943206e+000,-2.165255e-005,1.521952e-005
1.944000e+000,-1.963836e-005,1.523355e-005
1.944794e+000,-1.644922e-005,1.523286e-005
1.945588e+000,-1.426719e-005,1.522286e-005
1.946382e+000,-1.393149e-005,1.522482e-005
1.947176e+000,-1.359579e-005,1.523109e-005
1.947971e+000,-1.091020e-005,1.524084e-005
1.948765e+000,-9.567407e-006,1.524833e-005
1.949559e+000,-4.867628e-006,1.524962e-005
1.950353e+000,-4.196231e-006,1.523768e-005
1.951147e+000,5.035477e-007,1.523125e-005
1.951941e+000,2.517739e-006,1.522702e-005
1.952735e+000,2.349889e-006,1.522718e-005
1.953529e+000,1.678492e-007,1.522710e-005
1.954324e+000,-1.510643e-006,1.522652e-005
1.955118e+000,-5.539025e-006,1.522652e-005
1.955912e+000,-9.567407e-006,1.522966e-005
1.956706e+000,-8.896010e-006,1.523908e-005
1.957500e+000,-2.198825e-005,1.524732e-005
1.958294e+000,-3.642328e-005,1.529644e-005
1.959088e+000,-3.306630e-005,1.543288e-005
1.959882e+000,-2.702373e-005,1.554424e-005
1.960676e+000,-1.359579e-005,1.561404e-005
1.961471e+000,-6.546120e-006,1.563079e-005
1.962265e+000,-7.721065e-006,1.563467e-005
1.963059e+000,-8.224612e-006,1.563865e-005
1.963853e+000,-1.023880e-005,1.563920e-005
1.964647e+000,-9.567407e-006,1.564551e-005
1.965441e+000,-8.560311e-006,1.565131e-005
1.966235e+000,-1.225299e-005,1.565866e-005
1.967029e+000,-1.997406e-005,1.567080e-005
1.967824e+000,-2.030976e-005,1.569607e-005
1.968618e+000,-1.896696e-005,1.571526e-005
1.969412e+000,-1.896696e-005,1.573649e-005
1.970206e+000,-1.493858e-005,1.576294e-005
1.971000e+000,-9.231709e-006,1.576861e-005
1.971794e+000,-9.567407e-006,1.573553e-005
1.972588e+000,-1.124590e-005,1.565527e-005
1.973382e+000,-1.225299e-005,1.554495e-005
1.974176e+000,-1.225299e-005,1.550924e-005
1.974971e+000,-1.091020e-005,1.552150e-005
1.975765e+000,-9.903105e-006,1.553160e-005
1.976559e+000,-5.539025e-006,1.553888e-005
1.977353e+000,8.392462e-007,1.554200e-005
1.978147e+000,1.510643e-006,1.553812e-005
1.978941e+000,-1.510643e-006,1.551748e-005
1.979735e+000,-3.189136e-006,1.548581e-005
1.980529e+000,1.057450e-005,1.544368e-005
1.981324e+000,2.601663e-005,1.540377e-005
1.982118e+000,1.997406e-005,1.540908e-005
1.982912e+000,8.392462e-006,1.537100e-005
1.983706e+000,-5.706874e-006,1.530437e-005
1.984500e+000,-2.500954e-005,1.523535e-005
1.985294e+000,-3.810178e-005,1.523881e-005
1.986088e+000,-4.649424e-005,1.533414e-005
1.986882e+000,-6.260777e-005,1.550278e-005
1.987676e+000,-6.562905e-005,1.585181e-005
1.988471e+000,-5.320821e-005,1.624831e-005
1.989265e+000,-4.078737e-005,1.650143e-005
1.990059e+000,-3.105211e-005,1.664910e-005
1.990853e+000,-1.963836e-005,1.673236e-005
1.991647e+000,-1.292439e-005,1.676206e-005
1.992441e+000,-9.903105e-006,1.676797e-005
1.993235e+000,-4.196231e-006,1.676454e-005
1.994029e+000,1.678492e-007,1.674778e-005
1.994824e+000,7.888914e-006,1.672931e-005
1.995618e+000,1.326009e-005,1.671586e-005
1.996412e+000,1.326009e-005,1.671322e-005
1.997206e+000,1.225299e-005,1.670471e-005
1.998000e+000,8.896010e-006,1.669216e-005
1.998794e+000,1.846342e-006,1.667646e-005
1.999588e+000,-2.853437e-006,1.663992e-005
2.000382e+000,-3.524834e-006,1.660624e-005
2.001176e+000,-1.023880e-005,1.657647e-005
2.001971e+000,-1.426719e-005,1.656413e-005
2.002765e+000,-3.105211e-005,1.655383e-005
2.003559e+000,-3.793393e-005,1.662399e-005
2.004353e+000,-3.306630e-005,1.674326e-005
2.005147e+000,-2.299535e-005,1.682485e-005
2.005941e+000,-1.292439e-005,1.685650e-005
2.006735e+000,-8.224612e-006,1.685305e-005
2.007529e+000,-1.846342e-006,1.684677e-005
2.008324e+000,1.510643e-006,1.684121e-005
2.009118e+000,4.364080e-006,1.683578e-005
2.009912e+000,-3.021286e-006,1.683592e-005
2.010706e+000,-1.158160e-005,1.683582e-005
2.011500e+000,-1.292439e-005,1.684594e-005
2.012294e+000,-9.903105e-006,1.685883e-005
2.013088e+000,-8.224612e-006,1.686585e-005
2.013882e+000,-8.224612e-006,1.687058e-005
2.014676e+000,-7.553216e-006,1.687332e-005
2.015471e+000,-8.728161e-006,1.687704e-005
2.016265e+000,-1.158160e-005,1.688243e-005
2.017059e+000,-1.292439e-005,1.688970e-005
2.017853e+000,-9.567407e-006,1.690321e-005
2.018647e+000,-8.560311e-006,1.690858e-005
2.019441e+000,-1.091020e-005,1.691259e-005
2.020235e+000,-1.359579e-005,1.691934e-005
2.021029e+000,-1.896696e-005,1.693270e-005
2.021824e+000,-1.795987e-005,1.696114e-005
2.022618e+000,1.174945e-006,1.698505e-005
2.023412e+000,6.210422e-006,1.698213e-005
2.024206e+000,5.035477e-007,1.696798e-005
2.025000e+000,3.356985e-007,1.693052e-005
2.025794e+000,-2.182040e-006,1.690073e-005
2.026588e+000,-5.203327e-006,1.688199e-005
2.027382e+000,-4.196231e-006,1.686442e-005
2.028176e+000,-8.560311e-006,1.685744e-005
2.028971e+000,-1.158160e-005,1.686414e-005
2.029765e+000,-1.695277e-005,1.687142e-005
2.030559e+000,-2.500954e-005,1.689469e-005
2.031353e+000,-3.642328e-005,1.695278e-005
2.032147e+000,-4.246586e-005,1.706293e-005
2.032941e+000,-4.313725e-005,1.718967e-005
2.033735e+000,-4.615854e-005,1.730974e-005
2.034529e+000,-4.531930e-005,1.743129e-005
2.035324e+000,-2.970932e-005,1.753336e-005
2.036118e+000,-1.359579e-005,1.752783e-005
2.036912e+000,-9.231709e-006,1.746792e-005
2.037706e+000,-8.728161e-006,1.739138e-005
2.038500e+000,-9.231709e-006,1.732971e-005
2.039294e+000,-9.567407e-006,1.727686e-005
2.040088e+000,-4.867628e-006,1.721101e-005
2.040882e+000,5.035477e-007,1.713135e-005
2.041676e+000,8.392462e-007,1.707924e-005
2.042471e+000,-4.867628e-006,1.706206e-005
2.043265e+000,-7.553216e-006,1.705512e-005
2.044059e+000,-9.903105e-006,1.706023e-005
2.044853e+000,-9.567407e-006,1.706936e-005
2.045647e+000,-6.546120e-006,1.707789e-005
2.046441e+000,-2.182040e-006,1.708093e-005
2.047235e+000,-8.392462e-007,1.708106e-005
2.048029e+000,3.021286e-006,1.708037e-005
2.048824e+000,1.846342e-006,1.707957e-005
2.049618e+000,-2.853437e-006,1.707913e-005
2.050412e+000,-7.553216e-006,1.707590e-005
2.051206e+000,-1.057450e-005,1.707762e-005
2.052000e+000,-9.903105e-006,1.708804e-005
2.052794e+000,-9.567407e-006,1.709705e-005
2.053588e+000,-8.224612e-006,1.710116e-005
2.054382e+000,-1.124590e-005,1.709025e-005
2.055176e+000,-1.091020e-005,1.708646e-005
2.055971e+000,-1.057450e-005,1.708356e-005
2.056765e+000,-1.359579e-005,1.707801e-005
2.057559e+000,-1.795987e-005,1.705677e-005
2.058353e+000,-1.695277e-005,1.702847e-005
2.059147e+000,-1.628138e-005,1.699364e-005
2.059941e+000,-2.182040e-005,1.696891e-005
2.060735e+000,-2.400244e-005,1.697162e-005
2.061529e+000,-2.299535e-005,1.699651e-005
2.062324e+000,-2.165255e-005,1.702221e-005
2.063118e+000,-2.232395e-005,1.705042e-005
2.063912e+000,-3.004501e-005,1.709059e-005
2.064706e+000,-2.433814e-005,1.716540e-005
2.065500e+000,-1.057450e-005,1.719673e-005
2.066294e+000,-5.203327e-006,1.720425e-005
2.067088e+000,-3.524834e-006,1.720471e-005
2.067882e+000,1.846342e-006,1.718519e-005
2.068676e+000,1.510643e-006,1.715670e-005
2.069471e+000,1.174945e-006,1.712915e-005
2.070265e+000,-1.678492e-007,1.710038e-005
2.071059e+000,-4.531929e-006,1.708051e-005
2.071853e+000,-8.224612e-006,1.706067e-005
2.072647e+000,-1.225299e-005,1.704120e-005
2.073441e+000,-1.292439e-005,1.702994e-005
2.074235e+000,-1.292439e-005,1.702469e-005
2.075029e+000,-1.359579e-005,1.700423e-005
2.075824e+000,-1.460288e-005,1.690932e-005
2.076618e+000,-1.174945e-005,1.678985e-005
2.077412e+000,-8.560311e-006,1.674977e-005
2.078206e+000,-8.224612e-006,1.675478e-005
2.079000e+000,-9.903105e-006,1.676114e-005
2.079794e+000,-8.560311e-006,1.676455e-005
2.080588e+000,-1.023880e-005,1.672831e-005
2.081382e+000,-1.225299e-005,1.668642e-005
2.082176e+000,-1.174945e-005,1.668397e-005
2.082971e+000,-9.567407e-006,1.669681e-005
2.083765e+000,-9.903105e-006,1.668025e-005
2.084559e+000,-1.158160e-005,1.664055e-005
2.085353e+000,-8.896010e-006,1.659665e-005
2.086147e+000,-1.057450e-005,1.653751e-005
2.086941e+000,-1.158160e-005,1.645320e-005
2.087735e+000,-1.695277e-005,1.637864e-005
2.088529e+000,-2.500954e-005,1.632452e-005
2.089324e+000,-2.903792e-005,1.633836e-005
2.090118e+000,-3.306630e-005,1.640059e-005
2.090912e+000,-2.970932e-005,1.650227e-005
2.091706e+000,-2.165255e-005,1.658553e-005
2.092500e+000,-1.292439e-005,1.662400e-005
2.093294e+000,-9.567407e-006,1.663831e-005
2.094088e+000,-5.539025e-006,1.664317e-005
2.094882e+000,-4.867628e-006,1.663735e-005
2.095676e+000,-2.182040e-006,1.663086e-005
2.096471e+000,1.846342e-006,1.661847e-005
2.097265e+000,3.524834e-006,1.660440e-005
2.098059e+000,5.539025e-006,1.658513e-005
2.098853e+000,6.546120e-006,1.657203e-005
2.099647e+000,2.517739e-006,1.656673e-005
2.100441e+000,-9.903105e-006,1.655854e-005
2.101235e+000,-2.584878e-005,1.655789e-005
2.102029e+000,-3.709468e-005,1.661791e-005
2.102824e+000,-3.642328e-005,1.674864e-005
2.103618e+000,-3.524834e-005,1.687175e-005
2.104412e+000,-3.642328e-005,1.698809e-005
2.105206e+000,-3.004501e-005,1.711198e-005
2.106000e+000,-2.702373e-005,1.719534e-005
2.106794e+000,-2.433814e-005,1.726239e-005
2.107588e+000,-2.030976e-005,1.731669e-005
2.108382e+000,-1.963836e-005,1.735383e-005
2.109176e+000,-1.795987e-005,1.738757e-005
2.109971e+000,-1.560998e-005,1.741547e-005
2.110765e+000,-1.426719e-005,1.743341e-005
2.111559e+000,-8.224612e-006,1.744477e-005
2.112353e+000,-4.196231e-006,1.743870e-005
2.113147e+000,-5.539025e-006,1.743136e-005
2.113941e+000,-4.867628e-006,1.742260e-005
2.114735e+000,-3.524834e-006,1.740053e-005
2.115529e+000,-3.524834e-006,1.736388e-005
2.116324e+000,-8.392462e-007,1.733200e-005
2.117118e+000,3.692683e-006,1.730719e-005
2.117912e+000,1.174945e-006,1.728790e-005
2.118706e+000,-1.510643e-006,1.726746e-005
2.119500e+000,-2.182040e-006,1.722438e-005
2.120294e+000,-2.853437e-006,1.717587e-005
2.121088e+000,-6.210422e-006,1.714324e-005
2.121882e+000,-7.553216e-006,1.711571e-005
2.122676e+000,-6.378271e-006,1.709834e-005
2.123471e+000,-5.035477e-006,1.707587e-005
2.124265e+000,-3.524834e-006,1.703447e-005
2.125059e+000,-1.846342e-006,1.698757e-005
2.125853e+000,-2.517739e-006,1.694251e-005
2.126647e+000,-4.196231e-006,1.690926e-005
2.127441e+000,-7.888914e-006,1.688594e-005
2.128235e+000,-6.881819e-006,1.686469e-005
2.129029e+000,-5.203327e-006,1.683272e-005
2.129824e+000,-5.539025e-006,1.679622e-005
2.130618e+000,-3.524834e-006,1.677293e-005
2.131412e+000,1.678492e-007,1.672955e-005
2.132206e+000,-2.853437e-006,1.668760e-005
2.133000e+000,-6.881819e-006,1.666093e-005
2.133794e+000,-1.158160e-005,1.664216e-005
2.134588e+000,-1.762417e-005,1.663730e-005
2.135382e+000,-2.198825e-005,1.664845e-005
2.136176e+000,-1.997406e-005,1.668183e-005
2.136971e+000,-1.963836e-005,1.671444e-005
2.137765e+000,-2.333104e-005,1.674857e-005
2.138559e+000,-2.635233e-005,1.679927e-005
2.139353e+000,-2.836652e-005,1.686487e-005
2.140147e+000,-2.433814e-005,1.694036e-005
2.140941e+000,-1.292439e-005,1.699535e-005
2.141735e+000,-1.158160e-005,1.701023e-005
2.142529e+000,-1.258869e-005,1.702234e-005
2.143324e+000,-1.091020e-005,1.703183e-005
2.144118e+000,-8.896010e-006,1.703041e-005
2.144912e+000,-5.203327e-006,1.701878e-005
2.145706e+000,-4.196231e-006,1.699850e-005
2.146500e+000,-4.531929e-006,1.698830e-005
2.147294e+000,-4.867628e-006,1.698488e-005
2.148088e+000,-6.881819e-006,1.697378e-005
2.148882e+000,-5.874723e-006,1.696839e-005
2.149676e+000,-1.292439e-005,1.695252e-005
2.150471e+000,-2.098116e-005,1.694997e-005
2.151265e+000,-1.829557e-005,1.698145e-005
2.152059e+000,-1.560998e-005,1.699951e-005
2.152853e+000,-1.225299e-005,1.701186e-005
2.153647e+000,-1.057450e-005,1.701704e-005
2.154441e+000,-1.023880e-005,1.699843e-005
2.155235e+000,-1.309224e-005,1.694959e-005
2.156029e+000,-1.258869e-005,1.686587e-005
2.156824e+000,-1.393149e-005,1.675982e-005
2.157618e+000,-1.493858e-005,1.666104e-005
2.158412e+000,-1.426719e-005,1.660719e-005
2.159206e+000,-1.158160e-005,1.659692e-005
2.160000e+000,-1.225299e-005,1.660006e-005
2.160794e+000,-1.560998e-005,1.660992e-005
2.161588e+000,-1.695277e-005,1.662678e-005
2.162382e+000,-1.393149e-005,1.665135e-005
2.163176e+000,-1.107805e-005,1.666871e-005
2.163971e+000,-1.359579e-005,1.667785e-005
2.164765e+000,-1.560998e-005,1.669097e-005
2.165559e+000,-1.628138e-005,1.671342e-005
2.166353e+000,-1.594568e-005,1.673371e-005
2.167147e+000,-1.309224e-005,1.675692e-005
2.167941e+000,-1.225299e-005,1.677079e-005
2.168735e+000,-1.107805e-005,1.677695e-005
2.169529e+000,-1.225299e-005,1.678410e-005
2.170324e+000,-1.460288e-005,1.679193e-005
2.171118e+000,-1.258869e-005,1.680221e-005
