X [s],R BICEPS BRACHII: EMG 1 [V],X [s].1,R DELTOID ANTERIOR: EMG 2 [V],X [s].5,R DELTOID MEDIUS: EMG 6 [V],X [s].6,R DELTOID POSTERIOR: EMG 7 [V]
0.0,-3.44091e-05,0.0,7.9057e-05,0.0,5.03548e-07,0.0,-1.25887e-05
0.000794117179931,-4.145872737564447e-05,0.000794117179931,6.219690943327417e-07,0.000794117179931,-2.1820423077045394e-06,0.000794117179931,-1.3793235034616555e-05
0.0015882343598621,-5.330699568395662e-05,0.0015882343598621,-3.561369535341652e-05,0.0015882343598621,-6.091942531318277e-06,0.0015882343598621,-2.0902167094956403e-05
0.0023823515397932,5.275322200565879e-05,0.0023823515397932,-4.868619634987074e-05,0.0023823515397932,-7.336019576814254e-06,0.0023823515397932,-2.575006665302906e-05
0.0031764687197242,0.0002014686491765,0.0031764687197242,-5.415604808544331e-05,0.0031764687197242,-3.633449036966365e-06,0.0031764687197242,-2.279783340416839e-05
0.0039705858996553,0.0002657445451578,0.0039705858996553,-4.0441965350301454e-05,0.0039705858996553,7.602202879921871e-07,0.0039705858996553,-1.908550350023305e-05
0.0047647030795864,0.0002264481223308,0.0047647030795864,1.0317286398261389e-05,0.0047647030795864,7.335990161346521e-06,0.0047647030795864,-1.5076837646097297e-05
0.0055588202595174,5.753426682562702e-05,0.0055588202595174,6.859079853755767e-05,0.0055588202595174,1.1166893848771464e-05,0.0055588202595174,-1.0515330516095658e-05
0.0063529374394485,-8.819955474529298e-05,0.0063529374394485,7.264926185274859e-05,0.0063529374394485,1.2470216648957904e-05,0.0063529374394485,-9.36993987472689e-06
0.0071470546193796,-0.000128976968986,0.0071470546193796,3.016368091504015e-05,0.0071470546193796,9.527981504272872e-06,0.0071470546193796,-7.138504592890797e-06
0.0079411717993107,-0.0001365998572156,0.0079411717993107,-8.125737623913458e-06,0.0079411717993107,-5.232718957782547e-07,0.0079411717993107,-1.3161349734368552e-05
0.0087352889792417,-0.0001136935728845,0.0087352889792417,-4.1972048838948575e-05,0.0087352889792417,-1.083112686627165e-05,0.0087352889792417,-1.823633393335909e-05
0.0095294061591728,-7.82672210558647e-05,0.0095294061591728,-5.265529774445005e-05,0.0095294061591728,-1.592594994687371e-05,0.0095294061591728,-1.6182675185942016e-05
0.0103235233391039,-3.464717711354252e-05,0.0103235233391039,-3.910871138721471e-05,0.0103235233391039,-1.549155185848685e-05,0.0103235233391039,-1.2529475929243423e-05
0.0111176405190349,-3.0309817279025303e-06,0.0111176405190349,-1.922338727358024e-05,0.0111176405190349,-1.4049971048936336e-05,0.0111176405190349,-1.2253e-05
0.011911757698966,2.5465078816519725e-05,0.011911757698966,-1.2233252214065687e-05,0.011911757698966,-9.488078546838445e-06,0.011911757698966,-9.51794793286566e-06
0.0127058748788971,6.134230959602497e-05,0.0127058748788971,-5.814482036300035e-05,0.0127058748788971,-1.037115477574829e-06,0.0127058748788971,-8.422027387092443e-06
0.0134999920588282,8.54351396480377e-05,0.0134999920588282,-0.0001508949782394,0.0134999920588282,8.560206917107447e-06,0.0134999920588282,-9.567398546288408e-06
0.0142941092387592,5.535934281514596e-05,0.0142941092387592,-0.000212190481715,0.0142941092387592,1.3299639558226554e-05,0.0142941092387592,-8.22461e-06
0.0150882264186903,-2.03033158185134e-05,0.0150882264186903,-0.0001518479393651,0.0150882264186903,1.012079512077735e-05,0.0150882264186903,-9.98198583243578e-06
0.0158823435986214,-0.0001223606473535,0.0158823435986214,8.542591454519914e-05,0.0158823435986214,2.201910126148056e-06,0.0158823435986214,-1.0001927800414043e-05
0.0166764607785524,-0.0001270812876476,0.0166764607785524,0.0003178950489353,0.0166764607785524,2.043857745245947e-06,0.0166764607785524,-8.22461e-06
0.0174705779584835,-4.870780779352683e-06,0.0174705779584835,0.0002952426591118,0.0174705779584835,1.5056744478575927e-05,0.0174705779584835,-9.389698121428416e-06
0.0182646951384146,0.0001046096011023,0.0182646951384146,0.0001042013730565,0.0182646951384146,2.3963151853537564e-05,0.0182646951384146,-1.1778798705958505e-05
0.0190588123183456,4.49942590784967e-05,0.0190588123183456,-3.9131153647526216e-05,0.0190588123183456,1.3753872541962971e-05,0.0190588123183456,-1.8710238278179254e-05
0.0198529294982767,-0.0001235910105323,0.0198529294982767,-0.0001102850099227,0.0198529294982767,6.091816386699584e-06,0.0198529294982767,-1.845345725456376e-05
0.0206470466782078,-0.0002140438867294,0.0206470466782078,-0.0001337763016034,0.0206470466782078,1.7478299028786585e-06,0.0206470466782078,-1.6636744424539445e-05
0.0214411638581389,-0.0002536797161476,0.0214411638581389,-0.0001306951087028,0.0214411638581389,-2.3004417388287934e-06,0.0214411638581389,-2.115879761162033e-05
0.0222352810380699,-0.0002184496839149,0.0222352810380699,-0.000138040853302,0.0222352810380699,-3.68279139858178e-06,0.0222352810380699,-2.2205441367869328e-05
0.023029398218001,-8.173467341165603e-05,0.023029398218001,-0.0001611058736648,0.023029398218001,1.5303068745426302e-06,0.023029398218001,-1.3714348665387834e-05
0.0238235153979321,0.0001428497061974,0.0238235153979321,-0.0001205063800616,0.0238235153979321,1.029763842618827e-05,0.0238235153979321,-1.4375628759127163e-05
0.0246176325778631,0.0003556323653359,0.0246176325778631,5.4605976228032125e-06,0.0246176325778631,2.0013562775980138e-05,0.0246176325778631,-1.5708734308608408e-05
0.0254117497577942,0.0004333382481426,0.0254117497577942,0.0001002846027296,0.0254117497577942,2.180061615374334e-05,0.0254117497577942,-1.2470141987613035e-05
0.0262058669377253,0.0003853802583273,0.0262058669377253,3.989996397690188e-05,0.0262058669377253,1.918447626647659e-05,0.0262058669377253,-1.1147197033309571e-05
0.0269999841176564,0.0002078010374248,0.0269999841176564,-3.776480610199141e-05,0.0269999841176564,1.5274368722269558e-05,0.0269999841176564,-1.2588642731442035e-05
0.0277941012975874,0.0001090517383458,0.0277941012975874,-4.7876436630850095e-05,0.0277941012975874,7.217361037243821e-06,0.0277941012975874,-1.837464475531833e-05
0.0285882184775185,0.0001113441476517,0.0285882184775185,-5.593251038522708e-05,0.0285882184775185,3.2679986520389814e-06,0.0285882184775185,-1.44654233893587e-05
0.0293823356574496,4.602626701569472e-05,0.0293823356574496,-8.531531365223893e-05,0.0293823356574496,5.657269092704515e-06,0.0293823356574496,-4.255618992300173e-06
0.0301764528373806,-0.0001213154715868,0.0301764528373806,-0.0001124085880067,0.0301764528373806,1.2519586123158565e-05,0.0301764528373806,-2.734957497352072e-06
0.0309705700173117,-0.0001971239960066,0.0309705700173117,-0.0001271706638129,0.0309705700173117,1.0456231458250676e-05,0.0309705700173117,-2.8140106818169105e-06
0.0317646871972428,-0.0001706252889042,0.0317646871972428,-9.736694593788031e-05,0.0317646871972428,2.705712776129188e-06,0.0317646871972428,-2.695263295105763e-06
0.0325588043771738,-0.0001484282091397,0.0325588043771738,2.2227135475388268e-05,0.0325588043771738,-5.242681631321882e-06,0.0325588043771738,-5.469881800129887e-06
0.0333529215571049,-0.0001312773092089,0.0333529215571049,0.0001779028870216,0.0333529215571049,-7.750636191138456e-06,0.0333529215571049,-3.7814917156066224e-06
0.034147038737036,-9.69108269707751e-05,0.034147038737036,0.0002657055820605,0.034147038737036,-4.541743621986025e-06,0.034147038737036,1.2141996653664486e-06
0.0349411559169671,-6.79400980834819e-05,0.0349411559169671,0.0001804868451371,0.0349411559169671,-8.22461e-06,0.0349411559169671,-5.032231981052327e-07
0.0357352730968981,-5.143092852293378e-05,0.0357352730968981,4.797575834603731e-05,0.0357352730968981,-8.22461e-06,0.0357352730968981,-9.725408313574237e-06
0.0365293902768292,-4.4638203552668416e-05,0.0365293902768292,-3.657667998714082e-05,0.0365293902768292,-8.22461e-06,0.0365293902768292,-1.3497024300651907e-05
0.0373235074567603,-3.255344765910042e-05,0.0373235074567603,-8.616537055294987e-05,0.0373235074567603,-9.251283938414732e-06,0.0373235074567603,-1.5293875702269874e-05
0.0381176246366913,-2.1099824300145417e-05,0.0381176246366913,-0.0001040860759743,0.0381176246366913,-1.357598376978666e-05,0.0381176246366913,-1.813759278657185e-05
0.0389117418166224,-4.388871082429919e-05,0.0389117418166224,-0.0001056461561353,0.0389117418166224,-1.561e-05,0.0389117418166224,-1.871024867127718e-05
0.0397058589965535,-7.812911656099222e-05,0.0397058589965535,-0.0001071966969363,0.0397058589965535,-1.280622208132296e-05,0.0397058589965535,-1.709110552033074e-05
0.0404999761764846,-5.925169338438655e-05,0.0404999761764846,-0.0001055771232472,0.0404999761764846,-9.903151541702176e-06,0.0404999761764846,-1.5945734361134783e-05
0.0412940933564156,-1.938136706591872e-05,0.0412940933564156,-7.530683967174237e-05,0.0412940933564156,-6.526340127561173e-06,0.0412940933564156,-1.4464663201938815e-05
0.0420882105363467,2.188747893053745e-05,0.0420882105363467,-2.6116590441089405e-05,0.0420882105363467,-2.85344e-06,0.0420882105363467,-1.6834127450497105e-05
0.0428823277162778,1.953243969180248e-05,0.0428823277162778,5.026083009163737e-07,0.0428823277162778,-5.617963708768551e-06,0.0428823277162778,-1.766366744222226e-05
0.0436764448962088,-4.977141741786805e-05,0.0436764448962088,1.6596735722156027e-05,0.0436764448962088,-5.104616147840345e-06,0.0436764448962088,-1.79599e-05
0.0444705620761399,-0.0001058920209386,0.0444705620761399,3.0084659497082235e-05,0.0444705620761399,-1.5108411318667009e-06,0.0444705620761399,-1.6399997863400105e-05
0.045264679256071,-0.0001194377931951,0.045264679256071,4.726347651751011e-05,0.045264679256071,-3.257524244646945e-07,0.045264679256071,-1.478069586997619e-05
0.046058796436002,-0.0001728329526683,0.046058796436002,4.939697867351026e-05,0.046058796436002,-8.39246e-07,0.046058796436002,-1.237157413234067e-05
0.0468529136159331,-0.0001740785188823,0.0468529136159331,8.395523894093184e-06,0.0468529136159331,5.124405748985655e-06,0.0468529136159331,-9.804360022338637e-06
0.0476470307958642,5.975269935121791e-06,0.0476470307958642,-2.7931948630890577e-05,0.0476470307958642,5.006450114682711e-06,0.0476470307958642,-8.649331592694554e-06
0.0484411479757953,0.0001883721791826,0.0484411479757953,-3.91676378675459e-05,0.0484411479757953,-1.115773726548513e-06,0.0484411479757953,-9.053787551699478e-06
0.0492352651557263,0.0002543306434329,0.0492352651557263,-4.793559931010913e-05,0.0492352651557263,2.399221058338839e-06,0.0492352651557263,-1.3891970622977655e-05
0.0500293823356574,0.0002220081905515,0.0500293823356574,-6.256709885210352e-05,0.0500293823356574,3.070737238879592e-06,0.0500293823356574,-1.6123440506700593e-05
0.0508234995155885,8.569978194740218e-05,0.0508234995155885,-6.983507663623316e-05,0.0508234995155885,2.2015795774505645e-06,0.0508234995155885,-1.809785512151348e-05
0.0516176166955195,-1.6585681668552986e-05,0.0516176166955195,-7.086183906215065e-05,0.0516176166955195,7.118638344528978e-06,0.0516176166955195,-2.179076234893584e-05
0.0524117338754506,-7.242276806337751e-05,0.0524117338754506,-7.781274172547274e-05,0.0524117338754506,1.2164199858742316e-05,0.0524117338754506,-1.8196797555533684e-05
0.0532058510553817,-9.211183677573884e-05,0.0532058510553817,-7.459427971299532e-05,0.0532058510553817,1.1403994403935554e-05,0.0532058510553817,-1.538269710904328e-05
0.0539999682353128,-5.7573880605376046e-05,0.0539999682353128,-7.972800977522271e-05,0.0539999682353128,8.896124536433552e-06,0.0539999682353128,-1.9302505283491032e-05
0.0547940854152438,-2.935394242430892e-05,0.0547940854152438,-7.978833106272609e-05,0.0547940854152438,5.460051025714165e-06,0.0547940854152438,-1.5728498622601622e-05
0.0555882025951749,3.619533389924249e-06,0.0555882025951749,-4.156055228903173e-05,0.0555882025951749,-3.250557365228936e-07,0.0555882025951749,-1.5767656814610892e-05
0.056382319775106,4.477522485203962e-05,0.056382319775106,1.1362042008542116e-05,0.056382319775106,-6.27961688708921e-06,0.056382319775106,-1.927292188130949e-05
0.057176436955037,4.487542702575148e-05,0.057176436955037,2.190937047070128e-05,0.057176436955037,-1.9452234004129377e-06,0.057176436955037,-1.8651116230213345e-05
0.0579705541349681,-5.3584119385230455e-06,0.0579705541349681,2.4792329996778624e-05,0.0579705541349681,5.904013776224156e-06,0.0579705541349681,-1.3280010905282392e-05
0.0587646713148992,-4.009679760397056e-05,0.0587646713148992,1.827778434011453e-05,0.0587646713148992,9.46854666277521e-06,0.0587646713148992,-1.1996246338156111e-05
0.0595587884948302,-1.4485846854028611e-05,0.0595587884948302,-6.960660460846511e-06,0.0595587884948302,1.1502527671016376e-05,0.0595587884948302,-8.461826398089319e-06
0.0603529056747613,3.9454463970141406e-05,0.0603529056747613,-9.943555369290266e-06,0.0603529056747613,1.572848250264793e-05,0.0603529056747613,-1.6686214008857594e-06
0.0611470228546924,3.516605863384298e-06,0.0611470228546924,5.203050657775882e-06,0.0611470228546924,8.89688424756467e-06,0.0611470228546924,-1.549829648946047e-06
0.0619411400346235,-0.0001323497469212,0.0619411400346235,-3.64009605268471e-06,0.0619411400346235,4.6411509511038e-07,0.0619411400346235,-5.6376121153925e-06
0.0627352572145545,-0.0001950892940546,0.0627352572145545,-4.266235965895737e-05,0.0627352572145545,-4.245503554645617e-07,0.0627352572145545,-7.987618713653617e-06
0.0635293743944856,-0.0002139872415321,0.0635293743944856,-6.57262965675716e-05,0.0635293743944856,-4.788455436182833e-06,0.0635293743944856,-8.185030365488382e-06
0.0643234915744167,-0.0002465297924645,0.0643234915744167,-8.408193332895115e-05,0.0643234915744167,-8.461414653333548e-06,0.0643234915744167,-1.1117395254097098e-05
0.0651176087543477,-0.0002158468559896,0.0651176087543477,-0.000100116737062,0.0651176087543477,-1.030791214916552e-05,0.0651176087543477,-1.1048490514536608e-05
0.0659117259342788,1.914564797472514e-05,0.0659117259342788,-0.0001074822948279,0.0659117259342788,-1.05745e-05,0.0659117259342788,-9.48842108518343e-06
0.0667058431142099,0.0003926729172817,0.0667058431142099,-5.459424020800124e-05,0.0667058431142099,-9.271352641630886e-06,0.0667058431142099,-1.5095872811169527e-05
0.067499960294141,0.0007457380651133,0.067499960294141,4.950990338575738e-05,0.067499960294141,-6.881963170541952e-06,0.067499960294141,-2.030962819432609e-05
0.068294077474072,0.0007475929000762,0.068294077474072,0.000124670506317,0.068294077474072,-9.211904500048257e-06,0.068294077474072,-1.831540138276704e-05
0.0690881946540031,0.0004478478145167,0.0690881946540031,9.959925280780204e-05,0.0690881946540031,-7.771202915914064e-06,0.0690881946540031,-1.600505918217464e-05
0.0698823118339342,0.0001621254710285,0.0698823118339342,2.471757155688966e-05,0.0698823118339342,4.668728991136994e-06,0.0698823118339342,-1.2411473324696112e-05
0.0706764290138652,-1.5762908496520176e-05,0.0706764290138652,-2.240935125684955e-06,0.0706764290138652,2.7941228996780382e-05,0.0706764290138652,-5.104806868202146e-06
0.0714705461937963,-0.000186726997283,0.0714705461937963,-9.76478956090193e-06,0.0714705461937963,4.738210454262072e-05,0.0714705461937963,2.319785549471716e-06
0.0722646633737274,-0.00032261106113,0.0722646633737274,-1.565035157031452e-05,0.0722646633737274,4.746306762141728e-05,0.0722646633737274,3.3478260038449416e-06
0.0730587805536585,-0.0003230129047281,0.0730587805536585,3.7020659358485143e-06,0.0730587805536585,2.8150352364068184e-05,0.0730587805536585,-5.874266894561028e-06
0.0738528977335895,-0.0002261529519961,0.0738528977335895,1.946206214693267e-05,0.0738528977335895,1.5570570524540973e-05,0.0738528977335895,-1.0317762382068194e-05
0.0746470149135206,-0.0001675069548892,0.0746470149135206,-6.979623223803889e-06,0.0746470149135206,8.936129480431003e-06,0.0746470149135206,-1.1818450468179918e-05
0.0754411320934517,-0.0001363445674524,0.0754411320934517,-3.954082498636543e-05,0.0754411320934517,4.0976765187159244e-06,0.0754411320934517,-1.219386755893619e-05
0.0762352492733827,-0.0001156187195144,0.0762352492733827,-6.181728458914777e-05,0.0762352492733827,1.4909544268562985e-06,0.0762352492733827,-1.2015989179857776e-05
0.0770293664533138,-9.824179644413976e-05,0.0770293664533138,-6.262909797177224e-05,0.0770293664533138,3.359410526646482e-07,0.0770293664533138,-1.5728340210239042e-05
0.0778234836332449,-8.408314366379095e-05,0.0778234836332449,-4.375034873934955e-05,0.0778234836332449,-7.473770838089166e-06,0.0778234836332449,-1.634059543647759e-05
0.078617600813176,-7.808962446122544e-05,0.078617600813176,-4.157668655770107e-05,0.078617600813176,-1.2015886096453454e-05,0.078617600813176,-1.66171e-05
0.079411717993107,-6.924276766057023e-05,0.079411717993107,-6.677272491457877e-05,0.079411717993107,-1.5837028665742375e-05,0.079411717993107,-1.62814e-05
0.0802058351730381,-8.349563649617869e-05,0.0802058351730381,-0.0001016260923325,0.0802058351730381,-1.9243679762931045e-05,0.0802058351730381,-1.806824556904704e-05
0.0809999523529692,-0.0001284023197905,0.0809999523529692,-0.0001156476919278,0.0809999523529692,-1.6449388991359148e-05,0.0809999523529692,-2.030967973091042e-05
0.0817940695329002,-0.0001441229460422,0.0817940695329002,-4.7607138994657045e-05,0.0817940695329002,-1.5037348781536794e-05,0.0817940695329002,-1.983589756307359e-05
0.0825881867128313,-0.0001186153725464,0.0825881867128313,7.832909256299723e-05,0.0825881867128313,-1.5007661762434156e-05,0.0825881867128313,-1.869067063588622e-05
0.0833823038927624,-6.083618948815088e-05,0.0833823038927624,0.0001446653002927,0.0833823038927624,-1.478079895338053e-05,0.0833823038927624,-1.912480104661947e-05
0.0841764210726934,1.6929742419618848e-05,0.0841764210726934,9.89283629781186e-05,0.0841764210726934,-1.2490056634988615e-05,0.0841764210726934,-2.086267168250569e-05
0.0849705382526245,9.421781216367864e-05,0.0849705382526245,1.8297014182390615e-05,0.0849705382526245,-1.0357489040704889e-05,0.0849705382526245,-1.6124067992918692e-05
0.0857646554325556,0.0001481693303856,0.0857646554325556,-4.293646553608414e-05,0.0857646554325556,-7.987807698018377e-06,0.0857646554325556,-1.05745e-05
0.0865587726124866,0.000149346822041,0.0865587726124866,-7.437636467114257e-05,0.0865587726124866,-6.585679071915007e-06,0.0865587726124866,-1.1838181856169986e-05
0.0873528897924177,0.000114759977096,0.0873528897924177,-8.05385622179101e-05,0.0873528897924177,-2.794288121118778e-06,0.0873528897924177,-1.1818587912719048e-05
0.0881470069723488,5.6672578552478144e-05,0.0881470069723488,-7.078347677836552e-05,0.0881470069723488,-3.8795572781135925e-06,0.0881470069723488,-1.3081936550639196e-05
0.0889411241522799,-1.5686270078916302e-05,0.0889411241522799,-5.036671385500977e-05,0.0889411241522799,-8.50119532648857e-06,0.0889411241522799,-1.4800664392174967e-05
0.0897352413322109,-4.460768975968767e-05,0.0897352413322109,-3.227714467037143e-05,0.0897352413322109,-5.499702314989326e-06,0.0897352413322109,-1.181862800070962e-05
0.090529358512142,-6.501535719034046e-05,0.090529358512142,-2.3410274494163295e-05,0.090529358512142,-2.4711087835390773e-07,0.090529358512142,-1.2973621631801756e-05
0.0913234756920731,-8.542600952348551e-05,0.0913234756920731,-2.4841463534920383e-05,0.0913234756920731,4.728935623423428e-06,0.0913234756920731,-1.1039135826747746e-05
0.0921175928720041,-6.432762734147483e-05,0.0921175928720041,-3.401371002407925e-05,0.0921175928720041,1.0179255246961591e-05,0.0921175928720041,-5.351676508859874e-06
0.0929117100519352,-2.4062341478662226e-05,0.0929117100519352,-4.28208425095428e-05,0.0929117100519352,1.1285491311822436e-05,0.0929117100519352,-6.842226924050736e-06
0.0937058272318663,1.2929403078031136e-06,0.0937058272318663,-5.8854538564948514e-05,0.0937058272318663,4.0589203046773165e-06,0.0937058272318663,-1.2292123525065483e-05
0.0944999444117974,-8.223247014291328e-06,0.0944999444117974,-8.610454349465197e-05,0.0944999444117974,-3.692178902744995e-06,0.0944999444117974,-1.2253160351962292e-05
0.0952940615917284,-7.3169289684942575e-06,0.0952940615917284,-0.0001084583420582,0.0952940615917284,-3.771716270981483e-06,0.0952940615917284,-1.300327294964444e-05
0.0960881787716595,-1.4044257753612433e-05,0.0960881787716595,-0.0001410792411577,0.0960881787716595,-5.923208708917072e-06,0.0960881787716595,-1.6912812686407614e-05
0.0968822959515906,-3.078444084043663e-05,0.0968822959515906,-0.0001486678526479,0.0968822959515906,-8.995043966199179e-06,0.0968822959515906,-1.93027e-05
0.0976764131315216,0.0001034752551064,0.0976764131315216,-5.381435555663059e-05,0.0976764131315216,-4.176796976071288e-06,0.0976764131315216,-1.7091259084823544e-05
0.0984705303114527,0.0002456342610652,0.0984705303114527,9.205699070400588e-05,0.0984705303114527,5.932907192544041e-06,0.0984705303114527,-1.0476230044579515e-05
0.0992646474913838,0.0002876063613113,0.0992646474913838,0.0001212450091255,0.0992646474913838,1.6833904103121026e-05,0.0992646474913838,-7.790005121584814e-06
0.1000587646713148,0.0002225602381274,0.1000587646713148,4.007202722754705e-05,0.1000587646713148,1.6102895784905924e-05,0.1000587646713148,-9.03438579033014e-06
0.1008528818512459,3.314545545141361e-05,0.1008528818512459,3.5599005410961185e-05,0.1008528818512459,1.3694534569734503e-05,0.1008528818512459,-6.309164118940309e-06
0.101646999031177,-7.35240556767951e-05,0.101646999031177,7.65637746585638e-05,0.101646999031177,1.6853893439854322e-05,0.101646999031177,-3.6237400870065615e-06
0.1024411162111081,-8.686178464961215e-05,0.1024411162111081,5.773789159973149e-05,0.1024411162111081,1.328258210335118e-05,0.1024411162111081,-4.747266538569137e-06
0.1032352333910391,-9.80135284533208e-05,0.1032352333910391,4.4843434889891776e-06,0.1032352333910391,3.6053713697604967e-06,0.1032352333910391,-1.1817361349510773e-05
0.1040293505709702,-8.077344872609629e-05,0.1040293505709702,-3.7913376993807226e-05,0.1040293505709702,-3.169469570480082e-06,0.1040293505709702,-1.529396572242612e-05
0.1048234677509013,-6.598270501340495e-05,0.1048234677509013,-7.477660884686196e-05,0.1048234677509013,1.4243768896037407e-06,0.1048234677509013,-1.344726956366636e-05
0.1056175849308323,-6.590757000927145e-05,0.1056175849308323,-7.43018334407552e-05,0.1056175849308323,5.855077915355302e-06,0.1056175849308323,-1.2608336233561992e-05
0.1064117021107634,-0.0001222220454607,0.1064117021107634,-4.375931630773314e-05,0.1064117021107634,4.927120531541054e-06,0.1064117021107634,-1.3714781063082109e-05
0.1072058192906945,-0.0001421026367811,0.1072058192906945,-1.635364791490628e-05,0.1072058192906945,7.21752e-06,0.1072058192906945,-1.474105059833912e-05
0.1079999364706256,-1.1258668599912542e-05,0.1079999364706256,5.537406867326624e-06,0.1079999364706256,8.895781172919234e-06,0.1079999364706256,-1.3595891531377622e-05
0.1087940536505566,9.464351810818307e-05,0.1087940536505566,1.033623232580616e-05,0.1087940536505566,1.353603428380105e-05,0.1087940536505566,-1.5688201425701574e-05
0.1095881708304877,8.792107357218312e-05,0.1095881708304877,5.535085312881686e-06,0.1095881708304877,1.2057123010926869e-05,0.1095881708304877,-1.6775588040977807e-05
0.1103822880104188,3.079485161893306e-05,0.1103822880104188,1.9993606523484397e-05,0.1103822880104188,7.416046456254646e-06,0.1103822880104188,-1.4406937794649494e-05
0.1111764051903498,-4.446723093140178e-06,0.1111764051903498,3.8119116635869296e-05,0.1111764051903498,9.27835179635403e-06,0.1111764051903498,-1.2095800499567884e-05
0.1119705223702809,3.664584914847029e-05,0.1119705223702809,1.1640491613255684e-05,0.1119705223702809,1.9142343937037874e-05,0.1119705223702809,-1.1226417340329124e-05
0.112764639550212,6.0613683569668064e-05,0.112764639550212,-3.901140832809208e-05,0.112764639550212,2.4239348478580532e-05,0.112764639550212,-1.0712696957161072e-05
0.1135587567301431,-5.339851411675792e-07,0.1135587567301431,-3.862416518741777e-05,0.1135587567301431,2.658966058396812e-05,0.1135587567301431,-1.2885064233587248e-05
0.1143528739100741,-8.298581854024144e-05,0.1143528739100741,-2.385820843851168e-06,0.1143528739100741,2.254127987440999e-05,0.1143528739100741,-1.168035726498531e-05
0.1151469910900052,-0.000126854241969,0.1151469910900052,-8.159864043197795e-06,0.1151469910900052,1.385360815703856e-05,0.1151469910900052,-4.118341683728669e-06
0.1159411082699363,-0.0001082751938166,0.1159411082699363,-5.121816979792769e-05,0.1159411082699363,8.00933652423999e-06,0.1159411082699363,-4.448369672692994e-07
0.1167352254498673,-7.189414454036972e-05,0.1167352254498673,-5.457351884205971e-05,0.1167352254498673,-2.155156188097487e-07,0.1167352254498673,3.752380391411183e-07
0.1175293426297984,-2.58944347489667e-05,0.1175293426297984,-3.4831426185458736e-05,0.1175293426297984,-8.7779476030632e-06,0.1175293426297984,-5.243279021139032e-06
0.1183234598097295,1.736312131028468e-05,0.1183234598097295,-3.822388936029559e-05,0.1183234598097295,-1.604653788764071e-05,0.1183234598097295,-1.0437726229905106e-05
0.1191175769896605,-2.359106444749671e-05,0.1191175769896605,-4.715595547259504e-05,0.1191175769896605,-2.260241268084225e-05,0.1191175769896605,-1.5888500976969057e-05
0.1199116941695916,-8.738092002363882e-05,0.1199116941695916,-4.492351634926002e-05,0.1199116941695916,-2.167171119517711e-05,0.1199116941695916,-1.741701372861583e-05
0.1207058113495227,-0.0001166352858498,0.1207058113495227,-4.761841127201135e-05,0.1207058113495227,-1.8947017225282883e-05,0.1207058113495227,-2.0033475871266928e-05
0.1214999285294538,-9.450254958879433e-05,0.1214999285294538,-4.54875160577288e-05,0.1214999285294538,-1.4267663377599235e-05,0.1214999285294538,-2.030990297279983e-05
0.1222940457093848,-4.652308405095068e-05,0.1222940457093848,-3.730973654010398e-05,0.1222940457093848,-1.35958e-05,0.1222940457093848,-1.6252654327144526e-05
0.1230881628893159,7.82695544524e-06,0.1230881628893159,-2.6465977952051955e-05,0.1230881628893159,-1.2351816918651151e-05,0.1230881628893159,-1.5658429091985896e-05
0.123882280069247,0.0001067025891488,0.123882280069247,3.5243695166699264e-06,0.123882280069247,-1.4205806956394749e-05,0.123882280069247,-1.7663386708056392e-05
0.124676397249178,0.0001741990288286,0.124676397249178,3.269225642329956e-06,0.124676397249178,-1.7386176451065076e-05,0.124676397249178,-1.7683705887233732e-05
0.1254705144291091,0.0001647279038346,0.1254705144291091,-2.947872222858808e-05,0.1254705144291091,-1.365655829963233e-05,0.1254705144291091,-1.6814156827373e-05
0.1262646316090402,0.0001057962955473,0.1262646316090402,-5.368283078780352e-05,0.1262646316090402,-8.027266544912721e-06,0.1262646316090402,-1.938167710548241e-05
0.1270587487889713,2.470324145694388e-05,0.1270587487889713,-6.296124554726286e-05,0.1270587487889713,1.749222201300998e-06,0.1270587487889713,-1.805826808110037e-05
0.1278528659689023,-2.267881460195317e-05,0.1278528659689023,-5.452129680340231e-05,0.1278528659689023,7.829666439184028e-06,0.1278528659689023,-1.440547672464066e-05
0.1286469831488334,-1.647446136681906e-05,0.1286469831488334,-2.010748133260943e-05,0.1286469831488334,4.690874514041212e-06,0.1286469831488334,-1.5214282031197958e-05
0.1294411003287645,1.049624182696407e-05,0.1294411003287645,-4.486866791442979e-06,0.1294411003287645,-1.5595517223991868e-06,0.1294411003287645,-1.8967e-05
0.1302352175086955,2.502511855293848e-07,0.1302352175086955,-4.441702598164054e-05,0.1302352175086955,3.445438222649115e-07,0.1302352175086955,-1.8582040477727265e-05
0.1310293346886266,-2.8013376641836844e-05,0.1310293346886266,-7.54811449334268e-05,0.1310293346886266,6.526431394729464e-06,0.1310293346886266,-1.7426817092094196e-05
0.1318234518685577,-9.291657026104668e-05,0.1318234518685577,-4.655440491295983e-05,0.1318234518685577,1.68618282658765e-06,0.1318234518685577,-1.821551964394042e-05
0.1326175690484888,-0.0001396323507776,0.1326175690484888,-4.69451843883564e-07,0.1326175690484888,-4.553266088023603e-06,0.1326175690484888,-1.3317356353168116e-05
0.1334116862284198,-0.0002027113401293,0.1334116862284198,2.7310498550940248e-06,0.1334116862284198,-5.518882586624437e-06,0.1334116862284198,-9.56741e-06
0.1342058034083509,-0.000269673173598,0.1342058034083509,-2.8082219300838875e-05,0.1342058034083509,-2.063336769383697e-06,0.1342058034083509,-8.698483530393949e-06
0.134999920588282,-0.0001770952445195,0.134999920588282,-1.561267097258776e-05,0.134999920588282,1.8459967592084103e-06,0.134999920588282,-5.036023464146454e-06
0.135794037768213,3.345661929835992e-06,0.135794037768213,3.843540919337125e-05,0.135794037768213,7.847425359768798e-06,0.135794037768213,5.816767531312685e-07
0.1365881549481441,0.0001439263120184,0.1365881549481441,7.541457937457293e-05,0.1365881549481441,1.3416709239896605e-05,0.1365881549481441,6.229383620139411e-07
0.1373822721280752,0.0002708318557752,0.1373822721280752,8.355958543139247e-05,0.1373822721280752,1.6754227576936702e-05,0.1373822721280752,-3.0764452535762056e-07
0.1381763893080062,0.0002983063533221,0.1381763893080062,4.977892915688333e-05,0.1381763893080062,1.9863454076605583e-05,0.1381763893080062,1.17494e-06
0.1389705064879373,0.0002892299351716,0.1389705064879373,4.074626430458902e-06,0.1389705064879373,1.815938156221465e-05,0.1389705064879373,4.244879442066195e-07
0.1397646236678684,0.0002086808613532,0.1397646236678684,-3.069805623592704e-05,0.1397646236678684,5.480156827592679e-06,0.1397646236678684,-2.971605913390868e-06
0.1405587408477994,3.9335291551977726e-05,0.1405587408477994,-6.346305172678853e-05,0.1405587408477994,-4.276099573775636e-06,0.1405587408477994,-1.356743321161166e-05
0.1413528580277305,-4.5545041822134486e-05,0.1413528580277305,-9.308938113184312e-05,0.1413528580277305,1.47752306327192e-07,0.1413528580277305,-1.2825831449151234e-05
0.1421469752076616,-8.834535150024178e-05,0.1421469752076616,-0.0001072167169602,0.1421469752076616,1.4482772334176905e-05,0.1421469752076616,-1.0949077125316338e-05
0.1429410923875927,-0.0001853798012834,0.1429410923875927,-9.14728509018853e-05,0.1429410923875927,1.8394946567349144e-05,0.1429410923875927,-1.4286758955945948e-05
0.1437352095675237,-0.0002473985094035,0.1437352095675237,-6.447106825202175e-05,0.1437352095675237,1.574884911822662e-05,0.1437352095675237,-1.3961340579350411e-05
0.1445293267474548,-0.0001444823120095,0.1445293267474548,-4.4556885109868616e-05,0.1445293267474548,1.015960491669991e-05,0.1445293267474548,-1.2608400046692743e-05
0.1453234439273859,-3.580741775712848e-05,0.1453234439273859,-4.762321765004848e-05,0.1453234439273859,6.742389985089448e-06,0.1453234439273859,-1.5137423257105236e-05
0.146117561107317,-5.156410771417056e-05,0.146117561107317,-8.286214801998728e-05,0.146117561107317,-8.032188822375799e-07,0.146117561107317,-1.9402591790016983e-05
0.146911678287248,-6.272301685366377e-05,0.146911678287248,-8.918454845326638e-05,0.146911678287248,-8.857588896184826e-06,0.146911678287248,-2.283800954483073e-05
0.1477057954671791,-3.814047243379526e-05,0.1477057954671791,2.335873819919008e-06,0.1477057954671791,-8.105952927523466e-06,0.1477057954671791,-2.293599941122277e-05
0.1484999126471102,-1.2256209300182004e-05,0.1484999126471102,0.0001394676315634,0.1484999126471102,-2.85406927447198e-06,0.1484999126471102,-2.2323837090923155e-05
0.1492940298270412,6.501054036791151e-05,0.1492940298270412,0.0001907385133425,0.1492940298270412,7.727671964381615e-06,0.1492940298270412,-2.003393451236343e-05
0.1500881470069723,0.0001540935093774,0.1500881470069723,0.0001044145834672,0.1500881470069723,1.8787874841814403e-05,0.1500881470069723,-1.7821904193030932e-05
0.1508822641869034,0.0001733824762624,0.1508822641869034,-1.0452498345277527e-05,0.1508822641869034,1.5615420885507434e-05,0.1508822641869034,-1.6796099031884103e-05
0.1516763813668344,0.0001364658105806,0.1516763813668344,-7.675570937742387e-05,0.1516763813668344,7.812689740695307e-06,0.1516763813668344,-1.4505269314623756e-05
0.1524704985467655,4.520137681421812e-05,0.1524704985467655,-0.0001053221881623,0.1524704985467655,6.812481251553219e-06,0.1524704985467655,-1.201708082608498e-05
0.1532646157266966,-6.890361036908457e-05,0.1532646157266966,-0.000102495587116,0.1532646157266966,2.02448943966282e-06,0.1532646157266966,-1.0653262047227745e-05
0.1540587329066277,-0.0001313122921859,0.1540587329066277,-7.403405432639922e-05,0.1540587329066277,-9.173710114217476e-06,0.1540587329066277,-1.641040370445581e-05
0.1548528500865587,-0.0001330065013933,0.1548528500865587,-4.9106892472035456e-05,0.1548528500865587,-1.577761964943405e-05,0.1548528500865587,-1.653822823593781e-05
0.1556469672664898,-0.0001073619053724,0.1556469672664898,-3.5750966294545595e-05,0.1556469672664898,-1.7150704848510687e-05,0.1556469672664898,-1.4740695151489312e-05
0.1564410844464209,-6.686767315223718e-05,0.1564410844464209,-3.549620564480473e-05,0.1564410844464209,-1.564910644586452e-05,0.1564410844464209,-1.6913693554135484e-05
0.157235201626352,-2.525428050762029e-05,0.157235201626352,-4.252296642670872e-05,0.157235201626352,-1.7564413797922322e-05,0.157235201626352,-1.4228577923324288e-05
0.158029318806283,1.389326053809161e-05,0.158029318806283,-4.920986722306584e-05,0.158029318806283,-1.9282988511885048e-05,0.158029318806283,-1.071263629872827e-05
0.1588234359862141,4.945984208630202e-05,0.1588234359862141,-4.781925445273721e-05,0.1588234359862141,-1.3828432738019472e-05,0.1588234359862141,-6.466121502908317e-06
0.1596175531661451,3.8149621473001415e-05,0.1596175531661451,-3.0030825769403044e-05,0.1596175531661451,3.945507440583296e-06,0.1596175531661451,-1.8644027411984043e-06
0.1604116703460762,-3.809465167307094e-05,0.1604116703460762,-4.427249406419325e-06,0.1604116703460762,1.725724533505468e-06,0.1604116703460762,-3.683929785488903e-06
0.1612057875260073,-6.098804693673131e-05,0.1612057875260073,-6.917549588628306e-06,0.1612057875260073,-3.504970560237865e-06,0.1612057875260073,-8.619617075102492e-06
0.1619999047059384,-4.5824447564797446e-05,0.1619999047059384,-3.5258778454226262e-06,0.1619999047059384,-1.84634e-06,0.1619999047059384,-1.0238662704978482e-05
0.1627940218858694,-3.760997233325461e-05,0.1627940218858694,-6.236159610777758e-06,0.1627940218858694,-7.334611641590828e-06,0.1627940218858694,-1.424637447226814e-05
0.1635881390658005,-4.068240081766419e-05,0.1635881390658005,-2.877588607355318e-05,0.1635881390658005,-1.02388e-05,0.1635881390658005,-1.8314150369776853e-05
0.1643822562457316,-5.439432196393893e-05,0.1643822562457316,-3.679832264324607e-05,0.1643822562457316,-7.044018716403477e-06,0.1643822562457316,-1.9146021963938927e-05
0.1651763734256627,-4.229925158448514e-05,0.1651763734256627,-4.1064748871086e-05,0.1651763734256627,-1.2559062817076888e-06,0.1651763734256627,-1.713136914810107e-05
0.1659704906055937,-1.95632417202042e-05,0.1659704906055937,-4.769428376337888e-05,0.1659704906055937,2.161289615943668e-06,0.1659704906055937,-1.561e-05
0.1667646077855248,-9.094616378626146e-06,0.1667646077855248,-7.611611954684077e-05,0.1667646077855248,3.86053e-06,0.1667646077855248,-1.9262979546792854e-05
0.1675587249654559,2.929962565359164e-05,0.1675587249654559,-0.0001393931792337,0.1675587249654559,3.228521043962516e-06,0.1675587249654559,-2.16329091847388e-05
0.1683528421453869,9.477230740318562e-05,0.1683528421453869,-0.0001858942923186,0.1683528421453869,2.912695690100645e-06,0.1683528421453869,-1.926326079912101e-05
0.169146959325318,0.0001360248872621,0.169146959325318,-0.0001219566577299,0.169146959325318,4.235038329151837e-06,0.169146959325318,-1.7921091670848162e-05
0.1699410765052491,0.0001148230720432,0.1699410765052491,5.258828302838652e-05,0.1699410765052491,1.0096887981202728e-05,0.1699410765052491,-1.4821315060488704e-05
0.1707351936851801,4.933047267450387e-05,0.1707351936851801,0.0001830218424246,0.1707351936851801,2.300208035081071e-05,0.1707351936851801,-9.460347618851014e-06
0.1715293108651112,1.309192058904896e-05,0.1715293108651112,0.0001368193881012,0.1715293108651112,3.67986509580086e-05,0.1715293108651112,-1.7475240183733769e-06
0.1723234280450423,1.472636344879978e-05,0.1723234280450423,5.920166000632165e-05,0.1723234280450423,3.501875943138927e-05,0.1723234280450423,-1.6887800947684552e-06
0.1731175452249733,3.638104889821434e-05,0.1731175452249733,7.381691802524766e-05,0.1731175452249733,2.3820869521516305e-05,0.1731175452249733,-2.3695464171789595e-06
0.1739116624049044,3.272733557613204e-05,0.1739116624049044,8.144403676839677e-05,0.1739116624049044,1.1658673871173034e-05,0.1739116624049044,-3.0510066007019988e-06
0.1747057795848355,9.705254478557377e-06,0.1747057795848355,2.9912420053641905e-05,0.1747057795848355,1.7277749495508891e-06,0.1747057795848355,-7.69160465343561e-06
0.1754998967647666,-1.0907522720496896e-05,0.1754998967647666,2.097993128075313e-05,0.1754998967647666,-8.390972621759827e-07,0.1754998967647666,-1.493778193831258e-05
0.1762940139446976,-6.539138687159621e-05,0.1762940139446976,6.64979851546356e-05,0.1762940139446976,-2.062281898396928e-06,0.1762940139446976,-1.570889509411826e-05
0.1770881311246287,-0.0001400326102554,0.1770881311246287,4.812979197467663e-05,0.1770881311246287,-6.1506886818833005e-06,0.1770881311246287,-1.440518434094165e-05
0.1778822483045598,-0.0001788154643201,0.1778822483045598,-1.371161504357022e-05,0.1778822483045598,-4.780916622620065e-06,0.1778822483045598,-1.4219605065142448e-05
0.1786763654844909,-0.0002155904377318,0.1786763654844909,-3.235528385933924e-05,0.1786763654844909,-6.440775646794367e-07,0.1786763654844909,-1.0379330160625015e-05
0.1794704826644219,-0.0001435352361455,0.1794704826644219,-3.705013487527611e-05,0.1794704826644219,2.240316357679628e-06,0.1794704826644219,-7.514364384207811e-06
0.180264599844353,3.145926686779689e-05,0.180264599844353,-4.856775368714114e-05,0.180264599844353,2.5575081004383707e-06,0.180264599844353,-4.452975777361997e-06
0.181058717024284,9.635659216043388e-05,0.181058717024284,-5.261446428906344e-05,0.181058717024284,-4.236483066683822e-06,0.181058717024284,-5.460243806900365e-06
0.1818528342042151,5.303311288217996e-05,0.1818528342042151,-5.838082939138763e-05,0.1818528342042151,-9.330375773570016e-06,0.1818528342042151,-8.22461e-06
0.1826469513841462,-1.458451004469656e-05,0.1826469513841462,-6.197625132420651e-05,0.1826469513841462,-5.934924951076769e-06,0.1826469513841462,-7.591990405233368e-06
0.1834410685640773,-6.440137109000587e-05,0.1834410685640773,-7.127772792401869e-05,0.1834410685640773,-2.6971064686689643e-06,0.1834410685640773,-1.2350708784524205e-05
0.1842351857440083,-7.291698843414651e-06,0.1842351857440083,-7.035070803943118e-05,0.1842351857440083,3.937596039307207e-06,0.1842351857440083,-1.187876945470195e-05
0.1850293029239394,3.22075038689526e-05,0.1850293029239394,-6.489911316480114e-05,0.1850293029239394,7.928383447989983e-06,0.1850293029239394,-8.066627185479664e-06
0.1858234201038705,5.036954950250071e-05,0.1858234201038705,-7.19631297646877e-05,0.1858234201038705,5.206962438865178e-07,0.1858234201038705,-8.857179785720232e-06
0.1866175372838016,6.503932148942559e-05,0.1866175372838016,-8.105014430455946e-05,0.1866175372838016,-9.01695239927963e-06,0.1866175372838016,-1.2017088595770232e-05
0.1874116544637326,7.263048142089237e-05,0.1874116544637326,-8.56336031297213e-05,0.1874116544637326,-1.02388e-05,0.1874116544637326,-1.2450560867688282e-05
0.1882057716436637,6.021816546808611e-05,0.1882057716436637,-8.784624056904145e-05,0.1882057716436637,-1.0436280605496412e-05,0.1882057716436637,-1.572852242198565e-05
0.1889998888235948,2.904262528351188e-05,0.1889998888235948,-7.80517696915218e-05,0.1889998888235948,-8.22525071725756e-06,0.1889998888235948,-1.829543982008917e-05
0.1897940060035258,6.983536050053075e-06,0.1897940060035258,-6.290072827927507e-05,0.1897940060035258,2.041326431342829e-06,0.1897940060035258,-1.6341303308527872e-05
0.1905881231834569,6.5688749252166764e-06,0.1905881231834569,-7.187252091376547e-05,0.1905881231834569,5.4010513920720585e-06,0.1905881231834569,-1.3991242784144116e-05
0.191382240363388,-1.4073843166638887e-05,0.191382240363388,-9.305728655089576e-05,0.191382240363388,5.734819048479931e-06,0.191382240363388,-1.35958e-05
0.192176357543319,-3.2695855278404554e-05,0.192176357543319,-5.047700169214483e-05,0.192176357543319,8.322173810286287e-06,0.192176357543319,-1.3181510603400252e-05
0.1929704747232501,-2.864678887191682e-05,0.1929704747232501,7.445349450982862e-05,0.1929704747232501,6.862405988862332e-06,0.1929704747232501,-1.2411142994431166e-05
0.1937645919031812,-6.962453632336753e-06,0.1937645919031812,0.000178167371221,0.1937645919031812,7.474271498073101e-06,0.1937645919031812,-1.557018801541519e-05
0.1945587090831123,6.907186158192629e-07,0.1945587090831123,0.0001509310155253,0.1945587090831123,7.533517718711384e-06,0.1945587090831123,-1.825619543742277e-05
0.1953528262630433,-3.266896453245876e-05,0.1953528262630433,4.575238733377358e-05,0.1953528262630433,4.058529939736936e-06,0.1953528262630433,-1.8947131461313935e-05
0.1961469434429744,-5.111224495428674e-05,0.1961469434429744,-2.538990361224261e-06,0.1961469434429744,4.2393006592409355e-07,0.1961469434429744,-1.8177243411168787e-05
0.1969410606229055,-7.532423027286665e-05,0.1969410606229055,-1.6719815676202773e-05,0.1969410606229055,2.3614524490147074e-06,0.1969410606229055,-1.920317899336336e-05
0.1977351778028366,-9.21288969720278e-05,0.1977351778028366,-4.147173714557e-05,0.1977351778028366,-1.1941845108342297e-06,0.1977351778028366,-2.0566385597451168e-05
0.1985292949827676,-6.960801897591111e-05,0.1985292949827676,-5.214247207267976e-05,0.1985292949827676,-2.162294187618446e-06,0.1985292949827676,-1.9677891624763108e-05
0.1993234121626987,-3.6750353553637246e-05,0.1993234121626987,-5.417554031349608e-05,0.1993234121626987,-6.310816366670827e-06,0.1993234121626987,-1.9323211541003784e-05
0.2001175293426297,-9.365013539762764e-06,0.2001175293426297,-5.922774144374507e-05,0.2001175293426297,-1.1681354197687983e-05,0.2001175293426297,-2.09812e-05
0.2009116465225608,-4.826009948406826e-05,0.2009116465225608,-8.803038365553728e-05,0.2009116465225608,-1.065323459597628e-05,0.2009116465225608,-1.8848179461301708e-05
0.2017057637024919,-8.871325337783121e-05,0.2017057637024919,-0.0001281501311198,0.2017057637024919,-8.994744569734504e-06,0.2017057637024919,-1.5590258011858475e-05
0.202499880882423,-0.0001193355939024,0.202499880882423,-0.0001357906164736,0.202499880882423,-1.0909770949223476e-05,0.202499880882423,-1.2924657431999616e-05
0.203293998062354,-0.0001851385831148,0.203293998062354,-5.175185849005233e-05,0.203293998062354,-1.15816e-05,0.203293998062354,-1.344742542839034e-05
0.2040881152422851,-0.0001593870201193,0.2040881152422851,8.031527657457541e-05,0.2040881152422851,-6.058346206987807e-06,0.2040881152422851,-1.033984823577693e-05
0.2048822324222162,2.3504796976460745e-05,0.2048822324222162,0.0001270236498528,0.2048822324222162,9.718207343168357e-06,0.2048822324222162,-6.014659616417935e-06
0.2056763496021472,0.0002700351011431,0.2056763496021472,6.533469341220268e-05,0.2056763496021472,1.898345767349632e-05,0.2056763496021472,-3.4272990723876508e-06
0.2064704667820783,0.0005156004625487,0.2064704667820783,-8.512371971821931e-06,0.2064704667820783,2.0606694860569043e-05,0.2064704667820783,-8.00439620657108e-07
0.2072645839620094,0.0005742450237783,0.2072645839620094,-4.885383894204345e-05,0.2072645839620094,1.6400200531489436e-05,0.2072645839620094,5.330530717697531e-07
0.2080587011419405,0.0003419688302717,0.2080587011419405,-6.888987927971113e-05,0.2080587011419405,1.2706948085813834e-05,0.2080587011419405,2.269725145419222e-07
0.2088528183218715,0.0001207958022425,0.2088528183218715,-6.987986858231329e-05,0.2088528183218715,7.06000226163531e-06,0.2088528183218715,-3.6035906345767335e-06
0.2096469355018026,-2.237085248894328e-06,0.2096469355018026,-5.511278089430301e-05,0.2096469355018026,7.137870753592908e-06,0.2096469355018026,-6.348123423270057e-06
0.2104410526817337,-0.0001020270722154,0.2104410526817337,-4.424191296373086e-05,0.2104410526817337,8.954600290854227e-06,0.2104410526817337,-9.961690872632328e-06
0.2112351698616647,-0.0001914761723403,0.2112351698616647,-4.04517e-05,0.2112351698616647,9.774817704760055e-06,0.2112351698616647,-1.1166779876740043e-05
0.2120292870415958,-0.0002161996768281,0.2120292870415958,-6.283978729789776e-05,0.2120292870415958,9.863590786662008e-06,0.2120292870415958,-9.804405094043608e-06
0.2128234042215269,-0.0001697857672992,0.2128234042215269,-8.925558413283649e-05,0.2128234042215269,1.308201139163142e-05,0.2128234042215269,-8.580785448406225e-06
0.2136175214014579,-0.0001445548703062,0.2136175214014579,-6.652935274399767e-05,0.2136175214014579,8.992939195806728e-06,0.2136175214014579,-1.083153993320191e-05
0.214411638581389,-0.0001675079224123,0.214411638581389,-4.813571205722393e-06,0.214411638581389,1.1678551839299245e-07,0.214411638581389,-1.0555151123603752e-05
0.2152057557613201,-0.0001724208780958,0.2152057557613201,5.975848953485042e-05,0.2152057557613201,-1.122608836720775e-05,0.2152057557613201,-1.5353217203928526e-05
0.2159998729412512,-0.0001290843294371,0.2159998729412512,5.724079137189732e-05,0.2159998729412512,-1.2588974594132868e-05,0.2159998729412512,-2.0309159280356643e-05
0.2167939901211822,-9.521247210423131e-05,0.2167939901211822,2.4531103670336217e-05,0.2167939901211822,-1.324959224169714e-05,0.2167939901211822,-2.050762458631876e-05
0.2175881073011133,-0.0001440499585566,0.2175881073011133,6.09731036586255e-06,0.2175881073011133,-1.6635535709502623e-05,0.2175881073011133,-2.09306315893802e-05
0.2183822244810444,-0.0002208804900135,0.2183822244810444,-4.846307779205431e-05,0.2183822244810444,-1.667042019554413e-05,0.2183822244810444,-2.293658596514868e-05
0.2191763416609755,-0.0003090665694903,0.2191763416609755,-9.7895700760749e-05,0.2191763416609755,-9.117797209387428e-06,0.2191763416609755,-2.235368183502621e-05
0.2199704588409065,-0.0002498626265273,0.2199704588409065,-8.256917799159209e-05,0.2199704588409065,-5.697179724669702e-06,0.2199704588409065,-2.2462716195723406e-05
0.2207645760208376,-3.221627930510592e-05,0.2207645760208376,-3.816143620470238e-05,0.2207645760208376,-6.190468242018825e-06,0.2207645760208376,-1.8463846742793776e-05
0.2215586932007686,0.0001665474692581,0.2215586932007686,-3.286033205755716e-05,0.2215586932007686,-6.5855474946320674e-06,0.2215586932007686,-1.5017454989264135e-05
0.2223528103806997,0.0003771764663293,0.2223528103806997,-5.9963284087847297e-05,0.2223528103806997,-6.960548438719479e-06,0.2223528103806997,-1.461281912318193e-05
0.2231469275606308,0.0005179092554491,0.2231469275606308,-1.811331232751111e-05,0.2231469275606308,-1.0386154650097118e-05,0.2231469275606308,-1.564867073682291e-05
0.2239410447405619,0.0004478313788962,0.2239410447405619,8.478532934680641e-05,0.2239410447405619,-1.0636857353122629e-05,0.2239410447405619,-1.892795088427257e-05
0.2247351619204929,0.0002439152646807,0.2247351619204929,0.0001309981281816,0.2247351619204929,-1.8486807477947527e-06,0.2247351619204929,-1.675615506382624e-05
0.225529279100424,8.833992413089793e-05,0.225529279100424,4.772487185280746e-05,0.225529279100424,4.768787112750055e-06,0.225529279100424,-1.3220631036457914e-05
0.2263233962803551,1.1608702765880664e-05,0.2263233962803551,-8.568470822113776e-06,0.2263233962803551,1.497024126223645e-05,0.2263233962803551,-8.519427751379974e-06
0.2271175134602862,-5.100437962128142e-05,0.2271175134602862,2.7548590454846157e-05,0.2271175134602862,2.2325251844259328e-05,0.2271175134602862,-3.721508832063754e-06
0.2279116306402172,-8.01441113610602e-05,0.2279116306402172,3.130570601613137e-05,0.2279116306402172,2.5068887337294318e-05,0.2279116306402172,-3.9199173372943135e-06
0.2287057478201483,-9.773670839357904e-05,0.2287057478201483,-2.1025157958814224e-05,0.2287057478201483,2.641149241482835e-05,0.2287057478201483,-3.722276207414173e-06
0.2294998650000794,-0.0001404829006264,0.2294998650000794,-6.797182707063374e-05,0.2294998650000794,2.8030605495822543e-05,0.2294998650000794,-6.209836490364635e-06
0.2302939821800104,-0.000150005826163,0.2302939821800104,-8.950609513719027e-05,0.2302939821800104,1.8556485135783305e-05,0.2302939821800104,-1.0829204658715757e-05
0.2310880993599415,-0.0001718338288755,0.2310880993599415,-7.779625662636146e-05,0.2310880993599415,5.465394151254401e-06,0.2310880993599415,-1.561e-05
0.2318822165398726,-0.0001735476854211,0.2318822165398726,-3.547956483531631e-05,0.2318822165398726,-2.6185956358877788e-06,0.2318822165398726,-1.247127746815976e-05
0.2326763337198036,-8.25368356304859e-05,0.2326763337198036,-7.338887315721852e-06,0.2326763337198036,3.855256157807602e-06,0.2326763337198036,-1.15816e-05
0.2334704508997347,4.229271630472758e-05,0.2334704508997347,-3.367833903339863e-05,0.2334704508997347,9.23171e-06,0.2334704508997347,-1.0555120313128936e-05
0.2342645680796658,0.0001044909981228,0.2342645680796658,-5.950782465462092e-05,0.2342645680796658,6.743934312484703e-06,0.2342645680796658,-1.2213050718348856e-05
0.2350586852595969,8.401171737041363e-05,0.2350586852595969,-3.724881676893368e-05,0.2350586852595969,5.835281626754328e-06,0.2350586852595969,-1.4583180519670278e-05
0.2358528024395279,2.317951444761235e-05,0.2358528024395279,-9.531480871784606e-06,0.2358528024395279,6.309039909460375e-06,0.2358528024395279,-8.472161136628749e-06
0.236646919619459,-3.7710415794749925e-05,0.236646919619459,-1.0170136207087295e-05,0.236646919619459,6.980841220419805e-06,0.236646919619459,-5.104308779580195e-06
0.2374410367993901,-9.75126516736318e-05,0.2374410367993901,-2.0349108921796585e-05,0.2374410367993901,3.753177044761403e-06,0.2374410367993901,-8.263647649700053e-06
0.2382351539793211,-9.235568058240038e-05,0.2382351539793211,-1.3559974183278183e-05,0.2382351539793211,1.3727689117053603e-06,0.2382351539793211,-8.639441564682144e-06
0.2390292711592522,-2.7312093066714022e-05,0.2390292711592522,-2.2633900914574243e-05,0.2390292711592522,-1.87587491882788e-06,0.2390292711592522,-9.883325157962155e-06
0.2398233883391833,3.2897599418885696e-05,0.2398233883391833,-6.483191732088692e-05,0.2398233883391833,-5.128138530091246e-07,0.2398233883391833,-9.32073714205098e-06
0.2406175055191144,6.548606562883581e-05,0.2406175055191144,-0.0001007159593057,0.2406175055191144,-3.265114869658771e-07,0.2406175055191144,-1.1068864424505334e-05
0.2414116226990454,-1.0008501419388652e-06,0.2414116226990454,-8.728563778230555e-05,0.2414116226990454,-3.979285858174707e-06,0.2414116226990454,-1.410962761380074e-05
0.2422057398789765,-0.0001090208413568,0.2422057398789765,-9.388156252269868e-06,0.2422057398789765,-4.86763e-06,0.2422057398789765,-1.4464634741386756e-05
0.2429998570589076,-0.0001574366155023,0.2429998570589076,6.695969566749698e-05,0.2429998570589076,-4.86763e-06,0.2429998570589076,-1.560979405440034e-05
0.2437939742388386,-0.0001845182731978,0.2437939742388386,5.153589999428514e-05,0.2437939742388386,-1.2349392686728467e-06,0.2437939742388386,-1.2846542555120777e-05
0.2445880914187697,-0.0001653643978558,0.2445880914187697,-1.5303032698439166e-06,0.2445880914187697,-3.863002804694997e-07,0.2445880914187697,-1.02388e-05
0.2453822085987008,-6.345421184668992e-05,0.2453822085987008,-2.4949928676734137e-05,0.2453822085987008,5.48781722400381e-07,0.2453822085987008,-1.1816410665598212e-05
0.2461763257786318,7.233814021234885e-05,0.2461763257786318,-1.3079488313791664e-05,0.2461763257786318,-9.442915223335483e-06,0.2461763257786318,-1.4700370505465414e-05
0.2469704429585629,0.0001733044359541,0.2469704429585629,-3.3283505195977765e-06,0.2469704429585629,-1.0516400552128875e-05,0.2469704429585629,-1.4701327626464184e-05
0.247764560138494,0.0002301382925,0.247764560138494,-2.3369104946758257e-05,0.247764560138494,-7.987835493828439e-06,0.247764560138494,-1.806825142216841e-05
0.2485586773184251,0.0002257756875904,0.2485586773184251,-5.613942867459399e-05,0.2485586773184251,-6.901545213343431e-06,0.2485586773184251,-1.849299075793789e-05
0.2493527944983561,0.0001176972206882,0.2493527944983561,-4.763192893980094e-05,0.2493527944983561,-6.88182e-06,0.2493527944983561,-1.995416266514944e-05
0.2501469116782872,-1.4360236609257287e-05,0.2501469116782872,-2.07926591559471e-05,0.2501469116782872,-8.806627798717361e-06,0.2501469116782872,-1.9500765372894443e-05
0.2509410288582183,-7.178110358818887e-05,0.2509410288582183,-2.9713119732649768e-05,0.2509410288582183,-8.107532030248096e-06,0.2509410288582183,-1.612529526530977e-05
0.2517351460381494,-2.131797280742948e-05,0.2517351460381494,-5.811752794893701e-05,0.2517351460381494,-4.671051354978241e-06,0.2517351460381494,-1.1543298283145862e-05
0.2525292632180804,6.436244489911246e-05,0.2525292632180804,-5.6800369183223006e-05,0.2525292632180804,-1.9550044725879315e-06,0.2525292632180804,-1.1127316212280536e-05
0.2533233803980115,9.80859808005178e-05,0.2533233803980115,-3.564713741661942e-05,0.2533233803980115,1.412322829291512e-06,0.2533233803980115,-1.082119027811418e-05
0.2541174975779426,3.4465297586321284e-05,0.2541174975779426,-1.960824260430074e-07,0.2541174975779426,1.7768580811003749e-06,0.2541174975779426,-9.962126709135714e-06
0.2549116147578736,-3.263554111268221e-05,0.2549116147578736,2.394661499922378e-05,0.2549116147578736,4.097991736769709e-06,0.2549116147578736,-1.0031552419741291e-05
0.2557057319378047,-6.171611917588245e-05,0.2557057319378047,4.429093416193159e-05,0.2557057319378047,3.880516563675083e-06,0.2557057319378047,-1.217386982607802e-05
0.2564998491177358,-0.0001646364136376,0.2564998491177358,5.018699759378822e-05,0.2564998491177358,-2.8520269908337454e-06,0.2564998491177358,-1.35958e-05
0.2572939662976669,-0.000265166442809,0.2572939662976669,3.488712690881214e-05,0.2572939662976669,-9.821981479717064e-06,0.2572939662976669,-1.130591796880204e-05
0.2580880834775979,-0.0003088488773866,0.2580880834775979,-2.1915367731069498e-06,0.2580880834775979,-1.0142304566446745e-05,0.2580880834775979,-9.291510114281162e-06
0.258882200657529,-0.0003545130503864,0.258882200657529,-5.146548250622676e-05,0.258882200657529,-2.9770222059457237e-06,0.258882200657529,-9.56741e-06
0.2596763178374601,-0.0001835366283656,0.2596763178374601,-8.518186191824828e-05,0.2596763178374601,5.040840227764211e-06,0.2596763178374601,-8.048665244600774e-06
0.2604704350173911,0.0001819001691815,0.2604704350173911,-9.790311263480508e-05,0.2604704350173911,1.2152898814093274e-05,0.2604704350173911,-3.5054784842784443e-06
0.2612645521973222,0.0003979258652581,0.2612645521973222,-0.0001030092629416,0.2612645521973222,1.0259405972168996e-05,0.2612645521973222,-8.815933672130778e-06
0.2620586693772533,0.0004003784828583,0.2620586693772533,-0.0001087361445233,0.2620586693772533,3.732004348994425e-06,0.2620586693772533,-1.4820214321857284e-05
0.2628527865571843,0.0002985227737181,0.2628527865571843,-8.156927595072037e-05,0.2628527865571843,-5.622349725659412e-07,0.2628527865571843,-1.6478593954811082e-05
0.2636469037371154,0.0001065622076202,0.2636469037371154,-1.3771418477648456e-05,0.2636469037371154,-6.0123381702390905e-06,0.2636469037371154,-1.8570823390101283e-05
0.2644410209170465,-8.929367633591562e-05,0.2644410209170465,4.42549760389921e-05,0.2644410209170465,-2.463294566832364e-06,0.2644410209170465,-2.297579264117737e-05
0.2652351380969776,-0.0001675372797558,0.2652351380969776,3.790431866531567e-05,0.2652351380969776,8.991646950567756e-06,0.2652351380969776,-2.0350663479423457e-05
0.2660292552769086,-0.0001169949112245,0.2660292552769086,2.199338575005166e-06,0.2660292552769086,1.7525184902537033e-05,0.2660292552769086,-1.2727321136448151e-05
0.2668233724568397,-5.3316819015312766e-05,0.2668233724568397,-1.5622468192890423e-05,0.2668233724568397,2.471447983934161e-05,0.2668233724568397,-5.221983682568765e-06
0.2676174896367708,2.692038966124307e-05,0.2676174896367708,-2.512616401508945e-05,0.2676174896367708,2.6252717792723245e-05,0.2676174896367708,-9.966571584559694e-07
0.2684116068167018,0.0001221905557047,0.2684116068167018,-2.7221085487072505e-05,0.2684116068167018,1.6418623547091074e-05,0.2684116068167018,-6.290188806449594e-06
0.2692057239966329,0.0001090775843974,0.2692057239966329,-3.0614357527354167e-05,0.2692057239966329,1.3457511809331964e-05,0.2692057239966329,-9.13300409533402e-06
0.269999841176564,4.218083003937795e-06,0.269999841176564,-3.457623226832874e-05,0.269999841176564,1.3595914414222038e-05,0.269999841176564,-9.567181171555924e-06
0.270793958356495,-3.464246594614442e-05,0.270793958356495,-3.644542694649786e-05,0.270793958356495,1.0457824079795671e-05,0.270793958356495,-1.0712329549571602e-05
0.2715880755364261,-3.5788542098457314e-05,0.2715880755364261,-6.397900410522094e-05,0.2715880755364261,6.389858850076934e-06,0.2715880755364261,-1.2409265259074386e-05
0.2723821927163572,-5.921298847167813e-05,0.2723821927163572,-0.0001151483197631,0.2723821927163572,3.4857075205291395e-06,0.2723821927163572,-1.3735881775471895e-05
0.2731763098962882,-0.0001188718590902,0.2731763098962882,-0.0001262713849785,0.2731763098962882,3.0510744075279187e-06,0.2731763098962882,-1.1148475260223351e-05
0.2739704270762193,-0.0001239733204472,0.2739704270762193,-3.69123264035374e-05,0.2739704270762193,1.807649274791196e-06,0.2739704270762193,-1.15816e-05
0.2747645442561504,-9.605985822339689e-05,0.2747645442561504,0.0001116134780186,0.2747645442561504,-4.935268254676433e-07,0.2747645442561504,-1.2371359512814911e-05
0.2755586614360815,-0.0001010753079365,0.2755586614360815,0.0001734270539733,0.2755586614360815,-4.008732721829158e-06,0.2755586614360815,-1.4178382003200657e-05
0.2763527786160125,-0.0001159628551137,0.2763527786160125,9.751040660410484e-05,0.2763527786160125,-9.211738267067126e-06,0.2763527786160125,-1.5847114488621917e-05
0.2771468957959436,-0.0001110360983036,0.2771468957959436,-8.305176125515345e-06,0.2771468957959436,-9.330765618501976e-06,0.2771468957959436,-1.3891587853668665e-05
0.2779410129758747,-5.953771164398931e-05,0.2779410129758747,-4.69078515639833e-05,0.2779410129758747,-8.974015922311395e-06,0.2779410129758747,-1.8432111380662315e-05
0.2787351301558057,1.1612894401827567e-06,0.2787351301558057,-1.9080471783028992e-05,0.2787351301558057,-1.229121018547623e-05,0.2787351301558057,-2.090205127318453e-05
0.2795292473357368,3.302495232484407e-05,0.2795292473357368,1.6673829932714723e-06,0.2795292473357368,-1.408944276954262e-05,0.2795292473357368,-2.2284324029385984e-05
0.2803233645156679,7.179658093825864e-05,0.2803233645156679,-2.7868879702674463e-05,0.2803233645156679,-1.49386e-05,0.2803233645156679,-2.279700928168268e-05
0.2811174816955989,0.0001001805538345,0.2811174816955989,-5.32462440310709e-05,0.2811174816955989,-1.3456893492337835e-05,0.2811174816955989,-1.5716465688430556e-05
0.2819115988755301,6.949552064767117e-05,0.2819115988755301,-4.447727286004356e-05,0.2819115988755301,-6.397341823696671e-06,0.2819115988755301,-1.1798617053630547e-05
0.2827057160554611,5.26733084109604e-05,0.2827057160554611,-2.6254344068451115e-05,0.2827057160554611,-1.6815148108607528e-07,0.2827057160554611,-8.698609656695494e-06
0.2834998332353922,9.817966644332744e-05,0.2834998332353922,-5.879466133590457e-06,0.2834998332353922,3.5242293289130284e-06,0.2834998332353922,-8.22461e-06
0.2842939504153233,0.0001457305718836,0.2842939504153233,1.1958300329086985e-05,0.2842939504153233,2.0247833537976053e-06,0.2842939504153233,-1.2182357549805326e-05
0.2850880675952543,0.0001295633114864,0.2850880675952543,4.347606239060756e-06,0.2850880675952543,3.3636591361714857e-06,0.2850880675952543,-1.134725781749252e-05
0.2858821847751854,4.419192756400674e-05,0.2858821847751854,-2.0424337796358332e-05,0.2858821847751854,1.1832668678378386e-05,0.2858821847751854,-7.02193160580452e-06
0.2866763019551165,-5.694158579027646e-05,0.2866763019551165,-5.195004714055232e-05,0.2866763019551165,1.655752546423308e-05,0.2866763019551165,-4.434528143067687e-06
0.2874704191350475,-0.0001330025412645,0.2874704191350475,-9.220494075709512e-05,0.2874704191350475,9.609590088243777e-06,0.2874704191350475,-4.5899317635468165e-06
0.2882645363149786,-0.0001899708055517,0.2882645363149786,-0.0001529159877382,0.2882645363149786,4.808787715254067e-06,0.2882645363149786,-9.784066848079608e-06
0.2890586534949096,-0.0001872308032763,0.2890586534949096,-0.0002215107828975,0.2890586534949096,6.812286528867957e-07,0.2890586534949096,-1.2213515175230848e-05
0.2898527706748408,-9.808844910051604e-05,0.2898527706748408,-0.0002109985591436,0.2898527706748408,-5.933319713216387e-06,0.2898527706748408,-1.4829296181402942e-05
0.2906468878547718,2.435921839819539e-05,0.2906468878547718,-3.7409149293577264e-05,0.2906468878547718,-3.831659464661219e-06,0.2906468878547718,-1.6716167084529433e-05
0.2914410050347029,0.0001419768688801,0.2914410050347029,0.0001909945962854,0.2914410050347029,-4.274213571180694e-06,0.2914410050347029,-1.52743e-05
0.292235122214634,0.0001675658114104,0.292235122214634,0.0002515324091883,0.292235122214634,-4.512847790106221e-06,0.292235122214634,-1.6043936657420335e-05
0.293029239394565,0.0001577878986871,0.293029239394565,0.0001603673618946,0.293029239394565,-2.85344e-06,0.293029239394565,-1.8098011146494543e-05
0.2938233565744961,0.0001710758426981,0.2938233565744961,7.961014450431547e-05,0.2938233565744961,-1.0360151731002413e-06,0.2938233565744961,-1.9204314180758345e-05
0.2946174737544272,0.000129732332168,0.2946174737544272,3.053158273802201e-05,0.2946174737544272,2.360282274074979e-06,0.2946174737544272,-2.03098e-05
0.2954115909343582,1.2619894058594136e-06,0.2954115909343582,-8.190570121967324e-06,0.2954115909343582,1.7772475017893171e-06,0.2954115909343582,-1.817693998568546e-05
0.2962057081142893,-0.0001265828857042,0.2962057081142893,-3.546009658672738e-05,0.2962057081142893,8.717391770128643e-06,0.2962057081142893,-1.5689233368168853e-05
0.2969998252942204,-0.0001693554692717,0.2969998252942204,-5.9916662870309776e-05,0.2969998252942204,1.9971834598404288e-05,0.2969998252942204,-1.091145855644206e-05
0.2977939424741515,-0.0002094454362221,0.2977939424741515,-8.2486825205178e-05,0.2977939424741515,2.1080146691241617e-05,0.2977939424741515,-6.606206764966463e-06
0.2985880596540825,-0.0002569157503458,0.2985880596540825,-9.565658024448495e-05,0.2985880596540825,1.9896001768545177e-05,0.2985880596540825,-5.913769115727412e-06
0.2993821768340136,-0.0003324693037817,0.2993821768340136,-0.0001090902875524,0.2993821768340136,1.374243439486504e-05,0.2993821768340136,-1.0036754981445723e-05
0.3001762940139447,-0.0004249466732107,0.3001762940139447,-0.000127232403606,0.3001762940139447,2.5235008105135203e-06,0.3001762940139447,-1.5804757948175692e-05
0.3009704111938757,-0.0002132924476549,0.3009704111938757,-0.0001350229181918,0.3009704111938757,-2.5660409116062e-07,0.3009704111938757,-1.5374521320839916e-05
0.3017645283738068,0.0001355152306966,0.3017645283738068,-0.0001048908696922,0.3017645283738068,-2.457470484462578e-06,0.3017645283738068,-1.2667602736238072e-05
0.3025586455537379,0.0003221809810382,0.3025586455537379,-3.646413153466172e-05,0.3025586455537379,-1.2805894420642952e-05,0.3025586455537379,-1.4978039996249605e-05
0.3033527627336689,0.0003892765280399,0.3033527627336689,2.758011864283842e-05,0.3033527627336689,-2.1168289753060268e-05,0.3033527627336689,-1.598571226203001e-05
0.3041468799136,0.0003232143146412,0.3041468799136,5.070029355089568e-05,0.3041468799136,-1.5731228404455118e-05,0.3041468799136,-8.799849702074326e-06
0.3049409970935311,0.0001871436732489,0.3049409970935311,4.098371542779117e-05,0.3049409970935311,-8.720599142549292e-06,0.3049409970935311,-4.430110756212507e-06
0.3057351142734621,0.0001250238720654,0.3057351142734621,3.39545328000048e-05,0.3057351142734621,-3.822416629775585e-06,0.3057351142734621,-1.1816160002735724e-05
0.3065292314533932,3.7468195673202665e-05,0.3065292314533932,3.830902285994684e-05,0.3065292314533932,-2.655833984361171e-06,0.3065292314533932,-1.478066867187961e-05
0.3073233486333243,-3.9331488744200615e-05,0.3073233486333243,3.243991259283555e-05,0.3073233486333243,-1.6481370536867548e-06,0.3073233486333243,-1.2765933301058508e-05
0.3081174658132554,-7.357402284505297e-05,0.3081174658132554,2.073870785792001e-05,0.3081174658132554,4.098860067000314e-06,0.3081174658132554,-1.12459e-05
0.3089115829931864,-9.921995055855324e-05,0.3089115829931864,-3.38098738455329e-06,0.3089115829931864,3.6626978131386217e-06,0.3089115829931864,-1.2509827811694718e-05
0.3097057001731175,-0.0001193297556395,0.3097057001731175,-4.259406255861392e-05,0.3097057001731175,-1.0366216473765508e-06,0.3097057001731175,-1.4958020939374132e-05
0.3104998173530486,-0.0001294108813854,0.3104998173530486,-9.146598608549328e-05,0.3104998173530486,-5.039427259304202e-07,0.3104998173530486,-1.712040265506432e-05
0.3112939345329796,-0.0001422172065835,0.3112939345329796,-0.0001330320026267,0.3112939345329796,4.21380870509101e-06,0.3112939345329796,-1.4465104848510688e-05
0.3120880517129107,-0.0001663568404859,0.3120880517129107,-0.0001286713405606,0.3120880517129107,8.440618043218504e-06,0.3120880517129107,-1.588585402160925e-05
0.3128821688928418,-0.0001500001766424,0.3128821688928418,-3.693396833080242e-05,0.3128821688928418,1.1589684831002454e-05,0.3128821688928418,-1.253333670627727e-05
0.3136762860727728,-9.583921081039144e-05,0.3136762860727728,5.3415623703068456e-05,0.3136762860727728,1.2096057931567488e-05,0.3136762860727728,-9.291295977189163e-06
0.314470403252704,-4.954968861108523e-05,0.314470403252704,0.0001251089562358,0.314470403252704,7.456660095934168e-06,0.314470403252704,-1.02388e-05
0.315264520432635,2.702570245114836e-06,0.315264520432635,0.0001598059881409,0.315264520432635,1.629763476557346e-06,0.315264520432635,-8.244724288115924e-06
0.3160586376125661,8.96106094690186e-05,0.3160586376125661,9.072428694823382e-05,0.3160586376125661,-1.67849e-07,0.3160586376125661,-6.901573878411952e-06
0.3168527547924971,0.0001625379088802,0.3168527547924971,-2.15378978138158e-05,0.3168527547924971,-2.071133044818418e-07,0.3168527547924971,-5.3619475713094425e-06
0.3176468719724282,0.0001913371701832,0.3176468719724282,-7.650923665460608e-05,0.3176468719724282,-1.3331860365666394e-06,0.3176468719724282,-2.4186499834157333e-06
0.3184409891523593,0.0001861777786616,0.3184409891523593,-9.65736592753002e-05,0.3184409891523593,2.671381300432969e-06,0.3184409891523593,-4.906598853535589e-06
0.3192351063322903,0.0001424050111484,0.3192351063322903,-0.0001105500319191,0.3192351063322903,1.0967311690847943e-05,0.3192351063322903,-6.052090580335668e-06
0.3200292235122214,6.2989244375997e-05,0.3200292235122214,-0.0001162216369189,0.3200292235122214,9.488874237683265e-06,0.3200292235122214,-9.576897351202743e-06
0.3208233406921525,1.866654925689738e-05,0.3208233406921525,-0.0001179804940401,0.3208233406921525,5.4001867037962585e-06,0.3208233406921525,-1.4070336830139028e-05
0.3216174578720835,-3.7851562826972095e-05,0.3216174578720835,-6.420392237439679e-05,0.3216174578720835,1.855681538789205e-06,0.3216174578720835,-1.5096103590034848e-05
0.3224115750520147,-0.0001069621418163,0.3224115750520147,1.8197709711198707e-05,0.3224115750520147,1.5699470751025155e-06,0.3224115750520147,-1.4445121225307548e-05
0.3232056922319457,-0.0001206843600694,0.3232056922319457,3.428983883956575e-05,0.3232056922319457,6.170328305792415e-06,0.3232056922319457,-1.8492965945222296e-05
0.3239998094118768,-0.0001129645099814,0.3239998094118768,-6.870232087874588e-06,0.3239998094118768,9.902688112890511e-06,0.3239998094118768,-1.4940247564797448e-05
0.3247939265918079,-0.0001091535349809,0.3247939265918079,-3.615102962388515e-05,0.3247939265918079,8.857184471807062e-06,0.3247939265918079,-1.2253e-05
0.3255880437717389,-9.785353169775604e-05,0.3255880437717389,-5.095284175172189e-05,0.3255880437717389,6.114153886141031e-06,0.3255880437717389,-1.5370570222327178e-05
0.32638216095167,-1.4765159823159717e-05,0.32638216095167,-5.778839789823321e-05,0.32638216095167,9.794378334480428e-07,0.32638216095167,-1.9193456893034424e-05
0.3271762781316011,0.0001220304299037,0.3271762781316011,-6.632138969176359e-05,0.3271762781316011,-2.274405203855074e-07,0.3271762781316011,-1.908618339580049e-05
0.3279703953115321,0.0001888344571467,0.3279703953115321,-7.877128002689683e-05,0.3279703953115321,-2.7415860314776973e-06,0.3279703953115321,-1.932199959691565e-05
0.3287645124914632,0.0002159040870518,0.3287645124914632,-0.0001079424874057,0.3287645124914632,-1.0475473884447684e-05,0.3287645124914632,-2.129674167872893e-05
0.3295586296713942,0.0001814266795513,0.3295586296713942,-0.0001440093676779,0.3295586296713942,-5.874941628408935e-06,0.3295586296713942,-2.169211333675919e-05
0.3303527468513254,6.561233027033884e-05,0.3303527468513254,-0.0001391340921501,0.3303527468513254,2.576194240795232e-06,0.3303527468513254,-1.4584522469120523e-05
0.3311468640312564,-4.594505700627902e-05,0.3311468640312564,-5.259881946788012e-05,0.3311468640312564,2.9525414826117234e-06,0.3311468640312564,-1.1383397034776552e-05
0.3319409812111875,-0.0001173533774283,0.3319409812111875,9.1306966878352e-05,0.3319409812111875,-1.2895393187106852e-06,0.3319409812111875,-1.3675948779312198e-05
0.3327350983911186,-0.0001833806141823,0.3327350983911186,0.0001783262345111,0.3327350983911186,-7.92693948112485e-06,0.3327350983911186,-1.0457301267618928e-05
0.3335292155710496,-0.000204806602266,0.3335292155710496,0.0001630983055713,0.3335292155710496,-8.915870226603594e-06,0.3335292155710496,-8.629339830047306e-06
0.3343233327509807,-0.0002079036534615,0.3343233327509807,0.0001142240468155,0.3343233327509807,-5.735930702347139e-06,0.3343233327509807,-1.2608868298337569e-05
0.3351174499309118,-0.00029037972333,0.3351174499309118,2.8393277566742384e-05,0.3351174499309118,-1.74692861001461e-06,0.3351174499309118,-1.3081926522089584e-05
0.3359115671108428,-0.0003186842204899,0.3359115671108428,-3.070202978753467e-05,0.3359115671108428,2.8338231395239725e-06,0.3359115671108428,-9.439013293193708e-06
0.3367056842907739,-0.0001365307818478,0.3367056842907739,-3.508655880728758e-05,0.3367056842907739,4.452590498137402e-06,0.3367056842907739,-1.2173663437584514e-05
0.337499801470705,0.000129350502526,0.337499801470705,-3.239477158712074e-05,0.337499801470705,6.545833964444924e-06,0.337499801470705,-1.4938027928889848e-05
0.338293918650636,0.0002395713663153,0.338293918650636,-5.9968810523061305e-05,0.338293918650636,3.920685561130884e-06,0.338293918650636,-1.1622386656624924e-05
0.3390880358305671,0.0002910918357023,0.3390880358305671,-8.959959460163705e-05,0.3390880358305671,-5.789246566400098e-07,0.3390880358305671,-1.1659646634331507e-05
0.3398821530104982,0.000264379204839,0.3398821530104982,-8.253673088817181e-05,0.3398821530104982,-1.4783338566748353e-06,0.3398821530104982,-1.2253e-05
0.3406762701904293,0.0001106400683861,0.3406762701904293,-4.656766985134224e-05,0.3406762701904293,1.1039172442058632e-05,0.3406762701904293,-1.335741032555465e-05
0.3414703873703603,-2.1119623963489803e-05,0.3414703873703603,-4.887380307976824e-07,0.3414703873703603,1.900557631098681e-05,0.3414703873703603,-1.268904145577309e-05
0.3422645045502914,-0.0001109419843179,0.3422645045502914,1.15473740457991e-05,0.3422645045502914,1.4032290867786835e-05,0.3422645045502914,-1.039657114820962e-05
0.3430586217302225,-0.0001970816205109,0.3430586217302225,-5.45633882234721e-05,0.3430586217302225,4.788878300151819e-06,0.3430586217302225,-1.248987327780315e-05
0.3438527389101535,-0.0002524492292057,0.3438527389101535,-8.956737761423676e-05,0.3438527389101535,-3.047302430598699e-07,0.3438527389101535,-1.647845636248208e-05
0.3446468560900846,-0.0002499789423592,0.3446468560900846,-4.061941052834488e-06,0.3446468560900846,-6.889801733017614e-06,0.3446468560900846,-1.3637371217515052e-05
0.3454409732700157,-0.0001891202147406,0.3454409732700157,9.307847506753062e-05,0.3454409732700157,-1.465894194886598e-05,0.3454409732700157,-1.1421156646663415e-05
0.3462350904499467,-6.222222764997011e-05,0.3462350904499467,6.73567708102742e-05,0.3462350904499467,-1.778255466074194e-05,0.3462350904499467,-1.4010677330370973e-05
0.3470292076298778,0.0001339298896831,0.3470292076298778,-3.59035018015719e-05,0.3470292076298778,-9.746254420285008e-06,0.3470292076298778,-9.0152394162076e-06
0.3478233248098089,0.0003192523144675,0.3478233248098089,-0.0001107108417221,0.3478233248098089,-6.803642604211532e-07,0.3478233248098089,-4.749018675309645e-06
0.34861744198974,0.0004008828650772,0.34861744198974,-0.0001250407545268,0.34861744198974,7.189342938843884e-06,0.34861744198974,-4.492542636463911e-06
0.349411559169671,0.0003500010092524,0.349411559169671,-4.140675798915596e-05,0.349411559169671,9.527948107285702e-06,0.349411559169671,-8.856728949252215e-06
0.3502056763496021,0.0002110522926274,0.3502056763496021,7.795998461247013e-05,0.3502056763496021,7.731255406357682e-06,0.3502056763496021,-1.4227514519751192e-05
0.3509997935295332,8.110206325854253e-05,0.3509997935295332,7.671751697211092e-05,0.3509997935295332,7.217222523022756e-06,0.3509997935295332,-1.4267497476977245e-05
0.3517939107094642,4.874124742380201e-06,0.3517939107094642,1.3607687086536e-05,0.3517939107094642,1.665190753407101e-05,0.3517939107094642,-1.37937392465929e-05
0.3525880278893953,-6.126865783624328e-05,0.3525880278893953,-1.0743789256687375e-05,0.3525880278893953,2.346890981176348e-05,0.3525880278893953,-1.1563450941182598e-05
0.3533821450693264,-0.0001020962727437,0.3533821450693264,-2.469079244490653e-05,0.3533821450693264,2.155831828494254e-05,0.3533821450693264,-9.56741e-06
0.3541762622492574,-0.0001073527294817,0.3541762622492574,-3.7727491910022427e-05,0.3541762622492574,1.1945372204416612e-05,0.3541762622492574,-9.291313139322462e-06
0.3549703794291886,-9.916453301776308e-05,0.3549703794291886,-4.767216483071972e-05,0.3549703794291886,2.579566531987543e-06,0.3549703794291886,-9.497942535553456e-06
0.3557644966091196,-9.704527838733057e-05,0.3557644966091196,-6.722598644378243e-05,0.3557644966091196,-4.246683815775771e-07,0.3557644966091196,-1.0831320146606311e-05
0.3565586137890507,-0.0001008177103256,0.3565586137890507,-8.554631244921597e-05,0.3565586137890507,7.799330621160913e-07,0.3565586137890507,-9.15282925958817e-06
0.3573527309689818,-0.0001098004695297,0.3573527309689818,-7.1243339362085e-05,0.3573527309689818,-4.609439893027433e-06,0.3573527309689818,-1.0218728605487947e-05
0.3581468481489128,-0.000113193269039,0.3581468481489128,-3.706085801434298e-06,0.3581468481489128,-6.843496767615538e-06,0.3581468481489128,-8.739398974948776e-06
0.3589409653288439,-0.0001024586348663,0.3589409653288439,6.0080922976179264e-05,0.3589409653288439,-4.926031103280409e-06,0.3589409653288439,-8.419281697366968e-06
0.3597350825087749,-9.574696667186402e-05,0.3597350825087749,6.415359008701626e-05,0.3597350825087749,-6.644270846753716e-06,0.3597350825087749,-1.260766779567162e-05
0.360529199688706,-5.2702242838675896e-05,0.360529199688706,3.071490699635067e-05,0.360529199688706,-7.157865967800109e-06,0.360529199688706,-1.1779274664171956e-05
0.3613233168686371,2.8564390144107357e-06,0.3613233168686371,-2.3098553479909285e-05,0.3613233168686371,-1.2371599883268172e-05,0.3613233168686371,-1.1700199883268172e-05
0.3621174340485681,1.6063879289649452e-05,0.3621174340485681,-5.32022218565459e-05,0.3621174340485681,-1.29244e-05,0.3621174340485681,-1.1660386193099635e-05
0.3629115512284993,-9.124084521439202e-06,0.3629115512284993,-6.81382384922247e-05,0.3629115512284993,-1.15816e-05,0.3629115512284993,-1.3141659109184916e-05
0.3637056684084303,-4.767589619316583e-05,0.3637056684084303,-6.621051181849597e-05,0.3637056684084303,-1.3990463094280122e-05,0.3637056684084303,-1.5333263094280124e-05
0.3644997855883614,-5.555949013279771e-05,0.3644997855883614,-5.690298028864398e-05,0.3644997855883614,-1.3596417836798982e-05,0.3644997855883614,-1.8294673244801526e-05
0.3652939027682925,-2.219181696971072e-05,0.3652939027682925,-5.973515691794655e-05,0.3652939027682925,-1.2055049287379724e-05,0.3652939027682925,-1.901647293651725e-05
0.3660880199482235,1.4034496156706617e-06,0.3660880199482235,-6.1090242255168e-05,0.3660880199482235,-1.5688012236249326e-05,0.3660880199482235,-1.734839184250045e-05
0.3668821371281546,1.3494601082858092e-05,0.3668821371281546,-5.44936881608698e-05,0.3668821371281546,-1.35015813480935e-05,0.3668821371281546,-1.5125947578101417e-05
0.3676762543080857,-7.389285476651582e-07,0.3676762543080857,-4.313550327654316e-05,0.3676762543080857,-8.582261384542605e-06,0.3676762543080857,-1.52743e-05
0.3684703714880167,-3.561294790897354e-05,0.3684703714880167,-2.243702701216669e-05,0.3684703714880167,-8.915275272649026e-06,0.3684703714880167,-1.3024821545728412e-05
0.3692644886679478,3.526976852554105e-05,0.3692644886679478,-5.677283375667893e-06,0.3692644886679478,-1.0732248265365144e-05,0.3692644886679478,-1.176864534478273e-05
0.3700586058478789,0.0001635872414718,0.3700586058478789,-3.645658848067008e-06,0.3700586058478789,-9.03444708414594e-06,0.3700586058478789,-1.5451785516265727e-05
0.3708527230278099,0.0001979542703935,0.3708527230278099,-1.0109712286293327e-06,0.3708527230278099,-1.2754048588590089e-06,0.3708527230278099,-1.849261049837257e-05
0.371646840207741,0.0001740893201988,0.371646840207741,-2.5530900786837555e-05,0.371646840207741,7.33239650341861e-06,0.371646840207741,-2.10003461789591e-05
0.3724409573876721,0.0001389382292155,0.3724409573876721,-7.660955114410006e-05,0.3724409573876721,1.6928483915406764e-05,0.3724409573876721,-2.0528731031722465e-05
0.3732350745676032,7.645560770235037e-05,0.3732350745676032,-0.0001129724208443,0.3732350745676032,2.7374959381492475e-05,0.3732350745676032,-1.6835721402552035e-05
0.3740291917475342,-3.158783078725845e-05,0.3740291917475342,-8.497966978006202e-05,0.3740291917475342,3.884092392287872e-05,0.3740291917475342,-1.3003978203480703e-05
0.3748233089274653,-0.000127616344418,0.3748233089274653,2.768574364499475e-06,0.3748233089274653,4.560568844184592e-05,0.3748233089274653,-7.078867998902295e-06
0.3756174261073964,-0.0001281650968098,0.3756174261073964,6.619394211997472e-05,0.3756174261073964,4.319557655931407e-05,0.3756174261073964,-3.682425318254024e-06
0.3764115432873274,-0.00011588485103,0.3764115432873274,8.00648993958556e-05,0.3764115432873274,3.0005265468086388e-05,0.3764115432873274,-5.4008106054964005e-06
0.3772056604672585,-0.0001198326972283,0.3772056604672585,8.213192289666727e-05,0.3772056604672585,1.973833935109898e-05,0.3772056604672585,-4.51207006083447e-06
0.3779997776471896,-0.0001317587964017,0.3779997776471896,4.247999451194067e-05,0.3779997776471896,8.563833953266733e-06,0.3779997776471896,-7.048628835351127e-06
0.3787938948271206,-0.0001293661732313,0.3787938948271206,-7.866549021307291e-07,0.3787938948271206,1.5923346752655153e-06,0.3787938948271206,-8.22461e-06
0.3795880120070517,-0.0001098747201299,0.3795880120070517,-4.2523583917381006e-05,0.3795880120070517,-6.126798624734694e-06,0.3795880120070517,-1.17556818030967e-05
0.3803821291869828,-9.556835553442805e-05,0.3803821291869828,-6.91207501606857e-05,0.3803821291869828,-1.1558522246367949e-05,0.3803821291869828,-1.8233444465571955e-05
0.3811762463669139,-8.99028895496806e-05,0.3811762463669139,-7.528522151779617e-05,0.3811762463669139,-1.4759756257766014e-05,0.3811762463669139,-1.9757629161489326e-05
0.3819703635468449,-6.953106091827025e-05,0.3819703635468449,-7.816362193220337e-05,0.3819703635468449,-1.444467691561341e-05,0.3819703635468449,-1.861204616877318e-05
0.382764480726776,-4.174392941979952e-05,0.382764480726776,-7.95043425721808e-05,0.382764480726776,-1.7603973647885953e-05,0.382764480726776,-1.816714595284484e-05
0.3835585979067071,6.542803381129813e-06,0.3835585979067071,-4.321712301600856e-05,0.3835585979067071,-1.5472125434804752e-05,0.3835585979067071,-1.892743491303905e-05
0.3843527150866381,-1.3049721948340992e-05,0.3843527150866381,1.43861451649103e-05,0.3843527150866381,-7.0808598104409424e-06,0.3843527150866381,-1.8078503108420588e-05
0.3851468322665692,-2.585591336233109e-05,0.3851468322665692,3.186192379321029e-05,0.3851468322665692,-4.19623e-06,0.3851468322665692,-1.7446767893668233e-05
0.3859409494465003,8.290920604297698e-05,0.3859409494465003,1.5037249871072237e-05,0.3859409494465003,-4.1184075327608914e-06,0.3859409494465003,-1.561e-05
0.3867350666264313,0.0001819484764278,0.3867350666264313,1.0417193257265797e-05,0.3867350666264313,9.636569528625077e-08,0.3867350666264313,-1.6636022029982952e-05
0.3875291838063624,0.0002278465241305,0.3875291838063624,-1.499827131583004e-05,0.3875291838063624,3.02129e-06,0.3875291838063624,-1.4781354945813224e-05
0.3883233009862935,0.000220774091389,0.3883233009862935,-7.476653962679916e-05,0.3883233009862935,3.090183515162131e-06,0.3883233009862935,-1.0317758419104252e-05
0.3891174181662246,0.0001156283261633,0.3891174181662246,-0.0001223181217057,0.3891174181662246,6.857708428024165e-08,0.3891174181662246,-9.014222513928826e-06
0.3899115353461556,2.1809976236715995e-05,0.3899115353461556,-0.0001024140268996,0.3899115353461556,-1.6982561712088718e-06,0.3899115353461556,-3.880261520067085e-06
0.3907056525260867,-4.502534613372675e-05,0.3907056525260867,-1.5768841730647086e-05,0.3907056525260867,-4.9662843075426255e-06,0.3907056525260867,-6.328258582813e-06
0.3914997697060178,-6.999177279502437e-05,0.3914997697060178,9.11114146358623e-05,0.3914997697060178,-2.8546012994117443e-06,0.3914997697060178,-8.22461e-06
0.3922938868859488,-3.17018348992752e-05,0.3922938868859488,0.000116077769423,0.3922938868859488,-3.503325192306236e-06,0.3922938868859488,-6.4083936446751096e-06
0.3930880040658799,-1.0706672921388432e-05,0.3930880040658799,5.185918222369172e-05,0.3930880040658799,-3.4887079803905685e-06,0.3930880040658799,-1.023594310052587e-05
0.393882121245811,-5.15257092825957e-05,0.393882121245811,-1.978370707383427e-05,0.393882121245811,2.7521711227958304e-06,0.393882121245811,-1.2135783856653204e-05
0.394676238425742,-9.22931666061304e-05,0.394676238425742,-4.5328295372862905e-05,0.394676238425742,6.740559364353159e-06,0.394676238425742,-9.865509731279482e-06
0.3954703556056732,-5.901998182152631e-05,0.3954703556056732,-3.693975015752444e-05,0.3954703556056732,9.23171e-06,0.3954703556056732,-5.145598117187026e-06
0.3962644727856042,-2.410366966680617e-05,0.3962644727856042,-3.616538958114269e-05,0.3962644727856042,4.869760826337222e-06,0.3962644727856042,-8.815018361763508e-06
0.3970585899655353,8.833137563141137e-06,0.3970585899655353,-5.1811406557024383e-05,0.3970585899655353,-2.9714696659194867e-06,0.3970585899655353,-1.6241426044126396e-05
0.3978527071454664,0.0001231635504467,0.3978527071454664,-7.344738665392898e-05,0.3978527071454664,-1.11671655161249e-06,0.3978527071454664,-1.586734420717137e-05
0.3986468243253974,0.0001809443880957,0.3986468243253974,-6.549222878787087e-05,0.3986468243253974,2.300310593625642e-06,0.3986468243253974,-1.365491768129396e-05
0.3994409415053285,0.0001090331461848,0.3994409415053285,-1.8512749508222662e-05,0.3994409415053285,6.836465816577285e-07,0.3994409415053285,-1.503585014342773e-05
0.4002350586852595,5.312091151363087e-05,0.4002350586852595,3.948071031419645e-05,0.4002350586852595,-3.128831293178749e-06,0.4002350586852595,-1.6360600213215385e-05
0.4010291758651906,2.234965721345817e-05,0.4010291758651906,6.262755254099603e-05,0.4010291758651906,-2.310779225857831e-06,0.4010291758651906,-1.726858256628541e-05
0.4018232930451217,-1.1188039957579971e-05,0.4018232930451217,3.059197356742943e-05,0.4018232930451217,7.210346539988134e-07,0.4018232930451217,-1.404935830748857e-05
0.4026174102250527,-2.771695434996348e-05,0.4026174102250527,-3.280831695275355e-05,0.4026174102250527,8.44350761010251e-06,0.4026174102250527,-5.1624912075338e-06
0.4034115274049838,-4.712608331353847e-05,0.4034115274049838,-7.161434920872018e-05,0.4034115274049838,2.1020642250220687e-05,0.4034115274049838,-2.5769782789380143e-06
0.4042056445849149,-8.228889901058955e-05,0.4042056445849149,-5.887949491481668e-05,0.4042056445849149,2.1870440789701064e-05,0.4042056445849149,-4.946401436322242e-06
0.404999761764846,-0.0001290614124423,0.404999761764846,-2.9717621108674465e-05,0.404999761764846,1.7289872970664618e-05,0.404999761764846,-6.881133519780032e-06
0.4057938789447771,-0.0001594783561823,0.4057938789447771,-2.757824327313409e-05,0.4057938789447771,1.1347114531637324e-05,0.4057938789447771,-1.007954017208368e-05
0.4065879961247081,-0.0001615341261514,0.4065879961247081,-5.530361714786956e-05,0.4065879961247081,7.061592829191663e-06,0.4065879961247081,-1.1443713120291353e-05
0.4073821133046392,-0.0001475841223404,0.4073821133046392,-0.0001020939974608,0.4073821133046392,4.453797370462927e-06,0.4073821133046392,-1.0199733685231464e-05
0.4081762304845703,-0.000104960514732,0.4081762304845703,-8.088653775979973e-05,0.4081762304845703,2.756242312497489e-06,0.4081762304845703,-1.0455247955666328e-05
0.4089703476645013,-3.922832060479888e-05,0.4089703476645013,2.780265144039876e-05,0.4089703476645013,-2.447732206686284e-07,0.4089703476645013,-1.2646392845147324e-05
0.4097644648444324,2.4146777956504296e-05,0.4097644648444324,6.586830781314735e-05,0.4097644648444324,-6.485308948529264e-06,0.4097644648444324,-1.6932527882197084e-05
0.4105585820243635,7.960565103112065e-05,0.4105585820243635,-1.7935165786840243e-05,0.4105585820243635,-1.0831024551602317e-05,0.4105585820243635,-1.953942995246054e-05
0.4113526992042945,9.787624372334397e-05,0.4113526992042945,-5.792067715742301e-05,0.4113526992042945,-8.600593913337485e-06,0.4113526992042945,-2.2698781230632257e-05
0.4121468163842256,6.92983355440473e-05,0.4121468163842256,-4.11056762456428e-05,0.4121468163842256,-2.422265545860272e-06,0.4121468163842256,-1.922632167265687e-05
0.4129409335641567,3.4998725234540315e-05,0.4129409335641567,5.822329593660401e-07,0.4129409335641567,5.378327502613851e-06,0.4129409335641567,-1.2233555704328144e-05
0.4137350507440878,-1.7594540174521877e-05,0.4137350507440878,8.644909067530703e-06,0.4137350507440878,9.76356675586727e-06,0.4137350507440878,-1.3199770330367649e-05
0.4145291679240188,-8.03798711248632e-05,0.4145291679240188,-2.335051324901056e-05,0.4145291679240188,1.3180384499452794e-05,0.4145291679240188,-1.1799272187842005e-05
0.4153232851039499,-1.3431174155949484e-05,0.4153232851039499,-3.5672216574599915e-05,0.4153232851039499,1.6439268823631087e-05,0.4153232851039499,-9.665993530616212e-06
0.416117402283881,5.757762179633077e-05,0.416117402283881,-6.207355501659171e-07,0.416117402283881,1.1165740429069168e-05,0.416117402283881,-6.782614997483234e-06
0.416911519463812,2.830790128117089e-05,0.416911519463812,3.344304906384884e-05,0.416911519463812,3.062063302220048e-07,0.416911519463812,-8.264057963047943e-06
0.4177056366437431,-1.0787756308307352e-05,0.4177056366437431,2.221543334487581e-06,0.4177056366437431,-5.262198427638228e-06,0.4177056366437431,-9.824381142522296e-06
0.4184997538236742,-3.641514231879795e-05,0.4184997538236742,-5.251944381010821e-05,0.4184997538236742,-8.223545953018026e-06,0.4184997538236742,-8.89618734204412e-06
0.4192938710036052,-4.788651388923586e-05,0.4192938710036052,-8.500251483978212e-05,0.4192938710036052,-9.418912567452542e-06,0.4192938710036052,-9.270415134905084e-06
0.4200879881835363,-2.822841571111731e-05,0.4200879881835363,-7.428402615464084e-05,0.4200879881835363,-8.323519426652541e-06,0.4200879881835363,-1.2804524586779672e-05
0.4208821053634674,2.0796558976648963e-05,0.4208821053634674,-3.7873064558715966e-05,0.4208821053634674,-9.091311745218236e-06,0.4208821053634674,-1.4513121163509776e-05
0.4216762225433985,6.551192584813887e-05,0.4216762225433985,-2.6195215835703808e-05,0.4216762225433985,-9.194166938049498e-06,0.4216762225433985,-1.6762809542732278e-05
0.4224703397233295,2.9270463798610428e-05,0.4224703397233295,-3.377907173269673e-05,0.4224703397233295,-6.21042e-06,0.4224703397233295,-1.82956e-05
0.4232644569032606,-5.893468424932548e-05,0.4232644569032606,-1.0578079686347242e-05,0.4232644569032606,-1.0119366400006727e-05,0.4232644569032606,-1.9440107499029125e-05
0.4240585740831917,-0.000130610822167,0.4240585740831917,5.434657737716454e-06,0.4240585740831917,-1.2233200257478378e-05,0.4240585740831917,-2.2876507442916905e-05
0.4248526912631227,-0.0001421350905118,0.4248526912631227,1.2688262676125435e-05,0.4248526912631227,-6.765544318823381e-06,0.4248526912631227,-2.479242030746169e-05
0.4256468084430538,-6.350023492880808e-05,0.4256468084430538,1.0890644166989002e-05,0.4256468084430538,5.247224535107996e-06,0.4256468084430538,-1.841765395842817e-05
0.4264409256229849,4.130020156464366e-05,0.4264409256229849,2.3537832689600792e-05,0.4264409256229849,1.8981188337389765e-05,0.4264409256229849,-1.24208e-05
0.4272350428029159,0.0001060106221572,0.4272350428029159,4.728501528529487e-05,0.4272350428029159,2.6212730072174616e-05,0.4272350428029159,-1.229259402933626e-05
0.428029159982847,0.0001249527853993,0.428029159982847,1.823769094692399e-05,0.428029159982847,2.293716877111401e-05,0.428029159982847,-8.304375969240121e-06
0.4288232771627781,4.89657463975095e-05,0.4288232771627781,-4.8619842134009e-05,0.4288232771627781,1.6814329295371304e-05,0.4288232771627781,-5.598299572474236e-06
0.4296173943427092,-6.92367055312049e-05,0.4296173943427092,-8.086667655040743e-05,0.4296173943427092,1.1640117616183396e-05,0.4296173943427092,-5.72658088080917e-06
0.4304115115226402,-0.0001771768374265,0.4304115115226402,-9.568459133450088e-05,0.4304115115226402,4.571555029520956e-06,0.4304115115226402,-9.132869623595944e-06
0.4312056287025713,-0.0002503303060638,0.4312056287025713,-8.194067298517153e-05,0.4312056287025713,-3.253333104307658e-07,0.4312056287025713,-1.093012964598938e-05
0.4319997458825024,-0.0001187303257503,0.4319997458825024,-5.892183905894021e-05,0.4319997458825024,-8.396121222385916e-07,0.4319997458825024,-1.0238983062755245e-05
0.4327938630624334,0.0001068846099451,0.4327938630624334,-4.076531561500062e-05,0.4327938630624334,-1.1146265687485073e-06,0.4327938630624334,-1.06131879358639e-05
0.4335879802423645,0.000236445486512,0.4335879802423645,-3.0329839028086768e-05,0.4335879802423645,-3.7226545863187463e-06,0.4335879802423645,-1.3454886138119333e-05
0.4343820974222956,0.0002944952431139,0.4343820974222956,-5.327895971764824e-05,0.4343820974222956,-3.048713080320373e-06,0.4343820974222956,-1.706996454622348e-05
0.4351762146022266,0.0001946822205433,0.4351762146022266,-8.07355e-05,0.4351762146022266,-6.464359531387137e-06,0.4351762146022266,-1.8373952687169796e-05
0.4359703317821577,3.4612273687988485e-05,0.4359703317821577,-6.381739778437291e-05,0.4359703317821577,-7.394974032769013e-06,0.4359703317821577,-2.017076209830704e-05
0.4367644489620888,-7.615129215740113e-05,0.4367644489620888,6.134425474758654e-06,0.4367644489620888,-1.0297327645635364e-05,0.4367644489620888,-2.2688902079366812e-05
0.4375585661420199,-0.0001372084377662,0.4375585661420199,9.6382278805888e-05,0.4375585661420199,-1.1739500212109549e-05,0.4375585661420199,-2.2067516002386836e-05
0.438352683321951,-8.162330200583003e-05,0.438352683321951,0.0001176698013605,0.438352683321951,-5.856987499271305e-06,0.438352683321951,-1.7684734364278415e-05
0.439146800501882,-3.165507907502689e-05,0.439146800501882,5.218969435165384e-05,0.439146800501882,3.051607034874607e-07,0.439146800501882,-1.4484646605415487e-05
0.4399409176818131,2.923886563747764e-06,0.4399409176818131,-1.953811042943292e-05,0.4399409176818131,6.007116851221007e-07,0.4399409176818131,-1.3717738873911594e-05
0.4407350348617442,4.9341507323263817e-05,0.4407350348617442,-5.976960477587224e-05,0.4407350348617442,4.875092278373031e-06,0.4407350348617442,-7.673989033952646e-06
0.4415291520416752,8.363182259525786e-05,0.4415291520416752,-4.34945505686405e-05,0.4415291520416752,6.941669976777038e-06,0.4415291520416752,-4.847678242018825e-06
0.4423232692216063,0.0001138513628392,0.4423232692216063,7.1472427974941e-06,0.4423232692216063,2.9520775305301474e-06,0.4423232692216063,-7.237411938770838e-06
0.4431173864015373,8.707819216792843e-05,0.4431173864015373,-6.550803059087108e-06,0.4431173864015373,1.84634e-06,0.4431173864015373,-8.599737494632069e-06
0.4439115035814684,-5.101268942238804e-06,0.4439115035814684,-4.562700573911926e-05,0.4439115035814684,1.8660217914975736e-06,0.4439115035814684,-7.671621879914062e-06
0.4447056207613995,-0.0001092695456062,0.4447056207613995,-8.823067273862819e-05,0.4447056207613995,3.5447358748492027e-06,0.4447056207613995,-7.928718811617516e-06
0.4454997379413306,-0.0002156520195384,0.4454997379413306,-0.000105574626829,0.4454997379413306,4.5311748717581e-06,0.4454997379413306,-5.204462695174639e-06
0.4462938551212617,-0.0002422329981572,0.4462938551212617,-6.402304963097139e-05,0.4462938551212617,7.256190736822869e-06,0.4462938551212617,-7.619048719372526e-07
0.4470879723011927,-0.0001658846702531,0.4470879723011927,-9.35314316392103e-06,0.4470879723011927,6.588136342258418e-06,0.4470879723011927,5.245565283567261e-07
0.4478820894811238,-2.30855149439104e-05,0.4478820894811238,1.846797021884813e-05,0.4478820894811238,2.7205522397713323e-06,0.4478820894811238,-6.202861477722387e-06
0.4486762066610549,9.49078574438066e-05,0.4486762066610549,3.908930886332513e-05,0.4486762066610549,-4.289943038937728e-06,0.4486762066610549,-1.3178297709898868e-05
0.4494703238409859,0.0001122257809522,0.4494703238409859,2.844519831839126e-05,0.4494703238409859,-7.19832337588418e-06,0.4494703238409859,-1.600328987234746e-05
0.450264441020917,6.431920402137578e-05,0.450264441020917,1.17494e-06,0.450264441020917,-1.0592325160887574e-05,0.450264441020917,-1.960783885049569e-05
0.4510585582008481,1.8714901114065636e-05,0.4510585582008481,1.2533704543958088e-05,0.4510585582008481,-1.50370637208096e-05,0.4510585582008481,-2.367611033160802e-05
0.4518526753807791,-4.404580835018249e-05,0.4518526753807791,1.2020338965835166e-05,0.4518526753807791,-1.2964790640934645e-05,0.4518526753807791,-2.63523e-05
0.4526467925607102,-9.447606726199096e-05,0.4526467925607102,-4.03656916747854e-05,0.4526467925607102,-8.602382767562717e-06,0.4526467925607102,-2.2701710946928e-05
0.4534409097406413,-7.527493999364255e-05,0.4534409097406413,-8.729988576001231e-05,0.4534409097406413,1.7911763015771537e-07,0.4534409097406413,-1.6067701937061726e-05
0.4542350269205724,-2.854089312481008e-05,0.4542350269205724,-0.0001197698222674,0.4542350269205724,1.4972224958443277e-05,0.4542350269205724,-1.130631548029881e-05
0.4550291441005034,-7.832703602300323e-06,0.4550291441005034,-0.0001336178509184,0.4550291441005034,2.1948326574562142e-05,0.4550291441005034,-1.09102e-05
0.4558232612804345,1.7012378139814233e-05,0.4558232612804345,-0.0001278790882077,0.4558232612804345,1.981586144681115e-05,0.4558232612804345,-1.1068120310030962e-05
0.4566173784603656,3.6197954154095502e-06,0.4566173784603656,-8.948890221922321e-05,0.4566173784603656,1.3871832593520264e-05,0.4566173784603656,-9.646275280634736e-06
0.4574114956402966,3.0574008545530144e-05,0.4574114956402966,-1.1302329630476134e-05,0.4574114956402966,1.053518242972746e-05,0.4574114956402966,-1.108777724448504e-05
0.4582056128202277,0.000182009087032,0.4582056128202277,9.756868744003934e-05,0.4582056128202277,6.428517798117607e-06,0.4582056128202277,-1.2194197430103748e-05
0.4589997300001588,0.00027340888398,0.4589997300001588,0.0001837708997829,0.4589997300001588,3.5254135125323594e-06,0.4589997300001588,-8.22636053180309e-06
0.4597938471800898,0.0001884767512696,0.4597938471800898,0.0001287295703662,0.4597938471800898,7.058142562969615e-06,0.4597938471800898,-5.059301035240433e-07
0.4605879643600209,6.953065538465092e-05,0.4605879643600209,2.1189024137183988e-05,0.4605879643600209,4.969652684636545e-06,0.4605879643600209,-3.44072705363252e-06
0.461382081539952,-1.187934740039394e-05,0.461382081539952,-2.988156475977205e-05,0.461382081539952,2.080599133238587e-06,0.461382081539952,-9.981186765427486e-06
0.4621761987198831,-8.408137131563474e-05,0.4621761987198831,-2.7556465811912004e-05,0.4621761987198831,5.792879441772736e-06,0.4621761987198831,-8.918201653216012e-06
0.4629703158998141,-0.0001512418089677,0.4629703158998141,-1.7774076536769187e-05,0.4629703158998141,9.89115057809659e-06,0.4629703158998141,-7.908099896944649e-06
0.4637644330797452,-0.0001811324137077,0.4637644330797452,-2.9702458049873795e-05,0.4637644330797452,1.0338000085234664e-05,0.4637644330797452,-9.369012177880023e-06
0.4645585502596763,-0.0001567850164937,0.4645585502596763,-7.311851394423137e-05,0.4645585502596763,7.98799470781363e-06,0.4645585502596763,-1.2173732233749097e-05
0.4653526674396073,-0.0001040329511277,0.4653526674396073,-0.0001142060676525,0.4653526674396073,2.2527867502126653e-06,0.4653526674396073,-1.3792649973988656e-05
0.4661467846195384,-6.289044508001335e-05,0.4661467846195384,-8.828547448268883e-05,0.4661467846195384,-4.785398991021543e-06,0.4661467846195384,-1.4139412789856578e-05
0.4669409017994695,-5.244105902979418e-05,0.4669409017994695,-1.713319943187802e-05,0.4669409017994695,-1.201440681808512e-05,0.4669409017994695,-1.3518114545531904e-05
0.4677350189794005,-2.7509285812849283e-05,0.4677350189794005,4.35775978996685e-06,0.4677350189794005,-1.231344408385443e-05,0.4677350189794005,-9.944766990830236e-06
0.4685291361593316,-2.9014056465139368e-05,0.4685291361593316,-6.396590094286557e-05,0.4685291361593316,-1.0554525359174408e-05,0.4685291361593316,-7.375382679587204e-06
0.4693232533392627,-3.5079854677722794e-05,0.4693232533392627,-0.0001195944877463,0.4693232533392627,-1.0702812149284698e-05,0.4693232533392627,-8.22461e-06
0.4701173705191938,4.2009177425675325e-06,0.4701173705191938,-4.921280424988621e-05,0.4701173705191938,-7.809572069458847e-06,0.4701173705191938,-8.22461e-06
0.4709114876991248,6.145935123412792e-05,0.4709114876991248,8.002747144056088e-05,0.4709114876991248,-3.288112086252336e-06,0.4709114876991248,-1.0357166016145885e-05
0.4717056048790559,0.0001151071490435,0.4717056048790559,0.0001128736722838,0.4717056048790559,1.5295836035790229e-06,0.4717056048790559,-1.2094584371807984e-05
0.472499722058987,0.0001287412018264,0.472499722058987,5.189110815131818e-05,0.472499722058987,5.202128656633177e-06,0.472499722058987,-1.5608398200891704e-05
0.473293839238918,4.801124949104846e-05,0.473293839238918,-1.9091557252985856e-06,0.473293839238918,1.222038013528583e-05,0.473293839238918,-1.8867978779580196e-05
0.4740879564188491,-7.000772473736238e-05,0.4740879564188491,-2.468038791573989e-05,0.4740879564188491,1.1881517853598757e-05,0.4740879564188491,-1.62814e-05
0.4748820735987802,-0.0001491560971017,0.4748820735987802,-2.5356692527522943e-05,0.4748820735987802,4.200111140422669e-06,0.4748820735987802,-1.85298258982003e-05
0.4756761907787112,-0.0002327030599595,0.4756761907787112,-1.8058579872153443e-05,0.4756761907787112,1.60249486748964e-07,0.4756761907787112,-1.975770925144476e-05
0.4764703079586423,-0.0002207924187606,0.4764703079586423,-2.0185250366274537e-05,0.4764703079586423,-3.9564034207787e-06,0.4764703079586423,-2.015153687063572e-05
0.4772644251385734,-6.550261160394622e-05,0.4772644251385734,-4.323105944389895e-05,0.4772644251385734,-5.322923779222537e-06,0.4772644251385734,-2.181023325219815e-05
0.4780585423185045,9.165745812974064e-05,0.4780585423185045,-5.954233767020624e-05,0.4780585423185045,-3.660746238377733e-07,0.4780585423185045,-2.0586621757731627e-05
0.4788526594984356,0.0001536885591136,0.4788526594984356,-6.027883241907653e-05,0.4788526594984356,2.3209129580660413e-06,0.4788526594984356,-1.817695676048349e-05
0.4796467766783666,0.0001403902342868,0.4796467766783666,-5.92508e-05,0.4796467766783666,-3.799326042268139e-06,0.4796467766783666,-2.0428036195543407e-05
0.4804408938582977,4.416684290260136e-05,0.4804408938582977,-6.114624271937464e-05,0.4804408938582977,-3.508232550321274e-06,0.4804408938582977,-1.845655932457034e-05
0.4812350110382288,3.343114942575726e-05,0.4812350110382288,-6.493639775183128e-05,0.4812350110382288,1.8046319949960496e-06,0.4812350110382288,-1.355827629985576e-05
0.4820291282181598,5.47088569588761e-05,0.4820291282181598,-6.187768736792766e-05,0.4820291282181598,5.99261009205822e-06,0.4820291282181598,-1.0940176146594485e-05
0.4828232453980909,4.773806399220192e-05,0.4828232453980909,-4.964461341981755e-05,0.4828232453980909,5.746269384184098e-06,0.4828232453980909,-8.777513089531658e-06
0.483617362578022,1.633677435652118e-05,0.483617362578022,-4.141775148765691e-05,0.483617362578022,-1.8371113322459108e-06,0.483617362578022,-7.632108212347944e-06
0.484411479757953,-2.9233547739260164e-05,0.484411479757953,-5.196431317846793e-05,0.484411479757953,-4.571477887919865e-06,0.484411479757953,-7.55322e-06
0.4852055969378841,-2.4285549671118465e-05,0.4852055969378841,-5.534583717808788e-05,0.4852055969378841,5.413454200889089e-07,0.4852055969378841,-6.88182e-06
0.4859997141178152,-8.456302853693619e-07,0.4859997141178152,-5.1530624572730655e-05,0.4859997141178152,5.8734843325368445e-06,0.4859997141178152,-8.894774332536845e-06
0.4867938312977463,-1.2716438525987914e-05,0.4867938312977463,-6.096969865071664e-05,0.4867938312977463,3.0237661543201327e-06,0.4867938312977463,-8.659336953433494e-06
0.4875879484776773,-3.132139715090152e-05,0.4875879484776773,-6.131651844585529e-05,0.4875879484776773,-1.67849e-07,0.4875879484776773,-1.0454509926505584e-05
0.4883820656576084,-2.4994053122036506e-05,0.4883820656576084,-4.409043742049441e-05,0.4883820656576084,-2.459124845619576e-07,0.4883820656576084,-1.1503536166627348e-05
0.4891761828375395,2.578285420082012e-06,0.4891761828375395,-3.16444336679268e-05,0.4891761828375395,-4.151708686306282e-06,0.4891761828375395,-1.1462279307133093e-05
0.4899703000174705,1.3063506550226208e-05,0.4899703000174705,-1.495584060480454e-05,0.4899703000174705,-9.960591614139485e-06,0.4899703000174705,-1.35958e-05
0.4907644171974016,5.600252940625168e-06,0.4907644171974016,3.0686014763738786e-05,0.4907644171974016,-1.15816e-05,0.4907644171974016,-1.35958e-05
0.4915585343773327,-3.799663620172847e-06,0.4915585343773327,7.119747150832174e-05,0.4915585343773327,-9.054636670062572e-06,0.4915585343773327,-1.454341477722958e-05
0.4923526515572637,-5.239103538621944e-05,0.4923526515572637,9.26371484155984e-05,0.4923526515572637,-1.5916299550498408e-06,0.4923526515572637,-1.6498451027469787e-05
0.4931467687371948,-5.3356375859664656e-05,0.4931467687371948,9.367082586484696e-05,0.4931467687371948,5.378531103388443e-06,0.4931467687371948,-1.6399630462529676e-05
0.4939408859171259,2.205094747825261e-05,0.4939408859171259,7.379695676402205e-05,0.4939408859171259,9.270529216987449e-06,0.4939408859171259,-1.782111773734324e-05
0.494735003097057,6.948608992025326e-05,0.494735003097057,2.096601938719153e-05,0.494735003097057,1.0928938967227746e-05,0.494735003097057,-1.82956e-05
0.495529120276988,7.990411981063995e-05,0.495529120276988,-3.359776227030713e-05,0.495529120276988,1.3496853346488162e-05,0.495529120276988,-1.6459248761835003e-05
0.4963232374569191,9.540747093809236e-05,0.4963232374569191,-3.848380450542404e-05,0.4963232374569191,1.2351729061907653e-05,0.4963232374569191,-1.44646581238153e-05
0.4971173546368502,7.429467024982364e-05,0.4971173546368502,-1.7199252027369056e-05,0.4971173546368502,1.0357151280060584e-05,0.4971173546368502,-1.1068001706747446e-05
0.4979114718167812,2.641688517047088e-06,0.4979114718167812,-8.392255012440222e-07,0.4979114718167812,4.947092284824517e-06,0.4979114718167812,-1.3042716033492111e-05
0.4987055889967123,-4.933498575552508e-05,0.4987055889967123,-1.0851259539516242e-05,0.4987055889967123,2.714956886865916e-06,0.4987055889967123,-1.39315e-05
0.4994997061766434,-4.649927999145788e-05,0.4994997061766434,-3.708453229652791e-05,0.4994997061766434,-8.367060130983724e-07,0.4994997061766434,-1.4266988333689254e-05
0.5002938233565745,-3.145328641539108e-05,0.5002938233565745,-6.377536526281529e-05,0.5002938233565745,-6.722359517799372e-06,0.5002938233565745,-1.135583233883566e-05
0.5010879405365055,-3.663487278757322e-05,0.5010879405365055,-0.0001022326313436,0.5010879405365055,-4.2562365027746325e-06,0.5010879405365055,-9.213870363184676e-06
0.5018820577164366,-6.555066190525968e-05,0.5018820577164366,-0.0001346368719765,0.5018820577164366,-4.633474060496164e-06,0.5018820577164366,-6.6046592755088426e-06
0.5026761748963677,-8.958357688641369e-05,0.5026761748963677,-0.0001433338124713,0.5026761748963677,1.011018614702414e-06,0.5026761748963677,-7.187686966427748e-06
0.5034702920762988,-0.0001096199245979,0.5034702920762988,-0.000106206428939,0.5034702920762988,3.3091081391700167e-06,0.5034702920762988,-3.289957280742948e-06
0.5042644092562298,-0.0001034926137838,0.5042644092562298,-9.619897291133214e-06,0.5042644092562298,-4.042976636604152e-07,0.5042644092562298,-3.4839730567344704e-06
0.5050585264361609,-6.644524872870357e-05,0.5050585264361609,0.0001278053407632,0.5050585264361609,-1.490805859396131e-06,0.5050585264361609,-7.434215747206115e-06
0.505852643616092,-3.206798998274233e-05,0.505852643616092,0.0001689822053359,0.505852643616092,-1.67849e-07,0.505852643616092,-8.757091177824132e-06
0.506646760796023,-4.386704062860243e-06,0.506646760796023,8.091103930844414e-05,0.506646760796023,1.0946688301897738e-06,0.506646760796023,-1.1926754702961687e-05
0.507440877975954,2.5624604064216196e-05,0.507440877975954,-1.2940045419471816e-05,0.507440877975954,3.996358574009896e-06,0.507440877975954,-1.2685720822879204e-05
0.5082349951558852,5.009891434454383e-05,0.5082349951558852,-3.49637280738783e-05,0.5082349951558852,6.338647010547916e-06,0.5082349951558852,-1.580592412657499e-05
0.5090291123358163,6.564683574199442e-05,0.5090291123358163,-2.791094868479044e-05,0.5090291123358163,2.084224199011351e-06,0.5090291123358163,-1.940051862217752e-05
0.5098232295157473,5.943855781877249e-05,0.5098232295157473,-6.377509663927803e-05,0.5098232295157473,1.4118880552478825e-06,0.5098232295157473,-1.918422017788372e-05
0.5106173466956784,4.120103851506671e-05,0.5106173466956784,-9.31151795764444e-05,0.5106173466956784,3.1102276805988285e-06,0.5106173466956784,-1.3911449277604684e-05
0.5114114638756094,3.316541379712547e-05,0.5114114638756094,-8.028150714738546e-05,0.5114114638756094,8.000835415227052e-07,0.5114114638756094,-1.4523769826077948e-05
0.5122055810555405,2.1755639928435824e-05,0.5122055810555405,-5.544939522738545e-05,0.5122055810555405,3.345715138909491e-07,0.5122055810555405,-1.2254091647571654e-05
0.5129996982354716,3.867051591227965e-06,0.5129996982354716,-2.09964245146754e-05,0.5129996982354716,6.207920062200235e-06,0.5129996982354716,-8.561396928633511e-06
0.5137938154154027,-8.907574475380211e-06,0.5137938154154027,2.463700972921923e-05,0.5137938154154027,1.371155422485191e-05,0.5137938154154027,-6.408496838921798e-06
0.5145879325953338,-4.314645815594902e-05,0.5145879325953338,6.004459627964576e-05,0.5145879325953338,1.065892988769128e-05,0.5145879325953338,-1.0430062143506724e-05
0.5153820497752648,-7.49425067598837e-05,0.5153820497752648,6.74897075865102e-05,0.5153820497752648,4.53193e-06,0.5153820497752648,-1.9497802253294568e-05
0.5161761669551959,-9.126183089753664e-05,0.5161761669551959,1.831616692760372e-05,0.5161761669551959,7.292195676509359e-06,0.5161761669551959,-1.9877087151422776e-05
0.5169702841351269,-0.0001309543979747,0.5169702841351269,-4.667551722598019e-05,0.5169702841351269,9.459556013811356e-06,0.5169702841351269,-1.4449784663962108e-05
0.5177644013150581,-0.0001267876564772,0.5177644013150581,-7.662690272572221e-05,0.5177644013150581,1.0997772298115304e-05,0.5177644013150581,-5.422312646730304e-06
0.5185585184949891,-8.635023618865012e-05,0.5185585184949891,-7.276745529711504e-05,0.5185585184949891,1.0713379115322654e-05,0.5185585184949891,-3.485150843765064e-06
0.5193526356749202,-4.096172500013395e-05,0.5193526356749202,-5.9379273475430434e-05,0.5193526356749202,3.47716063158068e-06,0.5193526356749202,-7.5126509033709746e-06
0.5201467528548512,1.776013986287255e-05,0.5201467528548512,-6.387010404763795e-05,0.5201467528548512,-3.856055897405321e-06,0.5201467528548512,-8.106391003497714e-06
0.5209408700347823,4.248152298997285e-05,0.5209408700347823,-7.435641923365181e-05,0.5209408700347823,-1.1639795294686562e-05,0.5209408700347823,-9.838987464020416e-06
0.5217349872147133,3.0210209935474136e-05,0.5217349872147133,-8.031888951031755e-05,0.5217349872147133,-1.0921824243552604e-05,0.5217349872147133,-1.6446972357216776e-05
0.5225291043946444,-2.445504127640833e-05,0.5225291043946444,-8.305595684287122e-05,0.5225291043946444,-8.738170203257272e-06,0.5225291043946444,-1.7209556592573416e-05
0.5233232215745756,-8.025257067572752e-05,0.5233232215745756,-7.024560903192174e-05,0.5233232215745756,-6.674510474146806e-06,0.5233232215745756,-1.9045919051706383e-05
0.5241173387545066,1.696069634391853e-05,0.5241173387545066,-3.1684009601507805e-05,0.5241173387545066,-6.743703375500148e-06,0.5241173387545066,-2.0684961892714243e-05
0.5249114559344377,0.000172743003836,0.5249114559344377,3.998185350131827e-06,0.5249114559344377,-4.492803084353342e-06,0.5249114559344377,-1.6439694745926193e-05
0.5257055731143687,0.0002751473988503,0.5257055731143687,3.083150058314668e-05,0.5257055731143687,-3.800666398325062e-06,0.5257055731143687,-1.6675787909622277e-05
0.5264996902942998,0.0003204132912275,0.5264996902942998,5.3200587744191605e-05,0.5264996902942998,-4.196676215465906e-06,0.5264996902942998,-1.628229243093181e-05
0.5272938074742308,0.0002007732892757,0.5272938074742308,5.4334114314434544e-05,0.5272938074742308,1.7253900256173798e-06,0.5272938074742308,-9.886448574369611e-06
0.528087924654162,3.662377208172289e-05,0.528087924654162,7.469895611575338e-05,0.528087924654162,5.754667024434877e-06,0.528087924654162,-8.22461e-06
0.528882041834093,-4.678922775604716e-05,0.528882041834093,8.143023706837994e-05,0.528882041834093,8.716367708391045e-06,0.528882041834093,-7.397161129418975e-06
0.5296761590140241,-8.47043346059294e-05,0.5296761590140241,4.153922658289288e-05,0.5296761590140241,1.0179122491433246e-05,0.5296761590140241,-5.382360747996696e-06
0.5304702761939551,-6.95340814349869e-05,0.5304702761939551,-2.482778178811395e-05,0.5304702761939551,7.733260376462216e-06,0.5304702761939551,-6.426094654059567e-06
0.5312643933738862,-6.496572751058389e-05,0.5312643933738862,-6.185399106402623e-05,0.5312643933738862,1.572078885202681e-06,0.5312643933738862,-7.592622742074662e-06
0.5320585105538173,-0.0001092016161749,0.5320585105538173,-8.446471787614798e-05,0.5320585105538173,-4.669174524858381e-06,0.5320585105538173,-9.458259754699007e-06
0.5328526277337483,-0.0001339507980617,0.5328526277337483,-0.0001314359193418,0.5328526277337483,-1.8088695244876931e-06,0.5328526277337483,-1.3229619902366055e-05
0.5336467449136795,-0.0001414311555174,0.5336467449136795,-0.0001681702911081,0.5336467449136795,1.05672884934901e-06,0.5336467449136795,-1.3940937502212845e-05
0.5344408620936105,-0.0001517100730145,0.5344408620936105,-0.0001334689543775,0.5344408620936105,1.962695613611804e-06,0.5344408620936105,-1.49386e-05
0.5352349792735416,-0.0001352115275145,0.5352349792735416,-2.038108855196572e-05,0.5352349792735416,4.116972579673645e-06,0.5352349792735416,-1.4169272260979066e-05
0.5360290964534726,-9.233663681943912e-05,0.5360290964534726,9.792928796744904e-05,0.5360290964534726,3.643815435529739e-06,0.5360290964534726,-1.170060424209227e-05
0.5368232136334037,-8.618473027137211e-05,0.5368232136334037,8.69047301446737e-05,0.5368232136334037,-3.9440326939923754e-08,0.5368232136334037,-1.181850228955889e-05
0.5376173308133347,-8.859357551304694e-05,0.5376173308133347,-3.0593293844029598e-06,0.5376173308133347,-2.665181818882498e-07,0.5376173308133347,-1.3220632374271958e-05
0.5384114479932659,1.33077265219878e-05,0.5384114479932659,-4.985021207375303e-05,0.5384114479932659,4.491846332115381e-06,0.5384114479932659,-1.0535423215278432e-05
0.539205565173197,7.648872995513491e-05,0.539205565173197,-8.043876966446556e-05,0.539205565173197,7.168224377804067e-06,0.539205565173197,-8.69882751121627e-06
0.539999682353128,7.301806125510523e-05,0.539999682353128,-0.0001203311522302,0.539999682353128,7.552876757333885e-06,0.539999682353128,-8.22461e-06
0.5407937995330591,8.887794450497161e-05,0.5407937995330591,-0.0001373101689941,0.5407937995330591,1.0800178465850074e-05,0.5407937995330591,-8.697910229023288e-06
0.5415879167129901,9.606431585556948e-05,0.5415879167129901,-8.337030870545327e-05,0.5415879167129901,1.4362736396572627e-05,0.5415879167129901,-1.2959895495715786e-05
0.5423820338929212,7.4125385034098e-05,0.5423820338929212,4.647935693527539e-05,0.5423820338929212,1.7663208984631456e-05,0.5423820338929212,-1.8037917969262917e-05
0.5431761510728523,1.784830351669605e-05,0.5431761510728523,0.0001356514628327,0.5431761510728523,1.7407866458555723e-05,0.5431761510728523,-1.6975199375667173e-05
0.5439702682527834,-1.1902360564925157e-05,0.5439702682527834,0.0001268800260686,0.5439702682527834,8.292684375932569e-06,0.5439702682527834,-1.746320496089458e-05
0.5447643854327144,-7.647074719262314e-06,0.5447643854327144,5.424202348219174e-05,0.5447643854327144,-5.537425641898511e-06,0.5447643854327144,-2.3625698107506253e-05
0.5455585026126455,5.161855965965483e-06,0.5455585026126455,-4.311464465698961e-05,0.5455585026126455,-8.826530902584254e-06,0.5455585026126455,-2.56809e-05
0.5463526197925765,1.2073380954149276e-05,0.5463526197925765,-9.995353134046776e-05,0.5463526197925765,-1.1127228095414928e-05,0.5463526197925765,-2.3588659522925363e-05
0.5471467369725076,1.583692137136349e-05,0.5471467369725076,-0.0001128046941146,0.5471467369725076,-1.1383030121899316e-05,0.5471467369725076,-2.1614690029403178e-05
0.5479408541524387,8.184818481193528e-06,0.5479408541524387,-8.625168606734611e-05,0.5479408541524387,-1.3989660896604209e-05,0.5479408541524387,-1.5932434620374764e-05
0.5487349713323698,-2.1204895202634188e-05,0.5487349713323698,2.6333727107707275e-06,0.5487349713323698,-1.391285256414984e-05,0.5487349713323698,-8.187320406039267e-06
0.5495290885123009,-2.9077986578717592e-05,0.5495290885123009,0.0001210107072837,0.5495290885123009,-7.3578224284520095e-06,0.5495290885123009,-9.01374707513279e-06
0.5503232056922319,-2.8267679406714718e-05,0.5503232056922319,0.0001347299128517,0.5503232056922319,-2.9918545102190584e-06,0.5503232056922319,-1.09102e-05
0.551117322872163,-3.0854733206291545e-05,0.551117322872163,3.688565540357347e-05,0.551117322872163,4.5322854882661205e-06,0.551117322872163,-9.132848976597934e-06
0.551911440052094,-2.949292100786326e-05,0.551911440052094,-4.350976156025613e-05,0.551911440052094,1.6675115450046006e-05,0.551911440052094,-1.531260906652856e-06
0.5527055572320251,-1.8270083753528574e-05,0.5527055572320251,-9.005081256908266e-05,0.5527055572320251,2.3803991140384394e-05,0.5527055572320251,8.405190267153792e-07
0.5534996744119562,-7.052953639263615e-06,0.5534996744119562,-9.41671907481949e-05,0.5534996744119562,2.400333819662048e-05,0.5534996744119562,-5.871436325802047e-06
0.5542937915918873,-4.592452474008017e-06,0.5542937915918873,-5.150815022943303e-05,0.5542937915918873,1.804241180352205e-05,0.5542937915918873,-1.226954381497996e-05
0.5550879087718184,-1.3339329219442477e-06,0.5550879087718184,-4.962067242002406e-06,0.5550879087718184,8.231507435210698e-06,0.5550879087718184,-1.270880473376841e-05
0.5558820259517494,-4.453239921001809e-06,0.5558820259517494,1.589858209553146e-05,0.5558820259517494,1.4563098075188583e-06,0.5558820259517494,-1.3829819509706794e-05
0.5566761431316805,-1.589698541544742e-05,0.5566761431316805,2.6373698079647656e-05,0.5566761431316805,-3.442709128121384e-06,0.5566761431316805,-1.5333988949989002e-05
0.5574702603116115,-2.186815988628476e-05,0.5574702603116115,-2.779988411268058e-05,0.5574702603116115,-5.20333e-06,0.5574702603116115,-1.455238248951142e-05
0.5582643774915427,-1.5102795327041937e-05,0.5582643774915427,-8.562569164264968e-05,0.5582643774915427,-8.548402754322857e-06,0.5582643774915427,-1.9597352341817752e-05
0.5590584946714737,-4.3550859897565765e-06,0.5590584946714737,-0.0001015263625568,0.5590584946714737,-1.4088486346072354e-05,0.5590584946714737,-1.9125856581269017e-05
0.5598526118514048,-4.169982434439008e-05,0.5598526118514048,-9.144683545231955e-05,0.5598526118514048,-1.6044044724802503e-05,0.5598526118514048,-1.233433165118499e-05
0.5606467290313358,-5.757706944315993e-05,0.5606467290313358,-8.681680074480844e-05,0.5606467290313358,-1.3501273038082288e-05,0.5606467290313358,-5.9740199261320765e-06
0.5614408462112669,-4.570651837825227e-05,0.5614408462112669,-0.0001016276114831,0.5614408462112669,-4.157467534957836e-06,0.5614408462112669,-7.708268705492906e-06
0.5622349633911979,-5.1501557760548096e-05,0.5622349633911979,-8.067907991494438e-05,0.5622349633911979,-7.371281796372193e-06,0.5622349633911979,-1.02388e-05
0.563029080571129,-7.411654323062646e-05,0.563029080571129,-1.1968027332179691e-05,0.563029080571129,-1.5333133080024543e-05,0.563029080571129,-1.02388e-05
0.5638231977510602,-7.463276632192932e-05,0.5638231977510602,7.853295148230015e-05,0.5638231977510602,-1.1019067519708465e-05,0.5638231977510602,-9.528010541613558e-06
0.5646173149309912,-0.0001181184253563,0.5646173149309912,8.630737629888563e-05,0.5646173149309912,-6.763253828631427e-06,0.5646173149309912,-8.856530908244652e-06
0.5654114321109223,-9.92510558103937e-05,0.5654114321109223,4.114497564099074e-05,0.5654114321109223,-4.472829313390941e-06,0.5654114321109223,-1.5757134035913396e-05
0.5662055492908533,6.680165149347213e-05,0.5662055492908533,1.0283068233345972e-05,0.5662055492908533,-9.191648536662228e-07,0.5662055492908533,-1.839417977836441e-05
0.5669996664707844,0.0002314024910573,0.5669996664707844,-4.4118296313450346e-05,0.5669996664707844,1.0067395937691777e-06,0.5669996664707844,-1.8966759730133755e-05
0.5677937836507154,0.0002915156186654,0.5677937836507154,-9.56749021173931e-05,0.5677937836507154,-6.878823866209009e-08,0.5677937836507154,-1.9775977296968486e-05
0.5685879008306466,0.0002581285568977,0.5685879008306466,-0.000130011514535,0.5685879008306466,-7.191176393220208e-07,0.5685879008306466,-2.1058954250632608e-05
0.5693820180105776,9.724982663718034e-05,0.5693820180105776,-0.0001311376223193,0.5693820180105776,-3.52483e-06,0.5693820180105776,-2.224591657956817e-05
0.5701761351905087,-4.235858190133536e-05,0.5701761351905087,-8.950626226825927e-05,0.5701761351905087,-7.647923283923287e-07,0.5701761351905087,-2.027257335350022e-05
0.5709702523704397,-0.0001418275450501,0.5709702523704397,-2.397554456423757e-05,0.5709702523704397,6.375497733707324e-06,0.5709702523704397,-1.767468468826886e-05
0.5717643695503708,-0.0001529720759603,0.5717643695503708,5.5200722946416565e-05,0.5717643695503708,4.614113419304426e-06,0.5717643695503708,-1.4959146711935866e-05
0.5725584867303019,-1.4574780466871996e-05,0.5725584867303019,0.0001208251502234,0.5725584867303019,-2.6548126532955514e-06,0.5725584867303019,-1.3773534361252312e-05
0.573352603910233,6.271616682337533e-05,0.573352603910233,0.000126748536688,0.573352603910233,-2.6788966650118495e-07,0.573352603910233,-1.4050183370612447e-05
0.5741467210901641,3.876920504520539e-05,0.5741467210901641,8.104317977555314e-05,0.5741467210901641,-7.79861130359861e-08,0.5741467210901641,-1.2293192234463002e-05
0.5749408382700951,1.1555648467929007e-06,0.5749408382700951,3.202292410542701e-05,0.5749408382700951,-8.004951741354126e-07,0.5749408382700951,-1.059387549950736e-05
0.5757349554500262,3.65991337129686e-06,0.5757349554500262,1.8988517981805887e-05,0.5757349554500262,1.8835459379404689e-06,0.5757349554500262,-9.62808055082751e-06
