X [s].2,L DELTOID ANTERIOR: EMG 3 [V],X [s].3,L BICEPS BRACHII: EMG 4 [V],X [s].4,L DELTOID POSTERIOR: EMG 5 [V],X [s].7,L DELTOID MEDIUS: EMG 8 [V]
0.0,-1.10781e-05,0.0,-9.9031e-06,0.0,-7.26787e-05,0.0,-4.24659e-05
0.000794117179931,-1.2756498266751678e-05,0.000794117179931,-1.0574499306659363e-05,0.000794117179931,-9.04706816265764e-05,0.000794117179931,-4.04517020800219e-05
0.0015882343598621,-1.4938584501947028e-05,0.0015882343598621,-1.4434972581351222e-05,0.0015882343598621,-0.0001049058974753,0.0015882343598621,-2.2324028750105248e-05
0.0023823515397932,-1.2253e-05,0.0023823515397932,-1.5609998698160025e-05,0.0023823515397932,-9.886320130184e-05,0.0023823515397932,-2.0477643937002266e-05
0.0031764687197242,-1.2253e-05,0.0031764687197242,-1.4938601082427237e-05,0.0031764687197242,-9.953459891757276e-05,0.0031764687197242,-4.313726346816139e-05
0.0039705858996553,-1.0574508666736123e-05,0.0039705858996553,-1.2253013866777797e-05,0.0039705858996553,-8.81209589332893e-05,0.0039705858996553,-5.270465059986226e-05
0.0047647030795864,-3.524891434836016e-06,0.0047647030795864,-8.896039254721165e-06,0.0047647030795864,-4.531967299749878e-05,0.0047647030795864,-3.306647114019289e-05
0.0055588202595174,-2.1820407679413244e-06,0.0055588202595174,-1.0238800548531853e-05,0.0055588202595174,-1.1245892539999496e-05,0.0055588202595174,-1.3260095721467568e-05
0.0063529374394485,-4.531922423041591e-06,0.0063529374394485,-1.191729458786382e-05,0.0063529374394485,1.1581526395270383e-05,0.0063529374394485,-1.6789121450421186e-07
0.0071470546193796,-4.196232274560843e-06,0.0071470546193796,-1.0238811372804214e-05,0.0071470546193796,4.4815474819831664e-05,0.0071470546193796,-3.1891195290133942e-06
0.0079411717993107,-4.8676230666111015e-06,0.0079411717993107,-1.1245889599916652e-05,0.0079411717993107,6.395040239841638e-05,0.0079411717993107,-2.4002185066389888e-05
0.0087352889792417,-1.0071049623701272e-06,0.0087352889792417,-1.359579697941123e-05,0.0087352889792417,5.992220517815218e-05,0.0087352889792417,-3.910888058192934e-05
0.0095294061591728,1.846326199101104e-06,0.0095294061591728,-1.35958e-05,0.0095294061591728,4.917985195650733e-05,0.0095294061591728,-1.3931621772580416e-05
0.0103235233391039,-2.517809064761248e-06,0.0103235233391039,-1.896699013356355e-05,0.0103235233391039,1.6615827235575992e-05,0.0103235233391039,-4.867886526465999e-06
0.0111176405190349,-4.867492984745437e-06,0.0111176405190349,-1.8631317126970597e-05,0.0111176405190349,-2.6688025693006824e-05,0.0111176405190349,-1.359542320766731e-05
0.011911757698966,-2.182183041090081e-06,0.011911757698966,-1.896698211979716e-05,0.011911757698966,-2.719157317703262e-05,0.011911757698966,-6.210813363397191e-06
0.0127058748788971,-5.036010985646619e-07,0.0127058748788971,-2.1652515041891614e-05,0.0127058748788971,-2.56809477905177e-05,0.0127058748788971,6.210027070646809e-06
0.0134999920588282,-2.1820232147168653e-06,0.0134999920588282,-2.366667985856426e-05,0.0134999920588282,-2.870216978634636e-05,0.0134999920588282,-3.524732645393823e-06
0.0142941092387592,1.174955622473174e-06,0.0142941092387592,-2.769505313258048e-05,0.0142941092387592,-1.8966664117990183e-05,0.0142941092387592,-5.539236996257103e-06
0.0150882264186903,2.517672998848229e-06,0.0150882264186903,-2.3666437579443173e-05,0.0150882264186903,9.904328352675011e-06,0.0150882264186903,-2.3331664429064147e-05
0.0158823435986214,5.03691041054573e-07,0.0158823435986214,-1.5778360242804768e-05,0.0158823435986214,4.682727758445372e-05,0.0158823435986214,-4.3303681507459e-05
0.0166764607785524,1.8462736780683111e-06,0.0166764607785524,-1.3595907771311524e-05,0.0166764607785524,8.50977098186248e-05,0.0166764607785524,-3.407385596352732e-05
0.0174705779584835,3.860474092932869e-06,0.0174705779584835,-1.225303727156313e-05,0.0174705779584835,9.282038569128765e-05,0.0174705779584835,-2.7023895675706443e-05
0.0182646951384146,3.86053e-06,0.0182646951384146,-1.1581604110399722e-05,0.0182646951384146,6.0258099353162136e-05,0.0182646951384146,-2.030984110338501e-05
0.0190588123183456,1.1748723029264866e-06,0.0190588123183456,-1.2588726037455292e-05,0.0190588123183456,5.069026305993246e-05,0.0190588123183456,-1.1917148983379798e-05
0.0198529294982767,-3.189052719940088e-06,0.0198529294982767,-1.42672e-05,0.0198529294982767,3.541467883567169e-05,0.0198529294982767,-2.1815412577555867e-06
0.0206470466782078,-8.394037695284304e-07,0.0206470466782078,-1.42672e-05,0.0206470466782078,-5.5362803068973045e-06,0.0206470466782078,1.1244998461563972e-05
0.0214411638581389,-1.6787955728134125e-07,0.0214411638581389,-9.231939180178972e-06,0.0214411638581389,-4.716370545055941e-05,0.0214411638581389,1.158158472129106e-05
0.0222352810380699,-2.853375872070757e-06,0.0222352810380699,-9.735247975972973e-06,0.0222352810380699,-6.730701904130674e-05,0.0222352810380699,6.5462402397927086e-06
0.023029398218001,-4.196226986714052e-06,0.023029398218001,-1.1413696233499158e-05,0.023029398218001,-7.301438719343935e-05,0.023029398218001,8.392588065023079e-07
0.0238235153979321,-5.706905801501025e-06,0.0238235153979321,-1.0238813018727644e-05,0.0238235153979321,-6.6635796419443e-05,0.0238235153979321,-7.55322e-06
0.0246176325778631,-7.553206229679334e-06,0.0246176325778631,-1.0910337703206652e-05,0.0246176325778631,-4.582178100447472e-05,0.0246176325778631,-7.553357702386258e-06
0.0254117497577942,-7.217541236852766e-06,0.0254117497577942,-1.426698763147234e-05,0.0254117497577942,-2.0982771514452405e-05,0.0254117497577942,-1.0909987632737567e-05
0.0262058669377253,-1.158141830196241e-05,0.0262058669377253,-1.3931513976836177e-05,0.0262058669377253,-1.5114506548328034e-06,0.0262058669377253,-1.896666455593178e-05
0.0269999841176564,-2.182019521956976e-05,0.0269999841176564,-9.567497283688305e-06,0.0269999841176564,-1.51064e-06,0.0269999841176564,-1.8967e-05
0.0277941012975874,-2.400239533744353e-05,0.0277941012975874,-6.881820548545667e-06,0.0277941012975874,2.5177438398033285e-06,0.0277941012975874,-1.762420548545667e-05
0.0285882184775185,-2.114903514497545e-05,0.0285882184775185,-7.21752e-06,0.0285882184775185,4.867262919735157e-06,0.0285882184775185,-2.098130153096312e-05
0.0293823356574496,-2.265947761790907e-05,0.0293823356574496,-7.21752e-06,0.0293823356574496,-1.0908921750413251e-05,0.0293823356574496,-2.5344846448136625e-05
0.0301764528373806,-2.1652659807023862e-05,0.0301764528373806,-6.3783198441358285e-06,0.0301764528373806,-2.232322212569186e-05,0.0301764528373806,-3.05482909633883e-05
0.0309705700173117,-1.829572674963412e-05,0.0309705700173117,-4.196312386884607e-06,0.0309705700173117,-5.488547053232475e-05,0.0309705700173117,-3.239483028958907e-05
0.0317646871972428,-1.2253097420904796e-05,0.0317646871972428,-3.1891562366562425e-06,0.0317646871972428,-0.0001035622152237,0.0317646871972428,-1.091054638382704e-05
0.0325588043771738,-9.23169334628924e-06,0.0325588043771738,-2.349896476409388e-06,0.0325588043771738,-0.0001438471831897,0.0325588043771738,1.09101666926336e-05
0.0333529215571049,-6.210456447847586e-06,0.0333529215571049,-3.524884671771379e-06,0.0333529215571049,-0.0001770808086406,0.0333529215571049,4.867356642228834e-06
0.034147038737036,-7.553116419153848e-06,0.034147038737036,-5.538874628730774e-06,0.034147038737036,-0.0001700315438225,0.034147038737036,-5.202553146739385e-06
0.0349411559169671,-9.063776139538086e-06,0.0349411559169671,-9.231505007513042e-06,0.0349411559169671,-0.000138477751719,0.0349411559169671,-7.553089550084171e-06
0.0357352730968981,-7.888949805817262e-06,0.0357352730968981,-9.903077254157496e-06,0.0357352730968981,-0.0001183346823854,0.0357352730968981,-3.239405839535765e-05
0.0365293902768292,-3.5248834349515134e-06,0.0365293902768292,-1.0238795889600275e-05,0.0365293902768292,-8.107165625559367e-05,0.0365293902768292,-4.8843898591638e-05
0.0373235074567603,-2.18201478178313e-06,0.0373235074567603,-1.2252996847708803e-05,0.0373235074567603,-8.895114752963066e-06,0.0373235074567603,-3.843743064959373e-05
0.0381176246366913,5.035115523075254e-07,0.0381176246366913,-1.1917357273638011e-05,0.0381176246366913,8.644456604351322e-05,0.0381176246366913,-3.105189693497167e-05
0.0389117418166224,-6.713109231068604e-07,0.0389117418166224,-1.376346473939818e-05,0.0389117418166224,0.0001562628845514,0.0389117418166224,-2.450647956963958e-05
0.0397058589965535,-1.5105966655894382e-06,0.0397058589965535,-1.426717399655504e-05,0.0397058589965535,0.0002119911225814,0.0397058589965535,-2.183192700288241e-06
0.0404999761764846,-5.035782134136439e-07,0.0404999761764846,-1.3092235250762622e-05,0.0404999761764846,0.0002079651208726,0.0404999761764846,2.786209862929954e-05
0.0412940933564156,-1.510631574486049e-06,0.0412940933564156,-1.493858455268341e-05,0.0412940933564156,0.0001613033903827,0.0412940933564156,1.124603902166622e-05
0.0420882105363467,3.52478991781069e-06,0.0420882105363467,-1.6281420040550724e-05,0.0420882105363467,0.0001082620068478,0.0420882105363467,-1.3931531175221862e-05
0.0428823277162778,5.03822980494511e-07,0.0428823277162778,-1.7791862513484337e-05,0.0428823277162778,3.340881343707725e-05,0.0428823277162778,-1.6281186125007844e-05
0.0436764448962088,-5.538610696441329e-06,0.0436764448962088,-1.5106586357815682e-05,0.0436764448962088,-5.219515987238174e-05,0.0436764448962088,-1.359598635781568e-05
0.0444705620761399,-4.8676620640720745e-06,0.0444705620761399,-1.1078292379656743e-05,0.0444705620761399,-9.147592426133504e-05,0.0444705620761399,-1.35958e-05
0.045264679256071,-1.679717703353139e-07,0.045264679256071,-1.2420764925231787e-05,0.045264679256071,-6.462270154238489e-05,0.045264679256071,-1.2253035077380468e-05
0.046058796436002,-1.67849e-07,0.046058796436002,-1.4938588699869136e-05,0.046058796436002,-3.3737838611737086e-05,0.046058796436002,1.1581493028001003e-05
0.0468529136159331,-5.035422447051807e-07,0.0468529136159331,-1.6952828776559818e-05,0.0468529136159331,2.182345030848296e-06,0.0468529136159331,5.874452379193794e-06
0.0476470307958642,-1.6787825177432793e-07,0.0476470307958642,-1.8631153740692677e-05,0.0476470307958642,1.997254965482784e-05,0.0476470307958642,-9.733899794541467e-06
0.0484411479757953,-4.867322101286032e-06,0.0484411479757953,-1.628155394997936e-05,0.0484411479757953,2.601620413517584e-05,0.0484411479757953,-2.6351211360923845e-05
0.0492352651557263,1.1746748583774269e-06,0.0492352651557263,-1.76241410793469e-05,0.0492352651557263,2.937345269836725e-05,0.0492352651557263,-3.575148755542831e-05
0.0500293823356574,6.210307988359572e-06,0.0500293823356574,-1.8631277597582936e-05,0.0500293823356574,4.81722818237726e-05,0.0500293823356574,-2.1988606164142088e-05
0.0508234995155885,1.1749430717092743e-06,0.0508234995155885,-1.695280102390716e-05,0.0508234995155885,3.642330716728911e-05,0.0508234995155885,-2.769509651877666e-05
0.0516176166955195,-1.846445854891708e-06,0.0516176166955195,-1.42671329593534e-05,0.0516176166955195,-1.2253705697876596e-05,0.0516176166955195,-3.910866006129248e-05
0.0524117338754506,-6.881400749375817e-06,0.0524117338754506,-1.1078365522286968e-05,0.0524117338754506,-4.582000500138941e-05,0.0524117338754506,-2.7696050305189238e-05
0.0532058510553817,-8.224527236690638e-06,0.0532058510553817,-1.2588606893665338e-05,0.0532058510553817,-6.327812406896571e-05,0.0532058510553817,-2.5681024145888573e-05
0.0539999682353128,-9.567356286837966e-06,0.0539999682353128,-1.023889399803356e-05,0.0539999682353128,-7.133557772502787e-05,0.0539999682353128,-3.508012400786575e-05
0.0547940854152438,-1.091017533778532e-05,0.0547940854152438,-1.02388e-05,0.0547940854152438,-5.3208532940541005e-05,0.0547940854152438,-4.078729518480704e-05
0.0555882025951749,-9.567389157987304e-06,0.0555882025951749,-8.560300127486588e-06,0.0555882025951749,-3.541618464265526e-05,0.0555882025951749,-1.9638308953178813e-05
0.056382319775106,-3.189784291154063e-06,0.056382319775106,-5.539335189961847e-06,0.056382319775106,-3.0716874743083295e-05,0.056382319775106,8.2217954608117e-06
0.057176436955037,-4.196150045395159e-06,0.057176436955037,-8.224396787191146e-06,0.057176436955037,-4.263275386508429e-05,0.057176436955037,5.203569864608439e-06
0.0579705541349681,-6.378143971371263e-06,0.0579705541349681,-1.0238683665925596e-05,0.0579705541349681,-5.7907117798443695e-05,0.0579705541349681,-1.896560398821927e-05
0.0587646713148992,-5.203372442100883e-06,0.0587646713148992,-8.896058505309756e-06,0.0587646713148992,-6.092919086224029e-05,0.0587646713148992,-2.9373224084662157e-05
0.0595587884948302,-5.539025136273177e-06,0.0595587884948302,-5.706916205259936e-06,0.0595587884948302,-5.992221459118047e-05,0.0595587884948302,-5.8750604591390215e-06
0.0603529056747613,-8.89601e-06,0.0603529056747613,-6.881830793907711e-06,0.0603529056747613,-5.656519520267593e-05,0.0603529056747613,1.3259999256580316e-05
0.0611470228546924,-8.89601e-06,0.0611470228546924,-8.392313262670082e-06,0.0611470228546924,-5.589386521702279e-05,0.0611470228546924,-8.378764477667527e-07
0.0619411400346235,-7.721158723988743e-06,0.0619411400346235,-7.721120699098509e-06,0.0619411400346235,-5.740428592910498e-05,0.0619411400346235,-5.874339753061008e-06
0.0627352572145545,-3.0215432202250205e-06,0.0627352572145545,-9.902982434044232e-06,0.0627352572145545,-4.951592504734969e-05,0.0627352572145545,-8.22448338988749e-06
0.0635293743944856,-8.393163593488847e-07,0.0635293743944856,-1.2924302579095202e-05,0.0635293743944856,-3.978061390857988e-05,0.0635293743944856,-1.5274072684877922e-05
0.0643234915744167,-1.84632931450148e-06,0.0643234915744167,-1.225300712370812e-05,0.0643234915744167,-3.7094728494832486e-05,0.0643234915744167,-1.7624175067021578e-05
0.0651176087543477,-3.18914e-06,0.0651176087543477,-1.040675735519749e-05,0.0651176087543477,-2.6016588898887364e-05,0.0651176087543477,-2.030985920483179e-05
0.0659117259342788,-3.18914e-06,0.0659117259342788,-1.5609514749223273e-05,0.0659117259342788,-2.500959392040767e-05,0.0659117259342788,-2.5680399100484907e-05
0.0667058431142099,-5.538861664337975e-06,0.0667058431142099,-1.7624055711675673e-05,0.0667058431142099,-3.440842665448648e-05,0.0667058431142099,-3.742955831810809e-05
0.067499960294141,-8.224475718094921e-06,0.067499960294141,-1.6449258751271038e-05,0.067499960294141,-3.105226785363138e-05,0.067499960294141,-4.380838107810039e-05
0.068294077474072,-1.1245814296233736e-05,0.068294077474072,-1.4938642850606636e-05,0.068294077474072,-2.6016742840083217e-05,0.068294077474072,-3.9109033317411006e-05
0.0690881946540031,-1.393148192014962e-05,0.0690881946540031,-1.2588715819869085e-05,0.0690881946540031,-1.6281465538784414e-05,0.0690881946540031,-2.0981322038316852e-05
0.0698823118339342,-1.3595837266870162e-05,0.0698823118339342,-1.1581711800610486e-05,0.0698823118339342,-7.554188936403968e-06,0.0698823118339342,-8.897351606215715e-06
0.0706764290138652,-1.2924460017744427e-05,0.0706764290138652,-1.4266959929022284e-05,0.0706764290138652,-1.0909899913065692e-05,0.0706764290138652,-2.09801196814942e-05
0.0714705461937963,-1.0238981969450333e-05,0.0714705461937963,-2.198777683783029e-05,0.0714705461937963,-8.22479196877276e-06,0.0714705461937963,-2.1820343137934643e-05
0.0722646633737274,-9.903115483490377e-06,0.0722646633737274,-1.9638508384432625e-05,0.0722646633737274,1.174506464575659e-06,0.0722646633737274,-8.402137137206083e-07
0.0730587805536585,-7.55327754510635e-06,0.0730587805536585,-1.393163975359058e-05,0.0730587805536585,1.594533828580392e-05,0.0730587805536585,2.433748344381279e-05
0.0738528977335895,-4.53193862294822e-06,0.0738528977335895,-1.6952791377023242e-05,0.0738528977335895,1.561000095810853e-05,0.0738528977335895,2.383460143702009e-05
0.0746470149135206,-4.53193e-06,0.0746470149135206,-2.030944034838678e-05,0.0746470149135206,6.547091057212995e-06,0.0746470149135206,2.920522455741885e-05
0.0754411320934517,-3.6927517674986297e-06,0.0754411320934517,-1.8967114827997808e-05,0.0754411320934517,-1.5099510354337108e-06,0.0754411320934517,4.817107806735805e-05
0.0762352492733827,-4.867554944920149e-06,0.0762352492733827,-1.4938857331702348e-05,0.0762352492733827,-1.292367089606519e-05,0.0762352492733827,3.675972910010204e-05
0.0770293664533138,-5.035472909191197e-06,0.0770293664533138,-1.393154254485282e-05,0.0770293664533138,-4.532284539172804e-06,0.0770293664533138,2.1835007006991325e-06
0.0778234836332449,-5.539019621609967e-06,0.0778234836332449,-1.2420831136200622e-05,0.0778234836332449,-1.6281157838184196e-05,0.0778234836332449,-3.9779435137461545e-05
0.078617600813176,-1.8463375939655988e-06,0.078617600813176,-7.217519656279044e-06,0.078617600813176,-2.702368487638035e-05,0.078617600813176,-5.1193989516562055e-05
0.079411717993107,5.033053570717144e-07,0.079411717993107,-6.881854663452481e-06,0.079411717993107,-1.2254525181583472e-05,0.079411717993107,-4.095625723013783e-05
0.0802058351730381,-1.677941899915409e-07,0.0802058351730381,-5.87480221538005e-06,0.0802058351730381,9.901291269802487e-06,0.0802058351730381,-3.843770553436833e-05
0.0809999523529692,-1.67849e-07,0.0809999523529692,-5.203370284271519e-06,0.0809999523529692,1.8127206513323797e-05,0.0809999523529692,-4.481531729972057e-05
0.0817940695329002,1.8462627219530112e-06,0.0817940695329002,-5.539017120255163e-06,0.0817940695329002,1.4603035235402451e-05,0.0817940695329002,-3.910911895182556e-05
0.0825881867128313,3.1891175317843185e-06,0.0825881867128313,-8.895953829795443e-06,0.0825881867128313,9.903178638754884e-06,0.0825881867128313,-2.836667974572545e-05
0.0833823038927624,1.1751837411205535e-06,0.0833823038927624,-8.89601e-06,0.0833823038927624,1.728760628255797e-05,0.0833823038927624,-1.6282862434622182e-05
0.0841764210726934,4.5315963415454885e-06,0.0841764210726934,-8.89601e-06,0.0841764210726934,2.9372398835924857e-05,0.0841764210726934,-1.3596066927558744e-05
0.0849705382526245,4.364093051626957e-06,0.0849705382526245,-1.1245717278000175e-05,0.0849705382526245,3.2394665070714763e-05,0.0849705382526245,-2.702265587761919e-05
0.0857646554325556,-1.0067985521145043e-06,0.0857646554325556,-1.0910218840562996e-05,0.0857646554325556,2.4002871014074937e-05,0.0857646554325556,-2.70237e-05
0.0865587726124866,-3.5247431666491715e-06,0.0865587726124866,-9.567456311143434e-06,0.0865587726124866,5.203978356352971e-06,0.0865587726124866,-2.3331127356592886e-05
0.0873528897924177,-1.8463615757772447e-06,0.0873528897924177,-7.553245890958403e-06,0.0873528897924177,3.86054726072463e-06,0.0873528897924177,-1.5610099247881196e-05
0.0881470069723488,4.363352550005852e-06,0.0881470069723488,-9.063683053020704e-06,0.0881470069723488,1.7622587809252683e-05,0.0881470069723488,-9.568117791431198e-06
0.0889411241522799,1.1752446077295684e-06,0.0889411241522799,-1.0406571739891138e-05,0.0889411241522799,1.0575173345513566e-05,0.0889411241522799,-2.1827454067202195e-06
0.0897352413322109,-1.8461167890471732e-06,0.0897352413322109,-1.2252863596097612e-05,0.0897352413322109,-1.5272390301038822e-05,0.0897352413322109,-4.531756391070693e-06
0.090529358512142,-5.53883707492987e-06,0.090529358512142,-1.3931412306548826e-05,0.090529358512142,-5.857713751940875e-05,0.090529358512142,-5.538977383929296e-06
0.0913234756920731,-7.049623758309204e-06,0.0913234756920731,-1.762408696400757e-05,0.0913234756920731,-8.879137516312299e-05,0.0913234756920731,8.559878409865547e-06
0.0921175928720041,-1.0238771373749829e-05,0.0921175928720041,-1.8631290960074832e-05,0.0921175928720041,-9.75203216548795e-05,0.0921175928720041,1.393145178715554e-05
0.0929117100519352,-9.903138020102412e-06,0.0929117100519352,-2.030960989948794e-05,0.0929117100519352,-8.879328851133708e-05,0.0929117100519352,-5.019131414856187e-07
0.0937058272318663,-1.0406653852119232e-05,0.0937058272318663,-1.9302792286597937e-05,0.0937058272318663,-6.59667918295532e-05,0.0937058272318663,-1.4937277229828117e-05
0.0944999444117974,-1.023881175325427e-05,0.0944999444117974,-2.0645406001966445e-05,0.0944999444117974,-4.313889795257014e-05,0.0944999444117974,-2.165213000983222e-05
0.0952940615917284,-6.546298604024849e-06,0.0952940615917284,-1.9974132473634945e-05,0.0952940615917284,-8.226298623696706e-06,0.0952940615917284,-1.2589138394071743e-05
0.0960881787716595,-4.196292818618518e-06,0.0960881787716595,-1.8295644870632747e-05,0.0960881787716595,1.863058207228201e-05,0.0960881787716595,-1.292439102587345e-05
0.0968822959515906,-7.049296169864914e-06,0.0968822959515906,-1.52746958215302e-05,0.0968822959515906,9.90424348442058e-06,0.0968822959515906,-2.2993980608000367e-05
0.0976764131315216,-9.902787856539383e-06,0.0976764131315216,-1.4938636723017466e-05,0.0976764131315216,-1.4264555953681682e-05,0.0976764131315216,-3.172254520154588e-05
0.0984705303114527,-1.023877053967345e-05,0.0984705303114527,-1.158189460326549e-05,0.0984705303114527,-4.112074318265187e-05,0.0984705303114527,-4.045093403150972e-05
0.0992646474913838,-1.1581511209457496e-05,0.0992646474913838,-8.896187580423775e-06,0.0992646474913838,-6.999119101656083e-05,0.0992646474913838,-5.052193407754356e-05
0.1000587646713148,-1.174935028559315e-05,0.1000587646713148,-8.224808916881759e-06,0.1000587646713148,-9.01290325231744e-05,0.1000587646713148,-4.951579837532264e-05
0.1008528818512459,-1.3595525252066194e-05,0.1008528818512459,-8.22461e-06,0.1008528818512459,-0.0001062466022052,0.1008528818512459,-4.448074929225557e-05
0.101646999031177,-1.3931499590385557e-05,0.101646999031177,-8.22461e-06,0.101646999031177,-7.704283563682283e-05,0.101646999031177,-3.239491474599802e-05
0.1024411162111081,-1.0237719066915236e-05,0.1024411162111081,-5.539423065777941e-06,0.1024411162111081,-7.539216982995629e-06,0.1024411162111081,1.72919393365341e-05
0.1032352333910391,-2.85344e-06,0.1032352333910391,-8.225794118549571e-06,0.1032352333910391,8.814201662746024e-05,0.1032352333910391,4.078483440344049e-05
0.1040293505709702,-2.853588033553099e-06,0.1040293505709702,-1.22527039328938e-05,0.1040293505709702,0.0001599601481658,0.1040293505709702,3.205564719472561e-05
0.1048234677509013,-3.188915250286254e-06,0.1048234677509013,-1.1582049499427493e-05,0.1048234677509013,0.0001602957750494,0.1048234677509013,2.4007793993129907e-05
0.1056175849308323,-5.049519123879168e-07,0.1056175849308323,-8.897413911342402e-06,0.1056175849308323,0.0001245626896131,0.1056175849308323,1.2594666593146677e-05
0.1064117021107634,1.5098843262902115e-06,0.1064117021107634,-6.211427567197437e-06,0.1064117021107634,9.149020562351806e-05,0.1064117021107634,-7.545663247895102e-06
0.1072058192906945,-2.181199569725313e-06,0.1072058192906945,-3.6932530214694447e-06,0.1072058192906945,5.254566272174317e-05,0.1072058192906945,-1.0909435972891364e-05
0.1079999364706256,-5.5387614011655326e-06,0.1079999364706256,-3.5248434299817294e-06,0.1079999364706256,2.0648051680526194e-05,0.1079999364706256,-6.210796037888184e-06
0.1087940536505566,-2.8534626832391336e-06,0.1087940536505566,-4.867924880757338e-06,0.1087940536505566,-2.1837185502360915e-06,0.1087940536505566,-1.5105764874034155e-05
0.1095881708304877,-3.1895011300571406e-06,0.1095881708304877,-9.232360035824068e-06,0.1095881708304877,-2.7026589057669265e-05,0.1095881708304877,-5.706544983163725e-06
0.1103822880104188,-4.86787353928866e-06,0.1103822880104188,-1.2254461235731955e-05,0.1103822880104188,-4.045121292142268e-05,0.1103822880104188,-4.199395999870566e-06
0.1111764051903498,-5.541767542454823e-06,0.1111764051903498,-1.628225548679532e-05,0.1111764051903498,-3.91069323548871e-05,0.1111764051903498,-1.2922689031506093e-05
0.1119705223702809,-1.090697304349926e-05,0.1119705223702809,-1.7958891570461095e-05,0.1119705223702809,-3.525061941797909e-05,0.1119705223702809,-9.569426853069891e-06
0.112764639550212,-9.903557190152985e-06,0.112764639550212,-1.5611066777023632e-05,0.112764639550212,-6.209200830798376e-05,0.112764639550212,-8.896314793435323e-06
0.1135587567301431,-1.158108573242468e-05,0.1135587567301431,-1.695238858593975e-05,0.1135587567301431,-0.0001097583949846,0.1135587567301431,-2.433336877200944e-05
0.1143528739100741,-1.2924186758750114e-05,0.1143528739100741,-1.6281506620624943e-05,0.1143528739100741,-0.0001290729346173,0.1143528739100741,-3.2057973862813154e-05
0.1151469910900052,-8.392510855871155e-06,0.1151469910900052,-1.3595830136879037e-05,0.1151469910900052,-0.0001022203013687,0.1151469910900052,-3.004502260265928e-05
0.1159411082699363,-5.539625085114539e-06,0.1159411082699363,-1.3596028880463593e-05,0.1159411082699363,-8.090295668612262e-05,0.1159411082699363,-2.9040692328019824e-05
0.1167352254498673,-9.903576596476557e-06,0.1167352254498673,-1.5274967235067176e-05,0.1167352254498673,-7.837940427419899e-05,0.1167352254498673,-4.951769234379215e-05
0.1175293426297984,-1.158188936056186e-05,0.1175293426297984,-1.76242e-05,0.1175293426297984,-5.654928525529384e-05,0.1175293426297984,-5.722849794736599e-05
0.1183234598097295,-1.225254379402817e-05,0.1183234598097295,-1.76242e-05,0.1183234598097295,-1.9663491192553744e-05,0.1183234598097295,-3.8450273699262784e-05
0.1191175769896605,-8.22675615947251e-06,0.1191175769896605,-1.6617636541200026e-05,0.1191175769896605,2.0959559558208224e-05,0.1191175769896605,-2.3003526965067035e-05
0.1199116941695916,-5.204493727073206e-06,0.1199116941695916,-1.561038791159225e-05,0.1199116941695916,4.312876598348824e-05,0.1199116941695916,-1.518915393376525e-06
0.1207058113495227,-1.0237603597205584e-05,0.1207058113495227,-1.3764038695517918e-05,0.1207058113495227,4.7835883374498725e-05,0.1207058113495227,1.3256590545150388e-05
0.1214999285294538,-9.567470434017652e-06,0.1214999285294538,-1.695251292963986e-05,0.1214999285294538,4.515164173967114e-05,0.1214999285294538,3.8603018595355625e-05
0.1222940457093848,-7.553162022768883e-06,0.1222940457093848,-1.963828404553777e-05,0.1222940457093848,1.963698922473928e-05,0.1222940457093848,5.555686315815968e-05
0.1230881628893159,-6.54667094951888e-06,0.1230881628893159,-1.7623270258967465e-05,0.1230881628893159,-4.870797965375193e-06,0.1230881628893159,3.4067167387029575e-05
0.123882280069247,-9.23230205721713e-06,0.123882280069247,-1.3090956693600578e-05,0.123882280069247,-2.0306721284128854e-05,0.123882280069247,3.686581799023408e-06
0.124676397249178,-1.090852256912474e-05,0.124676397249178,-9.56824871543763e-06,0.124676397249178,-1.157891610460337e-05,0.124676397249178,-1.3605529107071458e-05
0.1254705144291091,-7.555270379583885e-06,0.1254705144291091,-1.1244874810208058e-05,0.1254705144291091,-6.213700614663589e-06,0.1254705144291091,-3.3054407788640975e-05
0.1262646316090402,-3.191164795490796e-06,0.1262646316090402,-1.191698849157382e-05,0.1262646316090402,-2.265196809923482e-05,0.1262646316090402,-5.672201939757245e-05
0.1270587487889713,-1.5111710550524874e-06,0.1270587487889713,-9.568153473909615e-06,0.1270587487889713,-3.7761320504527615e-05,0.1270587487889713,-6.394831644745497e-05
0.1278528659689023,1.8457733252970448e-06,0.1278528659689023,-7.721381671255428e-06,0.1278528659689023,-2.366908004793202e-05,0.1278528659689023,-4.750407672258736e-05
0.1286469831488334,1.1749542492106263e-06,0.1286469831488334,-8.224599313304261e-06,0.1286469831488334,-1.6281556739194577e-05,0.1286469831488334,-4.716560712460532e-05
0.1294411003287645,-1.67721744839921e-07,0.1294411003287645,-8.895670652485261e-06,0.1294411003287645,-2.2994790989468376e-05,0.1294411003287645,-4.5821230524536106e-05
0.1302352175086955,8.385103094361027e-07,0.1302352175086955,-6.210236079139639e-06,0.1302352175086955,-1.896957490300268e-05,0.1302352175086955,-3.339698809560341e-05
0.1310293346886266,-1.847894592886454e-06,0.1310293346886266,-5.540301934659012e-06,0.1310293346886266,-2.8363956113842297e-05,0.1310293346886266,-1.509784976648898e-05
0.1318234518685577,-5.5364839880558095e-06,0.1318234518685577,-8.558226907466713e-06,0.1318234518685577,-2.232806621264552e-05,0.1318234518685577,5.1893269791227285e-06
0.1326175690484888,-1.512826449317771e-06,0.1326175690484888,-1.1579960164368573e-05,0.1326175690484888,-1.2593983878025309e-05,0.1326175690484888,1.8624011833798227e-05
0.1334116862284198,3.858407430103182e-06,0.1334116862284198,-1.15816e-05,0.1334116862284198,-3.0373668987463776e-05,0.1334116862284198,2.8027085521451535e-05
0.1342058034083509,-1.6685158731650813e-07,0.1342058034083509,-1.3595301291058487e-05,0.1342058034083509,-4.716144411691374e-05,0.1342058034083509,2.3332163654196856e-05
0.134999920588282,-7.552481353905253e-06,0.134999920588282,-1.5609798550274045e-05,0.134999920588282,-5.455026135100483e-05,0.134999920588282,-1.6549876829940005e-07
0.135794037768213,-5.707101538648688e-06,0.135794037768213,-1.6952831936496556e-05,0.135794037768213,-4.515170339671728e-05,0.135794037768213,-2.299575509745427e-05
0.1365881549481441,-1.0576399832075228e-05,0.1365881549481441,-1.762341386258956e-05,0.1365881549481441,-5.153395822479167e-05,0.1365881549481441,-3.2563029280320606e-05
0.1373822721280752,-2.030968494534654e-05,0.1373822721280752,-1.3594074183625374e-05,0.1373822721280752,-7.335113549188117e-05,0.1373822721280752,-3.373608923485153e-05
0.1381763893080062,-1.9972620482667465e-05,0.1381763893080062,-8.56055658622209e-06,0.1381763893080062,-7.6359317348572e-05,0.1381763893080062,-2.9034940965334934e-05
0.1389705064879373,-1.695467553206908e-05,0.1389705064879373,-9.06354741132182e-06,0.1389705064879373,-5.17129167521153e-05,0.1389705064879373,-2.2999051064138152e-05
0.1397646236678684,-1.4268472893668188e-05,0.1397646236678684,-8.896089555854261e-06,0.1397646236678684,-2.200238131510884e-05,0.1397646236678684,-2.903503598924658e-05
0.1405587408477994,-8.56217266133695e-06,0.1405587408477994,-8.89601e-06,0.1405587408477994,-1.1584996623683868e-05,0.1405587408477994,-3.910561294482207e-05
0.1413528580277305,-7.553400074121953e-06,0.1413528580277305,-1.0070789904286056e-05,0.1413528580277305,5.200328747349492e-06,0.1413528580277305,-4.011581992408999e-05
0.1421469752076616,-8.224589036110775e-06,0.1421469752076616,-1.292431090370498e-05,0.1421469752076616,5.555652769207138e-05,0.1421469752076616,-1.5946454708130472e-05
0.1429410923875927,-4.531578451246965e-06,0.1429410923875927,-1.560976563338893e-05,0.1429410923875927,0.0001065861093227,0.1429410923875927,9.905443654474997e-06
0.1437352095675237,-1.510064075452287e-06,0.1437352095675237,-1.3596154417217796e-05,0.1437352095675237,0.0001247083671443,0.1437352095675237,3.0046594877480087e-05
0.1445293267474548,6.724318001474197e-07,0.1445293267474548,-1.4937496210107262e-05,0.1445293267474548,0.0001109387559651,0.1445293267474548,3.607766593206568e-05
0.1453234439273859,3.187378933419337e-06,0.1453234439273859,-1.2254878476242023e-05,0.1453234439273859,8.847233188879576e-05,0.1453234439273859,1.1934206216232e-05
0.146117561107317,1.1760533723452183e-06,0.146117561107317,-8.226836739162821e-06,0.146117561107317,6.094451603344183e-05,0.146117561107317,-1.2575154025075996e-05
0.146911678287248,-1.673049290372007e-07,0.146911678287248,-6.882364071367978e-06,0.146911678287248,2.1332950143847466e-05,0.146911678287248,-3.5742514739526825e-05
0.1477057954671791,-2.517134672751917e-06,0.1477057954671791,-7.217433524347647e-06,0.1477057954671791,2.186969101880147e-06,0.1477057954671791,-3.1724537707828224e-05
0.1484999126471102,-2.853403067550252e-06,0.1484999126471102,-6.881856932449748e-06,0.1484999126471102,-1.0237433505960293e-05,0.1484999126471102,-2.165370796249082e-05
0.1492940298270412,-3.5248552215056647e-06,0.1492940298270412,-1.1581650443011328e-05,0.1492940298270412,-3.038052344946035e-05,0.1492940298270412,-4.062018728415108e-05
0.1500881470069723,-4.196105692089128e-06,0.1500881470069723,-1.2924182451898606e-05,0.1500881470069723,-2.568152153955436e-05,0.1500881470069723,-5.8912924611559735e-05
0.1508822641869034,-3.524271517537149e-06,0.1508822641869034,-1.1750293577264228e-05,0.1508822641869034,-2.904136261189888e-05,0.1508822641869034,-4.715308998817394e-05
0.1516763813668344,-1.8476282955433877e-06,0.1516763813668344,-1.4434919505214057e-05,0.1516763813668344,-3.9452812866699726e-05,0.1516763813668344,-9.563867188454952e-06
0.1524704985467655,-4.530236040513373e-06,0.1524704985467655,-1.42673058413242e-05,0.1524704985467655,-5.655440103113775e-05,0.1524704985467655,-2.186698387011329e-06
0.1532646157266966,-5.5385425923880935e-06,0.1532646157266966,-1.2589512346019843e-05,0.1532646157266966,-5.488751234601984e-05,0.1532646157266966,-3.691948893421854e-06
0.1540587329066277,-3.693301093007508e-06,0.1540587329066277,-1.2924287073998637e-05,0.1540587329066277,-4.448350070604232e-05,0.1540587329066277,1.3589984334476977e-05
0.1548528500865587,-4.867408160204336e-06,0.1548528500865587,-1.3595673234402476e-05,0.1548528500865587,-4.548690985160372e-05,0.1548528500865587,6.547451034997826e-06
0.1556469672664898,-7.553109283642815e-06,0.1556469672664898,-1.4938544641615275e-05,0.1556469672664898,-5.723611561413368e-05,0.1556469672664898,-1.7790996634636287e-05
0.1564410844464209,-9.063413707046823e-06,0.1564410844464209,-1.393160711081927e-05,0.1564410844464209,-4.665993993712918e-05,0.1564410844464209,-1.6951836003690134e-05
0.157235201626352,-4.865925071437817e-06,0.157235201626352,-1.4938259012763938e-05,0.157235201626352,-2.635012621906698e-05,0.157235201626352,-7.88976246555078e-06
0.158029318806283,1.84634e-06,0.158029318806283,-1.3594723036284616e-05,0.158029318806283,-1.779166346888965e-05,0.158029318806283,-1.1248592409288462e-05
0.1588234359862141,1.84634e-06,0.1588234359862141,-1.0912105302419284e-05,0.1588234359862141,-1.6953395371533464e-05,0.1588234359862141,-1.7955136743951787e-05
0.1596175531661451,-1.6671548887250205e-07,0.1596175531661451,-1.3258777563129128e-05,0.1596175531661451,-1.3933200275976837e-05,0.1596175531661451,-1.6953366758658947e-05
0.1604116703460762,-4.53011811533353e-06,0.1604116703460762,-1.32601e-05,0.1604116703460762,-2.970274935305036e-05,0.1604116703460762,-2.1315088107445085e-05
0.1612057875260073,-9.56606250813538e-06,0.1612057875260073,-1.0239608498329964e-05,0.1612057875260073,-4.98458100378935e-05,0.1612057875260073,-2.13169e-05
0.1619999047059384,-1.3259656811803049e-05,0.1619999047059384,-7.553542317161195e-06,0.1619999047059384,-6.462022724241148e-05,0.1619999047059384,-1.124710869835581e-05
0.1627940218858694,-1.426725551954446e-05,0.1627940218858694,-8.56021746797718e-06,0.1627940218858694,-7.704266120113884e-05,0.1627940218858694,-1.561035624903209e-05
0.1635881390658005,-1.6281517592920003e-05,0.1635881390658005,-5.203682777008556e-06,0.1635881390658005,-7.200600649539453e-05,0.1635881390658005,-2.8534840964692725e-05
0.1643822562457316,-1.6952366641349625e-05,0.1643822562457316,-7.218603390171392e-06,0.1643822562457316,-6.462069992404887e-05,0.1643822562457316,-3.1049391508435135e-05
0.1651763734256627,-1.5608580841566407e-05,0.1651763734256627,-1.05749730528112e-05,0.1651763734256627,-6.05989612182218e-05,0.1651763734256627,-2.2651715842846165e-05
0.1659704906055937,-1.259063589096812e-05,0.1659704906055937,-1.1580954703010626e-05,0.1659704906055937,-7.199998669819521e-05,0.1659704906055937,-5.885474872933167e-06
0.1667646077855248,-8.226765742152353e-06,0.1667646077855248,-1.7285680946110352e-05,0.1667646077855248,-8.207332519901828e-05,0.1667646077855248,-1.0572178436087984e-05
0.1675587249654559,-5.06222507263511e-07,0.1675587249654559,-1.69529162834968e-05,0.1675587249654559,-6.630586532434954e-05,0.1675587249654559,3.3191880436637666e-07
0.1683528421453869,9.229774539818e-06,0.1683528421453869,-1.4267733922353652e-05,0.1683528421453869,-1.3606278166547642e-05,0.1683528421453869,3.339542611044443e-05
0.169146959325318,9.23171e-06,0.169146959325318,-1.7624028029083973e-05,0.169146959325318,1.6615552266878505e-05,0.169146959325318,1.1765909136220062e-06
0.1699410765052491,3.524538886735472e-06,0.1699410765052491,-2.4002044202414537e-05,0.1699410765052491,2.333064420241454e-05,0.1699410765052491,-4.481612049944286e-05
0.1707351936851801,5.032204442092897e-07,0.1707351936851801,-2.030824410304195e-05,0.1707351936851801,1.9636352767160464e-05,0.1707351936851801,-4.91744772190108e-05
0.1715293108651112,-8.397710664229111e-07,0.1715293108651112,-1.3930974931230938e-05,0.1715293108651112,1.1249772362620572e-05,0.1715293108651112,-2.7353230481066043e-05
0.1723234280450423,-2.1810739400182752e-06,0.1723234280450423,-1.2589666064298364e-05,0.1723234280450423,2.1141875311771564e-05,0.1723234280450423,-1.1592951183561775e-05
0.1731175452249733,-1.690026571355433e-07,0.1731175452249733,-8.898125041804798e-06,0.1731175452249733,4.2118182713112976e-05,0.1731175452249733,-1.15816e-05
0.1739116624049044,1.174369069293763e-06,0.1739116624049044,-1.0909343601176955e-05,0.1739116624049044,4.917680263175623e-05,0.1739116624049044,-1.7621630790775387e-05
0.1747057795848355,8.393391889776139e-07,0.1747057795848355,-1.09102e-05,0.1747057795848355,4.347458421317464e-05,0.1747057795848355,-3.80961153985237e-05
0.1754998967647666,8.39246e-07,0.1754998967647666,-7.88930282566535e-06,0.1754998967647666,4.783643259627392e-05,0.1754998967647666,-4.7164421532105294e-05
0.1762940139446976,2.1820576872859293e-06,0.1762940139446976,-8.728139365008708e-06,0.1762940139446976,5.320837097709732e-05,0.1762940139446976,-1.4602062805311868e-05
0.1770881311246287,3.189472632135968e-06,0.1770881311246287,-7.552998244141725e-06,0.1770881311246287,6.295015259317605e-05,0.1770881311246287,3.307101229547389e-05
0.1778822483045598,5.203067544582098e-06,0.1778822483045598,-6.212729601423014e-06,0.1778822483045598,0.0001032222759275,0.1778822483045598,6.158883704638345e-05
0.1786763654844909,4.362613860114101e-06,0.1786763654844909,-1.3597960633975225e-05,0.1786763654844909,8.808864495928853e-05,0.1786763654844909,2.365203864251661e-05
0.1794704826644219,1.1770152900444778e-06,0.1794704826644219,-1.829254166823939e-05,0.1794704826644219,1.8005556328919606e-05,0.1794704826644219,-8.203857158121509e-06
0.180264599844353,1.683565480487049e-07,0.180264599844353,-1.896666163161035e-05,0.180264599844353,-3.203399165576599e-05,0.180264599844353,2.176795315159151e-06
0.181058717024284,-5.872566473187984e-06,0.181058717024284,-1.762467856396893e-05,0.181058717024284,-7.702676817831935e-05,0.181058717024284,1.175298922976698e-06
0.1818528342042151,-1.2419433107718998e-05,0.1818528342042151,-1.6281680391158513e-05,0.1818528342042151,-0.0001095992004517,0.1818528342042151,-1.3257085807574617e-05
0.1826469513841462,-1.3092158890825926e-05,0.1826469513841462,-1.4938682218348144e-05,0.1826469513841462,-0.0001059132261188,0.1826469513841462,-2.0309368353672232e-05
0.1834410685640773,-1.3595684045537778e-05,0.1834410685640773,-1.2420727532778748e-05,0.1834410685640773,-8.644034181693082e-05,0.1834410685640773,-2.9374556624313333e-05
0.1842351857440083,-1.2252685872727408e-05,0.1842351857440083,-1.1581521468181852e-05,0.1842351857440083,-6.259892592794274e-05,0.1842351857440083,-4.045209265909074e-05
0.1850293029239394,-1.0910839569600482e-05,0.1850293029239394,-1.1245644172159807e-05,0.1850293029239394,-2.466036911459713e-05,0.1850293029239394,-4.212469970143584e-05
0.1858234201038705,-1.2587475653266255e-05,0.1858234201038705,-1.0574989738693496e-05,0.1858234201038705,1.0548788864477188e-05,0.1858234201038705,-2.77056293819102e-05
0.1866175372838016,-1.25887e-05,0.1866175372838016,-8.393731618707287e-06,0.1866175372838016,4.815078904764337e-05,0.1866175372838016,-1.830107770895086e-05
0.1874116544637326,-8.897617000401859e-06,0.1874116544637326,-9.063567817317507e-06,0.1874116544637326,7.233248146694873e-05,0.1874116544637326,-2.098003126927004e-05
0.1882057716436637,-5.539995475634486e-06,0.1882057716436637,-9.56726517779202e-06,0.1882057716436637,6.395301367470609e-05,0.1882057716436637,-8.228278826392806e-06
0.1889998888235948,-6.210325991528108e-06,0.1889998888235948,-9.56741e-06,0.1889998888235948,2.4007993573387822e-05,0.1889998888235948,8.379768728875713e-07
0.1897940060035258,-1.0238794923542526e-05,0.1897940060035258,-1.32601177678658e-05,0.1897940060035258,-1.4267387830968044e-05,0.1897940060035258,-2.098125837937437e-05
0.1905881231834569,-9.56751416138684e-06,0.1905881231834569,-1.5609791674123463e-05,0.1905881231834569,-3.911238944291774e-05,0.1905881231834569,-2.870344995525924e-05
0.191382240363388,-1.023869837532826e-05,0.191382240363388,-1.4266183753282611e-05,0.191382240363388,-6.160801694609272e-05,0.191382240363388,-3.675666263255001e-05
0.192176357543319,-9.902043164912452e-06,0.192176357543319,-1.0908539254008254e-05,0.192176357543319,-8.577930355006271e-05,0.192176357543319,-2.902582184487964e-05
0.1929704747232501,-7.55477262557098e-06,0.1929704747232501,-7.219959847734117e-06,0.1929704747232501,-0.0001042218010256,0.1929704747232501,-2.19978435076117e-06
0.1937645919031812,-9.566374754998207e-06,0.1937645919031812,-8.224092380068982e-06,0.1937645919031812,-9.685279571159534e-05,0.1937645919031812,8.376931319833347e-07
0.1945587090831123,-1.0574131008200942e-05,0.1945587090831123,-8.22461e-06,0.1945587090831123,-8.9801882968241e-05,0.1945587090831123,-7.214568048753404e-06
0.1953528262630433,-1.0910126544714935e-05,0.1953528262630433,-7.217740363667064e-06,0.1953528262630433,-9.214868581300456e-05,0.1953528262630433,1.25843661556863e-05
0.1961469434429744,-1.040673586456218e-05,0.1961469434429744,-3.6929310761536335e-06,0.1961469434429744,-6.932332601448494e-05,0.1961469434429744,1.6616813055010357e-05
0.1969410606229055,-1.023895378672073e-05,0.1969410606229055,-2.8535937859572183e-06,0.1969410606229055,-2.23201578793676e-05,0.1969410606229055,-4.868398931313117e-06
0.1977351778028366,-1.2251797215315049e-05,0.1977351778028366,-4.868081043697024e-06,0.1977351778028366,2.669634432742925e-05,0.1977351778028366,-1.4939502091872707e-05
0.1985292949827676,-6.879328797802061e-06,0.1985292949827676,-6.8828164814728514e-06,0.1985292949827676,6.395421222168481e-05,0.1985292949827676,-1.8964384226393767e-05
0.1993234121626987,-1.728134309352371e-07,0.1993234121626987,-9.565424226442836e-06,0.1993234121626987,7.367860161799317e-05,0.1993234121626987,-1.1922512674997275e-05
0.2001175293426297,6.542140177590361e-06,0.2001175293426297,-1.2251408069613502e-05,0.2001175293426297,7.804731310348947e-05,0.2001175293426297,-1.376250557342238e-05
0.2009116465225608,8.559413311431782e-06,0.2009116465225608,-1.728625826744981e-05,0.2009116465225608,6.697683176709185e-05,0.2009116465225608,-2.584341984187954e-05
0.2017057637024919,1.1077350695840277e-05,0.2017057637024919,-1.6952899905634077e-05,0.2017057637024919,4.817829471550822e-05,0.2017057637024919,-1.0243445597104311e-05
0.202499880882423,6.546799897325847e-06,0.202499880882423,-1.4603252537020466e-05,0.202499880882423,1.108366501117467e-05,0.202499880882423,-5.050085033122929e-07
0.203293998062354,-1.5106203386042278e-06,0.203293998062354,-1.6281395903855545e-05,0.203293998062354,-3.4408988994851305e-05,0.203293998062354,-8.392440748213791e-06
0.2040881152422851,-5.539322342390863e-06,0.2040881152422851,-1.628120510410515e-05,0.2040881152422851,-6.092861786436802e-05,0.2040881152422851,-1.4938892343842276e-05
0.2048822324222162,-7.5538587337186735e-06,0.2048822324222162,-1.493889480152888e-05,0.2048822324222162,-5.622625718318232e-05,0.2048822324222162,-1.6955354917311306e-05
0.2056763496021472,-9.733709947631645e-06,0.2056763496021472,-1.5944371379914968e-05,0.2056763496021472,-4.514091875172389e-05,0.2056763496021472,-2.5674995065819427e-05
0.2064704667820783,-6.212784160828744e-06,0.2064704667820783,-1.2926426429316474e-05,0.2064704667820783,-2.133288614157598e-05,0.2064704667820783,-1.2262006285446227e-05
0.2072645839620094,-5.874895899185692e-06,0.2072645839620094,-1.0240207193485535e-05,0.2072645839620094,3.847337597751487e-06,0.2072645839620094,-1.0910903596742767e-05
0.2080587011419405,-9.566020087949985e-06,0.2080587011419405,-1.4265683728202935e-05,0.2080587011419405,1.7283445771968326e-05,0.2080587011419405,-1.6279378304270584e-05
0.2088528183218715,-6.882434499955926e-06,0.2088528183218715,-1.42672e-05,0.2088528183218715,2.0309108684975423e-05,0.2088528183218715,-2.4336256516149185e-05
0.2096469355018026,-8.895846383344896e-06,0.2096469355018026,-1.2253163617467424e-05,0.2096469355018026,1.4267690852402274e-05,0.2096469355018026,-4.5821054755137335e-05
0.2104410526817337,-1.0406644313284258e-05,0.2104410526817337,-1.39315668208741e-05,0.2104410526817337,-5.8771923643797e-06,0.2104410526817337,-4.31366095176343e-05
0.2112351698616647,-9.568846334406288e-06,0.2112351698616647,-1.4938169099036318e-05,0.2112351698616647,-4.315575688182469e-05,0.2112351698616647,-3.2732539054336566e-05
0.2120292870415958,-1.628382411140931e-05,0.2120292870415958,-1.2923793963121209e-05,0.2120292870415958,-0.0001294260599833,0.2120292870415958,-4.179656048928203e-05
0.2128234042215269,-2.2990268557118948e-05,0.2128234042215269,-1.1247157879455436e-05,0.2128234042215269,-0.0001683238173465,0.2128234042215269,-4.749702328479221e-05
0.2136175214014579,-2.098241403693134e-05,0.2136175214014579,-9.232924091180544e-06,0.2136175214014579,-0.0001304418654371,0.2136175214014579,-1.6300218386173806e-05
0.214411638581389,-1.8967916837992608e-05,0.214411638581389,-7.553984027108635e-06,0.214411638581389,-6.901396351325585e-05,0.214411638581389,1.4588841862965388e-05
0.2152057557613201,-2.0477135331297425e-05,0.2152057557613201,-1.2587151059209292e-05,0.2152057557613201,-2.099596653523989e-05,0.2152057557613201,-1.5056833882393166e-06
0.2159998729412512,-2.467312850891472e-05,0.2159998729412512,-1.3763411988256971e-05,0.2159998729412512,8.555582660833422e-06,0.2159998729412512,-2.90334949883961e-05
0.2167939901211822,-1.896707100306914e-05,0.2167939901211822,-1.1581627148085943e-05,0.2167939901211822,4.817220714914383e-05,0.2167939901211822,-5.539322369084486e-06
0.2175881073011133,-2.180996575054052e-06,0.2175881073011133,-1.309283513069574e-05,0.2175881073011133,0.000109271723845,0.2175881073011133,4.0787059744656e-05
0.2183822244810444,5.538840180638258e-06,0.2183822244810444,-1.7793281266555674e-05,0.2183822244810444,0.000122019546283,0.2183822244810444,3.826290890990684e-05
0.2191763416609755,4.867052915273108e-06,0.2191763416609755,-2.232418854236345e-05,0.2191763416609755,9.91934898521735e-05,0.2191763416609755,1.4591935433165267e-05
0.2199704588409065,3.52574404834049e-06,0.2199704588409065,-2.2994842975829755e-05,0.2199704588409065,8.661876916915693e-05,0.2199704588409065,-1.0892833149601018e-05
0.2207645760208376,-5.013969315741612e-07,0.2207645760208376,-1.8298109540137723e-05,0.2207645760208376,4.685114183661523e-05,0.2207645760208376,-3.003478242257436e-05
0.2215586932007686,-8.391162872942601e-07,0.2215586932007686,-1.4268756561742407e-05,0.2215586932007686,-1.4919613595543375e-06,0.2215586932007686,-2.132027251180218e-05
0.2223528103806997,-2.517339150053241e-06,0.2223528103806997,-1.258910085137965e-05,0.2223528103806997,-2.1647789792996805e-05,0.2223528103806997,1.0566883847668163e-05
0.2231469275606308,-2.51774e-06,0.2231469275606308,-1.1581691881220014e-05,0.2231469275606308,-2.9708564959363235e-05,0.2231469275606308,1.359552435633996e-05
0.2239410447405619,-1.5105359619652814e-06,0.2239410447405619,-1.0238837832258508e-05,0.2239410447405619,-4.112357289759652e-05,0.2239410447405619,-1.258945663953534e-05
0.2247351619204929,3.353214761219413e-07,0.2247351619204929,-1.09102e-05,0.2247351619204929,-4.951611613398672e-05,0.2247351619204929,-2.601642886186686e-05
0.225529279100424,-1.5117006834216072e-06,0.225529279100424,-1.0910789270517946e-05,0.225529279100424,-5.253727141641436e-05,0.225529279100424,-2.5178048180016256e-05
0.2263233962803551,-4.529635645124653e-06,0.2263233962803551,-1.258742535418372e-05,0.2263233962803551,-5.3878580283346976e-05,0.2263233962803551,-2.702229792757188e-05
0.2271175134602862,-3.022215675507869e-06,0.2271175134602862,-1.0911228535150635e-05,0.2271175134602862,-4.733751125644896e-05,0.2271175134602862,-3.004314863672885e-05
0.2279116306402172,-1.6917638834745113e-07,0.2279116306402172,-9.735806568744529e-06,0.2279116306402172,-3.911272599051547e-05,0.2279116306402172,-3.50781575425868e-05
0.2287057478201483,-1.8458068997337464e-06,0.2287057478201483,-1.0909826830988767e-05,0.2287057478201483,-4.582066761926183e-05,0.2287057478201483,-3.877202717312562e-05
0.2294998650000794,-7.552249687220537e-06,0.2294998650000794,-1.0574557077422351e-05,0.2294998650000794,-6.394751781919304e-05,0.2294998650000794,-3.306727031617996e-05
0.2302939821800104,-7.2175275342197585e-06,0.2302939821800104,-7.888970273533637e-06,0.2302939821800104,-7.03286568520689e-05,0.2302939821800104,-2.1652856161227467e-05
0.2310880993599415,-6.881925022457113e-06,0.2310880993599415,-9.73517598203431e-06,0.2310880993599415,-6.596272559032013e-05,0.2310880993599415,-1.0909023753485873e-05
0.2318822165398726,-7.720566462980093e-06,0.2318822165398726,-9.064088877736391e-06,0.2318822165398726,-5.018520629820542e-05,0.2318822165398726,-1.5102737937127328e-06
0.2326763337198036,-5.8745790862881794e-06,0.2326763337198036,-9.90408642536688e-06,0.2326763337198036,-4.397502038293835e-05,0.2326763337198036,-1.7362661372281982e-07
0.2334704508997347,-5.53926185845037e-06,0.2334704508997347,-1.2251376942498958e-05,0.2334704508997347,-4.045413455171695e-05,0.2334704508997347,-1.3921993554194964e-05
0.2342645680796658,-4.532477842529645e-06,0.2342645680796658,-9.904378299235837e-06,0.2342645680796658,-3.374135228353096e-05,0.2342645680796658,-1.997081294482213e-05
0.2350586852595969,-3.860796141947912e-06,0.2350586852595969,-9.567543067009971e-06,0.2350586852595969,-2.098625665737048e-05,0.2350586852595969,-1.376606183283811e-05
0.2358528024395279,-2.8536905808259245e-06,0.2358528024395279,-9.56741e-06,0.2358528024395279,1.0231031942144836e-05,0.2358528024395279,-1.0910909973615755e-05
0.236646919619459,-2.3499409768531576e-06,0.236646919619459,-9.56741e-06,0.236646919619459,2.1147895506576668e-05,0.236646919619459,-1.7287854293193335e-05
0.2374410367993901,-5.538858855491443e-06,0.2374410367993901,-1.0238877793169102e-05,0.2374410367993901,1.1078294480605414e-05,0.2374410367993901,-2.9038211172676407e-05
0.2382351539793211,-1.845493680005056e-06,0.2382351539793211,-1.1917495305509274e-05,0.2382351539793211,1.5278010785283326e-05,0.2382351539793211,-3.5749361028379446e-05
0.2390292711592522,2.51774e-06,0.2390292711592522,-1.292462900166284e-05,0.2390292711592522,3.441379449998015e-05,0.2390292711592522,-2.265845502579388e-05
0.2398233883391833,2.51774e-06,0.2398233883391833,-1.3595283435129148e-05,0.2398233883391833,4.8162110497086033e-05,0.2398233883391833,-1.9305282747415785e-05
0.2406175055191144,-1.661764906460018e-07,0.2406175055191144,-1.3763495498875812e-05,0.2406175055191144,2.535941632546097e-05,0.2406175055191144,-1.863171812905112e-05
0.2414116226990454,-1.67849e-07,0.2414116226990454,-1.2924798779547916e-05,0.2414116226990454,-1.0892971792157372e-05,0.2414116226990454,-9.907247554397192e-06
0.2422057398789765,-1.67849e-07,0.2422057398789765,-1.1917629934361131e-05,0.2422057398789765,-3.305904147681596e-05,0.2422057398789765,-1.2923410196916608e-05
0.2429998570589076,-2.5173169571957464e-06,0.2429998570589076,-1.0239102174588922e-05,0.2429998570589076,-4.246420782230203e-05,0.2429998570589076,-2.836372001178456e-05
0.2437939742388386,-8.224424841815071e-06,0.2437939742388386,-8.224675349966706e-06,0.2437939742388386,-5.807529354011026e-05,0.2437939742388386,-2.5009608917151924e-05
0.2445880914187697,-6.881974604798275e-06,0.2445880914187697,-9.567873816697568e-06,0.2445880914187697,-6.865124696719842e-05,0.2445880914187697,-1.3929760689974706e-05
0.2453822085987008,-8.22487458407001e-06,0.2453822085987008,-1.3595535415929989e-05,0.2453822085987008,-7.686939965032072e-05,0.2453822085987008,1.182877485319692e-06
0.2461763257786318,-9.229371409360148e-06,0.2461763257786318,-1.25887e-05,0.2461763257786318,-5.5538153217731765e-05,0.2461763257786318,3.139192693912155e-05
0.2469704429585629,-3.52882870268701e-06,0.2469704429585629,-1.25887e-05,0.2469704429585629,-6.915926547120255e-06,0.2469704429585629,4.145174344111653e-05
0.247764560138494,-4.195858056656013e-06,0.247764560138494,-1.2253185971671993e-05,0.247764560138494,3.4050711555733484e-05,0.247764560138494,2.9715809008519775e-05
0.2485586773184251,-7.551855719370101e-06,0.2485586773184251,-1.2253e-05,0.2485586773184251,6.830068437740224e-05,0.2485586773184251,1.8635802098849864e-05
0.2493527944983561,-6.210767541067191e-06,0.2493527944983561,-1.2588613114733202e-05,0.2493527944983561,8.375280327772731e-05,0.2493527944983561,5.878021634961946e-06
0.2501469116782872,-1.511162786674148e-06,0.2501469116782872,-1.3595687973807385e-05,0.2501469116782872,7.972884810477046e-05,0.2501469116782872,-1.9635562012019297e-05
0.2509410288582183,2.517788804190046e-06,0.2509410288582183,-1.493848408736817e-05,0.2509410288582183,4.145692103195933e-05,0.2509410288582183,-3.05494235713885e-05
0.2517351460381494,3.8599743038738135e-06,0.2517351460381494,-1.1748998672819114e-05,0.2517351460381494,-1.024676498320387e-05,0.2517351460381494,-5.320887918775103e-05
0.2525292632180804,8.378010896759407e-07,0.2525292632180804,-9.56829917716309e-06,0.2525292632180804,-5.35480124265831e-05,0.2525292632180804,-5.6896787540307706e-05
0.2533233803980115,-3.5214287545062404e-06,0.2533233803980115,-1.225090692213298e-05,0.2533233803980115,-6.595501955675638e-05,0.2533233803980115,-4.448968052118099e-05
0.2541174975779426,-5.537755467874031e-06,0.2541174975779426,-1.359495031191602e-05,0.2541174975779426,-7.166798882564309e-05,0.2541174975779426,-3.844132353310057e-05
0.2549116147578736,-8.223306979156515e-06,0.2549116147578736,-1.057596590936573e-05,0.2549116147578736,-7.40203598482711e-05,0.2549116147578736,-2.3002792425647067e-05
0.2557057319378047,-1.1580466647217993e-05,0.2557057319378047,-8.896576674702956e-06,0.2557057319378047,-8.476027326029405e-05,0.2557057319378047,2.5091265472159664e-06
0.2564998491177358,-8.896520337405373e-06,0.2564998491177358,-9.063828103793396e-06,0.2564998491177358,-6.999590686618109e-05,0.2564998491177358,1.040520087638936e-05
0.2572939662976669,-7.553276996418042e-06,0.2572939662976669,-1.0910121629766018e-05,0.2572939662976669,-2.7696895392049656e-05,0.2572939662976669,-1.4937524186720029e-05
0.2580880834775979,-1.3260205881975934e-05,0.2580880834775979,-1.3595729412016043e-05,0.2580880834775979,-1.493874117596791e-05,0.2580880834775979,-3.541485882830485e-05
0.258882200657529,-1.4263636850210724e-05,0.258882200657529,-1.2923721302443348e-05,0.258882200657529,-1.6271261993155104e-05,0.258882200657529,-2.2651879863309368e-05
0.2596763178374601,-1.655674151870377e-07,0.2596763178374601,-1.0240142113652155e-05,0.2596763178374601,2.3846142137429005e-05,0.2596763178374601,7.888507369902309e-06
0.2604704350173911,5.534974292596364e-06,0.2604704350173911,-1.3593414280983705e-05,0.2604704350173911,5.2684182887526845e-05,0.2604704350173911,6.882535708598189e-06
0.2612645521973222,4.868008658334878e-06,0.2612645521973222,-1.6279885366660487e-05,0.2612645521973222,5.8240576096936416e-05,0.2612645521973222,-2.1972017736718885e-05
0.2620586693772533,3.5253891438592474e-06,0.2620586693772533,-1.795920107017594e-05,0.2620586693772533,6.394822363859819e-05,0.2620586693772533,-3.25583967629285e-05
0.2628527865571843,-2.180505881106656e-06,0.2628527865571843,-1.6281851213811157e-05,0.2628527865571843,6.160133169933562e-05,0.2628527865571843,-3.642226222167532e-05
0.2636469037371154,-8.223877411563419e-06,0.2636469037371154,-1.0910851192954416e-05,0.2636469037371154,4.347519776409737e-05,0.2636469037371154,-2.668918028722988e-05
0.2644410209170465,-8.895903876811162e-06,0.2644410209170465,-1.091027074914381e-05,0.2644410209170465,4.5313595881892906e-06,0.2644410209170465,3.189347825873384e-06
0.2652351380969776,-4.867513226308887e-06,0.2652351380969776,-1.359597516053667e-05,0.2652351380969776,-1.711788502733492e-05,0.2652351380969776,1.1078596279490949e-05
0.2660292552769086,-4.19633779428707e-06,0.2660292552769086,-1.4602576617138789e-05,0.2660292552769086,-1.5076217760171808e-06,0.2660292552769086,1.3923738843441235e-05
0.2668233724568397,-4.531665011020249e-06,0.2668233724568397,-1.3596594966939256e-05,0.2668233724568397,7.881490348035077e-06,0.2668233724568397,-1.0219720872394125e-05
0.2676174896367708,-5.538382661450679e-06,0.2676174896367708,-1.4937736881934238e-05,0.2676174896367708,-8.336357608546419e-07,0.2676174896367708,-4.210970101021564e-05
0.2684116068167018,-4.8679624726276735e-06,0.2684116068167018,-1.376418185185808e-05,0.2684116068167018,-8.39246e-07,0.2684116068167018,-3.273525461678743e-05
0.2692057239966329,-8.406463117730116e-07,0.2692057239966329,-1.3092433386222466e-05,0.2692057239966329,2.5165730737542314e-06,0.2692057239966329,-2.165645083790955e-05
0.269999841176564,2.181435653622543e-06,0.269999841176564,-1.158190216458746e-05,0.269999841176564,-1.090751401565568e-05,0.269999841176564,-2.90364227220126e-05
0.270793958356495,2.517722393293952e-06,0.270793958356495,-1.0910235213412096e-05,0.270793958356495,-3.810037386205486e-05,0.270793958356495,-2.198866973558224e-05
0.2715880755364261,5.031328276377266e-07,0.2715880755364261,-1.2252968063503444e-05,0.2715880755364261,-5.858029421239015e-05,0.2715880755364261,-5.538327399929799e-06
0.2723821927163572,-3.861263314865066e-06,0.2723821927163572,-1.1917788878194815e-05,0.2723821927163572,-6.798232214736372e-05,0.2723821927163572,1.8432437859957816e-06
0.2731763098962882,-6.882474286567226e-06,0.2731763098962882,-1.3931107425720825e-05,0.2731763098962882,-8.207777656762777e-05,0.2731763098962882,-1.0908367994493316e-05
0.2739704270762193,-8.559100381337537e-06,0.2739704270762193,-1.2925125775521433e-05,0.2739704270762193,-8.073646770069524e-05,0.2739704270762193,-6.2138069380201705e-06
0.2747645442561504,-1.1244358512437144e-05,0.2747645442561504,-1.3595414626674324e-05,0.2747645442561504,-5.456602950230288e-05,0.2747645442561504,1.7610519292857293e-05
0.2755586614360815,-1.12459e-05,0.2755586614360815,-1.493802742615897e-05,0.2755586614360815,-3.777325713037257e-05,0.2755586614360815,6.550843725660435e-06
0.2763527786160125,-1.3595144798196262e-05,0.2763527786160125,-1.49386e-05,0.2763527786160125,-2.90403336066996e-05,0.2763527786160125,-1.1576545608391138e-05
0.2771468957959436,-1.7959327258284357e-05,0.2771468957959436,-1.2589008399385348e-05,0.2771468957959436,-1.091257906784874e-05,0.2771468957959436,-2.8545854781817138e-06
0.2779410129758747,-1.561e-05,0.2779410129758747,-8.895999027704938e-06,0.2779410129758747,-1.007272812830101e-06,0.2779410129758747,1.4602919200699238e-05
0.2787351301558057,-1.5609779882599556e-05,0.2787351301558057,-8.22461e-06,0.2787351301558057,-1.1583085792453004e-05,0.2787351301558057,1.5773205073854338e-05
0.2795292473357368,-1.4266991117970173e-05,0.2795292473357368,-8.223565596073153e-06,0.2795292473357368,-2.0651035342678975e-05,0.2795292473357368,-1.2260937486021977e-05
0.2803233645156679,-1.3596336684503865e-05,0.2803233645156679,-4.870313406532298e-06,0.2803233645156679,-3.842327794058272e-05,0.2803233645156679,-3.774570606878826e-05
0.2811174816955989,-1.35958e-05,0.2811174816955989,-4.196668274023725e-06,0.2811174816955989,-6.661779255628119e-05,0.2811174816955989,-5.118523458480313e-05
0.2819115988755301,-9.56944512065916e-06,0.2819115988755301,-5.538351624762966e-06,0.2819115988755301,-7.502436020528799e-05,0.2819115988755301,-6.998360279720097e-05
0.2827057160554611,-4.869310701341239e-06,0.2827057160554611,-2.8544004012772976e-06,0.2827057160554611,-6.52968814318324e-05,0.2827057160554611,-6.462392077394558e-05
0.2834998332353922,-5.538888985191852e-06,0.2834998332353922,-6.377529676457839e-06,0.2834998332353922,-4.31419534676658e-05,0.2834998332353922,-4.649800739982001e-05
0.2842939504153233,-8.395394978213981e-07,0.2842939504153233,-1.560942348570855e-05,0.2842939504153233,-2.4339273995282343e-05,0.2842939504153233,-4.615852096420147e-05
0.2850880675952543,5.538829947843556e-06,0.2850880675952543,-1.8295542841997783e-05,0.2850880675952543,-3.306692873802442e-05,0.2850880675952543,-1.2921227747903295e-05
0.2858821847751854,3.188983755592619e-06,0.2858821847751854,-1.7625059344240596e-05,0.2858821847751854,-4.0445840857994646e-05,0.2858821847751854,2.4340365543907024e-05
0.2866763019551165,2.5169749741131355e-06,0.2866763019551165,-2.131881253433174e-05,0.2866763019551165,-1.5270857377432025e-05,0.2866763019551165,3.4076141334658485e-05
0.2874704191350475,5.050196648304849e-07,0.2874704191350475,-2.6348620896375607e-05,0.2874704191350475,-6.217042503427544e-06,0.2874704191350475,4.1285626549944585e-05
0.2882645363149786,-2.180471653741568e-06,0.2882645363149786,-2.83653237350503e-05,0.2882645363149786,-3.237960862573224e-05,0.2882645363149786,3.541963074357065e-05
0.2890586534949096,3.5223394968451837e-06,0.2890586534949096,-2.232653701720265e-05,0.2890586534949096,-3.105268600382281e-05,0.2890586534949096,9.91423402899298e-06
0.2898527706748408,4.196036084493802e-06,0.2898527706748408,-1.7625557379661124e-05,0.2898527706748408,1.156928642312095e-05,0.2898527706748408,-3.327408035492578e-07
0.2906468878547718,5.040695575131109e-07,0.2906468878547718,-1.493897931640396e-05,0.2906468878547718,4.6824921500446185e-05,0.2906468878547718,-1.4265232302934011e-05
0.2914410050347029,-4.867652350720077e-06,0.2914410050347029,-9.735237649216514e-06,0.2914410050347029,3.810176168426246e-05,0.2914410050347029,-1.5609982970783318e-05
0.292235122214634,-8.392537507782035e-06,0.292235122214634,-6.210342492217966e-06,0.292235122214634,3.20582699066156e-05,0.292235122214634,-1.2925588452657852e-05
0.293029239394565,-8.89560565204023e-06,0.293029239394565,-5.7068194591398745e-06,0.293029239394565,2.6009827160381653e-05,0.293029239394565,-2.0647875546898492e-05
0.2938233565744961,-7.554306774002956e-06,0.2938233565744961,-5.539165839668642e-06,0.2938233565744961,3.5430334948997857e-06,0.2938233565744961,-2.85280151956509e-05
0.2946174737544272,-7.55322e-06,0.2946174737544272,-2.248056408040436e-05,0.2946174737544272,-2.2306768035611315e-05,0.2946174737544272,-3.507616139024684e-05
0.2954115909343582,-1.090847049725688e-05,0.2954115909343582,-4.7152888156383655e-05,0.2954115909343582,-2.2491713498587847e-05,0.2954115909343582,-2.70278508313129e-05
0.2962057081142893,-8.8967504449366e-06,0.2962057081142893,-4.380993404425981e-05,0.2962057081142893,3.5152659161991244e-06,0.2962057081142893,-1.8634385165791668e-05
0.2969998252942204,-9.231636135100503e-06,0.2969998252942204,-2.333550575886928e-05,0.2969998252942204,3.608043513335308e-05,0.2969998252942204,-2.702185339951584e-05
0.2977939424741515,-6.2106388945477365e-06,0.2977939424741515,-5.875984719545546e-06,0.2977939424741515,8.241064362031574e-05,0.2977939424741515,-1.9135371556254987e-05
0.2985880596540825,-3.861059649365023e-06,0.2985880596540825,1.460400973873613e-05,0.2985880596540825,0.0001002042092806,0.2985880596540825,-2.2324959303237912e-05
0.2993821768340136,-1.0909639266914938e-05,0.2993821768340136,2.9373450470583417e-05,0.2993821768340136,7.636369927958851e-05,0.2993821768340136,-3.642217852937562e-05
0.3001762940139447,-8.391032264586295e-06,0.3001762940139447,2.869723397503408e-05,0.3001762940139447,4.179127205973328e-05,0.3001762940139447,-3.138680678761024e-05
0.3009704111938757,-4.534789249945708e-06,0.3009704111938757,1.5284245194661346e-05,0.3009704111938757,3.307276442467125e-05,0.3009704111938757,-2.8704189053745e-05
0.3017645283738068,-5.873922399324962e-06,0.3017645283738068,1.5188154440433743e-06,0.3017645283738068,3.340180059834627e-05,0.3017645283738068,-1.2262770621633948e-05
0.3025586455537379,-4.868079570889316e-06,0.3025586455537379,-4.864782702820802e-06,0.3025586455537379,1.7966793444111158e-05,0.3025586455537379,5.195537391789915e-06
0.3033527627336689,-1.5116431494969688e-06,0.3033527627336689,-8.894806222994228e-06,0.3033527627336689,-9.726984018891186e-06,0.3033527627336689,7.552517796248593e-06
0.3041468799136,-1.51064e-06,0.3041468799136,-1.6951581472409848e-05,0.3041468799136,-5.085208045613316e-05,0.3041468799136,-3.104626124194045e-05
0.3049409970935311,-6.378252181844829e-06,0.3049409970935311,-1.7624197542313327e-05,0.3049409970935311,-0.0001502246362642,0.3049409970935311,-6.59645722010251e-05
0.3057351142734621,-7.88953808523126e-06,0.3057351142734621,-1.5945941571796335e-05,0.3057351142734621,-0.000211824236533,0.3057351142734621,-6.39483775394737e-05
0.3065292314533932,-1.2255345627293796e-05,0.3065292314533932,-1.762439546894115e-05,0.3065292314533932,-0.000199564008254,0.3065292314533932,-4.850615213629041e-05
0.3073233486333243,-2.0303198828890064e-05,0.3073233486333243,-1.8295049902407507e-05,0.3073233486333243,-0.0001687133049808,0.3073233486333243,-4.079372604038077e-05
0.3081174658132554,-2.2322544955261548e-05,0.3081174658132554,-1.6618229260013652e-05,0.3081174658132554,-0.0001150131356476,0.3081174658132554,-8.246517570259094e-06
0.3089115829931864,-1.963981041788145e-05,0.3089115829931864,-1.829471845599925e-05,0.3089115829931864,-4.384607741311197e-05,0.3089115829931864,4.814308027388215e-05
0.3097057001731175,-1.35980817807554e-05,0.3097057001731175,-1.8966746468804955e-05,0.3097057001731175,4.209774812031901e-05,0.3097057001731175,5.991776320408672e-05
0.3104998173530486,-6.883364443298158e-06,0.3104998173530486,-1.6953263334369652e-05,0.3104998173530486,0.0001119389379258,0.3104998173530486,1.125709720125978e-05
0.3112939345329796,1.6726773951642756e-07,0.3112939345329796,-1.3596076791923614e-05,0.3112939345329796,0.0001502218445555,0.3112939345329796,-2.8027561550984147e-05
0.3120880517129107,1.174666701174268e-06,0.3120880517129107,-7.553001360548636e-06,0.3120880517129107,0.0001300785179104,0.3120880517129107,-5.253689839130268e-05
0.3128821688928418,-3.0215399231178484e-06,0.3128821688928418,-4.196801255575657e-06,0.3128821688928418,6.125389622307178e-05,0.3128821688928418,-5.404582191986254e-05
0.3136762860727728,-4.195263617386084e-06,0.3136762860727728,-6.8853231428228445e-06,0.3136762860727728,9.060658859705464e-06,0.3136762860727728,-4.615409088089831e-05
0.314470403252704,-1.5126558724160054e-06,0.314470403252704,-1.6609792450294315e-05,0.314470403252704,1.745265729680926e-07,0.314470403252704,-3.391469741461404e-05
0.315264520432635,-1.6866003116070138e-07,0.315264520432635,-2.164955861276274e-05,0.315264520432635,-8.386377255724931e-07,0.315264520432635,-2.536697865687673e-06
0.3160586376125661,-3.356213924831339e-07,0.3160586376125661,-2.2994687181854548e-05,0.3160586376125661,-4.110471415304983e-05,0.3160586376125661,2.0634928127072697e-05
0.3168527547924971,2.8524551126382245e-06,0.3168527547924971,-2.031062935106917e-05,0.3168527547924971,-4.045190734548793e-05,0.3168527547924971,3.205567515758769e-05
0.3176468719724282,1.325842199066751e-05,0.3176468719724282,-2.098109174091728e-05,0.3176468719724282,1.0566272341961632e-05,0.3176468719724282,5.186220637318398e-05
0.3184409891523593,2.4673644065848403e-05,0.3184409891523593,-2.299527248333365e-05,0.3184409891523593,5.186483588306508e-05,0.3184409891523593,8.157429411106915e-05
0.3192351063322903,2.2658700876115543e-05,0.3192351063322903,-2.6687550431361783e-05,0.3192351063322903,4.312934266188752e-05,0.3192351063322903,6.830524902053621e-05
0.3200292235122214,1.5942679810085063e-05,0.3200292235122214,-2.3329018022947975e-05,0.3200292235122214,-1.6299993011744007e-05,0.3200292235122214,-1.519700555687434e-06
0.3208233406921525,5.212238841310157e-06,0.3208233406921525,-1.6287246360505182e-05,0.3208233406921525,-8.235915504131509e-05,0.3208233406921525,-3.371097351753544e-05
0.3216174578720835,-3.01567438777812e-06,0.3216174578720835,-1.6616870790501824e-05,0.3216174578720835,-0.0001015359349903,0.3216174578720835,-2.5350930237454388e-05
0.3224115750520147,-8.557345522179424e-06,0.3224115750520147,-1.493949833147774e-05,0.3224115750520147,-8.20887206986617e-05,0.3224115750520147,1.831787115692428e-06
0.3232056922319457,-1.3258278280574624e-05,0.3232056922319457,-1.359632049237187e-05,0.3232056922319457,-7.150789885804762e-05,0.3232056922319457,1.157782644580862e-05
0.3239998094118768,-1.896563014186341e-05,0.3239998094118768,-1.2588941739671162e-05,0.3239998094118768,-5.7240024633339694e-05,0.3239998094118768,-6.877388125231526e-06
0.3247939265918079,-1.9638337926624435e-05,0.3247939265918079,-9.06418588429719e-06,0.3247939265918079,-4.91805448805068e-05,0.3247939265918079,-2.0308558534337734e-05
0.3255880437717389,-1.728844448045554e-05,0.3255880437717389,-5.539039252706129e-06,0.3255880437717389,-5.0020201129362594e-05,0.3255880437717389,-2.568138116938533e-05
0.32638216095167,-1.62813319502826e-05,0.32638216095167,-5.707244273445705e-06,0.32638216095167,-6.999589003841344e-05,0.32638216095167,-3.441223026672945e-05
0.3271762781316011,-1.5945876150014018e-05,0.3271762781316011,-7.5538072215234e-06,0.3271762781316011,-8.37535115398773e-05,0.3271762781316011,-4.9856837325225234e-05
0.3279703953115321,-1.6448817030637026e-05,0.3279703953115321,-9.230433316293828e-06,0.3279703953115321,-7.436434947134896e-05,0.3279703953115321,-6.59524438394632e-05
0.3287645124914632,-1.2423273399734876e-05,0.3287645124914632,-9.23171e-06,0.3287645124914632,-5.120822198707647e-05,0.3287645124914632,-6.780996632775532e-05
0.3295586296713942,-8.226567140040377e-06,0.3295586296713942,-9.567253426558008e-06,0.3295586296713942,-2.8544968637373168e-05,0.3295586296713942,-6.764327831004144e-05
0.3303527468513254,-1.527205236816111e-05,0.3303527468513254,-7.889445151196944e-06,0.3303527468513254,-1.3264969859950833e-05,0.3303527468513254,-4.264167370501039e-05
0.3311468640312564,-2.030893769444788e-05,0.3311468640312564,-6.881992459397971e-06,0.3311468640312564,9.899133411584764e-06,0.3311468640312564,-2.870458570346528e-05
0.3319409812111875,-1.3763754905950156e-05,0.3319409812111875,-6.210435887668409e-06,0.3319409812111875,5.06895348276937e-05,0.3319409812111875,-2.7695123831502613e-05
0.3327350983911186,-1.02387584006316e-05,0.3327350983911186,-1.3596007996841995e-05,0.3327350983911186,0.000107257830273,0.3327350983911186,-1.3595508804421202e-05
0.3335292155710496,-9.90164356131497e-06,0.3335292155710496,-1.5274208972073762e-05,0.3335292155710496,0.0001220246347166,0.3335292155710496,-1.1235431842714494e-05
0.3343233327509807,-4.536438060270534e-06,0.3343233327509807,-1.4938881755340607e-05,0.3343233327509807,0.0001169952259104,0.3343233327509807,2.732699830369137e-05
0.3351174499309118,3.5192484198649465e-06,0.3351174499309118,-1.49386e-05,0.3351174499309118,0.0001079332793781,0.3351174499309118,3.943622758823048e-05
0.3359115671108428,4.5313809286270185e-06,0.3359115671108428,-1.3596532095163974e-05,0.3359115671108428,3.210056315868441e-05,0.3359115671108428,-2.0612738850452206e-05
0.3367056842907739,5.051497599038242e-07,0.3367056842907739,-1.258910044176524e-05,0.3367056842907739,-3.589267032001284e-05,0.3367056842907739,-5.15174198653897e-05
0.337499801470705,-2.8526006291423486e-06,0.337499801470705,-8.225701183515154e-06,0.337499801470705,-6.478258140982407e-05,0.337499801470705,-3.2064068343373255e-05
0.338293918650636,-3.021272802908397e-06,0.338293918650636,-9.063774014541989e-06,0.338293918650636,-8.157298030108523e-05,0.338293918650636,-7.555730763079387e-06
0.3390880358305671,-4.1962905960774994e-06,0.3390880358305671,-8.224655447058124e-06,0.3390880358305671,-8.912764247118329e-05,0.3390880358305671,-2.1826156609311794e-06
0.3398821530104982,-5.539288766960831e-06,0.3398821530104982,-9.232421612514683e-06,0.3398821530104982,-8.34221997485028e-05,0.3398821530104982,-1.4938405923334064e-05
0.3406762701904293,-6.88182e-06,0.3406762701904293,-1.2923373174409978e-05,0.3406762701904293,-8.912436319028725e-05,0.3406762701904293,-1.3929104080420524e-05
0.3414703873703603,-6.88182e-06,0.3414703873703603,-9.9054282238118e-06,0.3414703873703603,-7.872931936051363e-05,0.3414703873703603,-6.887252506815461e-06
0.3422645045502914,-5.875348422419985e-06,0.3422645045502914,-8.896638416180063e-06,0.3422645045502914,-6.999854632763987e-05,0.3422645045502914,-7.888281583819937e-06
0.3430586217302225,-6.881340207187756e-06,0.3430586217302225,-8.560469930937416e-06,0.3430586217302225,-5.053187594672902e-05,0.3430586217302225,-2.500134357459699e-05
0.3438527389101535,-5.203881935385886e-06,0.3438527389101535,-8.895899612265165e-06,0.3438527389101535,-1.9145121203882712e-05,0.3438527389101535,-3.105011302077299e-05
0.3446468560900846,-5.035510422266115e-06,0.3446468560900846,-7.553463376316453e-06,0.3446468560900846,-1.1582968992912842e-05,0.3446468560900846,-2.7695708445322305e-05
0.3454409732700157,-6.881757843023705e-06,0.3454409732700157,-8.560276096347771e-06,0.3454409732700157,-2.0477300516448142e-05,0.3454409732700157,-3.575162876808896e-05
0.3462350904499467,-8.89601e-06,0.3462350904499467,-9.56714230802849e-06,0.3462350904499467,-3.105125867879501e-05,0.3462350904499467,-4.817082615961693e-05
0.3470292076298778,-8.895834650691842e-06,0.3470292076298778,-7.217958370658699e-06,0.3470292076298778,-2.366003676807712e-05,0.3470292076298778,-3.171490792568738e-05
0.3478233248098089,-8.225180217225532e-06,0.3478233248098089,-8.894584465429128e-06,0.3478233248098089,1.824671881317104e-06,0.3478233248098089,1.1469994918362453e-06
0.34861744198974,-5.540917381856484e-06,0.34861744198974,-9.90239223356078e-06,0.34861744198974,1.8619503803660363e-05,0.34861744198974,4.865034837648621e-06
0.349411559169671,-4.868002762572878e-06,0.349411559169671,-9.9031e-06,0.349411559169671,2.248965664296605e-05,0.349411559169671,-1.4927603542964215e-05
0.3502056763496021,-8.894367951146379e-06,0.3502056763496021,-1.2252042133413151e-05,0.3502056763496021,2.3666221087087585e-05,0.3502056763496021,-6.213977782027316e-06
0.3509997935295332,-1.0909676233312995e-05,0.3509997935295332,-1.4266676230712613e-05,0.3509997935295332,2.735843975630645e-05,0.3509997935295332,-1.511862123136473e-06
0.3517939107094642,-5.539634023484719e-06,0.3517939107094642,-1.8966471476498885e-05,0.3517939107094642,4.011456543621126e-05,0.3517939107094642,-2.16503349037792e-05
0.3525880278893953,2.182016416952094e-06,0.3525880278893953,-1.510638231447033e-05,0.3525880278893953,2.332972652243813e-05,0.3525880278893953,-1.7791475280345363e-05
0.3533821450693264,1.510793336816392e-06,0.3533821450693264,-1.4603084004179673e-05,0.3533821450693264,-1.2924154661093772e-05,0.3533821450693264,-2.851109291353261e-06
0.3541762622492574,2.3479520868454298e-06,0.3541762622492574,-1.5610221476920087e-05,0.3541762622492574,-1.15816e-05,0.3541762622492574,9.90210336045707e-06
0.3549703794291886,-3.520244239299149e-06,0.3549703794291886,-1.6280875910386445e-05,0.3549703794291886,-1.15816e-05,0.3549703794291886,6.884178387649159e-06
0.3557644966091196,-3.0216092411132254e-06,0.3557644966091196,-1.527493849490632e-05,0.3557644966091196,-1.023965132654176e-05,0.3557644966091196,-4.189206587730141e-06
0.3565586137890507,-8.403073718951198e-07,0.3565586137890507,-1.426768986529858e-05,0.3565586137890507,4.983227954418884e-07,0.3565586137890507,5.012619726410179e-07
0.3573527309689818,-4.195092553118953e-06,0.3573527309689818,-1.4434943144326383e-05,0.3573527309689818,9.899915149817324e-06,0.3573527309689818,5.872900085803517e-06
0.3581468481489128,-5.874398991774221e-06,0.3581468481489128,-1.4267232091451415e-05,0.3581468481489128,1.862963074728104e-05,0.3581468481489128,-8.379619659493938e-07
0.3589409653288439,-8.394658812407509e-07,0.3589409653288439,-1.5274256023524785e-05,0.3589409653288439,2.8701760239614488e-05,0.3589409653288439,3.524639436322061e-06
0.3597350825087749,-2.182458610451796e-06,0.3597350825087749,-1.3259995346867474e-05,0.3597350825087749,3.541375810396594e-05,0.3597350825087749,3.859675336907653e-06
0.360529199688706,-6.209576791204397e-06,0.360529199688706,-1.2252325431456431e-05,0.360529199688706,1.19128309868526e-05,0.360529199688706,-4.367073401522805e-06
0.3613233168686371,-2.856324601663541e-06,0.3613233168686371,-9.569717686486542e-06,0.3613233168686371,-5.859431588841828e-06,0.3613233168686371,-1.6271159628863757e-05
0.3621174340485681,-1.5115971279378608e-06,0.3621174340485681,-6.212812812716801e-06,0.3621174340485681,-6.881102154046604e-06,0.3621174340485681,-1.62814e-05
0.3629115512284993,1.1734221010491771e-06,0.3629115512284993,-6.545930261218138e-06,0.3629115512284993,-1.2920984713230564e-05,0.3629115512284993,-1.7958951306090695e-05
0.3637056684084303,5.872757270242828e-06,0.3637056684084303,-4.532771169299329e-06,0.3637056684084303,-2.231997456554296e-05,0.3637056684084303,-3.859667803451891e-05
0.3644997855883614,1.1762091278726807e-06,0.3644997855883614,-4.53193e-06,0.3644997855883614,-2.903608695246646e-05,0.3644997855883614,-4.34716855270362e-05
0.3652939027682925,-3.692083920649682e-06,0.3652939027682925,-3.5249533275222194e-06,0.3652939027682925,-3.675805448899632e-05,0.3652939027682925,-2.031263652076524e-05
0.3660880199482235,-5.539063735862792e-06,0.3660880199482235,-2.517799037948314e-06,0.3660880199482235,-5.5222737358627926e-05,0.3660880199482235,-6.2104790379483145e-06
0.3668821371281546,-6.8822838161218346e-06,0.3668821371281546,-4.86763e-06,0.3668821371281546,-6.86503e-05,0.3668821371281546,-8.563846592100182e-06
0.3676762543080857,-9.567195229624229e-06,0.3676762543080857,-4.868274307928476e-06,0.3676762543080857,-6.864793755785493e-05,0.3676762543080857,-2.904155109638814e-05
0.3684703714880167,-8.896540796157917e-06,0.3684703714880167,-6.880227619432057e-06,0.3684703714880167,-6.1270838678679e-05,0.3684703714880167,-4.0442676465315394e-05
0.3692644886679478,-6.547633317476251e-06,0.3692644886679478,-1.0907605743309268e-05,0.3692644886679478,-4.5497260889151646e-05,0.3692644886679478,-3.978073237826178e-05
0.3700586058478789,-3.526329808390407e-06,0.3700586058478789,-1.2252333416286873e-05,0.3700586058478789,-3.7434399452637445e-05,0.3700586058478789,-2.401023235862926e-05
0.3708527230278099,-5.034953037734448e-06,0.3708527230278099,-1.5944411870017538e-05,0.3708527230278099,-1.595319453956026e-05,0.3708527230278099,7.206629509301584e-06
0.371646840207741,-6.881448424635459e-06,0.371646840207741,-2.299388127013992e-05,0.371646840207741,1.0401396587499304e-05,0.371646840207741,2.9201374865324573e-05
0.3724409573876721,-8.22453793525461e-06,0.3724409573876721,-2.937325768991017e-05,0.3724409573876721,-1.17431843747883e-06,0.3724409573876721,1.5275047674618077e-05
0.3732350745676032,-7.553093892471559e-06,0.3732350745676032,-2.65197428649051e-05,0.3732350745676032,-3.105257290323165e-05,0.3732350745676032,-1.0239651225816968e-05
0.3740291917475342,-6.210096129972954e-06,0.3740291917475342,-2.1651628382683107e-05,0.3740291917475342,-3.608379452296136e-05,0.3740291917475342,-1.930375256130745e-05
0.3748233089274653,-4.868797251935681e-06,0.3748233089274653,-1.762770178188525e-05,0.3748233089274653,-2.0323515225456546e-05,0.3748233089274653,-2.3662906489885008e-05
0.3756174261073964,-8.893098340697086e-06,0.3756174261073964,-1.6953285278959776e-05,0.3756174261073964,-9.910621823876503e-06,0.3756174261073964,-3.5743164978724055e-05
0.3764115432873274,-1.0909041428088207e-05,0.3764115432873274,-1.69528e-05,0.3764115432873274,-1.0238606903722693e-05,0.3764115432873274,-4.397176916996623e-05
0.3772056604672585,-1.1245756446925298e-05,0.3772056604672585,-1.4939461318448218e-05,0.3772056604672585,-1.6614372491580644e-05,0.3772056604672585,-4.582201047947029e-05
0.3779997776471896,-1.0910294009872098e-05,0.3779997776471896,-1.59454179703837e-05,0.3779997776471896,-3.171926958375968e-05,0.3779997776471896,-5.521976772358123e-05
0.3787938948271206,-1.0238888933339037e-05,0.3787938948271206,-1.561004446666952e-05,0.3787938948271206,-5.1191420946413873e-05,0.3787938948271206,-5.589371106666096e-05
0.3795880120070517,-9.231654158438508e-06,0.3795880120070517,-1.5106372079824144e-05,0.3795880120070517,-5.5893815229599256e-05,0.3795880120070517,-3.97798075781054e-05
0.3803821291869828,-5.538702281585865e-06,0.3803821291869828,-1.3259881521057243e-05,0.3803821291869828,-5.69034124915713e-05,0.3803821291869828,-7.216919184534459e-06
0.3811762463669139,-3.5258703160581025e-06,0.3811762463669139,-1.1917872160041608e-05,0.3811762463669139,-7.234643305321829e-05,0.3811762463669139,-3.5272227247643678e-06
0.3819703635468449,-6.879132494494302e-06,0.3819703635468449,-1.3762121907597232e-05,0.3819703635468449,-8.34122312054124e-05,0.3819703635468449,-1.1239718742940888e-05
0.382764480726776,-6.210859093252616e-06,0.382764480726776,-1.393139019398702e-05,0.382764480726776,-7.469860821228401e-05,0.382764480726776,6.199003627751697e-06
0.3835585979067071,-6.21042e-06,0.3835585979067071,-1.3260440006847408e-05,0.3835585979067071,-2.671231038830675e-05,0.3835585979067071,3.57369397594838e-05
0.3843527150866381,-7.888307702482712e-06,0.3843527150866381,-1.594473631823101e-05,0.3843527150866381,4.937907766315883e-07,0.3843527150866381,2.9040309204422472e-05
0.3851468322665692,-1.0238303582982872e-05,0.3851468322665692,-1.493881275105556e-05,0.3851468322665692,1.426429241238074e-05,0.3851468322665692,1.108189402880314e-05
0.3859409494465003,-1.02388e-05,0.3859409494465003,-9.567751980417962e-06,0.3859409494465003,2.56801732966258e-05,0.3859409494465003,1.863081909232536e-05
0.3867350666264313,-1.2589080282524351e-05,0.3867350666264313,-6.881650984519137e-06,0.3867350666264313,2.0646260565048703e-05,0.3867350666264313,2.03071098361604e-05
0.3875291838063624,-1.7119629826090644e-05,0.3875291838063624,-4.867319540649759e-06,0.3875291838063624,2.970937761483756e-05,0.3875291838063624,-1.1754638989975171e-05
0.3883233009862935,-1.2928089561402644e-05,0.3883233009862935,-3.526010673717047e-06,0.3883233009862935,3.004470483157074e-05,0.3883233009862935,-3.438917617498796e-05
0.3891174181662246,-1.854457870874456e-06,0.3891174181662246,-1.7030895583035345e-07,0.3891174181662246,3.25609549860456e-05,0.3891174181662246,-1.226923572709315e-05
0.3899115353461556,2.347434339545016e-06,0.3899115353461556,3.522669020789316e-06,0.3899115353461556,5.017658626471268e-05,0.3899115353461556,9.219137011213926e-06
0.3907056525260867,5.537634353960058e-06,0.3907056525260867,5.048701872538824e-07,0.3907056525260867,8.038657809245121e-05,0.3907056525260867,-1.6373552197910766e-07
0.3914997697060178,7.217033166062705e-06,0.3914997697060178,-3.523661597970407e-06,0.3914997697060178,8.845426318317892e-05,0.3914997697060178,-1.829034217636469e-05
0.3922938868859488,5.539269119400093e-06,0.3922938868859488,-5.538743055010356e-06,0.3922938868859488,8.51000782416494e-05,0.3922938868859488,-2.7022456585957647e-05
0.3930880040658799,1.1749451571129895e-06,0.3930880040658799,-7.217525157061781e-06,0.3930880040658799,6.831458968577402e-05,0.3930880040658799,-3.776611719037663e-05
0.393882121245811,2.182091262240244e-06,0.393882121245811,-8.225430194316873e-06,0.393882121245811,6.629512001979541e-05,0.393882121245811,-4.11218953449894e-05
0.394676238425742,2.516783556785299e-06,0.394676238425742,-1.3597863897196931e-05,0.394676238425742,3.170789487023496e-05,0.394676238425742,-3.3238277440076774e-05
0.3954703556056732,-6.688120166159431e-07,0.3954703556056732,-2.0472021895750356e-05,0.3954703556056732,-2.026762394550073e-05,0.3954703556056732,-4.68188798843403e-05
0.3962644727856042,-5.535797901522879e-06,0.3962644727856042,-1.980664580824346e-05,0.3962644727856042,-6.15732829258268e-05,0.3962644727856042,-4.515251452060865e-05
0.3970585899655353,-8.223223122975126e-06,0.3970585899655353,-1.6954273541991962e-05,0.3970585899655353,-7.166639922406712e-05,0.3970585899655353,-1.6296308935763633e-05
0.3978527071454664,-4.86886816978877e-06,0.3978527071454664,-1.69528e-05,0.3978527071454664,-6.563132868201438e-05,0.3978527071454664,5.195405691959478e-06
0.3986468243253974,-2.5182599193850668e-06,0.3986468243253974,-1.561029709805577e-05,0.3986468243253974,-4.616280792180863e-05,0.3986468243253974,1.7285826124135668e-05
0.3994409415053285,-7.888514301228344e-06,0.3994409415053285,-1.5274324731311363e-05,0.3994409415053285,-2.7696460214757796e-05,0.3994409415053285,6.379073766145832e-06
0.4002350586852595,-1.0910373683238531e-05,0.4002350586852595,-1.4938500752435125e-05,0.4002350586852595,-1.9303965399061075e-05,0.4002350586852595,-4.867940147162018e-06
0.4010291758651906,-1.3260471307827016e-05,0.4010291758651906,-1.3596022784696208e-05,0.4010291758651906,-3.642731010241035e-05,0.4010291758651906,-9.06278321172594e-06
0.4018232930451217,-1.4937107391492786e-05,0.4018232930451217,-1.4602004434895671e-05,0.4018232930451217,-5.453487991704724e-05,0.4018232930451217,-4.200558546885888e-06
0.4026174102250527,-1.359679741788302e-05,0.4026174102250527,-1.7621955809763205e-05,0.4026174102250527,-6.662722323905282e-05,0.4026174102250527,-1.0569762287339349e-05
0.4034115274049838,-8.563307163070186e-06,0.4034115274049838,-1.795970018873185e-05,0.4034115274049838,-7.401710421162146e-05,0.4034115274049838,-3.103991157216358e-05
0.4042056445849149,-6.882571335851592e-06,0.4042056445849149,-1.6617701072262283e-05,0.4042056445849149,-8.341689249416404e-05,0.4042056445849149,-3.67564454428853e-05
0.404999761764846,-1.1915789133056034e-05,0.404999761764846,-1.359670652376691e-05,0.404999761764846,-9.483137538466275e-05,0.404999761764846,-3.6759e-05
0.4057938789447771,-1.2924246455018911e-05,0.4057938789447771,-1.3931448818339638e-05,0.4057938789447771,-9.013571654324508e-05,0.4057938789447771,-4.4646697238604606e-05
0.4065879961247081,-6.881849492142467e-06,0.4065879961247081,-1.4938595084626653e-05,0.4065879961247081,-5.387977695246434e-05,0.4065879961247081,-4.414440245744263e-05
0.4073821133046392,-5.030210495196332e-07,0.4073821133046392,-1.6952943714234396e-05,0.4073821133046392,1.5949197032100158e-05,0.4073821133046392,-1.7287230525689858e-05
0.4081762304845703,3.188556047771654e-06,0.4081762304845703,-1.796067860297113e-05,0.4081762304845703,4.04527705790853e-05,0.4081762304845703,-8.400245983324448e-06
0.4089703476645013,1.1765927473727266e-06,0.4089703476645013,-2.0643296336836365e-05,0.4089703476645013,4.414136996315e-05,0.4089703476645013,-3.522626349965129e-05
0.4097644648444324,4.529667390568239e-06,0.4097644648444324,-2.06455e-05,0.4097644648444324,5.13570354089307e-05,0.4097644648444324,-9.920182650996842e-06
0.4105585820243635,7.383867898740317e-06,0.4105585820243635,-1.6283697339389432e-05,0.4105585820243635,6.830567579902677e-05,0.4105585820243635,2.733978436126608e-05
0.4113526992042945,1.023771901827479e-05,0.4113526992042945,-1.4267963051271948e-05,0.4113526992042945,8.74422510129165e-05,0.4113526992042945,3.742658474364026e-05
0.4121468163842256,7.218218683459404e-06,0.4121468163842256,-1.5274067103971837e-05,0.4121468163842256,8.644263289602816e-05,0.4121468163842256,3.575228816004694e-05
0.4129409335641567,1.8467894192350892e-06,0.4129409335641567,-1.3595940444033918e-05,0.4129409335641567,7.368686737465777e-05,0.4129409335641567,2.520520780157445e-06
0.4137350507440878,-2.1823618146587644e-06,0.4137350507440878,-9.567281274264314e-06,0.4137350507440878,4.850593275726524e-05,0.4137350507440878,-1.829557854560421e-05
0.4145291679240188,-7.218796345053916e-06,0.4145291679240188,-7.553078183413509e-06,0.4145291679240188,9.895300129988024e-06,0.4145291679240188,-1.7958269109255353e-05
0.4153232851039499,-1.3254666268459584e-05,0.4153232851039499,-6.882423749947246e-06,0.4153232851039499,-2.6990493932749493e-05,0.4153232851039499,-1.0245743124393336e-05
0.416117402283881,-1.32601e-05,0.416117402283881,-6.88182e-06,0.416117402283881,-5.2182146677815845e-05,0.416117402283881,-8.22612626426915e-06
0.416911519463812,-9.905131687635966e-06,0.416911519463812,-4.533352175293082e-06,0.416911519463812,-7.535028141583278e-05,0.416911519463812,-1.3760247751713215e-05
0.4177056366437431,-1.04064695387771e-05,0.4177056366437431,-9.732878812956804e-06,0.4177056366437431,-8.073304199102374e-05,0.4177056366437431,-2.315889848429155e-05
0.4184997538236742,-1.0910043891964704e-05,0.4184997538236742,-1.3594603055978986e-05,0.4184997538236742,-8.493039898602243e-05,0.4184997538236742,-3.172084591536338e-05
0.4192938710036052,-8.56069177246602e-06,0.4192938710036052,-1.4267090921688383e-05,0.4192938710036052,-9.416190018133848e-05,0.4192938710036052,-2.517846350541506e-05
0.4200879881835363,-3.524904939000773e-06,0.4200879881835363,-1.2924419983812912e-05,0.4200879881835363,-8.107139484068766e-05,0.4200879881835363,-2.0309872440577693e-05
0.4208821053634674,-2.853529093171803e-06,0.4208821053634674,-1.225302226698972e-05,0.4208821053634674,-7.133438540679038e-05,0.4208821053634674,-2.36673236614916e-05
0.4216762225433985,-3.5265214921872075e-06,0.4216762225433985,-1.2420377139549994e-05,0.4216762225433985,-5.992135425110711e-05,0.4216762225433985,-2.8367251776793683e-05
0.4224703397233295,-9.562391415593296e-06,0.4224703397233295,-1.0911454608727524e-05,0.4224703397233295,-5.690340930050872e-05,0.4224703397233295,-3.104986951065892e-05
0.4232644569032606,-1.6276807624588054e-05,0.4232644569032606,-1.0239259238225194e-05,0.4232644569032606,-4.985602200136456e-05,0.4232644569032606,-3.373586304709922e-05
0.4240585740831917,-1.3597240607280138e-05,0.4240585740831917,-1.1245359772269949e-05,0.4240585740831917,-2.787479489164326e-05,0.4240585740831917,-2.853719114978431e-05
0.4248526912631227,-1.258909159812224e-05,0.4248526912631227,-1.1078165246911838e-05,0.4248526912631227,-3.464016439018359e-07,0.4248526912631227,-2.1655275901060104e-05
0.4256468084430538,-8.225662861149967e-06,0.4256468084430538,-1.1245859517310376e-05,0.4256468084430538,1.7284248063542793e-05,0.4256468084430538,-1.5779217328396947e-05
0.4264409256229849,-4.532275907451043e-06,0.4264409256229849,-1.0238894338906686e-05,0.4264409256229849,1.2253471694533436e-05,0.4264409256229849,-1.1078540238863823e-05
0.4272350428029159,-5.539111435512608e-06,0.4272350428029159,-1.15815276123985e-05,0.4272350428029159,-4.196781951148796e-06,0.4272350428029159,5.874738096900375e-06
0.428029159982847,-7.049230894375442e-06,0.428029159982847,-1.0238259563856209e-05,0.428029159982847,-1.4435439117698735e-05,0.428029159982847,6.2079204762947815e-06
0.4288232771627781,-4.869613974505131e-06,0.4288232771627781,-7.555661807781474e-06,0.4288232771627781,-1.661511597094112e-05,0.4288232771627781,-6.199126609460733e-06
0.4296173943427092,-5.538517861076756e-06,0.4296173943427092,-1.0236751459562871e-05,0.4296173943427092,-2.7686649784045715e-05,0.4296173943427092,-1.89572693757142e-05
0.4304115115226402,-7.216487374856898e-06,0.4304115115226402,-1.2251760842445748e-05,0.4304115115226402,-4.111483894963832e-05,0.4304115115226402,-3.372861290612323e-05
0.4312056287025713,-7.553063016943585e-06,0.4312056287025713,-7.387646244965432e-06,0.4312056287025713,-4.313635810166151e-05,0.4312056287025713,-4.179073240664605e-05
0.4319997458825024,-8.392191403565888e-06,0.4319997458825024,-6.881981159780751e-06,0.4319997458825024,-4.515075539288172e-05,0.4319997458825024,-4.078772231956151e-05
0.4327938630624334,-8.560281051674375e-06,0.4327938630624334,-5.539261584880361e-06,0.4327938630624334,-4.4480115793302506e-05,0.4327938630624334,-3.105377900288636e-05
0.4335879802423645,-1.0406654055037208e-05,0.4335879802423645,-7.721015702832765e-06,0.4335879802423645,-4.850829975861648e-05,0.4335879802423645,-2.5848929477209525e-05
0.4343820974222956,-7.888456915160468e-06,0.4343820974222956,-8.224568810246045e-06,0.4343820974222956,-3.641986066904163e-05,0.4343820974222956,1.359888921927674e-05
0.4351762146022266,-4.194598869211669e-06,0.4351762146022266,-7.889544329089806e-06,0.4351762146022266,-8.384123105704885e-06,0.4351762146022266,3.8776462250779066e-05
0.4359703317821577,1.8412610652995e-06,0.4359703317821577,-1.0236824857326707e-05,0.4359703317821577,2.246584098921266e-05,0.4359703317821577,5.084814216422002e-05
0.4367644489620888,3.188208093567827e-06,0.4367644489620888,-1.25870691637437e-05,0.4367644489620888,3.540723043529046e-05,0.4367644489620888,3.442051578439388e-05
0.4375585661420199,-8.370448067846167e-07,0.4375585661420199,-1.4937315966161924e-05,0.4375585661420199,3.0047934934487036e-05,0.4375585661420199,-1.489554417492695e-07
0.438352683321951,-1.681167792091543e-07,0.438352683321951,-1.997209164695747e-05,0.438352683321951,2.702490501182552e-05,0.438352683321951,-1.7952803838792828e-05
0.439146800501882,1.174602614762808e-06,0.439146800501882,-1.829602173500128e-05,0.439146800501882,7.558112095863941e-06,0.439146800501882,-1.2254433899004334e-05
0.4399409176818131,-5.033739822557307e-07,0.4399409176818131,-1.628160882278605e-05,0.4399409176818131,-4.850258779481743e-05,0.4399409176818131,-1.691019316361947e-07
0.4407350348617442,-6.210773744840738e-06,0.4407350348617442,-1.3931382084760375e-05,0.4407350348617442,-0.0001049065306097,0.4407350348617442,-7.217866372942937e-06
0.4415291520416752,-1.4267521008744535e-05,0.4415291520416752,-1.1245835798251092e-05,0.4415291520416752,-0.0001169830390022,0.4415291520416752,-1.5106881522679175e-05
0.4423232692216063,-1.594415709241031e-05,0.4423232692216063,-1.0910508581517936e-05,0.4423232692216063,-7.540256401630251e-05,0.4423232692216063,-1.7621885592654557e-05
0.4431173864015373,-1.2758964594731849e-05,0.4431173864015373,-1.3593724584343457e-05,0.4431173864015373,-4.25122825987637e-06,0.4431173864015373,-1.259259140435602e-05
0.4439115035814684,-1.1750029651263322e-05,0.4439115035814684,-1.225383953501776e-05,0.4439115035814684,4.143025591568217e-05,0.4439115035814684,-2.1646933138630103e-05
0.4447056207613995,-1.3930457762531386e-05,0.4447056207613995,-1.292407931889628e-05,0.4447056207613995,8.843415241826567e-05,0.4447056207613995,-3.171868983120725e-05
0.4454997379413306,-8.562082754287989e-06,0.4454997379413306,-2.064295166096657e-05,0.4454997379413306,0.0001367810453137,0.4454997379413306,-2.4340537541684156e-05
0.4462938551212617,-8.406548388047348e-07,0.4462938551212617,-1.9302945016586705e-05,0.4462938551212617,0.000138475693638,0.4462938551212617,-3.004395867950651e-05
0.4470879723011927,2.517622891047673e-06,0.4470879723011927,-1.4603063953217007e-05,0.4470879723011927,0.0001064171184178,0.4470879723011927,-2.836655855472036e-05
0.4478820894811238,3.188837342833505e-06,0.4478820894811238,-1.1917186503224476e-05,0.4478820894811238,3.205178491114132e-05,0.4478820894811238,-2.098271327907068e-05
0.4486762066610549,5.018026972209921e-07,0.4486762066610549,-1.09093273496503e-05,0.4486762066610549,-3.374537934283364e-05,0.4486762066610549,-3.440508581047099e-05
0.4494703238409859,-6.2047096729769945e-06,0.4494703238409859,-7.556075160109444e-06,0.4494703238409859,-6.325407452639779e-05,0.4494703238409859,-1.8980133729699333e-05
0.450264441020917,-1.2919673332010302e-05,0.450264441020917,-6.211365336413955e-06,0.450264441020917,-5.388621735489768e-05,0.450264441020917,-1.3599581345655818e-05
0.4510585582008481,-1.2588886790900862e-05,0.4510585582008481,-5.874906790900862e-06,0.4510585582008481,-3.8446092325797416e-05,0.4510585582008481,-1.2589260372702585e-05
0.4518526753807791,-9.568645225196125e-06,0.4518526753807791,-6.21028275230172e-06,0.4518526753807791,-1.9646085830219703e-05,0.4518526753807791,-5.877464945788812e-06
0.4526467925607102,-4.365439414458186e-06,0.4526467925607102,-8.559696071142683e-06,0.4526467925607102,-4.871488989973067e-06,0.4526467925607102,-2.500450087509609e-05
0.4534409097406413,3.691764133513315e-06,0.4534409097406413,-1.3259565743033744e-05,0.4534409097406413,4.011088640605325e-05,0.4534409097406413,-3.843597354827708e-05
0.4542350269205724,7.553231381570456e-06,0.4542350269205724,-1.6281308944723942e-05,0.4542350269205724,6.697161545226232e-05,0.4542350269205724,-2.0644350430530267e-05
0.4550291441005034,7.88884915333586e-06,0.4550291441005034,-1.3596408484767263e-05,0.4550291441005034,5.857833516072021e-05,0.4550291441005034,1.326332495114066e-05
0.4558232612804345,7.553531925498049e-06,0.4558232612804345,-1.694968065209881e-05,0.4558232612804345,5.271015881236673e-05,0.4558232612804345,3.10355675490444e-05
0.4566173784603656,7.720938607773754e-06,0.4566173784603656,-2.231969552703971e-05,0.4566173784603656,2.4024868031548115e-05,0.4566173784603656,1.947956602447113e-05
0.4574114956402966,-4.983236097046301e-07,0.4574114956402966,-1.829815883147726e-05,0.4574114956402966,-4.178317842995907e-06,0.4574114956402966,-2.336029388630912e-06
0.4582056128202277,-4.194429330257014e-06,0.4582056128202277,-1.5107955155831e-05,0.4582056128202277,-8.89371823709036e-06,0.4582056128202277,-7.718450840995748e-06
0.4589997300001588,-4.867401690310597e-06,0.4589997300001588,-1.4435228309689405e-05,0.4589997300001588,-2.3661677224238645e-05,0.4589997300001588,-1.3929388142174022e-05
0.4597938471800898,-7.5527031087879e-06,0.4597938471800898,-1.5106270776715803e-05,0.4597938471800898,-4.648980642758418e-05,0.4597938471800898,-2.8363721718636632e-05
0.4605879643600209,-1.1917104111184009e-05,0.4605879643600209,-1.3595867805733496e-05,0.4605879643600209,-5.287221369964917e-05,0.4605879643600209,-3.642293835745158e-05
0.461382081539952,-1.1581668949526172e-05,0.461382081539952,-1.2588751707009871e-05,0.461382081539952,-4.985130342428926e-05,0.461382081539952,-3.172406882845617e-05
0.4621761987198831,-1.2253083912282714e-05,0.4621761987198831,-1.309165458266046e-05,0.4621761987198831,-5.085981042108886e-05,0.4621761987198831,-3.726061198613703e-05
0.4629703158998141,-1.2588411129015848e-05,0.4629703158998141,-1.0912077618371831e-05,0.4629703158998141,-5.6895700322285226e-05,0.4629703158998141,-2.9715799554118303e-05
0.4637644330797452,-1.158231907479666e-05,0.4637644330797452,-1.1581120616802224e-05,0.4637644330797452,-7.870572011747285e-05,0.4637644330797452,-1.293638450854383e-05
0.4645585502596763,-1.0407365491065897e-05,0.4645585502596763,-1.0910580296792612e-05,0.4645585502596763,-0.0001022066897821,0.4645585502596763,-2.164765614169602e-05
0.4653526674396073,-1.09099891131515e-05,0.4653526674396073,-1.09102e-05,0.4653526674396073,-0.0001106094846607,0.4653526674396073,-1.7961446657130993e-05
0.4661467846195384,-1.393068044208011e-05,0.4661467846195384,-1.1581417876017802e-05,0.4661467846195384,-9.752395149903089e-05,0.4661467846195384,5.197046741602364e-06
0.4669409017994695,-1.5274133924845927e-05,0.4669409017994695,-1.0910283037577038e-05,0.4669409017994695,-7.066782149071366e-05,0.4669409017994695,1.1754382242254416e-06
0.4677350189794005,-1.2924307719477324e-05,0.4677350189794005,-7.217495926757815e-06,0.4677350189794005,-6.260763951171876e-05,0.4677350189794005,-1.829546358496095e-05
0.4685291361593316,-9.06325630377717e-06,0.4685291361593316,-6.210103778087437e-06,0.4685291361593316,-5.58902928096468e-05,0.4685291361593316,-1.2585422787039787e-05
0.4693232533392627,-5.542340505869983e-06,0.4693232533392627,-4.3658140749505605e-06,0.4693232533392627,-3.543543247787926e-05,0.4693232533392627,6.528148655585924e-06
0.4701173705191938,8.341893220167988e-07,0.4701173705191938,-5.873522369162366e-06,0.4701173705191938,-7.743026615567105e-06,0.4701173705191938,-5.529448929515016e-06
0.4709114876991248,2.1811736088899648e-06,0.4709114876991248,-7.552137006273342e-06,0.4709114876991248,8.549805006016485e-06,0.4709114876991248,-2.6338870961667416e-05
0.4717056048790559,2.8531058889145445e-06,0.4717056048790559,-9.06310825503406e-06,0.4717056048790559,2.8692176722176016e-05,0.4717056048790559,-2.433910233325637e-05
0.472499722058987,6.544827371259671e-06,0.472499722058987,-1.1580718660949589e-05,0.472499722058987,4.27966644817148e-05,0.472499722058987,-1.5613055285838056e-05
0.473293839238918,3.861073751075648e-06,0.473293839238918,-1.2924128123449826e-05,0.473293839238918,5.219919688439577e-05,0.473293839238918,-2.0308848432074392e-05
0.4740879564188491,4.531893148130121e-06,0.4740879564188491,-1.359576314813012e-05,0.4740879564188491,4.951564740747951e-05,0.4740879564188491,-3.810082343093702e-05
0.4748820735987802,2.852957684205439e-06,0.4748820735987802,-1.49386e-05,0.4748820735987802,2.3328541750687355e-05,0.4748820735987802,-3.860391528622466e-05
0.4756761907787112,-2.349527485892437e-06,0.4756761907787112,-1.4937955527915727e-05,0.4756761907787112,-3.195826364278057e-06,0.4756761907787112,-2.3664847166755047e-05
0.4764703079586423,-8.405610039303432e-07,0.4764703079586423,-1.2255337794050303e-05,0.4764703079586423,-3.1027845508597e-05,0.4764703079586423,-1.59524210708454e-05
0.4772644251385734,-2.516524758872377e-06,0.4772644251385734,-1.3259370852717004e-05,0.4772644251385734,-6.05722117520994e-05,0.4772644251385734,-2.2487060578860853e-05
0.4780585423185045,-7.214810929043967e-06,0.4780585423185045,-1.2253580517675256e-05,0.4780585423185045,-7.132970786910642e-05,0.4780585423185045,-2.9369633158040327e-05
0.4788526594984356,-1.426417679210524e-05,0.4788526594984356,-9.568561697224568e-06,0.4788526594984356,-7.418817629570028e-05,0.4788526594984356,-4.061467727135647e-05
0.4796467766783666,-1.42672e-05,0.4796467766783666,-7.553786514106653e-06,0.4796467766783666,-7.402154722380635e-05,0.4796467766783666,-4.112295835670711e-05
0.4804408938582977,-1.3595889752567928e-05,0.4804408938582977,-7.55322e-06,0.4804408938582977,-6.462325652258304e-05,0.4804408938582977,-4.061956732110993e-05
0.4812350110382288,-1.4267211666601495e-05,0.4812350110382288,-8.896028667535538e-06,0.4812350110382288,-3.977977730705864e-05,0.4812350110382288,-4.5151068651557e-05
0.4820291282181598,-1.5105939801638534e-05,0.4820291282181598,-1.0239341419324115e-05,0.4820291282181598,-2.177167251887847e-06,0.4820291282181598,-2.131327250020525e-05
0.4828232453980909,-1.2255708403883446e-05,0.4828232453980909,-1.3592613586655665e-05,0.4828232453980909,2.800212243177054e-05,0.4828232453980909,1.1535910875440338e-06
0.483617362578022,-4.202697962556064e-06,0.483617362578022,-1.695010500556666e-05,0.483617362578022,7.297828723515293e-05,0.483617362578022,4.276818218141836e-05
0.484411479757953,3.18430098235992e-06,0.484411479757953,-1.225607938737055e-05,0.484411479757953,8.811100196916608e-05,0.484411479757953,7.769132468200495e-05
0.4852055969378841,2.5180808260763462e-06,0.4852055969378841,-1.3762833166709964e-05,0.4852055969378841,5.725227794874844e-05,0.4852055969378841,5.154299216621403e-05
0.4859997141178152,-5.024601758005138e-07,0.4859997141178152,-1.5777074780986584e-05,0.4859997141178152,2.8041315639689212e-05,0.4859997141178152,1.9985461692532884e-05
0.4867938312977463,-3.1885693886360474e-06,0.4867938312977463,-1.8295065039629197e-05,0.4867938312977463,-5.531897372823587e-06,0.4867938312977463,-6.204856539626407e-06
0.4875879484776773,-6.881580383563556e-06,0.4875879484776773,-1.695288713372154e-05,0.4875879484776773,-2.5679593002612542e-05,0.4875879484776773,-1.6952102931525475e-05
0.4883820656576084,-7.720556445867794e-06,0.4883820656576084,-1.5106552682881812e-05,0.4883820656576084,-1.7288333441366685e-05,0.4883820656576084,-1.963817792182225e-05
0.4891761828375395,-1.51064e-06,0.4891761828375395,-1.695303161721513e-05,0.4891761828375395,-1.5276075708984225e-05,0.4891761828375395,-1.695002060031798e-05
0.4899703000174705,-1.51064e-06,0.4899703000174705,-1.7959013267414594e-05,0.4899703000174705,-2.298850180489333e-05,0.4899703000174705,-4.87827076461045e-06
0.4907644171974016,-3.187907967051108e-06,0.4907644171974016,-1.8295353593410225e-05,0.4907644171974016,-2.567892874728177e-05,0.4907644171974016,-1.291848626386557e-05
0.4915585343773327,-5.873145104631135e-06,0.4915585343773327,-1.69535874535487e-05,0.4915585343773327,-2.9706937639353906e-05,0.4915585343773327,-2.3324897293640244e-05
0.4923526515572637,-9.565789482358173e-06,0.4923526515572637,-1.2926167842214846e-05,0.4923526515572637,-3.373593215778515e-05,0.4923526515572637,-1.8297809758884083e-05
0.4931467687371948,-9.23180777698199e-06,0.4931467687371948,-9.90397999283791e-06,0.4931467687371948,-3.3905451126072155e-05,0.4931467687371948,-1.4603975546801891e-05
0.4939408859171259,-8.896058233779385e-06,0.4939408859171259,-1.1245707064882457e-05,0.4939408859171259,-3.575163470702932e-05,0.4939408859171259,-1.510632765651498e-05
0.494735003097057,-1.225300523769287e-05,0.494735003097057,-1.4602903928269651e-05,0.494735003097057,-2.937353060095952e-05,0.494735003097057,-2.114903469952024e-05
0.495529120276988,-1.3594885807141676e-05,0.495529120276988,-1.560984763401931e-05,0.495529120276988,-1.1580990539103065e-05,0.495529120276988,-3.004515236598069e-05
0.4963232374569191,-7.5590158837351645e-06,0.4963232374569191,-1.4603865983819771e-05,0.4963232374569191,-7.557083916095618e-06,0.4963232374569191,-3.1051134016180225e-05
0.4971173546368502,-6.882365713877559e-06,0.4971173546368502,-1.46029e-05,0.4971173546368502,-7.88863715118922e-06,0.4971173546368502,-3.10521e-05
0.4979114718167812,-5.036708218896913e-06,0.4979114718167812,-1.3093204945073804e-05,0.4979114718167812,-1.2250096928081592e-05,0.4979114718167812,-3.23940067450552e-05
0.4987055889967123,-5.538769344199608e-06,0.4987055889967123,-1.4937644236183409e-05,0.4987055889967123,-2.1647734425059333e-05,0.4987055889967123,-3.776331967146248e-05
0.4994997061766434,-5.53903e-06,0.4994997061766434,-1.1918418045978922e-05,0.4994997061766434,-2.1149186359499217e-05,0.4994997061766434,-3.12224224144516e-05
0.5002938233565745,-4.196528736513644e-06,0.5002938233565745,-9.903548104770466e-06,0.5002938233565745,-2.4001765196032147e-05,0.5002938233565745,-2.266150445639812e-05
0.5010879405365055,-6.2102691551940685e-06,0.5010879405365055,-1.1917149154445156e-05,0.5010879405365055,-2.198845083806574e-05,0.5010879405365055,-2.0477763412273197e-05
0.5018820577164366,-7.553390814483434e-06,0.5018820577164366,-1.023882440227675e-05,0.5018820577164366,-2.299720337031742e-05,0.5018820577164366,-1.829391624799261e-05
0.5026761748963677,-9.902435332203938e-06,0.5026761748963677,-1.05746107896991e-05,0.5026761748963677,-4.91827910138821e-05,0.5026761748963677,4.869771714920491e-06
0.5034702920762988,-6.884510359396236e-06,0.5034702920762988,-1.1077651559275557e-05,0.5034702920762988,-6.276349334709813e-05,0.5034702920762988,1.4594231033495936e-05
0.5042644092562298,-6.88182e-06,0.5042644092562298,-8.72990837835663e-06,0.5042644092562298,-6.26079248448421e-05,0.5042644092562298,-8.543076345083671e-06
0.5050585264361609,-7.2173197791173795e-06,0.5050585264361609,-6.21192165065537e-06,0.5050585264361609,-4.8516809277070034e-05,0.5050585264361609,-2.5670688800593463e-05
0.505852643616092,-7.553069322319984e-06,0.505852643616092,-2.8549467678232363e-06,0.505852643616092,-4.414635876495558e-05,0.505852643616092,-3.641847831423948e-05
0.506646760796023,-8.412686817153677e-07,0.506646760796023,-3.189038865522588e-06,0.506646760796023,-1.0249014552092188e-05,0.506646760796023,-2.9711322689548243e-05
0.507440877975954,3.524159317115267e-06,0.507440877975954,-5.53866886261284e-06,0.507440877975954,3.876566770460767e-05,0.507440877975954,-1.359827636582478e-05
0.5082349951558852,2.5177461441556043e-06,0.5082349951558852,-4.867634096144409e-06,0.5082349951558852,6.059346687591681e-05,0.5082349951558852,-2.0981154942411502e-05
0.5090291123358163,5.032633893670524e-07,0.5090291123358163,-4.531360777886288e-06,0.5090291123358163,7.569924103379044e-05,0.5090291123358163,-3.642206667990948e-05
0.5098232295157473,-1.5086879243571797e-06,0.5098232295157473,-5.074521571006163e-07,0.5098232295157473,7.033400556606072e-05,0.5098232295157473,-2.770355904484867e-05
0.5106173466956784,-2.8523351422630994e-06,0.5106173466956784,-1.509811363279736e-06,0.5106173466956784,2.4040517427362784e-05,0.5106173466956784,-1.5321846106773663e-06
0.5114114638756094,-7.550046616261695e-06,0.5114114638756094,-4.194416636899227e-06,0.5114114638756094,-5.24851192292782e-05,0.5114114638756094,5.031059931239975e-06
0.5122055810555405,-1.2586043090116793e-05,0.5122055810555405,-5.538321487883743e-06,0.5122055810555405,-8.877317022562484e-05,0.5122055810555405,4.8677185640145325e-06
0.5129996982354716,-9.736344467223954e-06,0.5129996982354716,-1.1075994842763056e-05,0.5129996982354716,-6.86579550895848e-05,0.5129996982354716,1.4263627636262104e-05
0.5137938154154027,-8.896205104059524e-06,0.5137938154154027,-1.091023903243562e-05,0.5137938154154027,-3.206770649050037e-05,0.5137938154154027,3.5273273249876782e-06
0.5145879325953338,-8.89601e-06,0.5145879325953338,-1.3931243514208727e-05,0.5145879325953338,-8.226633378570754e-06,0.5145879325953338,-2.4335734645467767e-05
0.5153820497752648,-1.0909905374314866e-05,0.5153820497752648,-1.829572626868811e-05,0.5153820497752648,-3.020395600553924e-06,0.5153820497752648,-4.7836137170233526e-05
0.5161761669551959,-6.208587029355266e-06,0.5161761669551959,-2.030997623748477e-05,0.5161761669551959,1.12528089000151e-05,0.5161761669551959,-3.405965272016449e-05
0.5169702841351269,2.5098806501253696e-06,0.5169702841351269,-2.114824433484093e-05,0.5169702841351269,4.411477625091079e-05,0.5169702841351269,3.132885487594028e-05
0.5177644013150581,9.22664759100789e-06,0.5177644013150581,-2.299390786900714e-05,0.5177644013150581,7.634710047906251e-05,0.5177644013150581,8.002739752161201e-05
0.5185585184949891,6.212252199337873e-06,0.5185585184949891,-2.7021257059463777e-05,0.5185585184949891,5.3222246847440335e-05,0.5185585184949891,4.282419707867416e-05
0.5193526356749202,5.061665851343137e-07,0.5193526356749202,-2.433933228140332e-05,0.5193526356749202,2.5693530838499235e-05,0.5193526356749202,-2.3291723423223637e-06
0.5201467528548512,-1.5100130518980446e-06,0.5201467528548512,-2.0311053872547695e-05,0.5201467528548512,1.1825678704413849e-06,0.5201467528548512,-1.694825461163133e-05
0.5209408700347823,-2.181930102459492e-06,0.5209408700347823,-1.762463959016203e-05,0.5209408700347823,-1.5102004131116528e-06,0.5209408700347823,-2.6518633968231972e-05
0.5217349872147133,-2.18204e-06,0.5217349872147133,-1.795989459443235e-05,0.5217349872147133,1.5274029722583647e-05,0.5217349872147133,-2.433813513699484e-05
0.5225291043946444,-3.5250944926952165e-06,0.5225291043946444,-2.0309447343073044e-05,0.5225291043946444,3.877397143046201e-05,0.5225291043946444,-2.4339003689941024e-05
0.5233232215745756,-5.537057793094425e-06,0.5233232215745756,-1.7626829609207432e-05,0.5233232215745756,4.464214777881632e-05,0.5233232215745756,-3.121326157744838e-05
0.5241173387545066,-2.5202561390385845e-06,0.5241173387545066,-1.695335914385925e-05,0.5241173387545066,2.838005919694661e-05,0.5241173387545066,-4.2121113953927375e-05
0.5249114559344377,-1.5113300861812002e-06,0.5249114559344377,-1.49399801723624e-05,0.5249114559344377,-2.16110749547231e-06,0.5249114559344377,-3.978191020108947e-05
0.5257055731143687,-6.207893213410307e-06,0.5257055731143687,-1.359652194209785e-05,0.5257055731143687,-3.6404890551774304e-05,0.5257055731143687,-2.669503893545405e-05
0.5264996902942998,-8.223824349969422e-06,0.5264996902942998,-1.1246816596253011e-05,0.5264996902942998,-6.393986276861332e-05,0.5264996902942998,-2.2661171307862307e-05
0.5272938074742308,-8.22461e-06,0.5272938074742308,-1.1581518600880695e-05,0.5272938074742308,-6.596421162953176e-05,0.5272938074742308,-1.8967895366064744e-05
0.528087924654162,-1.090994515361573e-05,0.528087924654162,-9.567601134550966e-06,0.528087924654162,-6.327945483784381e-05,0.528087924654162,-1.7120775212286283e-05
0.528882041834093,-8.560274625428095e-06,0.528882041834093,-9.903197277438353e-06,0.528882041834093,-6.932198299657525e-05,0.528882041834093,-1.8967282991306464e-05
0.5296761590140241,-7.88857427239089e-06,0.5296761590140241,-1.1749097853352524e-05,0.5296761590140241,-7.469410862659344e-05,0.5296761590140241,-2.433971150212458e-05
0.5304702761939551,-6.211948177620462e-06,0.5304702761939551,-1.0240175322530052e-05,0.5304702761939551,-8.072999852779022e-05,0.5304702761939551,-3.238756470372028e-05
0.5312643933738862,-7.887627612259788e-06,0.5312643933738862,-9.567922950512008e-06,0.5312643933738862,-7.671017774891281e-05,0.5312643933738862,-3.5078448167391455e-05
0.5320585105538173,-8.224403064126535e-06,0.5320585105538173,-1.1244865326796987e-05,0.5320585105538173,-6.3622970437422e-05,0.5320585105538173,-3.5415993064126535e-05
0.5328526277337483,-8.895695214658186e-06,0.5328526277337483,-8.897111744007857e-06,0.5328526277337483,-5.4219706994785405e-05,0.5328526277337483,-3.239631653403816e-05
0.5336467449136795,-1.124514505693488e-05,0.5336467449136795,-6.882467093596863e-06,0.5336467449136795,-4.5825496236706406e-05,0.5336467449136795,-1.3937431688627355e-05
0.5344408620936105,-8.56077644838874e-06,0.5344408620936105,-8.39219762354121e-06,0.5344408620936105,-4.64940833874686e-05,0.5344408620936105,7.3816675660229405e-06
0.5352349792735416,-6.21048134118063e-06,0.5352349792735416,-8.224614381531548e-06,0.5352349792735416,-4.246600515414676e-05,0.5352349792735416,2.500903994231995e-05
0.5360290964534726,-7.72107e-06,0.5360290964534726,-8.560269271156265e-06,0.5360290964534726,-2.5680737084625057e-05,0.5360290964534726,2.6685556283934884e-05
0.5368232136334037,-7.72107e-06,0.5368232136334037,-8.22494205442311e-06,0.5368232136334037,-2.433942821769244e-05,0.5368232136334037,6.566043146689754e-06
0.5376173308133347,-9.23043682601502e-06,0.5376173308133347,-5.541293418544842e-06,0.5376173308133347,-3.5742280399546055e-05,0.5376173308133347,-3.0014160844367126e-05
0.5384114479932659,-8.560776772444932e-06,0.5384114479932659,-1.0235532613742162e-05,0.5384114479932659,-2.6023368200451497e-05,0.5384114479932659,-4.312819793732385e-05
0.539205565173197,-6.882739209622898e-06,0.539205565173197,-1.2251896941880831e-05,0.539205565173197,-1.4273634450931067e-05,0.539205565173197,-4.850545856644629e-05
0.539999682353128,-3.526172994172454e-06,0.539999682353128,-1.460195990127887e-05,0.539999682353128,-1.42672e-05,0.539999682353128,-4.313944875707097e-05
0.5407937995330591,-3.8604452433852994e-06,0.5407937995330591,-1.544188812108711e-05,0.5407937995330591,-8.426362529740684e-07,0.5407937995330591,-1.6288180503928316e-05
0.5415879167129901,-6.881503080340084e-06,0.5415879167129901,-1.191766973558224e-05,0.5415879167129901,1.6782259008778118e-06,0.5415879167129901,7.886374643769636e-06
0.5423820338929212,-6.881633713577742e-06,0.5423820338929212,-1.3763793454305528e-05,0.5423820338929212,5.034763515599342e-07,0.5423820338929212,1.712043520954402e-05
0.5431761510728523,-2.517867585299447e-06,0.5431761510728523,-1.8295217244101665e-05,0.5431761510728523,-1.1746210390317272e-06,0.5431761510728523,1.325665521021694e-05
0.5439702682527834,-3.188522018765756e-06,0.5439702682527834,-1.6283253943702732e-05,0.5439702682527834,5.020030579596314e-07,0.5439702682527834,-4.850944571105988e-06
0.5447643854327144,-2.18281950971454e-06,0.5447643854327144,-1.1920677875429676e-05,0.5447643854327144,1.3250226247435171e-05,0.5447643854327144,-1.895608688721686e-05
0.5455585026126455,-4.530457952681957e-06,0.5455585026126455,-9.568882047318042e-06,0.5455585026126455,1.5944017653048723e-05,0.5455585026126455,-2.299277654221633e-05
0.5463526197925765,-5.203008499667389e-06,0.5463526197925765,-8.560792250498918e-06,0.5463526197925765,2.1314327997339107e-05,0.5463526197925765,-2.903500649700649e-05
0.5471467369725076,-1.695170981621219e-07,0.5471467369725076,-9.567076379108752e-06,0.5471467369725076,3.608270692672195e-05,0.5471467369725076,-2.299730172534748e-05
0.5479408541524387,2.852885028170254e-06,0.5479408541524387,-1.3091552541529206e-05,0.5479408541524387,3.2059939965133736e-05,0.5479408541524387,-8.898599857762502e-06
0.5487349713323698,5.203245156451595e-06,0.5487349713323698,-1.4267157576240004e-05,0.5487349713323698,1.0239587832691582e-05,0.5487349713323698,1.023810913141532e-05
0.5495290885123009,1.510041994195212e-06,0.5495290885123009,-1.2420631815494816e-05,0.5495290885123009,-1.2255392025445875e-05,0.5495290885123009,1.3593370597869206e-05
0.5503232056922319,-3.855163506849225e-06,0.5503232056922319,-1.0911709284672345e-05,0.5503232056922319,-3.371623400741432e-05,0.5503232056922319,-8.20280858972773e-06
0.551117322872163,-2.854298852233486e-06,0.551117322872163,-1.359350970463588e-05,0.551117322872163,-3.1389804008443604e-05,0.551117322872163,-9.733971708857683e-06
0.551911440052094,-4.866209544744776e-06,0.551911440052094,-1.35958e-05,0.551911440052094,-1.645973506018583e-05,0.551911440052094,-4.8710627698052266e-06
0.5527055572320251,-6.880696802484299e-06,0.5527055572320251,-1.35958e-05,0.5527055572320251,-1.829457036928344e-05,0.5527055572320251,-1.9630163194053703e-05
0.5534996744119562,-1.0572985777761476e-05,0.5534996744119562,-1.258911297193811e-05,0.5534996744119562,-3.507361717537089e-05,0.5534996744119562,-2.1651774056123784e-05
0.5542937915918873,-1.1581335657669702e-05,0.5542937915918873,-1.25887e-05,0.5542937915918873,-4.112151394601821e-05,0.5542937915918873,-2.03101524564404e-05
0.5550879087718184,-1.3092026436660908e-05,0.5550879087718184,-1.1581715712722628e-05,0.5550879087718184,-4.179442285818492e-05,0.5550879087718184,-2.7022928593338853e-05
0.5558820259517494,-1.1917245138524691e-05,0.5558820259517494,-9.567388055409876e-06,0.5558820259517494,-5.387921048515955e-05,0.5558820259517494,-2.5008951388842245e-05
0.5566761431316805,-1.0238437365535142e-05,0.5566761431316805,-8.895768244290227e-06,0.5566761431316805,-4.195852256590956e-05,0.5566761431316805,-8.220862774795937e-06
0.5574702603116115,-8.226484054031842e-06,0.5574702603116115,-7.554469366253142e-06,0.5574702603116115,-2.1000721353520505e-05,0.5574702603116115,1.2569334762598634e-05
0.5582643774915427,-5.876562350628228e-06,0.5582643774915427,-7.55322e-06,0.5582643774915427,1.1575692386247454e-06,0.5582643774915427,1.5272194447464703e-05
0.5590584946714737,-8.894087148585565e-06,0.5590584946714737,-1.0404883948560362e-05,0.5590584946714737,1.3252408594342262e-05,0.5590584946714737,6.216188560607644e-06
0.5598526118514048,-8.224938215323502e-06,0.5598526118514048,-9.903346185935234e-06,0.5598526118514048,3.741858429723913e-05,0.5598526118514048,-5.533286256281314e-06
0.5606467290313358,-2.1841021500265413e-06,0.5606467290313358,-1.2252198048785968e-05,0.5606467290313358,8.491548921434824e-05,0.5606467290313358,-4.867859128918295e-06
0.5614408462112669,-1.6823912579606349e-07,0.5614408462112669,-1.3595539914973825e-05,0.5614408462112669,0.0001065798061967,0.5614408462112669,-2.7187276101934948e-05
0.5622349633911979,5.035170440303474e-07,0.5622349633911979,-1.1581692868323918e-05,0.5622349633911979,7.08340483920015e-05,0.5622349633911979,-5.790658376497626e-05
0.563029080571129,-1.8467142442796395e-06,0.563029080571129,-1.4938531955401252e-05,0.563029080571129,-6.887195501004658e-06,0.563029080571129,-6.39508041236615e-05
0.5638231977510602,-5.535303639449511e-06,0.5638231977510602,-1.426787752193485e-05,0.5638231977510602,-5.986867598915289e-05,0.5638231977510602,-6.596266753510727e-05
0.5646173149309912,-7.551482142132593e-06,0.5646173149309912,-1.3596379288831826e-05,0.5646173149309912,-8.088519735342651e-05,0.5646173149309912,-6.86479828446727e-05
0.5654114321109223,-3.5277112074080207e-06,0.5654114321109223,-1.2924880202426713e-05,0.5654114321109223,-9.750851502570014e-05,0.5654114321109223,-4.98646455964254e-05
0.5662055492908533,-2.853821110345067e-06,0.5662055492908533,-1.0911343348064514e-05,0.5662055492908533,-9.584285279005376e-05,0.5662055492908533,-1.6635965129535745e-05
0.5669996664707844,-6.209009860319754e-06,0.5669996664707844,-1.1581317970383704e-05,0.5669996664707844,-8.241964055031975e-05,0.5669996664707844,1.5596462620423934e-05
0.5677937836507154,-6.546028528394408e-06,0.5677937836507154,-1.2252817056788816e-05,0.5677937836507154,-6.496245649624275e-05,0.5677937836507154,3.322939775433045e-05
0.5685879008306466,8.383235793818503e-07,0.5685879008306466,-1.3931290357985296e-05,0.5685879008306466,-3.726595908699769e-05,0.5685879008306466,3.3401979042043455e-05
