X [s],R BICEPS BRACHII: EMG 1 [V],X [s].1,R DELTOID ANTERIOR: EMG 2 [V],X [s].5,R DELTOID MEDIUS: EMG 6 [V],X [s].6,R DELTOID POSTERIOR: EMG 7 [V]
0.0,-9.9031e-06,0.0,-9.75204e-05,0.0,2.46738e-05,0.0,-1.2253e-05
0.000794117179931,-6.328906789979132e-06,0.000794117179931,-0.0001377646033626,0.000794117179931,3.1861729331916385e-05,0.000794117179931,-1.0584358963258022e-05
0.0015882343598621,-6.289407486718428e-06,0.0015882343598621,-0.0001712551397841,0.0015882343598621,1.9816074686817225e-05,0.0015882343598621,-8.22461e-06
0.0023823515397932,-4.097531035832191e-06,0.0023823515397932,-0.0001289972053881,0.0023823515397932,-3.6234504028369583e-06,0.0023823515397932,-8.599800986033773e-06
0.0031764687197242,1.925325715398565e-06,0.0031764687197242,-4.51512957468269e-05,0.0031764687197242,-2.037889515269372e-05,0.0031764687197242,-7.790184937363444e-06
0.0039705858996553,6.585597199813559e-06,0.0039705858996553,-3.3867287557186943e-06,0.0039705858996553,-2.6115292999533896e-05,0.0039705858996553,-3.9395615944111495e-06
0.0047647030795864,3.742057485734601e-06,0.0047647030795864,-1.2282365615220344e-05,0.0047647030795864,-3.4172124814057985e-05,0.0047647030795864,-2.6559625673916883e-06
0.0055588202595174,-7.207375968733955e-07,0.0055588202595174,-5.337578977270805e-05,0.0055588202595174,-4.155748154631439e-05,0.0055588202595174,-6.249885592622341e-06
0.0063529374394485,-9.577272333771983e-07,0.0063529374394485,-8.792329402609899e-05,0.0063529374394485,-3.851650021250516e-05,0.0063529374394485,-9.21195994687371e-06
0.0071470546193796,-3.169319683510959e-06,0.0071470546193796,-9.40844491697092e-05,0.0071470546193796,-2.708309468190057e-05,0.0071470546193796,-1.0258532873297024e-05
0.0079411717993107,-1.2489949734368552e-05,0.0079411717993107,-6.387167700741412e-05,0.0079411717993107,-1.0989228016871134e-05,0.0079411717993107,-1.1305137433592138e-05
0.0087352889792417,-1.730822714668727e-05,0.0087352889792417,-5.368211662651076e-05,0.0087352889792417,5.677111792258225e-06,0.0087352889792417,-1.2253e-05
0.0095294061591728,-1.5550739037219085e-05,0.0095294061591728,-6.059363270695636e-05,0.0095294061591728,1.52743e-05,0.0095294061591728,-1.2963863851277072e-05
0.0103235233391039,-1.6241820353782872e-05,0.0103235233391039,-1.529335774567262e-05,0.0103235233391039,1.1088166537800616e-05,0.0103235233391039,-1.7446341210142804e-05
0.0111176405190349,-1.703178069929089e-05,0.0111176405190349,6.034747187507615e-05,0.0111176405190349,1.7376679393656956e-06,0.0111176405190349,-1.9115060706969e-05
0.011911757698966,-1.7811862720268786e-05,0.011911757698966,7.541367888443428e-05,0.011911757698966,-7.494346683114092e-06,0.011911757698966,-1.576782862028478e-05
0.0127058748788971,-1.8572165225815117e-05,0.0127058748788971,3.269121879329647e-05,0.0127058748788971,-1.3615360854823554e-05,0.0127058748788971,-1.4168491306453778e-05
0.0134999920588282,-1.561003436113478e-05,0.0134999920588282,3.071625623450629e-05,0.0134999920588282,-1.6617077092576816e-05,0.0134999920588282,-1.2253028634278982e-05
0.0142941092387592,-8.658776769190132e-06,0.0142941092387592,2.921598338190877e-05,0.0142941092387592,-1.485952088354689e-05,0.0142941092387592,-9.9031e-06
0.0150882264186903,-1.90565336732826e-06,0.0150882264186903,1.6360512280804093e-05,0.0150882264186903,-1.3714090506370566e-05,0.0150882264186903,-1.219368663267174e-05
0.0158823435986214,-2.6955244162645923e-06,0.0158823435986214,-4.7279112970538e-06,0.0158823435986214,-1.4464853248793776e-05,0.0158823435986214,-1.0693067248380967e-05
0.0166764607785524,-4.047895097888954e-07,0.0166764607785524,-6.646674095179285e-05,0.0166764607785524,-7.039713813479279e-06,0.0166764607785524,-7.266849144505557e-06
0.0174705779584835,3.061130111705421e-07,0.0174705779584835,-0.0001164689565366,0.0174705779584835,-4.246523827061511e-07,0.0174705779584835,-4.512206242856833e-06
0.0182646951384146,-6.032229799131787e-06,0.0182646951384146,-0.0001411122549172,0.0182646951384146,9.033454374355916e-06,0.0182646951384146,-5.4005240015486905e-06
0.0190588123183456,-1.6281334671465178e-05,0.0190588123183456,-0.0001013200524827,0.0190588123183456,3.054838962041178e-05,0.0190588123183456,-1.3279786161493463e-05
0.0198529294982767,-1.8433761288322148e-05,0.0198529294982767,1.6255352977315955e-05,0.0198529294982767,5.089827098174498e-05,0.0198529294982767,-1.916453871167785e-05
0.0206470466782078,-1.4188622301842215e-05,0.0206470466782078,0.0001543740578924,0.0206470466782078,6.004064814151315e-05,0.0206470466782078,-1.6933155575460553e-05
0.0214411638581389,-7.375617097837818e-06,0.0214411638581389,0.0002005439166028,0.0214411638581389,5.468958952999951e-05,0.0214411638581389,-1.7782069768889037e-05
0.0222352810380699,-1.7080299278530835e-06,0.0222352810380699,0.0001093285192859,0.0222352810380699,3.743012024872335e-05,0.0222352810380699,-2.133667720283644e-05
0.023029398218001,5.03548e-07,0.023029398218001,9.473975847322002e-06,0.023029398218001,1.594588788526553e-05,0.023029398218001,-1.9204003388142903e-05
0.0238235153979321,5.360983286559423e-06,0.0238235153979321,-8.789348939384616e-05,0.0238235153979321,1.2149417262600878e-06,0.0238235153979321,-1.531390828049611e-05
0.0246176325778631,1.0416516870523974e-05,0.0246176325778631,-0.00017228286348,0.0246176325778631,-9.16256924378988e-06,0.0246176325778631,-1.5412519617493795e-05
0.0254117497577942,5.716537231768626e-06,0.0254117497577942,-0.0001669509692511,0.0254117497577942,-1.05745e-05,0.0254117497577942,-1.748598950309674e-05
0.0262058669377253,1.1554227614231974e-06,0.0262058669377253,-9.70077484543059e-05,0.0262058669377253,-1.874894476512581e-05,0.0262058669377253,-1.703167211779349e-05
0.0269999841176564,-3.524726917209804e-06,0.0269999841176564,-2.769639389709089e-05,0.0269999841176564,-3.3066013657210174e-05,0.0269999841176564,-1.7959888546288408e-05
0.0277941012975874,-8.007480073873351e-06,0.0277941012975874,1.033639430885473e-05,0.0277941012975874,-3.528777760314555e-05,0.0277941012975874,-1.448433286702251e-05
0.0285882184775185,-1.1739325536880434e-05,0.0285882184775185,5.3661711725775504e-05,0.0285882184775185,-3.0765976429345854e-05,0.0285882184775185,-7.040254748521676e-06
0.0293823356574496,-1.6735519507234165e-05,0.0293823356574496,6.740641594136978e-05,0.0293823356574496,-2.674775570059229e-05,0.0293823356574496,-2.2215131690780554e-06
0.0301764528373806,-1.4859612513239638e-05,0.0301764528373806,2.3610604780304303e-05,0.0301764528373806,-1.1344645775010804e-05,0.0301764528373806,-5.005860502792438e-06
0.0309705700173117,-1.1621024611783116e-05,0.0309705700173117,-3.966251476308857e-05,0.0309705700173117,6.86151571986483e-06,0.0309705700173117,-8.7971524834204e-06
0.0317646871972428,-1.3753715583735408e-05,0.0317646871972428,-1.4598211019962244e-08,0.0317646871972428,1.900646713576229e-05,0.0317646871972428,-1.2410915583735408e-05
0.0325588043771738,-1.6162860228794093e-05,0.0325588043771738,8.825965070593245e-05,0.0325588043771738,1.4869611542611484e-05,0.0325588043771738,-1.1660626514137272e-05
0.0333529215571049,-1.7090984195745325e-05,0.0333529215571049,7.378868564524893e-05,0.0333529215571049,4.650208293628861e-06,0.0333529215571049,-1.2549273706382011e-05
0.034147038737036,-8.087219876861842e-06,0.034147038737036,3.7074951194222526e-05,0.034147038737036,-2.8135030330087856e-06,0.034147038737036,-1.45040848293147e-05
0.0349411559169671,-1.67849e-07,0.0349411559169671,9.011399027257544e-05,0.0349411559169671,-8.441617349141274e-06,0.0349411559169671,-1.4997783982765998e-05
0.0357352730968981,8.589968835892579e-07,0.0357352730968981,4.939752119354267e-05,0.0357352730968981,-1.3714295016973178e-05,0.0357352730968981,-1.748598144311987e-05
0.0365293902768292,2.0043052189252133e-06,0.0365293902768292,-0.0001064361549201,0.0365293902768292,-1.1344752516295047e-05,0.0365293902768292,-1.7703278248598292e-05
0.0373235074567603,7.01242591350448e-07,0.0373235074567603,-0.0001849492545612,0.0373235074567603,-9.389527629892244e-06,0.0373235074567603,-1.2351849531820083e-05
0.0381176246366913,-5.361198909757576e-06,0.0381176246366913,-0.0001491788163097,0.0381176246366913,-1.09102e-05,0.0381176246366913,-1.0949701803357036e-05
0.0389117418166224,-7.424844335638589e-06,0.0389117418166224,-9.230838605081378e-05,0.0389117418166224,-5.795548898118421e-06,0.0389117418166224,-6.84222944905921e-06
0.0397058589965535,-5.144241040661481e-06,0.0397058589965535,-3.5595081132424625e-05,0.0397058589965535,2.269367252913401e-07,0.0397058589965535,-5.262416019295629e-06
0.0404999761764846,-8.39417804855066e-07,0.0404999761764846,-4.196830739399097e-06,0.0404999761764846,3.8603925559726485e-06,0.0404999761764846,-7.04962704858152e-06
0.0412940933564156,2.9613319618880425e-08,0.0412940933564156,-1.2253e-05,0.0412940933564156,9.9327475347653e-06,0.0412940933564156,-6.921325197091773e-06
0.0420882105363467,-3.563854510012117e-06,0.0420882105363467,1.077109302622636e-05,0.0420882105363467,1.6853203177078033e-05,0.0420882105363467,-1.0663079663280312e-05
0.0428823277162778,-6.88182e-06,0.0428823277162778,6.904041345677343e-06,0.0428823277162778,2.4219697673333225e-05,0.0428823277162778,-1.2253e-05
0.0436764448962088,-8.264076873979893e-06,0.0436764448962088,-4.795499798371808e-05,0.0436764448962088,1.946074004572961e-05,0.0436764448962088,-1.2805906043640474e-05
0.0444705620761399,-1.2489802991239852e-05,0.0444705620761399,-5.127291735839333e-05,0.0444705620761399,1.1443699310949763e-05,0.0444705620761399,-1.5649401709279917e-05
0.045264679256071,-1.4543839674940475e-05,0.045264679256071,-5.9802783980145845e-05,0.045264679256071,6.54612e-06,0.045264679256071,-1.596559173995238e-05
0.046058796436002,-1.1996349421560447e-05,0.046058796436002,-6.509587751570698e-05,0.046058796436002,4.966441188259604e-06,0.046058796436002,-1.4306724710780224e-05
0.0468529136159331,-1.149275106904432e-05,0.0468529136159331,-3.587232180464834e-05,0.0468529136159331,-3.4459143372874027e-06,0.0468529136159331,-1.35958e-05
0.0476470307958642,-8.303830089043688e-06,0.0476470307958642,-8.145780127778613e-06,0.0476470307958642,-4.374276713440578e-06,0.0476470307958642,-1.4030326624396888e-05
0.0484411479757953,-6.131531517898659e-06,0.0484411479757953,1.0580377984403891e-06,0.0484411479757953,2.2210613181007625e-06,0.0484411479757953,-1.1502710930401863e-05
0.0492352651557263,-4.354214306004966e-06,0.0492352651557263,-3.54352641495723e-05,0.0492352651557263,1.4128882834000771e-05,0.0492352651557263,-1.1265631387990068e-05
0.0500293823356574,-6.170863267821001e-06,0.0500293823356574,-6.718841279477985e-05,0.0500293823356574,2.358757594639525e-05,0.0500293823356574,-1.4227637973197626e-05
0.0508234995155885,-4.9765663068872885e-06,0.0508234995155885,-7.184927663623316e-05,0.0508234995155885,2.427889310981081e-05,0.0508234995155885,-1.49386e-05
0.0516176166955195,-2.201793765106416e-06,0.0516176166955195,-7.182966689477143e-05,0.0516176166955195,2.2225333412575707e-05,0.0516176166955195,-1.641956234893584e-05
0.0524117338754506,-1.2736208992365078e-06,0.0524117338754506,-6.80777159477197e-05,0.0524117338754506,1.7446431703689122e-05,0.0524117338754506,-1.8769521950614853e-05
0.0532058510553817,2.3397946250218834e-06,0.0532058510553817,-7.131639938498997e-05,0.0532058510553817,2.09998669127691e-05,0.0532058510553817,-1.76242e-05
0.0539999682353128,3.860507092576814e-06,0.0539999682353128,-4.213182250131165e-05,0.0539999682353128,3.575128149957398e-05,0.0539999682353128,-1.6952845814846374e-05
0.0547940854152438,1.1947069417867778e-06,0.0547940854152438,1.4521571023851862e-05,0.0547940854152438,2.6016669146056893e-05,0.0547940854152438,-1.4464674655650404e-05
0.0555882025951749,-6.417233125564725e-07,0.0555882025951749,3.089560119307805e-05,0.0555882025951749,2.411500770722883e-06,0.0555882025951749,-1.3852671592694557e-05
0.056382319775106,-1.1154773022620315e-06,0.056382319775106,4.454238667661716e-06,0.056382319775106,-2.143417171350548e-05,0.056382319775106,-1.0791814853900605e-05
0.057176436955037,-6.368267422189699e-06,0.057176436955037,1.1951749100741347e-06,0.057176436955037,-4.0135424259004414e-05,0.057176436955037,-9.626660939986256e-06
0.0579705541349681,-1.5224314918436126e-05,0.0579705541349681,-1.6182654970568228e-05,0.0579705541349681,-5.108499964086017e-05,0.0579705541349681,-8.343241784788013e-06
0.0587646713148992,-2.506853169078056e-05,0.0587646713148992,-3.360031459882179e-05,0.0587646713148992,-5.285329760397056e-05,0.0587646713148992,-9.093017368024097e-06
0.0595587884948302,-2.5720436164491813e-05,0.0595587884948302,-1.128562219194892e-05,0.0595587884948302,-4.177521507071695e-05,0.0595587884948302,-1.3812891506524566e-05
0.0603529056747613,-2.931435747616865e-05,0.0603529056747613,9.705408052865158e-06,0.0603529056747613,-3.124957253442306e-05,0.0603529056747613,-1.49386e-05
0.0611470228546924,-2.8939935585813573e-05,0.0611470228546924,8.422174354650111e-06,0.0611470228546924,-2.765591423432543e-05,0.0611470228546924,-1.2904807117162717e-05
0.0619411400346235,-2.0270579260921728e-05,0.0619411400346235,8.201587377551897e-07,0.0619411400346235,-1.983660302695024e-05,0.0619411400346235,-1.227271654054374e-05
0.0627352572145545,-1.4385778798582856e-05,0.0627352572145545,-4.788556376944591e-06,0.0627352572145545,-8.145781371275622e-06,0.0627352572145545,-1.1305189399291428e-05
0.0635293743944856,-7.040159127634335e-06,0.0635293743944856,2.003190890528801e-06,0.0635293743944856,-6.81676297493177e-07,0.0635293743944856,-7.592799634511617e-06
0.0643234915744167,2.270499869819918e-07,0.0643234915744167,1.1808388118896423e-05,0.0643234915744167,1.017892684982024e-05,0.0643234915744167,-7.256872308152903e-06
0.0651176087543477,1.6882879133580375e-06,0.0651176087543477,1.0495551826490165e-05,0.0651176087543477,1.756476742931365e-05,0.0651176087543477,-9.705534891697549e-06
0.0659117259342788,5.519285730242119e-06,0.0659117259342788,1.4010211786953702e-05,0.0659117259342788,2.0566516967588037e-05,0.0659117259342788,-9.271201516205984e-06
0.0667058431142099,6.111734213876962e-06,0.0667058431142099,-4.174624601239405e-06,0.0667058431142099,2.025075685550785e-05,0.0667058431142099,-9.883285739482856e-06
0.067499960294141,3.860701804820937e-06,0.067499960294141,-5.219860976507131e-05,0.067499960294141,1.8631357268557967e-05,0.067499960294141,-9.903128634278984e-06
0.068294077474072,1.3724261093620106e-06,0.068294077474072,-5.319003087533679e-05,0.068294077474072,1.9579127781275975e-05,0.068294077474072,-1.075218766800262e-05
0.0690881946540031,-1.1821801692916945e-07,0.0690881946540031,-1.5769784801132678e-05,0.0690881946540031,2.348862245347608e-05,0.0690881946540031,-1.402976327130144e-05
0.0698823118339342,-2.18204e-06,0.0698823118339342,2.0045443598877275e-06,0.0698823118339342,2.384457604595733e-05,0.0698823118339342,-1.7505832034468e-05
0.0706764290138652,-3.287798037654476e-06,0.0706764290138652,-1.858948346312645e-05,0.0706764290138652,1.9895266666714598e-05,0.0706764290138652,-1.4682009023239485e-05
0.0714705461937963,-6.427469587253524e-06,0.0714705461937963,-5.103580579027686e-05,0.0714705461937963,1.4524188191452991e-05,0.0714705461937963,-1.1186866143589743e-05
0.0722646633737274,-8.481369388699693e-06,0.0722646633737274,-6.855045848682579e-05,0.0722646633737274,1.12459e-05,0.0722646633737274,-9.053891222600616e-06
0.0730587805536585,-6.644988456476378e-06,0.0730587805536585,-8.689613465342916e-05,0.0730587805536585,1.2509604763593182e-05,0.0730587805536585,-1.0831105352625326e-05
0.0738528977335895,-4.215994688511175e-06,0.0738528977335895,-0.0001167311298211,0.0738528977335895,8.639371694871062e-06,0.0738528977335895,-1.31218470819851e-05
0.0746470149135206,-4.965990493874459e-06,0.0746470149135206,-0.0001411210103336,0.0746470149135206,3.584531654990602e-06,0.0746470149135206,-1.352674953182008e-05
0.0754411320934517,-8.974852667596139e-06,0.0754411320934517,-9.760960729571538e-05,0.0754411320934517,-6.809442663113369e-07,0.0754411320934517,-1.2568989186312064e-05
0.0762352492733827,-1.075219278657185e-05,0.0762352492733827,3.703004850782912e-05,0.0762352492733827,-4.038222786571851e-06,0.0762352492733827,-1.1739607213428148e-05
0.0770293664533138,-1.1660550495846356e-05,0.0770293664533138,0.000109827897394,0.0770293664533138,1.1251891575743932e-06,0.0770293664533138,-1.1403848042047809e-05
0.0778234836332449,-9.488735471343598e-06,0.0778234836332449,6.679731493068641e-07,0.0778234836332449,7.661484010238552e-06,0.0778234836332449,-1.1976495436477588e-05
0.078617600813176,-3.70288443659488e-06,0.078617600813176,-0.0001234654554395,0.078617600813176,1.017952270132468e-05,0.078617600813176,-1.2253e-05
0.079411717993107,-1.67849e-07,0.079411717993107,-0.0001370553584452,0.079411717993107,1.0495499787020668e-05,0.079411717993107,-1.1848162709006822e-05
0.0802058351730381,-3.386497179003372e-06,0.0802058351730381,-2.110700196720419e-05,0.0802058351730381,1.1719939881465522e-05,0.0802058351730381,-1.205563988146552e-05
0.0809999523529692,-2.8535430823807846e-06,0.0809999523529692,0.0001065767757667,0.0809999523529692,8.89625052691992e-06,0.0809999523529692,-1.2252931277730432e-05
0.0817940695329002,-5.045286092316029e-06,0.0817940695329002,0.0001179217704739,0.0817940695329002,3.3867463229798585e-06,0.0817940695329002,-1.5017507310779237e-05
0.0825881867128313,-9.46808802279316e-06,0.0825881867128313,7.52060065976066e-05,0.0825881867128313,-1.2731627523081556e-06,0.0825881867128313,-1.681463531794311e-05
0.0833823038927624,-1.495795235489381e-05,0.0833823038927624,8.772378737305512e-05,0.0833823038927624,-5.657379609800419e-06,0.0833823038927624,-1.657764973834513e-05
0.0841764210726934,-1.817707168250569e-05,0.0841764210726934,5.5980146525357815e-05,0.0841764210726934,-8.204726812907568e-06,0.0841764210726934,-1.4069913269977232e-05
0.0849705382526245,-1.4326884245131602e-05,0.0849705382526245,-2.0328563311016664e-05,0.0849705382526245,-6.447788081409778e-06,0.0849705382526245,-1.1265566500885162e-05
0.0857646554325556,-9.251670462221925e-06,0.0857646554325556,-3.4804745648415314e-05,0.0857646554325556,-5.696897417537104e-06,0.0857646554325556,-1.3674734884444518e-05
0.0865587726124866,-9.646252088191234e-06,0.0865587726124866,-2.208749254015568e-05,0.0865587726124866,-6.842260928084992e-06,0.0865587726124866,-1.487926139212749e-05
0.0873528897924177,-1.098913021820238e-05,0.0873528897924177,-9.64552401919424e-06,0.0873528897924177,-4.018594164759255e-06,0.0873528897924177,-1.5175587912719048e-05
0.0881470069723488,-1.4740878028936685e-05,0.0881470069723488,-2.260969897866002e-05,0.0881470069723488,-4.943019827376633e-08,0.0881470069723488,-1.450403901446834e-05
0.0889411241522799,-1.586687965267141e-05,0.0889411241522799,-1.02081762324192e-06,0.0889411241522799,1.1545258631533289e-06,0.0889411241522799,-1.5531179652671412e-05
0.0897352413322109,-1.2292684002128864e-05,0.0897352413322109,9.923377841446803e-06,0.0897352413322109,1.1087527369311727e-05,0.0897352413322109,-1.1700293335698737e-05
0.090529358512142,-8.264245439176953e-06,0.090529358512142,-2.3525340199192584e-05,0.090529358512142,1.3121973050734e-05,0.090529358512142,-9.646381158211e-06
0.0913234756920731,-6.68393591380163e-06,0.0913234756920731,-5.0540983036551006e-05,0.0913234756920731,1.1927465412943917e-05,0.0913234756920731,-9.389840871134605e-06
0.0921175928720041,-9.784527045041244e-06,0.0921175928720041,-9.894951958107336e-05,0.0921175928720041,8.185350040379322e-06,0.0921175928720041,-9.004572933829665e-06
0.0929117100519352,-1.0831182606453267e-05,0.0929117100519352,-0.0001402410563888,0.0929117100519352,2.0636797274921906e-06,0.0929117100519352,-9.172488262364487e-06
0.0937058272318663,-1.201597433241144e-05,0.0937058272318663,-0.0001352977023407,0.0937058272318663,-6.525767445393379e-06,0.0937058272318663,-6.5857970027656784e-06
0.0944999444117974,-1.0910360351962292e-05,0.0944999444117974,-0.0001186701142265,0.0944999444117974,-1.023863964923187e-05,0.0944999444117974,-5.203410174786985e-06
0.0952940615917284,-6.467244108606725e-06,0.0952940615917284,-7.837070357170286e-05,0.0952940615917284,-1.738692786571851e-05,0.0952940615917284,-7.059447458037034e-06
0.0960881787716595,-5.53903e-06,0.0960881787716595,-5.790153641597629e-06,0.0960881787716595,-2.23142231897386e-05,0.0960881787716595,-1.049513013805772e-05
0.0968822959515906,-6.131532105395452e-06,0.0968822959515906,3.269981791537097e-05,0.0968822959515906,-2.025062732283345e-05,0.0968822959515906,-1.5372489882789754e-05
0.0976764131315216,-2.2218768616742303e-06,0.0976764131315216,2.8554879667157657e-05,0.0976764131315216,-1.9115165886201937e-05,0.0976764131315216,-1.946059034319117e-05
0.0984705303114527,6.308694662673244e-06,0.0984705303114527,2.0408719471708032e-05,0.0984705303114527,-1.241180984604534e-05,0.0984705303114527,-1.4820669702198737e-05
0.0992646474913838,8.480888086640745e-06,0.0992646474913838,2.252017469096133e-05,0.0992646474913838,-3.8805157208264685e-06,0.0992646474913838,-1.0989129157588715e-05
0.1000587646713148,1.4673335039613064e-05,0.1000587646713148,2.852571148585329e-05,0.1000587646713148,-1.589237892452962e-06,0.1000587646713148,-1.092984947311324e-05
0.1008528818512459,1.7229240995320854e-05,0.1008528818512459,-1.7066755094092954e-05,0.1008528818512459,5.005851762119381e-06,0.1008528818512459,-1.116692814414815e-05
0.101646999031177,1.79599e-05,0.101646999031177,-8.987781947712034e-05,0.101646999031177,1.2528773759417291e-05,0.101646999031177,-1.2529484005731993e-05
0.1024411162111081,1.6450699766888267e-05,0.1024411162111081,-0.0001107881608937,0.1024411162111081,1.3734238683241018e-05,0.1024411162111081,-1.2331304619948284e-05
0.1032352333910391,1.0812443334534876e-05,0.1032352333910391,-9.010201388283916e-05,0.1032352333910391,1.428660256971547e-05,0.1032352333910391,-1.4237325883605318e-05
0.1040293505709702,4.965958026318197e-06,0.1040293505709702,-4.296701950398909e-05,0.1040293505709702,1.989543711029552e-05,0.1040293505709702,-1.550146638243634e-05
0.1048234677509013,-2.22354185204583e-06,0.1048234677509013,3.4873968631785427e-06,0.1048234677509013,2.19883e-05,0.1048234677509013,-1.3999852293376351e-05
0.1056175849308323,-6.724684493058957e-06,0.1056175849308323,3.4840249467780565e-05,0.1056175849308323,2.4952370009271453e-05,0.1056175849308323,-1.3793999556404407e-05
0.1064117021107634,-1.0713639176877564e-05,0.1064117021107634,3.52347326308624e-05,0.1064117021107634,3.123057159462316e-05,0.1064117021107634,-1.620278579731158e-05
0.1072058192906945,-1.6992845811626158e-05,0.1072058192906945,-7.0526324413566935e-06,0.1072058192906945,2.9629878290865167e-05,0.1072058192906945,-1.604447470083044e-05
0.1079999364706256,-2.1988071171555943e-05,0.1079999364706256,-5.354036608980373e-05,0.1079999364706256,2.232454071964336e-05,0.1079999364706256,-1.5274437297066434e-05
0.1087940536505566,-1.84151314323979e-05,0.1087940536505566,-6.565766616495601e-05,0.1087940536505566,9.39257554892866e-06,0.1087940536505566,-1.3694666429049737e-05
0.1095881708304877,-1.6203060981969437e-05,0.1095881708304877,-4.828605319077975e-05,0.1095881708304877,-9.139077866017968e-07,0.1095881708304877,-1.46029e-05
0.1103822880104188,-1.56491924410701e-05,0.1103822880104188,-2.2640026321716264e-05,0.1103822880104188,-1.3019816851771111e-05,0.1103822880104188,-1.3517415117859798e-05
0.1111764051903498,-1.6636158445797472e-05,0.1111764051903498,-2.5859293886656843e-05,0.1111764051903498,-1.5729000333045255e-05,0.1111764051903498,-1.1405342053770413e-05
0.1119705223702809,-2.197740852286768e-05,0.1119705223702809,-1.145750148077667e-05,0.1119705223702809,-1.988303049138662e-05,0.1119705223702809,-7.47528465149612e-06
0.112764639550212,-1.845365760709732e-05,0.112764639550212,3.121110540884693e-05,0.112764639550212,-2.7872800134158067e-05,0.112764639550212,-4.433178478580537e-06
0.1135587567301431,-9.546395545425244e-06,0.1135587567301431,3.0546282426822104e-05,0.1135587567301431,-2.6539147819844423e-05,0.1135587567301431,-8.679664456483407e-06
0.1143528739100741,-9.1830561265215e-07,0.1143528739100741,9.146748413813957e-06,0.1143528739100741,-1.9263272929611025e-05,0.1143528739100741,-1.1364388448146457e-05
0.1151469910900052,5.162827329357878e-06,0.1151469910900052,5.678027780810244e-06,0.1151469910900052,-1.1938329709901762e-05,0.1151469910900052,-8.333264506543273e-06
0.1159411082699363,7.693206946213364e-06,0.1159411082699363,1.0651016019697787e-05,0.1159411082699363,-3.3291268879160084e-06,0.1159411082699363,-1.102762253184024e-05
0.1167352254498673,9.39267149029524e-07,0.1167352254498673,-5.850153058366401e-06,0.1167352254498673,6.020069429918112e-07,0.1167352254498673,-1.446411953030658e-05
0.1175293426297984,-2.4980628361516622e-06,0.1175293426297984,-6.960270859120069e-06,0.1175293426297984,-4.051647669115394e-07,0.1175293426297984,-1.2825420073469182e-05
0.1183234598097295,-6.430068407937069e-06,0.1183234598097295,-1.3273979199920582e-05,0.1183234598097295,-6.96193863151349e-06,0.1183234598097295,-1.1987011657735602e-05
0.1191175769896605,-1.4724241367756678e-05,0.1191175769896605,-2.077396036224841e-05,0.1191175769896605,-9.488830195393813e-06,0.1191175769896605,-1.4722499685396385e-05
0.1199116941695916,-2.326398739376372e-05,0.1199116941695916,-2.158398853423932e-05,0.1199116941695916,-6.248726444224057e-06,0.1199116941695916,-1.5481445130345374e-05
0.1207058113495227,-3.0440075871266924e-05,0.1207058113495227,-2.755303156163179e-05,0.1207058113495227,-3.6235989678167313e-06,0.1207058113495227,-1.6005075871266928e-05
0.1214999285294538,-3.172344851360009e-05,0.1214999285294538,-3.5415460341815474e-05,0.1214999285294538,-5.538772568000423e-06,0.1214999285294538,-1.829539405440034e-05
0.1222940457093848,-3.2967427837936565e-05,0.1222940457093848,-6.553540679380557e-05,0.1222940457093848,-8.698265675873127e-06,0.1222940457093848,-1.8967e-05
0.1230881628893159,-3.2307280553668785e-05,0.1230881628893159,-0.0001021810032779,0.1230881628893159,-6.568530946102069e-06,0.1230881628893159,-1.393335873467936e-05
0.123882280069247,-2.444652453279022e-05,0.123882280069247,-7.745869682458793e-05,0.123882280069247,1.527619205194216e-06,0.123882280069247,-1.1128339875830822e-05
0.124676397249178,-3.644418366878873e-06,0.124676397249178,1.46271152306175e-05,0.124676397249178,5.024812338298806e-06,0.124676397249178,-1.1067382338298807e-05
0.1254705144291091,1.880414341925959e-05,0.1254705144291091,7.081711364655015e-05,0.1254705144291091,1.0158575192109794e-05,0.1254705144291091,-1.5845999263870337e-05
0.1262646316090402,3.968112937675295e-05,0.1262646316090402,2.778994289913233e-05,0.1262646316090402,1.4662085527412068e-05,0.1262646316090402,-1.82956e-05
0.1270587487889713,5.834456512961783e-05,0.1270587487889713,-2.4879238200237624e-05,0.1270587487889713,1.4365568081100377e-05,0.1270587487889713,-1.7821513354567857e-05
0.1278528659689023,6.199574763044149e-05,0.1278528659689023,-2.047845117992631e-05,0.1278528659689023,9.054065738357046e-06,0.1278528659689023,-1.5689011985240032e-05
0.1286469831488334,4.734733985530376e-05,0.1286469831488334,2.317984397197857e-05,0.1286469831488334,6.705064514041212e-06,0.1286469831488334,-1.335902949220051e-05
0.1294411003287645,2.166030421603044e-05,0.1294411003287645,9.56583561329682e-05,0.1294411003287645,-1.67849e-07,0.1294411003287645,-1.221387062208065e-05
0.1302352175086955,7.828363915693865e-07,0.1302352175086955,0.0001221470934721,0.1302352175086955,1.3718277974722013e-06,0.1302352175086955,-1.0041922438112543e-05
0.1310293346886266,-1.0081301744329764e-05,0.1310293346886266,3.1243160233239944e-05,0.1310293346886266,5.085198954870834e-06,0.1310293346886266,-7.84928906861168e-06
0.1318234518685577,-1.9602320568367505e-05,0.1318234518685577,-0.0001079481713643,0.1318234518685577,1.3735277549782377e-05,0.1318234518685577,-4.255627193722797e-06
0.1326175690484888,-2.953415674088145e-05,0.1326175690484888,-0.0001971410799972,0.1326175690484888,1.238884762380174e-05,0.1326175690484888,-6.754953905682009e-06
0.1334116862284198,-2.607414300385326e-05,0.1334116862284198,-0.0001367283455779,0.1334116862284198,6.565301001284421e-06,0.1334116862284198,-1.002203931324712e-05
0.1342058034083509,-2.038862059118185e-05,0.1342058034083509,-2.7479827640503446e-06,0.1342058034083509,2.9916135303939483e-06,0.1342058034083509,-9.942513237599703e-06
0.134999920588282,-1.7960071621333058e-05,0.134999920588282,4.045021041060055e-05,0.134999920588282,1.8464544142220383e-06,0.134999920588282,-1.0238628380371055e-05
0.135794037768213,-2.1651352618966056e-05,0.135794037768213,3.4110598026476433e-05,0.135794037768213,-3.020073782693036e-06,0.135794037768213,-1.12459e-05
0.1365881549481441,-2.489010615993107e-05,0.1365881549481441,1.6001184101686967e-05,0.1365881549481441,-7.019821539982767e-06,0.1365881549481441,-9.64767508665838e-06
0.1373822721280752,-2.7435106073660893e-05,0.1373822721280752,-1.217349785634995e-05,0.1373822721280752,-4.257664341843742e-06,0.1373822721280752,-7.788304683113572e-06
0.1381763893080062,-3.4277102156552874e-05,0.1381763893080062,-2.004710547559128e-07,0.1381763893080062,-2.4873030557605226e-07,0.1381763893080062,-1.0810290673201718e-05
0.1389705064879373,-3.930593966523972e-05,0.1389705064879373,6.35644789255866e-06,0.1389705064879373,8.666095505347786e-06,0.1389705064879373,-6.765061918718725e-06
0.1397646236678684,-3.583100285201902e-05,0.1397646236678684,-4.652700483237341e-05,0.1397646236678684,1.7643728002027087e-05,0.1397646236678684,-6.615038572430892e-06
0.1405587408477994,-3.406355739429147e-05,0.1405587408477994,-0.0001099488742653,0.1405587408477994,2.572141562367652e-05,0.1405587408477994,-1.0831483189283191e-05
0.1413528580277305,-3.0765931706629614e-05,0.1413528580277305,-0.0001516584687068,0.1413528580277305,3.31056009440874e-05,0.1413528580277305,-6.388322081868961e-06
0.1421469752076616,-2.8583820479113945e-05,0.1421469752076616,-0.000163989,0.1421469752076616,3.401508431202549e-05,0.1421469752076616,-5.380021682512012e-06
0.1429410923875927,-2.465744461929288e-05,0.1429410923875927,-0.0001336037654193,0.1429410923875927,2.779609252864865e-05,0.1429410923875927,-1.2389912691621623e-05
0.1437352095675237,-1.2295179512315355e-05,0.1437352095675237,-5.060532293084624e-05,0.1437352095675237,1.938352379450122e-05,0.1437352095675237,-1.537272544088669e-05
0.1445293267474548,3.387135884300685e-06,0.1445293267474548,-1.0258838665436923e-05,0.1445293267474548,-5.835460500280634e-07,0.1445293267474548,-1.6597399953307256e-05
0.1453234439273859,1.1434431146240248e-05,0.1453234439273859,-7.06272697187235e-06,0.1453234439273859,-1.6085131784093545e-05,0.1453234439273859,-1.832528689059089e-05
0.146117561107317,1.0869254408834394e-05,0.146117561107317,1.1363170872506777e-05,0.146117561107317,-2.096318768502548e-05,0.146117561107317,-1.861164346219037e-05
0.146911678287248,3.405005936991684e-06,0.146911678287248,5.713258831580173e-06,0.146911678287248,-2.5523568400376374e-05,0.146911678287248,-1.831480966635302e-05
0.1477057954671791,-3.841009134217165e-06,0.1477057954671791,-1.255389092048877e-05,0.1477057954671791,-2.5127782483896144e-05,0.1477057954671791,-1.2410712920366196e-05
0.1484999126471102,-6.881694144355793e-06,0.1484999126471102,-5.186037138531151e-05,0.1484999126471102,-1.5611384393341014e-05,0.1484999126471102,-6.8823234207023e-06
0.1492940298270412,-4.433046371909143e-06,0.1492940298270412,-6.562470360612475e-05,0.1492940298270412,-8.027237250317887e-07,0.1492940298270412,-9.645501177049976e-06
0.1500881470069723,-9.328572345064212e-06,0.1500881470069723,-1.9876700735172027e-05,0.1500881470069723,4.6102174209072015e-06,0.1500881470069723,-1.1462183227876268e-05
0.1508822641869034,-9.472174671624804e-06,0.1508822641869034,3.4911130746526905e-05,0.1508822641869034,3.468779680259425e-06,0.1508822641869034,-1.4650469666018166e-05
0.1516763813668344,-2.6200617266631234e-06,0.1516763813668344,7.290226690889245e-05,0.1516763813668344,-4.46772198464359e-06,0.1516763813668344,-1.7386130685376243e-05
0.1524704985467655,1.484012514962242e-07,0.1524704985467655,8.667978511695878e-05,0.1524704985467655,-1.576558668323433e-05,0.1524704985467655,-1.7002663964700563e-05
0.1532646157266966,-3.0903346399117584e-06,0.1532646157266966,7.133490079651105e-05,0.1532646157266966,-2.1297039133552636e-05,0.1532646157266966,-1.4701703007819429e-05
0.1540587329066277,-4.492559835505016e-06,0.1540587329066277,3.7722118933085184e-05,0.1540587329066277,-2.3271944753257527e-05,0.1540587329066277,-1.39315e-05
0.1548528500865587,-9.962158352605168e-06,0.1548528500865587,5.804729859349583e-06,0.1548528500865587,-2.303493388312537e-05,0.1548528500865587,-1.476082387869033e-05
0.1556469672664898,-1.1562178636383016e-05,0.1556469672664898,-2.0904996020580288e-05,0.1556469672664898,-1.5730219394042752e-05,0.1556469672664898,-1.2322788009718738e-05
0.1564410844464209,-4.991542087741634e-06,0.1564410844464209,-4.940263771416372e-05,0.1564410844464209,-7.791144467799925e-06,0.1564410844464209,-1.1915605307230258e-05
0.157235201626352,1.0917044738078968e-05,0.157235201626352,-7.190450473762676e-05,0.157235201626352,-1.334991263711528e-06,0.157235201626352,-1.652738247782486e-05
0.158029318806283,2.375588169099089e-05,0.158029318806283,-7.190874883726096e-05,0.158029318806283,1.871100594140702e-05,0.158029318806283,-2.1257718471533627e-05
0.1588234359862141,3.014442704028984e-05,0.1588234359862141,-7.619042401430204e-05,0.1588234359862141,3.650330026610426e-05,0.1588234359862141,-2.3864284031087408e-05
0.1596175531661451,2.7831085216130744e-05,0.1596175531661451,-9.060553096398104e-05,0.1596175531661451,3.6659142608065374e-05,0.1596175531661451,-2.370600710134423e-05
0.1604116703460762,1.4639646989676128e-05,0.1604116703460762,-0.0001088997339779,0.1604116703460762,2.7041208658254623e-05,0.1604116703460762,-2.1809924851543677e-05
0.1612057875260073,1.016609911937972e-06,0.1612057875260073,-0.000128847027124,0.1612057875260073,1.4326054621327463e-05,0.1612057875260073,-1.837448938734626e-05
0.1619999047059384,-1.4936403253071549e-05,0.1619999047059384,-9.88689014492147e-05,0.1619999047059384,2.519112964529729e-06,0.1619999047059384,-1.4939011891199362e-05
0.1627940218858694,-2.927209150011808e-05,0.1627940218858694,-2.439017741367257e-05,0.1627940218858694,-9.031310976311209e-06,0.1627940218858694,-1.37141700482772e-05
0.1635881390658005,-3.428966029582148e-05,0.1635881390658005,6.087313613831107e-05,0.1635881390658005,-1.6695370221866112e-05,0.1635881390658005,-1.418892977813389e-05
0.1643822562457316,-3.421877080166409e-05,0.1643822562457316,6.713164801620242e-05,0.1643822562457316,-1.7109478036061075e-05,0.1643822562457316,-1.219423990247218e-05
0.1651763734256627,-1.6371927293023407e-05,0.1651763734256627,9.614955211165794e-06,0.1651763734256627,-1.9676484753164885e-05,0.1651763734256627,-1.0644774466443555e-05
0.1659704906055937,9.97559361563102e-06,0.1659704906055937,-1.9794223050054315e-05,0.1659704906055937,-1.717187863610774e-05,0.1659704906055937,-8.699004659026934e-06
0.1667646077855248,2.5088459943349104e-05,0.1667646077855248,-1.5994721661000014e-05,0.1667646077855248,-9.725805553960204e-06,0.1667646077855248,-6.131460056650894e-06
0.1675587249654559,1.965712880910276e-05,0.1675587249654559,1.5400698073197868e-05,0.1675587249654559,-1.292615061607739e-06,0.1675587249654559,-6.822747554216402e-06
0.1683528421453869,2.953099102948501e-06,0.1683528421453869,7.672150105239318e-05,0.1683528421453869,-9.081702650233444e-07,0.1683528421453869,-7.316197239597418e-06
0.169146959325318,-1.1659216658303672e-05,0.169146959325318,6.183325990581383e-05,0.169146959325318,-8.004359020565584e-07,0.169146959325318,-1.004087869342756e-05
0.1699410765052491,-1.1705672611442358e-05,0.1699410765052491,3.6517392210679583e-06,0.1699410765052491,4.795819949319546e-06,0.1699410765052491,-1.294394748991855e-05
0.1707351936851801,4.331246513888701e-06,0.1707351936851801,-5.645141852252949e-05,0.1707351936851801,1.0731733109035498e-05,0.1707351936851801,-1.1720517766759867e-05
0.1715293108651112,1.0436234394305709e-05,0.1715293108651112,-7.532428430730811e-05,0.1715293108651112,1.3181208281851449e-05,0.1715293108651112,-8.935455859074276e-06
0.1723234280450423,4.073927975500003e-06,0.1723234280450423,-6.336736775549875e-05,0.1723234280450423,1.8354980031589485e-05,0.1723234280450423,-4.294411642484228e-06
0.1731175452249733,-1.182364415118955e-05,0.1731175452249733,-3.956788504463477e-05,0.1731175452249733,1.86313e-05,0.1731175452249733,-5.560219667277508e-06
0.1739116624049044,-1.875977932711804e-05,0.1739116624049044,-1.0784028814308645e-05,0.1739116624049044,2.14758737555919e-05,0.1739116624049044,-1.0950370319700982e-05
0.1747057795848355,-2.139597697841642e-05,0.1747057795848355,2.8844901862744184e-05,0.1747057795848355,2.72804762145714e-05,0.1747057795848355,-1.10089460357619e-05
0.1754998967647666,-2.7190893481102305e-05,0.1754998967647666,3.071786904333849e-05,0.1754998967647666,2.937345126151138e-05,0.1754998967647666,-1.2924028153778446e-05
0.1762940139446976,-2.884010981176348e-05,0.1762940139446976,3.0605036287282304e-06,0.1762940139446976,2.5288036223537376e-05,0.1762940139446976,-1.521441962352696e-05
0.1770881311246287,-3.005428140408796e-05,0.1770881311246287,-3.1662617582910535e-05,0.1770881311246287,1.98175939543501e-05,0.1770881311246287,-1.480061565905835e-05
0.1778822483045598,-2.935402394515025e-05,0.1778822483045598,-6.758254799877683e-05,0.1778822483045598,1.577227091197972e-05,0.1778822483045598,-1.505609132800468e-05
0.1786763654844909,-3.1000871860856495e-05,0.1786763654844909,-5.117742847224605e-05,0.1786763654844909,9.984109617274025e-06,0.1786763654844909,-1.622187122992187e-05
0.1794704826644219,-3.37377e-05,0.1794704826644219,9.70446636637012e-06,0.1794704826644219,7.494938931647935e-06,0.1794704826644219,-1.4367060916040436e-05
0.180264599844353,-3.217792044153398e-05,0.180264599844353,7.434209667692785e-06,0.180264599844353,4.808558886809986e-06,0.180264599844353,-1.1265783109447988e-05
0.181058717024284,-2.816867583792436e-05,0.181058717024284,-1.665218096354479e-05,0.181058717024284,-2.479207342968715e-06,0.181058717024284,-7.552789486875404e-06
0.1818528342042151,-2.358788556607496e-05,0.1818528342042151,-1.2883439188516836e-05,0.1818528342042151,-1.2726477528205104e-05,0.1818528342042151,-3.3275049224127458e-06
0.1826469513841462,-2.415953625291452e-05,0.1826469513841462,-2.7262831461350072e-05,0.1826469513841462,-1.5155937678155069e-05,0.1826469513841462,-5.242100405233368e-06
0.1834410685640773,-3.002196811047745e-05,0.1834410685640773,-2.51224166775051e-05,0.1834410685640773,-1.537021662881364e-05,0.1834410685640773,-7.276144688594864e-06
0.1842351857440083,-3.91859610905961e-05,0.1842351857440083,-1.0553877540894513e-05,0.1842351857440083,-2.42569672922116e-05,0.1842351857440083,-8.481201318162257e-06
0.1850293029239394,-4.396668281452034e-05,0.1850293029239394,-5.313799294225035e-05,0.1850293029239394,-2.872193437095933e-05,0.1850293029239394,-5.301996560867965e-06
0.1858234201038705,-3.669509911925608e-05,0.1858234201038705,-0.0001124769200116,0.1858234201038705,-2.0423939738608847e-05,0.1858234201038705,-3.090935474841833e-06
0.1866175372838016,-1.353838895920302e-05,0.1866175372838016,-0.0001397855346865,0.1866175372838016,2.7360433258214145e-07,0.1866175372838016,-5.085374297885117e-06
0.1874116544637326,-2.398896529246872e-06,0.1874116544637326,-6.072632727546747e-05,0.1874116544637326,1.40213794036264e-05,0.1874116544637326,-4.265299566155859e-06
0.1882057716436637,1.7082076341063386e-06,0.1882057716436637,3.944451354211146e-05,0.1882057716436637,1.8532566977239892e-05,0.1882057716436637,-6.328946539334309e-06
0.1889998888235948,1.4265277845841564e-05,0.1889998888235948,8.408796961504157e-05,0.1889998888235948,2.1987899550222927e-05,0.1889998888235948,-9.734899595200634e-06
0.1897940060035258,2.996137684030489e-05,0.1897940060035258,0.0001138977700595,0.1897940060035258,1.6086412406979523e-05,0.1897940060035258,-1.434519503720819e-05
0.1905881231834569,4.5699109664726895e-05,0.1905881231834569,0.0001016084035233,0.1905881231834569,1.0634242784144116e-05,0.1905881231834569,-1.6635593039639707e-05
0.191382240363388,5.413698391402426e-05,0.191382240363388,1.421079073128652e-06,0.191382240363388,7.262384811572339e-06,0.191382240363388,-1.926354195701213e-05
0.192176357543319,5.105841041710323e-05,0.192176357543319,-0.0001638244335864,0.192176357543319,-1.900891694258597e-06,0.192176357543319,-1.7033841435524733e-05
0.1929704747232501,4.3830897808039e-05,0.1929704747232501,-0.0002591969734947,0.1929704747232501,-7.117613749824687e-06,0.1929704747232501,-1.5333933931863672e-05
0.1937645919031812,3.2810573461578875e-05,0.1937645919031812,-0.0001937269827754,0.1937645919031812,-1.963702554793877e-05,0.1937645919031812,-1.32601e-05
0.1945587090831123,1.846230523835252e-05,0.1945587090831123,-5.109839185524299e-05,0.1945587090831123,-3.279046806195937e-05,0.1945587090831123,-1.5472084030979688e-05
0.1953528262630433,7.099684947805e-06,0.1953528262630433,5.640885368347842e-05,0.1953528262630433,-3.350065430754262e-05,0.1953528262630433,-1.6518445692457373e-05
0.1961469434429744,-9.45776664384176e-07,0.1961469434429744,8.671972813823374e-05,0.1961469434429744,-3.79619356548058e-05,0.1961469434429744,-1.369478682233757e-05
0.1969410606229055,-5.089703196350592e-06,0.1969410606229055,8.204879571604378e-05,0.1969410606229055,-4.035760747439509e-05,0.1969410606229055,-1.1386240343037556e-05
0.1977351778028366,9.109820557979566e-06,0.1977351778028366,-1.8118868667985144e-05,0.1977351778028366,-2.3908409327311702e-05,0.1977351778028366,-6.171940506991639e-06
0.1985292949827676,1.59457e-05,0.1985292949827676,-9.31775801816994e-05,0.1985292949827676,-2.8929086706550328e-06,0.1985292949827676,-7.316254950763643e-06
0.1993234121626987,1.120487868649378e-05,0.1993234121626987,-6.319149994682551e-05,0.1993234121626987,1.863561438067465e-05,0.1993234121626987,-1.1385148721338376e-05
0.2001175293426297,9.667155369099968e-06,0.2001175293426297,1.737465684235431e-05,0.2001175293426297,3.5440192490366595e-05,0.2001175293426297,-1.5522197904555246e-05
0.2009116465225608,1.9521016750769457e-05,0.2009116465225608,1.2875454801323952e-05,0.2009116465225608,4.410569249803121e-05,0.2009116465225608,-1.4819779461301706e-05
0.2017057637024919,1.7920416023716952e-05,0.2017057637024919,-0.0001011048911372,0.2017057637024919,4.252515059345145e-05,0.2017057637024919,-1.3200861721061985e-05
0.202499880882423,8.226240400108066e-06,0.202499880882423,-0.0001831143689192,0.202499880882423,3.675968648533231e-05,0.202499880882423,-1.0239314863999233e-05
0.203293998062354,-1.3745910018411792e-05,0.203293998062354,-0.0001384498700916,0.203293998062354,3.4310193439854326e-05,0.203293998062354,-7.129086400364191e-06
0.2040881152422851,-4.211001499657013e-05,0.2040881152422851,-7.165667502305913e-05,0.2040881152422851,2.9023796751886428e-05,0.2040881152422851,-7.29573451473755e-06
0.2048822324222162,-5.415947690025857e-05,0.2048822324222162,-5.352662582379497e-05,0.2048822324222162,1.4927742273249575e-05,0.2048822324222162,-1.0826084649612148e-05
0.2056763496021472,-4.7880082538004015e-05,0.2056763496021472,1.9979912817447944e-05,0.2056763496021472,5.897130457214953e-07,0.2056763496021472,-1.7207418519497656e-05
0.2064704667820783,-4.442184518072096e-05,0.2064704667820783,0.0001459371708861,0.2064704667820783,-7.117573705017437e-06,0.2064704667820783,-1.3913537953927434e-05
0.2072645839620094,-4.122197165635261e-05,0.2072645839620094,0.0002486435033233,0.2072645839620094,-8.994504703035543e-06,0.2072645839620094,-9.370053046960511e-06
0.2080587011419405,-3.918773205720922e-05,0.2080587011419405,0.0002481058414405,0.2080587011419405,-1.4672544742279957e-05,0.2080587011419405,-8.254172021453459e-06
0.2088528183218715,-2.6827986011211528e-05,0.2088528183218715,0.0001764083003387,0.2088528183218715,-1.6972685737727225e-05,0.2088528183218715,-1.1857642786818322e-05
0.2096469355018026,4.880285061177792e-06,0.2096469355018026,9.011054005063606e-05,0.2096469355018026,-2.01385291958733e-05,0.2096469355018026,-1.5283943911199585e-05
0.2104410526817337,2.676612116350977e-05,0.2104410526817337,3.524804425243176e-05,0.2104410526817337,-3.07786759277158e-05,0.2104410526817337,-1.4909301654793329e-05
0.2112351698616647,2.443868172563939e-05,0.2112351698616647,-5.4519126547693085e-05,0.2112351698616647,-2.0194459389539735e-05,0.2112351698616647,-1.4819908030760458e-05
0.2120292870415958,1.902627176141123e-05,0.2120292870415958,-0.0001478435522849,0.2120292870415958,-9.85381979160191e-06,0.2120292870415958,-1.1976571761411229e-05
0.2128234042215269,1.7229137130543805e-05,0.2128234042215269,-0.0001617275095823,0.2128234042215269,8.801905502673476e-06,0.2128234042215269,-1.0633862869456194e-05
0.2136175214014579,1.6656430033399045e-05,0.2136175214014579,-0.0001014609677361,0.2136175214014579,2.5526381014447704e-05,0.2136175214014579,-1.0317460066798089e-05
0.214411638581389,1.1442115458126512e-05,0.214411638581389,-9.60438315583942e-05,0.214411638581389,3.0025647008304427e-05,0.214411638581389,-1.1897947008304426e-05
0.2152057557613201,3.18914e-06,0.2152057557613201,-0.0001682901370995,0.2152057557613201,3.069669814295457e-05,0.2152057557613201,-1.5175480980326386e-05
0.2159998729412512,5.202780814460847e-06,0.2159998729412512,-0.0002166871650901,0.2159998729412512,2.635303225102098e-05,0.2159998729412512,-1.6281583062755245e-05
0.2167939901211822,2.086136440492848e-06,0.2167939901211822,-0.0002095964516235,0.2167939901211822,1.8584838104884725e-05,0.2167939901211822,-1.3645241414334657e-05
0.2175881073011133,-1.2680884437678689e-05,0.2175881073011133,-0.0001622566351038,0.2175881073011133,1.2551828580994753e-05,0.2175881073011133,-1.7385137135204197e-05
0.2183822244810444,-2.3957345231367275e-05,0.2183822244810444,-7.90049227758759e-05,0.2183822244810444,2.921016817420575e-06,0.2183822244810444,-2.0348946576960456e-05
0.2191763416609755,-3.4501435423559866e-05,0.2191763416609755,-2.7193759381841028e-05,0.2191763416609755,-1.0409630715515503e-05,0.2191763416609755,-2.092165406778857e-05
0.2199704588409065,-4.5425948317449605e-05,0.2199704588409065,3.339879738928008e-05,0.2199704588409065,-2.6168750728675376e-05,0.2199704588409065,-1.9244526615120245e-05
0.2207645760208376,-4.258553406205461e-05,0.2207645760208376,0.0001515860379349,0.2207645760208376,-4.267228680174858e-05,0.2207645760208376,-1.561e-05
0.2215586932007686,-3.136751995705654e-05,0.2215586932007686,0.0001801569891523,0.2215586932007686,-4.921955770623081e-05,0.2215586932007686,-1.639991856792489e-05
0.2223528103806997,-3.871260788134129e-05,0.2223528103806997,9.693455346829128e-05,0.2223528103806997,-4.6761155374866905e-05,0.2223528103806997,-1.4642705873536623e-05
0.2231469275606308,-5.8819940395736814e-05,0.2231469275606308,8.394673626246583e-05,0.2231469275606308,-4.70956256716054e-05,0.2231469275606308,-6.094408365502917e-06
0.2239410447405619,-8.286305901479222e-05,0.2239410447405619,0.0001651775061887,0.2239410447405619,-4.6706775798239306e-05,0.2239410447405619,-3.630934735832407e-07
0.2247351619204929,-9.064814831205792e-05,0.2247351619204929,0.0001289874259917,0.2247351619204929,-3.004010681255412e-05,0.2247351619204929,-6.60371222938785e-06
0.225529279100424,-8.25131428680611e-05,0.225529279100424,2.1310083305820952e-05,0.225529279100424,-8.481703814888032e-06,0.225529279100424,-9.25147869522595e-06
0.2263233962803551,-4.450712044748589e-05,0.2263233962803551,-2.4738852415081256e-07,0.2263233962803551,6.310667629204594e-06,0.2263233962803551,-7.315791405019642e-06
0.2271175134602862,1.232682120756235e-05,0.2271175134602862,-1.5091562713376612e-05,0.2271175134602862,1.0792192700761748e-05,0.2271175134602862,-9.174053507626034e-06
0.2279116306402172,4.24483524710888e-05,0.2279116306402172,-1.4145813096874868e-05,0.2279116306402172,1.3823637943444632e-05,0.2279116306402172,-1.8543411361060197e-05
0.2287057478201483,4.5092583144707626e-05,0.2287057478201483,2.2200623693013414e-05,0.2287057478201483,1.8157346207414173e-05,0.2287057478201483,-2.038886137775748e-05
0.2294998650000794,2.3670881839815243e-05,0.2294998650000794,4.917639451645371e-05,0.2294998650000794,1.997371099164509e-05,0.2294998650000794,-1.644992940515042e-05
0.2302939821800104,2.458972473335123e-05,0.2302939821800104,-3.767610139925757e-05,0.2302939821800104,2.65470296074036e-05,0.2302939821800104,-1.251080815703856e-05
0.2310880993599415,5.528687498325218e-05,0.2310880993599415,-0.0002667587344772,0.2310880993599415,3.4238951427219764e-05,0.2310880993599415,-9.291487182226343e-06
0.2318822165398726,7.110707224869578e-05,0.2318822165398726,-0.0003669689949786,0.2318822165398726,3.892976337578698e-05,0.2318822165398726,-8.420313053786636e-06
0.2326763337198036,5.296421776982424e-05,0.2326763337198036,-0.0002523569647343,0.2326763337198036,3.9839851652922544e-05,0.2326763337198036,-1.2664583470774574e-05
0.2334704508997347,2.282718102781153e-05,0.2334704508997347,-6.347997175151056e-05,0.2334704508997347,3.806304062625787e-05,0.2334704508997347,-1.4622279686871063e-05
0.2342645680796658,-2.458170625458921e-07,0.2342645680796658,-6.84026015148988e-06,0.2342645680796658,3.478474928165115e-05,0.2342645680796658,-1.551109401938082e-05
0.2350586852595969,-2.971756294564563e-06,0.2350586852595969,-8.697774334516128e-05,0.2350586852595969,3.051873636230806e-05,0.2350586852595969,-1.786130259835139e-05
0.2358528024395279,2.833519864190562e-06,0.2358528024395279,-0.0001137399554886,0.2358528024395279,2.440785281968137e-05,0.2358528024395279,-1.6992640271618875e-05
0.236646919619459,-4.312138440762432e-06,0.236646919619459,-7.881753131179732e-05,0.236646919619459,2.0616490371710096e-05,0.236646919619459,-1.3240781830629709e-05
0.2374410367993901,-1.4243801197600417e-05,0.2374410367993901,7.580802567094629e-05,0.2374410367993901,1.7686636452099637e-05,0.2374410367993901,-1.2666775299400104e-05
0.2382351539793211,-2.315115010187528e-05,0.2382351539793211,0.0002582965939893,0.2382351539793211,9.924717983657129e-06,0.2382351539793211,-1.3674931564682144e-05
0.2390292711592522,-3.225643904346289e-05,0.2390292711592522,0.0001903907517343,0.2390292711592522,1.3200483723156491e-05,0.2390292711592522,-1.0949760273296316e-05
0.2398233883391833,-3.6759e-05,0.2398233883391833,5.321311514277603e-05,0.2398233883391833,2.218480625562923e-05,0.2398233883391833,-1.0149774625939131e-05
0.2406175055191144,-3.616628299885289e-05,0.2406175055191144,1.617009330807229e-05,0.2406175055191144,1.2861495986234596e-05,0.2406175055191144,-1.0772505923931776e-05
0.2414116226990454,-3.4556946647078494e-05,0.2414116226990454,-3.367082349267294e-05,0.2414116226990454,2.161485364244936e-06,0.2414116226990454,-1.6242579356334566e-05
0.2422057398789765,-2.9472622068905947e-05,0.2422057398789765,-7.189716543299993e-05,0.2422057398789765,-5.3017367911956914e-06,0.2422057398789765,-1.837469577583973e-05
0.2429998570589076,-1.9640253479722897e-05,0.2429998570589076,-8.845378003940068e-05,0.2429998570589076,-1.5272549465470287e-05,0.2429998570589076,-1.3932426755198475e-05
0.2437939742388386,-1.1623732628615144e-05,0.2437939742388386,-9.495260470155936e-05,0.2437939742388386,-2.0624433685692428e-05,0.2437939742388386,-1.04067e-05
0.2445880914187697,-7.001397296507488e-06,0.2445880914187697,-9.21590140605194e-05,0.2445880914187697,-2.313325567587313e-05,0.2445880914187697,-1.5053523786350664e-05
0.2453822085987008,3.965558209756042e-07,0.2453822085987008,-0.0001093470498779,0.2453822085987008,-2.0933762718749887e-05,0.2453822085987008,-1.7764224445334823e-05
0.2461763257786318,1.3016498701943269e-05,0.2461763257786318,-0.000113216349495,0.2461763257786318,-1.7369701615435525e-05,0.2461763257786318,-1.4900686868168231e-05
0.2469704429585629,2.4512461324284832e-05,0.2469704429585629,-8.934340568981783e-05,0.2469704429585629,-3.392478637919941e-06,0.2469704429585629,-1.1365329386377808e-05
0.247764560138494,3.168350495265999e-05,0.247764560138494,-2.590140972671093e-05,0.247764560138494,1.0119886982501555e-05,0.247764560138494,-1.147218410223406e-05
0.2485586773184251,3.500159914662627e-05,0.2485586773184251,6.613813683865614e-05,0.2485586773184251,8.125611972536622e-06,0.2485586773184251,-1.90462722265354e-05
0.2493527944983561,3.0598932452536334e-05,0.2493527944983561,9.460302904618026e-05,0.2493527944983561,-4.303728767681492e-06,0.2493527944983561,-1.9322637334850564e-05
0.2501469116782872,1.896952783480139e-05,0.2501469116782872,1.8074943964359617e-05,0.2501469116782872,-5.894027445346838e-06,0.2501469116782872,-1.6361131716118055e-05
0.2509410288582183,9.47381430466494e-06,0.2509410288582183,-6.447376212237812e-05,0.2509410288582183,-1.1400063108969755e-05,0.2509410288582183,-1.42769536395893e-05
0.2517351460381494,-6.7184795127493975e-06,0.2517351460381494,-0.0001582097866776,0.2517351460381494,-1.9952415289887976e-05,0.2517351460381494,-1.2767380568150235e-05
0.2525292632180804,-2.4811637167103825e-05,0.2525292632180804,-0.0001942079810095,0.2525292632180804,-2.29953e-05,0.2525292632180804,-1.0149953579386053e-05
0.2533233803980115,-2.5580823482999583e-05,0.2533233803980115,-0.0001264240000794,0.2533233803980115,-2.17898063122911e-05,0.2533233803980115,-1.29244e-05
0.2541174975779426,-2.317362279119038e-05,0.2541174975779426,1.987103486218875e-06,0.2541174975779426,-1.4857408486602249e-05,0.2541174975779426,-1.0109057536086328e-05
0.2549116147578736,-3.28698152419161e-05,0.2549116147578736,0.0001368212792401,0.2549116147578736,-7.256393857990778e-06,0.2549116147578736,-6.624923392140731e-06
0.2557057319378047,-3.3501113797125284e-05,0.2557057319378047,0.0002102086645081,0.2557057319378047,-4.768918362320331e-06,0.2557057319378047,-6.802686885606238e-06
0.2564998491177358,-2.3668656483196462e-05,0.2564998491177358,0.0002425369740798,0.2564998491177358,-4.196338693510915e-06,0.2564998491177358,-7.721233037028554e-06
0.2572939662976669,-1.7408535937604083e-05,0.2572939662976669,0.0001934611321861,0.2572939662976669,3.729567336168112e-07,0.2572939662976669,-1.0118767009357256e-05
0.2580880834775979,-1.62814e-05,0.2580880834775979,1.915256509686813e-05,0.2580880834775979,5.7734753764126765e-06,0.2580880834775979,-1.4699399542875357e-05
0.258882200657529,-1.6812746889596748e-05,0.258882200657529,-0.0001196171305415,0.258882200657529,7.732393653928141e-06,0.258882200657529,-1.6874541244161304e-05
0.2596763178374601,-2.1609160610816374e-05,0.2596763178374601,-0.0001567178545522,0.2596763178374601,6.269983094344748e-06,0.2596763178374601,-1.5176852377378988e-05
0.2604704350173911,-2.708177041207995e-05,0.2604704350173911,-0.0001140815374907,0.2604704350173911,6.743005206039975e-06,0.2604704350173911,-1.3240743195973349e-05
0.2612645521973222,-2.812974030488591e-05,0.2612645521973222,-9.77147810534452e-05,0.2612645521973222,1.937870382462672e-05,0.2612645521973222,-1.4740719390228183e-05
0.2620586693772533,-2.57795547317856e-05,0.2620586693772533,-0.0001596163113756,0.2620586693772533,4.050157812852738e-05,0.2620586693772533,-1.62814e-05
0.2628527865571843,-1.928388584344233e-05,0.2628527865571843,-0.0001691959576859,0.2628527865571843,5.251566977405541e-05,0.2628527865571843,-1.3694967166072547e-05
0.2636469037371154,-6.925634348778643e-06,0.2636469037371154,-0.0001192501049943,0.2636469037371154,6.002124415247468e-05,0.2636469037371154,-9.656838167584484e-06
0.2644410209170465,9.79742282476129e-06,0.2644410209170465,-6.039340104195542e-05,0.2644410209170465,4.854013786981838e-05,0.2644410209170465,-1.0355844152935782e-05
0.2652351380969776,2.64070763984896e-05,0.2652351380969776,-4.286400972834855e-05,0.2652351380969776,2.0415940717493e-05,0.2652351380969776,-1.2766113987791304e-05
0.2660292552769086,4.220841369610768e-05,0.2660292552769086,3.5317617866325344e-06,0.2660292552769086,2.871426028380446e-07,0.2660292552769086,-1.7544987922029627e-05
0.2668233724568397,5.134067903237533e-05,0.2668233724568397,7.064728810224764e-05,0.2668233724568397,-1.9198380579366908e-05,0.2668233724568397,-1.764286014727019e-05
0.2676174896367708,3.740591848137539e-05,0.2676174896367708,6.289343954376794e-05,0.2676174896367708,-4.766712800129815e-05,0.2676174896367708,-1.2528470758177116e-05
0.2684116068167018,2.1809250039236448e-05,0.2684116068167018,6.370030668460259e-06,0.2684116068167018,-7.840791760187836e-05,0.2684116068167018,-9.329994127169152e-06
0.2692057239966329,-9.264212823489048e-07,0.2692057239966329,6.122914557862708e-05,0.2692057239966329,-8.744992902368835e-05,0.2692057239966329,-7.806248229173992e-07
0.269999841176564,-3.037526534149432e-05,0.269999841176564,0.0001347696450911,0.269999841176564,-7.335353242666115e-05,0.269999841176564,9.565579379263843e-06
0.270793958356495,-4.214794774785801e-05,0.270793958356495,0.0002154117948354,0.270793958356495,-5.811982783165888e-05,0.270793958356495,1.3141682348267692e-05
0.2715880755364261,-4.7280374727994506e-05,0.2715880755364261,0.0002702013493188,0.2715880755364261,-4.388728951592461e-05,0.2715880755364261,8.3857219099996e-06
0.2723821927163572,-5.329274532641569e-05,0.2723821927163572,0.0001769025500664,0.2723821927163572,-1.900230924483344e-05,0.2723821927163572,3.547542006189793e-06
0.2731763098962882,-3.7108565767544384e-05,0.2731763098962882,3.068126986930324e-05,0.2731763098962882,-1.2996513401102597e-06,0.2731763098962882,-1.586355398373111e-06
0.2739704270762193,-1.5655519560933967e-05,0.2739704270762193,-4.4019956658910834e-05,0.2739704270762193,7.410967761639973e-06,0.2739704270762193,-6.426638118376322e-06
0.2747645442561504,-5.53903e-06,0.2747645442561504,-0.0001024144071813,0.2747645442561504,1.97949458681948e-05,0.2747645442561504,-6.62503417766031e-06
0.2755586614360815,-7.276818851386443e-06,0.2755586614360815,-0.0001461233014534,0.2755586614360815,2.909728648880813e-05,0.2755586614360815,-9.72547106151458e-06
0.2763527786160125,-8.570295866466437e-06,0.2763527786160125,-0.0001975455021085,0.2763527786160125,4.240464696434176e-05,0.2763527786160125,-1.535291377844521e-05
0.2771468957959436,-3.921055998648677e-06,0.2771468957959436,-0.0002463537682762,0.2771468957959436,5.291103314449407e-05,0.2771468957959436,-1.4583633427752964e-05
0.2779410129758747,-2.674426582233709e-07,0.2779410129758747,-0.0001747585118451,0.2779410129758747,5.198658211610208e-05,0.2779410129758747,-1.4977603251617803e-05
0.2787351301558057,-1.869545073713022e-07,0.2787351301558057,-5.230082548277461e-05,0.2787351301558057,4.594288726815472e-05,0.2787351301558057,-1.6636205092738116e-05
0.2795292473357368,-2.221668921829522e-06,0.2795292473357368,-1.946252048198105e-05,0.2795292473357368,3.664125907006237e-05,0.2795292473357368,-1.7565019551751205e-05
0.2803233645156679,5.3235757496762365e-06,0.2803233645156679,-5.203917614678114e-05,0.2803233645156679,2.3852490652331177e-05,0.2803233645156679,-1.659754450214608e-05
0.2811174816955989,1.398238082980625e-05,0.2811174816955989,-0.0001013959424472,0.2811174816955989,1.4759177868661317e-05,0.2811174816955989,-1.9955571713791896e-05
0.2819115988755301,1.4405379263407636e-05,0.2819115988755301,-0.0001546964600689,0.2819115988755301,6.614375341940076e-06,0.2819115988755301,-2.485182441955418e-05
0.2827057160554611,1.0930301223607696e-05,0.2827057160554611,-0.0001713122969501,0.2827057160554611,-3.326836694523344e-06,0.2827057160554611,-2.4891298626781976e-05
0.2834998332353922,3.526632016839555e-06,0.2834998332353922,-0.0001059310674511,0.2834998332353922,-1.2251077848227322e-05,0.2834998332353922,-1.9639601313544828e-05
0.2842939504153233,-5.259893437643258e-06,0.2842939504153233,-2.7930638060586746e-06,0.2842939504153233,-1.598457712531634e-05,0.2842939504153233,-2.038755425063268e-05
0.2850880675952543,-8.059237055908522e-06,0.2850880675952543,4.863783825693306e-05,0.2850880675952543,-1.677577435282271e-05,0.2850880675952543,-2.0153569139007985e-05
0.2858821847751854,-1.3932871965355086e-06,0.2858821847751854,2.189496933176912e-05,0.2858821847751854,-9.143503827241333e-06,0.2858821847751854,-1.7526399393950358e-05
0.2866763019551165,-2.4364196693404723e-06,0.2866763019551165,9.946803665539753e-06,0.2866763019551165,7.444481735391433e-06,0.2866763019551165,-1.6094627466236523e-05
0.2874704191350475,-6.426609514991408e-06,0.2874704191350475,3.825405422996804e-05,0.2874704191350475,1.660565076461216e-05,0.2874704191350475,-1.4247866078817729e-05
0.2882645363149786,-9.053826913898373e-06,0.2882645363149786,3.974318353248087e-05,0.2882645363149786,1.8473483086101623e-05,0.2882645363149786,-1.618173550209215e-05
0.2890586534949096,-1.1463146113789425e-05,0.2890586534949096,3.4049369016592374e-06,0.2890586534949096,1.5748196886692035e-05,0.2890586534949096,-2.340018037329264e-05
0.2898527706748408,-1.4365774045350736e-05,0.2898527706748408,-1.0396327612886487e-05,0.2898527706748408,1.1720151909298528e-05,0.2898527706748408,-2.3706677863947797e-05
0.2906468878547718,-1.2016367084529431e-05,0.2906468878547718,-2.0151875170911395e-05,0.2906468878547718,1.4897281035088118e-05,0.2906468878547718,-1.9145884795853013e-05
0.2914410050347029,-1.2175016428819306e-05,0.2914410050347029,-4.967508426123189e-05,0.2914410050347029,1.9944853257040067e-05,0.2914410050347029,-1.62814e-05
0.292235122214634,-9.88402543221383e-06,0.292235122214634,-5.145576851402508e-05,0.292235122214634,1.7674681132685885e-05,0.292235122214634,-1.589654346075178e-05
0.293029239394565,-1.511569278130423e-05,0.293029239394565,-3.3816350345932515e-06,0.293029239394565,1.0417242530448816e-05,0.293029239394565,-1.3675103609347884e-05
0.2938233565744961,-2.1356641071621224e-05,0.2938233565744961,2.6881853124423196e-05,0.2938233565744961,-3.409146376832897e-06,0.2938233565744961,-8.421383405791776e-06
0.2946174737544272,-2.3212906705556235e-05,0.2946174737544272,-2.0946859501324235e-05,0.2946174737544272,-1.9365053644449876e-05,0.2946174737544272,-7.692089015201155e-06
0.2954115909343582,-2.214596881528827e-05,0.2954115909343582,-5.560141425326812e-05,0.2954115909343582,-2.4456760014314535e-05,0.2954115909343582,-9.96243412348126e-06
0.2962057081142893,-2.287652054815225e-05,0.2962057081142893,-6.987052575646063e-05,0.2962057081142893,-2.737886107046967e-05,0.2962057081142893,-9.172632245445904e-06
0.2969998252942204,-2.8365241443557937e-05,0.2969998252942204,-4.851631019969832e-05,0.2969998252942204,-3.0044622433067384e-05,0.2969998252942204,-8.392397072177898e-06
0.2977939424741515,-3.075525992627515e-05,0.2977939424741515,5.388893674848893e-05,0.2977939424741515,-3.0341840073724847e-05,0.2977939424741515,-1.108686654379192e-05
0.2985880596540825,-3.103383628090863e-05,0.2985880596540825,0.0001863614805235,0.2985880596540825,-2.4085582674641816e-05,0.2985880596540825,-8.445682547981967e-06
0.2993821768340136,-2.761687564224351e-05,0.2993821768340136,0.0002115257253519,0.2993821768340136,-1.6248780780191607e-05,0.2993821768340136,-2.6969912844870235e-06
0.3001762940139447,-2.5090861795346272e-05,0.3001762940139447,0.000132140741592,0.3001762940139447,-5.387829805141069e-06,0.3001762940139447,-2.338999230565884e-06
0.3009704111938757,-1.910764718034916e-05,0.3009704111938757,9.670755949393958e-06,0.3009704111938757,6.561837694338649e-06,0.3009704111938757,-2.834117520239976e-06
0.3017645283738068,-1.0517146853945275e-05,0.3017645283738068,-0.0001181708055445,0.3017645283738068,1.1700680846333494e-05,0.3017645283738068,-2.1418595395102896e-06
0.3025586455537379,2.083282566041213e-06,0.3025586455537379,-0.0001495370209155,0.3025586455537379,5.479802270772688e-06,0.3025586455537379,-7.987633431756174e-06
0.3033527627336689,1.2468666745894196e-05,0.3033527627336689,-0.0001354074271731,0.3033527627336689,4.511923868984996e-06,0.3033527627336689,-9.56741e-06
0.3041468799136,2.5064343599768262e-05,0.3041468799136,-0.000159802255908,0.3041468799136,6.071424736947781e-06,0.3041468799136,-1.0939080639750912e-05
0.3049409970935311,3.691492127825188e-05,0.3049409970935311,-0.0001724015722741,0.3049409970935311,7.21752e-06,0.3049409970935311,-1.233096063912594e-05
0.3057351142734621,3.893152033647529e-05,0.3057351142734621,-0.0001736679021912,0.3057351142734621,8.243671685112207e-06,0.3057351142734621,-1.3852339831762352e-05
0.3065292314533932,2.8979922812629068e-05,0.3065292314533932,-5.805159773529274e-05,0.3065292314533932,6.803237455991739e-06,0.3065292314533932,-1.5155636125733236e-05
0.3073233486333243,1.3268139983509809e-05,0.3073233486333243,0.0001503558198674,0.3073233486333243,2.457725111306088e-06,0.3073233486333243,-1.4582663053128983e-05
0.3081174658132554,1.2712629238731955e-06,0.3081174658132554,0.0002114140858545,0.3081174658132554,-1.9458200685304857e-06,0.3081174658132554,-1.2628070164494984e-05
0.3089115829931864,-1.5354491504006862e-05,0.3089115829931864,0.0001343742982934,0.3089115829931864,-3.2680080718105115e-06,0.3089115829931864,-1.5057237082259623e-05
0.3097057001731175,-3.0577285406872644e-05,0.3097057001731175,4.590491474335984e-05,0.3097057001731175,5.606986829711442e-06,0.3097057001731175,-1.4583479060625868e-05
0.3104998173530486,-3.7093910541868025e-05,0.3104998173530486,-1.6267223288515084e-05,0.3104998173530486,1.661506054689507e-05,0.3104998173530486,-9.568725759633838e-06
0.3112939345329796,-3.587211939404275e-05,0.3112939345329796,-0.0001156069678986,0.3112939345329796,1.66171e-05,0.3112939345329796,-1.307977090893587e-05
0.3120880517129107,-2.391126581627423e-05,0.3120880517129107,-0.0001391293348715,0.3120880517129107,1.553191896758612e-05,0.3120880517129107,-1.7603365081011128e-05
0.3128821688928418,-3.942255459237508e-06,0.3128821688928418,-0.00010001555404,0.3128821688928418,1.742207735037419e-05,0.3128821688928418,-1.701475487894839e-05
0.3136762860727728,2.7065718890311665e-05,0.3136762860727728,-4.319234907706816e-05,0.3136762860727728,2.09812e-05,0.3136762860727728,-1.49386e-05
0.314470403252704,3.4628933769972865e-05,0.314470403252704,-3.3175811510173465e-05,0.314470403252704,1.956893184063615e-05,0.314470403252704,-1.4672315283129365e-05
0.315264520432635,2.147771900537514e-05,0.315264520432635,-3.29524016130158e-05,0.315264520432635,2.139579701552699e-05,0.315264520432635,-1.3674697015526988e-05
0.3160586376125661,4.413636830219368e-06,0.3160586376125661,3.556796697365836e-05,0.3160586376125661,2.054674151663403e-05,0.3160586376125661,-1.487933836476414e-05
0.3168527547924971,2.4776933398876207e-06,0.3168527547924971,6.295269727225089e-05,0.3168527547924971,1.5788644433520634e-05,0.3168527547924971,-1.614280222659175e-05
0.3176468719724282,5.342351061443039e-06,0.3176468719724282,-5.360354975427094e-06,0.3176468719724282,6.510705763104385e-06,0.3176468719724282,-1.8650514975123603e-05
0.3184409891523593,-1.9782645011914265e-06,0.3184409891523593,-3.219736746751148e-05,0.3184409891523593,-7.0864082222974754e-06,0.3184409891523593,-2.109810075648798e-05
0.3192351063322903,-1.7776493911872495e-05,0.3192351063322903,-4.41551745628337e-05,0.3192351063322903,-6.430405995172397e-06,0.3192351063322903,-2.196923997346296e-05
0.3200292235122214,-2.9057748785181344e-05,0.3200292235122214,-8.849765196965322e-05,0.3200292235122214,-9.177768214432912e-07,0.3200292235122214,-1.7348046355544034e-05
0.3208233406921525,-2.190869794330478e-05,0.3208233406921525,-7.661411846382001e-05,0.3208233406921525,-1.2215176282882323e-05,0.3208233406921525,-1.49386e-05
0.3216174578720835,-2.204828044692889e-05,0.3216174578720835,-1.7496992911542438e-05,0.3216174578720835,-2.2444049164367903e-05,0.3216174578720835,-1.4494069711008003e-05
0.3224115750520147,-2.928524952571761e-05,0.3224115750520147,-2.2804368611635794e-06,0.3224115750520147,-2.4890885849794967e-05,0.3224115750520147,-1.3694522352103367e-05
0.3232056922319457,-3.381700216433312e-05,0.3232056922319457,-4.231158295933753e-06,0.3232056922319457,-1.284688264612365e-05,0.3232056922319457,-1.0713246425290298e-05
0.3239998094118768,-2.80325848618639e-05,0.3239998094118768,-2.466714312040525e-05,0.3239998094118768,-2.3514689080844743e-06,0.3239998094118768,-5.540128368351885e-06
0.3247939265918079,-2.058912656634497e-05,0.3247939265918079,-9.475270660606716e-05,0.3247939265918079,-4.273884004201105e-06,0.3247939265918079,-7.531905846932084e-06
0.3255880437717389,-1.1448921108232058e-05,0.3255880437717389,-0.000160232072692,0.3255880437717389,-9.27720721310875e-06,0.3255880437717389,-9.01572488883641e-06
0.32638216095167,-1.4977810193661712e-06,0.32638216095167,-0.0001390000210176,0.32638216095167,-1.7343807128507872e-05,0.32638216095167,-7.826922660452212e-06
0.3271762781316011,9.076767216387366e-06,0.3271762781316011,-4.150302467260766e-05,0.3271762781316011,-2.0585908302099756e-05,0.3271762781316011,-1.2111966416798027e-05
0.3279703953115321,1.4286499596915651e-05,0.3279703953115321,6.636743478240414e-05,0.3279703953115321,-1.99741e-05,0.3279703953115321,-1.0300507504416958e-05
0.3287645124914632,1.563013482073642e-05,0.3287645124914632,0.0001089259257835,0.3287645124914632,-2.263946517926358e-05,0.3287645124914632,-5.53903e-06
0.3295586296713942,1.1443496114256815e-05,0.3295586296713942,8.317532880483139e-05,0.3295586296713942,-2.493046155429727e-05,0.3295586296713942,-5.53903e-06
0.3303527468513254,5.619185051737465e-06,0.3303527468513254,3.427201292786366e-05,0.3303527468513254,-2.350970176365752e-05,0.3303527468513254,-4.769090352731503e-06
0.3311468640312564,3.053441584231252e-07,0.3311468640312564,1.089050034456425e-05,0.3311468640312564,-1.397300815436448e-05,0.3311468640312564,-3.52483e-06
0.3319409812111875,3.86053e-06,0.3319409812111875,2.076323978968212e-05,0.3319409812111875,-9.489495224983729e-06,0.3319409812111875,-3.5637873875081365e-06
0.3327350983911186,2.834424080235764e-06,0.3327350983911186,-1.2055692813965405e-05,0.3327350983911186,-5.402812989451068e-06,0.3327350983911186,-6.761506261805156e-06
0.3335292155710496,8.193840100389647e-07,0.3335292155710496,-4.5102734913405945e-05,0.3335292155710496,2.9549917533394045e-07,0.3335292155710496,-1.467139886698204e-05
0.3343233327509807,-1.4887509346219958e-07,0.3343233327509807,-5.60363142542045e-05,0.3343233327509807,7.454763765427815e-06,0.3343233327509807,-1.4918431701662431e-05
0.3351174499309118,-7.041261149448384e-06,0.3351174499309118,-5.668997343223597e-05,0.3351174499309118,7.375045348969818e-06,0.3351174499309118,-1.2519259941904817e-05
0.3359115671108428,-1.5156171458987882e-05,0.3359115671108428,-1.7578450871730433e-05,0.3359115671108428,8.145707530448915e-06,0.3359115671108428,-1.2509793413612588e-05
0.3367056842907739,-2.1375879563918543e-05,0.3367056842907739,2.5446782903593043e-05,0.3367056842907739,1.3496135833558706e-05,0.3367056842907739,-1.483992276040258e-05
0.337499801470705,-2.23239e-05,0.337499801470705,3.877133799412469e-05,0.337499801470705,2.517403910352929e-05,0.337499801470705,-1.124733017777538e-05
0.338293918650636,-2.043008164240169e-05,0.338293918650636,1.96116409821864e-05,0.338293918650636,3.5846977755476466e-05,0.338293918650636,-1.0040875167420566e-05
0.3390880358305671,-9.062777071131568e-06,0.3390880358305671,-2.4213818231458503e-05,0.3390880358305671,4.025391554477717e-05,0.3390880358305671,-1.2409093268663012e-05
0.3398821530104982,4.368762408720542e-06,0.3398821530104982,-6.550316589646131e-05,0.3398821530104982,4.311434819288808e-05,0.3398821530104982,-1.5086858332985804e-05
0.3406762701904293,1.0709525007815764e-05,0.3406762701904293,-0.0001139951579407,0.3406762701904293,4.493489483722267e-05,0.3406762701904293,-1.604301032555465e-05
0.3414703873703603,1.6416417088453822e-05,0.3414703873703603,-0.0001446530972721,0.3414703873703603,3.8283194756052776e-05,0.3414703873703603,-1.74659940777467e-05
0.3422645045502914,2.40024e-05,0.3422645045502914,-0.0001031004165026,0.3422645045502914,2.613756972031507e-05,0.3422645045502914,-1.69528e-05
0.3430586217302225,1.7683801000987445e-05,0.3430586217302225,3.6701684260776085e-05,0.3430586217302225,1.36554068887874e-05,0.3430586217302225,-1.632093068887874e-05
0.3438527389101535,3.329537379981482e-06,0.3438527389101535,0.0001886230048756,0.3438527389101535,1.769631995860273e-06,0.3438527389101535,-1.52743e-05
0.3446468560900846,-6.06973878627208e-06,0.3446468560900846,0.000199949425679,0.3446468560900846,-1.1143583464141664e-05,0.3446468560900846,-1.49386e-05
0.3454409732700157,-1.2447729607403796e-05,0.3454409732700157,0.0001009515321455,0.3454409732700157,-1.7188758262942943e-05,0.3454409732700157,-1.49386e-05
0.3462350904499467,-2.0227408053322527e-05,0.3462350904499467,-2.835582399606557e-06,0.3462350904499467,-2.086082669629029e-05,0.3462350904499467,-1.3912509321483883e-05
0.3470292076298778,-2.962981332789679e-05,0.3470292076298778,-8.632653260107846e-05,0.3470292076298778,-2.3588319546380037e-05,0.3470292076298778,-8.975496080155995e-06
0.3478233248098089,-2.773427168827411e-05,0.3478233248098089,-0.0001086946837988,0.3478233248098089,-1.2804695948695266e-05,0.3478233248098089,-5.726457610763876e-06
0.34861744198974,-2.694492527292782e-05,0.34861744198974,-3.948378811068639e-05,0.34861744198974,-3.9974771891425256e-06,0.34861744198974,-5.4799489546958665e-06
0.349411559169671,-2.87022e-05,0.349411559169671,-4.2865451204950414e-05,0.349411559169671,4.64268949252216e-07,0.349411559169671,-6.704150178809502e-06
0.3502056763496021,-2.714275644074642e-05,0.3502056763496021,-9.998919422130594e-05,0.3502056763496021,6.921505480248808e-06,0.3502056763496021,-7.947903087058587e-06
0.3509997935295332,-2.031188229453374e-05,0.3509997935295332,-0.0001042361371085,0.3509997935295332,-1.8427702939958629e-06,0.3509997935295332,-1.0909307573498964e-05
0.3517939107094642,-1.4663078493185798e-05,0.3517939107094642,-8.736810378013948e-05,0.3517939107094642,-9.88171558508164e-06,0.3517939107094642,-1.6260012636924856e-05
0.3525880278893953,-1.3991380376473038e-05,0.3525880278893953,-7.010389052700396e-05,0.3525880278893953,-1.146183924705392e-05,0.3525880278893953,-1.4506721505892158e-05
0.3533821450693264,-1.113207599035102e-05,0.3533821450693264,-2.016104920850128e-05,0.3533821450693264,-1.4728175173226007e-05,0.3533821450693264,-1.19173e-05
0.3541762622492574,-4.269867466042553e-06,0.3541762622492574,-3.940576858791096e-06,0.3541762622492574,-1.8609381164065237e-05,0.3541762622492574,-1.2331404168457377e-05
0.3549703794291886,-6.617587003868066e-07,0.3549703794291886,-1.5858384957967572e-05,0.3549703794291886,-1.513936300150109e-05,0.3549703794291886,-1.185946985778618e-05
0.3557644966091196,-2.082979560181061e-06,0.3557644966091196,-3.300510305489016e-05,0.3557644966091196,-8.501613082744206e-06,0.3557644966091196,-9.882927063862104e-06
0.3565586137890507,-4.749004124232183e-06,0.3565586137890507,-4.8993774152243e-05,0.3565586137890507,-5.163991414494367e-06,0.3565586137890507,-1.3437631380375212e-05
0.3573527309689818,-5.894801394512051e-06,0.3573527309689818,-6.10080381238674e-05,0.3573527309689818,3.305871140311345e-06,0.3573527309689818,-1.5807033430427486e-05
0.3581468481489128,-3.652699481666904e-06,0.3581468481489128,-5.151079364851347e-05,0.3581468481489128,9.468282061717415e-06,0.3581468481489128,-1.7208538963333807e-05
0.3589409653288439,-4.828695544546698e-06,0.3589409653288439,-2.86820787280202e-05,0.3589409653288439,7.79157444126629e-06,0.3589409653288439,-2.063576348663895e-05
0.3597350825087749,-2.2723605243712634e-06,0.3597350825087749,-2.658649610124224e-05,0.3597350825087749,8.519064899005596e-06,0.3597350825087749,-1.855376108939348e-05
0.360529199688706,1.4907568905520297e-06,0.360529199688706,-2.7023444694650043e-05,0.360529199688706,1.4878950671656088e-05,0.360529199688706,-1.4504640883067897e-05
0.3613233168686371,1.0367482043606348e-06,0.3613233168686371,-3.072796984622478e-05,0.3613233168686371,1.59457e-05,0.3613233168686371,-1.15816e-05
0.3621174340485681,3.2490794976125992e-06,0.3621174340485681,-6.394159166072472e-05,0.3621174340485681,1.59457e-05,0.3621174340485681,-1.15816e-05
0.3629115512284993,3.880204190271556e-06,0.3629115512284993,-6.517345130582073e-05,0.3629115512284993,1.809821812471525e-05,0.3629115512284993,-9.705619544312006e-06
0.3637056684084303,-1.0955402901357372e-06,0.3637056684084303,4.7594374923539486e-06,0.3637056684084303,2.1070220870547136e-05,0.3637056684084303,-1.0297763094280122e-05
0.3644997855883614,-1.846648918399492e-06,0.3644997855883614,2.4004272280435804e-05,0.3644997855883614,1.7961058420992554e-05,0.3644997855883614,-1.1581445540800254e-05
0.3652939027682925,-6.50326385664076e-06,0.3652939027682925,-4.8324365754410205e-05,0.3652939027682925,1.813642321844931e-05,0.3652939027682925,-1.0673475356310136e-05
0.3660880199482235,-1.1284935578345284e-05,0.3660880199482235,-9.593623372515278e-05,0.3660880199482235,1.7234138818753365e-05,0.3660880199482235,-1.28046163149991e-05
0.3668821371281546,-1.3197984596667771e-05,0.3668821371281546,-9.310077320335005e-05,0.3668821371281546,6.038036648952766e-06,0.3668821371281546,-1.2709446495243323e-05
0.3676762543080857,-1.5550391139966463e-05,0.3676762543080857,-3.461551820139738e-05,0.3676762543080857,1.3537665801006146e-06,0.3676762543080857,-1.0111739888410509e-05
0.3684703714880167,-1.21759389094039e-05,0.3684703714880167,7.052983534569671e-05,0.3684703714880167,2.55627054529805e-06,0.3684703714880167,-8.186084741643753e-06
0.3692644886679478,-9.56741e-06,0.3692644886679478,0.0001293708185217,0.3692644886679478,5.163892933658714e-06,0.3692644886679478,-9.763623109966068e-06
0.3700586058478789,-9.56741e-06,0.3700586058478789,0.0001207806009386,0.3700586058478789,4.245672026166961e-06,0.3700586058478789,-1.3852392758132865e-05
0.3708527230278099,-3.368010221230458e-06,0.3708527230278099,5.3023616239295456e-05,0.3708527230278099,5.084732624593144e-06,0.3708527230278099,-1.1384589501627429e-05
0.371646840207741,-2.2394750134319684e-06,0.371646840207741,-1.902308056679236e-05,0.371646840207741,4.69020691052045e-06,0.371646840207741,-1.1492069591558976e-05
0.3724409573876721,-8.635728104182768e-06,0.3724409573876721,-4.191306607756181e-05,0.3724409573876721,4.551391494712923e-06,0.3724409573876721,-1.406773046299046e-05
0.3732350745676032,-1.2845211228206851e-05,0.3732350745676032,-4.560422351928734e-05,0.3732350745676032,4.86763e-06,0.3732350745676032,-1.6794422456413705e-05
0.3740291917475342,-1.2746602724564912e-05,0.3740291917475342,-5.034511362530596e-05,0.3740291917475342,7.246730281421447e-06,0.3740291917475342,-1.5689578203480705e-05
0.3748233089274653,-1.0257967102419404e-05,0.3748233089274653,-6.946407422261839e-05,0.3748233089274653,8.38242910351711e-06,0.3748233089274653,-1.1956938604660354e-05
0.3756174261073964,-5.736022974185431e-06,0.3756174261073964,-7.674936962501805e-05,0.3756174261073964,5.479120633312443e-06,0.3756174261073964,-1.588741170436494e-05
0.3764115432873274,-4.156671644176537e-06,0.3764115432873274,-6.072989558870874e-05,0.3764115432873274,4.53193e-06,0.3764115432873274,-1.7110716367021598e-05
0.3772056604672585,-2.438297304403104e-06,0.3772056604672585,-3.288667629052708e-05,0.3772056604672585,5.271877365237574e-06,0.3772056604672585,-1.229271987833106e-05
0.3779997776471896,-3.86053e-06,0.3779997776471896,-2.299587528969901e-05,0.3779997776471896,1.0908357940568496e-05,0.3779997776471896,-1.292375928035668e-05
0.3787938948271206,-2.882971763929212e-07,0.3787938948271206,-4.397083176057398e-05,0.3787938948271206,6.787018583686838e-06,0.3787938948271206,-1.7464994553380668e-05
0.3795880120070517,2.812276813655674e-09,0.3795880120070517,-6.185305529628843e-05,0.3795880120070517,-5.155883866525133e-06,0.3795880120070517,-1.4626619851167236e-05
0.3803821291869828,-5.851649918230873e-06,0.3803821291869828,-6.290558882730675e-05,0.3803821291869828,-1.3900378053128662e-05,0.3803821291869828,-8.77877665761202e-06
0.3811762463669139,-8.776780838510675e-06,0.3811762463669139,-2.6010486766434367e-05,0.3811762463669139,-2.046030838510676e-05,0.3811762463669139,-7.612832804915626e-06
0.3819703635468449,-1.2507492240520689e-05,0.3819703635468449,3.400680175489919e-05,0.3819703635468449,-3.92394843840157e-05,0.3819703635468449,-9.05423308438659e-06
0.382764480726776,-1.5659509128901863e-05,0.382764480726776,5.184433812244466e-05,0.382764480726776,-3.93698055809979e-05,0.382764480726776,-8.540083647885954e-06
0.3835585979067071,-1.3378795260882852e-05,0.3835585979067071,6.906988693132333e-05,0.3835585979067071,-2.1851022781049543e-05,0.3835585979067071,-1.0831070415370427e-05
0.3843527150866381,-9.71617356330433e-06,0.3843527150866381,6.459056686412928e-05,0.3843527150866381,-1.3518424298633456e-05,0.3843527150866381,-1.0594609325261756e-05
0.3851468322665692,-3.410063871695809e-06,0.3851468322665692,9.03062062317282e-07,0.3851468322665692,-5.758198420200776e-06,0.3851468322665692,-1.0040511783282828e-05
0.3859409494465003,4.332419752336932e-06,0.3859409494465003,-5.297157426764589e-05,0.3859409494465003,-7.27093407486951e-06,0.3859409494465003,-1.2291911523398548e-05
0.3867350666264313,7.57213438906822e-06,0.3867350666264313,-8.10616710455143e-05,0.3867350666264313,-1.667386608994885e-05,0.3867350666264313,-1.2411388985008524e-05
0.3875291838063624,3.664171353077282e-06,0.3875291838063624,-8.968062889030926e-05,0.3875291838063624,-1.8097891011561363e-05,0.3875291838063624,-1.2884588015415152e-05
0.3883233009862935,-2.8342099700994957e-06,0.3883233009862935,-3.008240270963391e-05,0.3883233009862935,-2.386459650190691e-05,0.3883233009862935,-1.6162822999576243e-05
0.3891174181662246,-1.2096906533483831e-05,0.3891174181662246,2.944886621971423e-05,0.3891174181662246,-2.54634136877317e-05,0.3891174181662246,-1.3832227375463409e-05
0.3899115353461556,-3.0973270281859736e-05,0.3899115353461556,2.0130311356354543e-05,0.3899115353461556,-9.981947365581951e-06,0.3899115353461556,-1.0673206902618998e-05
0.3907056525260867,-4.418406646501215e-05,0.3907056525260867,1.787789619279107e-05,0.3907056525260867,6.742053027017879e-06,0.3907056525260867,-7.07912861508525e-06
0.3914997697060178,-3.592343278870361e-05,0.3914997697060178,2.1316006246360343e-05,0.3914997697060178,1.5943377391292648e-05,0.3914997697060178,-9.901938705530186e-06
0.3922938868859488,-2.039580153876034e-05,0.3922938868859488,3.143963490716164e-06,0.3922938868859488,1.4921368223375548e-05,0.3922938868859488,-1.2154013177662445e-05
0.3930880040658799,-8.13146367485217e-06,0.3930880040658799,-2.3140636170124743e-05,0.3930880040658799,6.905606862560139e-06,0.3930880040658799,-1.1108007387277624e-05
0.393882121245811,-4.524752484502986e-06,0.393882121245811,3.0265861946824133e-05,0.393882121245811,5.289447146686963e-06,0.393882121245811,-1.240928819112906e-05
0.394676238425742,-1.7297633335237438e-05,0.394676238425742,6.829178496284307e-05,0.394676238425742,8.04575087163209e-06,0.394676238425742,-1.35958e-05
0.3954703556056732,-3.129474828288347e-05,0.3954703556056732,1.5119170206223609e-05,0.3954703556056732,8.066381194902326e-06,0.3954703556056732,-1.1643616856074416e-05
0.3962644727856042,-3.814016422134356e-05,0.3962644727856042,-5.718654142080515e-05,0.3962644727856042,8.875758415840174e-06,0.3962644727856042,-7.4541057245797775e-06
0.3970585899655353,-4.171534689402319e-05,0.3970585899655353,-0.0001236305355459,0.3970585899655353,1.2272390873609006e-05,0.3970585899655353,-8.856433447011593e-06
0.3978527071454664,-3.697824146294838e-05,0.3978527071454664,-0.0001225233422581,0.3978527071454664,1.46029e-05,0.3978527071454664,-8.89601e-06
0.3986468243253974,-1.996394083658987e-05,0.3986468243253974,-1.9035330170728807e-05,0.3986468243253974,1.4129817625497432e-05,0.3986468243253974,-7.080137625497432e-06
0.3994409415053285,9.06095486021915e-06,0.3994409415053285,5.966548696147559e-05,0.3994409415053285,1.4276922117406716e-05,0.3994409415053285,-5.6557295927260645e-06
0.4002350586852595,2.9841594029969177e-05,0.4002350586852595,1.2389643714013995e-05,0.4002350586852595,1.5332787457467744e-05,0.4002350586852595,-1.0118202586357497e-05
0.4010291758651906,4.457674376197744e-05,0.4010291758651906,-6.268672161459316e-05,0.4010291758651906,1.705093898199893e-05,0.4010291758651906,-1.6201730265141634e-05
0.4018232930451217,6.19178001665696e-05,0.4018232930451217,-8.272687072543507e-05,0.4018232930451217,2.1277596238052067e-05,0.4018232930451217,-1.9342298557978537e-05
0.4026174102250527,6.96574e-05,0.4026174102250527,-6.573925065127044e-05,0.4026174102250527,2.177081914703622e-05,0.4026174102250527,-2.2087449966191013e-05
0.4034115274049838,5.4156110979115744e-05,0.4034115274049838,-3.934416832273384e-05,0.4034115274049838,1.1344677395584609e-05,0.4034115274049838,-2.457509484181442e-05
0.4042056445849149,4.033391140376882e-05,0.4042056445849149,-5.4504560185853005e-05,0.4042056445849149,-4.352299823856062e-06,0.4042056445849149,-2.43381e-05
0.404999761764846,3.4746687834663856e-05,0.404999761764846,-8.676900841404986e-05,0.404999761764846,-1.2922683791781568e-05,0.404999761764846,-2.16539729195412e-05
0.4057938789447771,2.106736206143584e-05,0.4057938789447771,-8.376483669150676e-05,0.4057938789447771,-1.7878081891136325e-05,0.4057938789447771,-1.586825533210746e-05
0.4065879961247081,9.117678778674677e-06,0.4065879961247081,-7.371106611747113e-05,0.4065879961247081,-1.764805744349624e-05,0.4065879961247081,-1.4662826240582706e-05
0.4073821133046392,1.7512144187963504e-07,0.4073821133046392,-5.8585323423110846e-05,0.4073821133046392,-1.112870105569439e-05,0.4073821133046392,-1.3861271605556247e-05
0.4081762304845703,-6.800139621002e-06,0.4081762304845703,-2.6943468213306816e-05,0.4081762304845703,-9.686660268163816e-06,0.4081762304845703,-1.46029e-05
0.4089703476645013,-2.5413579313497703e-06,0.4089703476645013,-1.6064490152267634e-05,0.4089703476645013,3.4850245119698063e-06,0.4089703476645013,-1.3715572629043897e-05
0.4097644648444324,2.8737121178029143e-06,0.4097644648444324,-1.0439633256841014e-05,0.4097644648444324,2.648751032263324e-05,0.4097644648444324,-9.972977265855022e-06
0.4105585820243635,-3.839939597759595e-06,0.4105585820243635,1.608422571150521e-05,0.4105585820243635,3.0025652123139768e-05,0.4105585820243635,-5.71717490630326e-06
0.4113526992042945,-1.647609393659225e-05,0.4113526992042945,2.953670960490795e-05,0.4113526992042945,1.7390324832775496e-05,0.4113526992042945,-8.795332666725283e-07
0.4121468163842256,-2.7138267491014697e-05,0.4121468163842256,-2.6924678216635124e-06,0.4121468163842256,5.050567789339014e-06,0.4121468163842256,-4.0360815602532885e-06
0.4129409335641567,-3.8709720139406005e-05,0.4129409335641567,-1.0041518091914552e-05,0.4129409335641567,-8.732734595041074e-06,0.4129409335641567,-8.341275194814712e-06
0.4137350507440878,-4.211132373570588e-05,0.4137350507440878,7.604754018384701e-06,0.4137350507440878,-1.529317626429412e-05,0.4137350507440878,-1.1521270330367648e-05
0.4145291679240188,-3.658193476589133e-05,0.4145291679240188,-1.8847936958102092e-05,0.4145291679240188,-9.97360670453056e-06,0.4145291679240188,-1.1700424047361078e-05
0.4153232851039499,-3.547547705878964e-05,0.4153232851039499,-5.824295081894672e-05,0.4153232851039499,-4.769036469383789e-06,0.4153232851039499,-9.962377058789638e-06
0.416117402283881,-3.427048014302305e-05,0.416117402283881,-3.557424540245187e-05,0.416117402283881,-1.0615245890615086e-05,0.416117402283881,-1.0831367942790777e-05
0.416911519463812,-2.966985615481305e-05,0.416911519463812,1.0300639376096475e-05,0.416911519463812,-1.647886340645528e-05,0.416911519463812,-1.1502590219365836e-05
0.4177056366437431,-2.36683010784666e-05,0.4177056366437431,1.441743791122354e-05,0.4177056366437431,-1.4069914316969662e-05,0.4177056366437431,-1.4424714207575843e-05
0.4184997538236742,-1.4605560130661822e-05,0.4184997538236742,-6.874336130601144e-06,0.4184997538236742,-1.6615503921602908e-05,0.4184997538236742,-1.4938954684088245e-05
0.4192938710036052,-5.070098631902436e-06,0.4192938710036052,-1.833536913996369e-05,0.4192938710036052,-1.9164996576729944e-05,0.4192938710036052,-1.3397803423270055e-05
0.4200879881835363,-4.436100612080071e-07,0.4200879881835363,-1.3989690943428595e-05,0.4200879881835363,-1.24148073863559e-05,0.4200879881835363,-1.503747996301636e-05
0.4208821053634674,-3.1268629087280136e-06,0.4208821053634674,-1.7504130475352948e-05,0.4208821053634674,-8.029308254781762e-06,0.4208821053634674,-1.3814318254735337e-05
0.4216762225433985,-7.687927866778956e-06,0.4216762225433985,-1.0672052616534545e-05,0.4216762225433985,-4.061513909561315e-06,0.4216762225433985,-1.209619522863386e-05
0.4224703397233295,-1.3691897534800969e-05,0.4224703397233295,6.272181329805432e-06,0.4224703397233295,-7.623683156714143e-07,0.4224703397233295,-8.838346765379576e-06
0.4232644569032606,-1.585782737051652e-05,0.4232644569032606,1.7641212376742717e-05,0.4232644569032606,5.793542950829245e-06,0.4232644569032606,-7.335796874757281e-06
0.4240585740831917,-1.1088397682694583e-05,0.4240585740831917,2.4695737619053463e-05,0.4240585740831917,1.2430302059827036e-05,0.4240585740831917,-7.879010718543852e-06
0.4248526912631227,-1.1778518770153237e-05,0.4248526912631227,4.740426416693272e-06,0.4248526912631227,1.6220917232844782e-05,0.4248526912631227,-8.22461e-06
0.4256468084430538,-1.2115663489607045e-05,0.4256468084430538,-7.592326374752513e-06,0.4256468084430538,2.0447136510392955e-05,0.4256468084430538,-7.55322e-06
0.4264409256229849,-1.0229083613899212e-05,0.4264409256229849,-1.703113628629181e-05,0.4264409256229849,2.19883e-05,0.4264409256229849,-8.341240796903118e-06
0.4272350428029159,-1.0199205970663738e-05,0.4272350428029159,-6.017401308698374e-05,0.4272350428029159,2.0449369927825385e-05,0.4272350428029159,-1.1777730072174616e-05
0.428029159982847,-8.046789841720476e-06,0.428029159982847,-0.0001042931071724,0.428029159982847,1.764414031655905e-05,0.428029159982847,-1.32202193668819e-05
0.4288232771627781,-1.3122142042707283e-05,0.4288232771627781,-0.0001219124155344,0.4288232771627781,1.8434070704628696e-05,0.4288232771627781,-1.509648598576424e-05
0.4296173943427092,-1.6202556476763322e-05,0.4296173943427092,-9.702636257818329e-05,0.4296173943427092,2.271935941182373e-05,0.4296173943427092,-1.20450690837136e-05
0.4304115115226402,-1.26875386124676e-05,0.4304115115226402,-2.6861422470040883e-05,0.4304115115226402,2.6786619060973952e-05,0.4304115115226402,-1.10286306937662e-05
0.4312056287025713,-6.507168841493308e-06,0.4312056287025713,5.492214283153051e-05,0.4312056287025713,2.8485066754490898e-05,0.4312056287025713,-1.31415332455091e-05
0.4319997458825024,-8.222962446109123e-06,0.4319997458825024,6.429139537408579e-05,0.4319997458825024,3.4741321807650336e-05,0.4319997458825024,-1.175022380966443e-05
0.4327938630624334,-1.27263919572426e-05,0.4327938630624334,-3.100584875737154e-06,0.4327938630624334,5.286568270893588e-05,0.4327938630624334,-1.3673175871727798e-05
0.4335879802423645,-9.21372703869572e-06,0.4335879802423645,-9.017037955958865e-05,0.4335879802423645,5.321421796741869e-05,0.4335879802423645,-1.54331320013068e-05
0.4343820974222956,-8.697001970594059e-06,0.4343820974222956,-0.0001349963008476,0.4343820974222956,3.614906919679627e-05,0.4343820974222956,-1.233110969748232e-05
0.4351762146022266,-1.2909970945236288e-05,0.4351762146022266,-9.151115408727804e-05,0.4351762146022266,5.0292432457128605e-06,0.4351762146022266,-1.29244e-05
0.4359703317821577,-1.7111045967230987e-05,0.4359703317821577,3.616122885151168e-05,0.4359703317821577,-2.479914071201516e-05,0.4359703317821577,-1.2411245967230989e-05
0.4367644489620888,-1.549294470872927e-05,0.4367644489620888,0.0001020521177551,0.4367644489620888,-4.876040246119341e-05,0.4367644489620888,-1.1167054470872926e-05
0.4375585661420199,-1.1660821902141235e-05,0.4375585661420199,3.97657230229755e-05,0.4375585661420199,-6.513396311161727e-05,0.4375585661420199,-1.0278410951070616e-05
0.438352683321951,-1.1266078121426136e-05,0.438352683321951,2.8576975314633664e-05,0.438352683321951,-7.57177354333447e-05,0.438352683321951,-9.40964906071307e-06
0.439146800501882,-6.626256549668884e-06,0.439146800501882,1.164560543488143e-05,0.439146800501882,-6.798671981004102e-05,0.439146800501882,-5.91673618216182e-06
0.4399409176818131,-6.069047717569128e-06,0.4399409176818131,-5.700810721168138e-05,0.4399409176818131,-4.973995070692756e-05,0.4399409176818131,-2.2986363989915258e-06
0.4407350348617442,-1.1283563356977736e-05,0.4407350348617442,-9.078544294554762e-05,0.4407350348617442,-3.579735175906484e-05,0.4407350348617442,-5.991600732326381e-06
0.4415291520416752,-6.932568772039956e-06,0.4415291520416752,-0.000130812573555,0.4415291520416752,-1.8101249277043335e-05,0.4415291520416752,-7.592248841708843e-06
0.4423232692216063,1.9453912603430806e-06,0.4423232692216063,-0.000155965392287,0.4423232692216063,-3.919384006075258e-06,0.4423232692216063,-1.234205617367463e-05
0.4431173864015373,7.464792459377544e-06,0.4431173864015373,-9.612863830939002e-05,0.4431173864015373,2.8737209825322456e-06,0.4431173864015373,-1.9106122950037138e-05
0.4439115035814684,6.476995970213939e-06,0.4439115035814684,1.0016328312472478e-05,0.4439115035814684,7.177837640683881e-06,0.4439115035814684,-2.4930455821283635e-05
0.4447056207613995,8.619135501951166e-06,0.4447056207613995,7.26069143379943e-05,0.4447056207613995,1.327911962841454e-05,0.4447056207613995,-2.4140837249024416e-05
0.4454997379413306,1.0573933655224468e-05,0.4454997379413306,5.624060250180191e-05,0.4454997379413306,1.6951667299201787e-05,0.4454997379413306,-2.4673233649600894e-05
0.4462938551212617,1.1680609754392375e-05,0.4462938551212617,3.845636982059106e-05,0.4462938551212617,1.823526098243049e-05,0.4462938551212617,-2.358935852635426e-05
0.4470879723011927,9.9031e-06,0.4470879723011927,-3.773762329154381e-06,0.4470879723011927,1.99741e-05,0.4470879723011927,-2.0399690957997377e-05
0.4478820894811238,8.247918237395199e-06,0.4478820894811238,-8.155215203887566e-05,0.4478820894811238,1.9856952652817707e-05,0.4478820894811238,-2.100071874179048e-05
0.4486762066610549,2.562054658239754e-06,0.4486762066610549,-4.802865109943886e-05,0.4486762066610549,1.7034602290101134e-05,0.4486762066610549,-2.0734955893044777e-05
0.4494703238409859,-5.220181990688721e-06,0.4494703238409859,0.0001136738050014,0.4494703238409859,1.6250239286721834e-05,0.4494703238409859,-1.9372201102316464e-05
0.450264441020917,-8.22461e-06,0.450264441020917,0.0002105979819508,0.450264441020917,1.7329181532672408e-05,0.450264441020917,-1.8680852029974888e-05
0.4510585582008481,-8.540498791451003e-06,0.4510585582008481,0.0001387450125505,0.4510585582008481,1.179952329403897e-05,0.4510585582008481,-1.703204483419599e-05
0.4518526753807791,-1.3515018718130709e-05,0.4518526753807791,3.2538227395001564e-05,0.4518526753807791,8.363437093956432e-06,0.4518526753807791,-1.4307590640934648e-05
0.4526467925607102,-1.6340506218682088e-05,0.4526467925607102,-3.835149402945667e-05,0.4526467925607102,8.342857661570782e-06,0.4526467925607102,-1.2253e-05
0.4534409097406413,-1.5571145806738496e-05,0.4534409097406413,-9.617560058119512e-05,0.4534409097406413,1.033593548315376e-05,0.4534409097406413,-1.2666408386523007e-05
0.4542350269205724,-1.2630307864537858e-05,0.4542350269205724,-0.0001358155897492,0.4542350269205724,1.0891392384239048e-05,0.4542350269205724,-1.4187976903940235e-05
0.4550291441005034,-7.396264899829359e-06,0.4550291441005034,-0.0001245358684553,0.4550291441005034,7.928841101469948e-06,0.4550291441005034,-1.1878315711973204e-05
0.4558232612804345,-4.37400968996904e-06,0.4558232612804345,-8.333232223001457e-05,0.4558232612804345,5.9339798966563465e-06,0.4558232612804345,-1.09102e-05
0.4566173784603656,-5.943988105542387e-06,0.4566173784603656,-5.936440628905936e-05,0.4566173784603656,5.3216285082804895e-06,0.4566173784603656,-1.0613933227645751e-05
0.4574114956402966,-6.605312414828347e-06,0.4574114956402966,-5.787849733123656e-05,0.4574114956402966,3.722276207414173e-06,0.4574114956402966,-1.0890331037070866e-05
0.4582056128202277,-9.96190963198614e-06,0.4582056128202277,-6.952389558766949e-05,0.4582056128202277,7.137870916934267e-06,0.4582056128202277,-1.3694425642474062e-05
0.4589997300001588,-9.23268251509328e-06,0.4589997300001588,-9.683825962481376e-05,0.4589997300001588,9.231320991645094e-06,0.4589997300001588,-1.4602510991645094e-05
0.4597938471800898,-5.313196743804337e-06,0.4597938471800898,-0.00010917109638,0.4597938471800898,2.56115092463906e-06,0.4597938471800898,-1.2748077437030384e-05
0.4605879643600209,-6.564039738269064e-06,0.4605879643600209,-0.0001040725808743,0.4605879643600209,-6.246261263017268e-06,0.4605879643600209,-1.0733419597063314e-05
0.461382081539952,-8.302696765427486e-06,0.461382081539952,-6.975084326649193e-05,0.461382081539952,-7.201830718620184e-06,0.461382081539952,-7.557043573020926e-06
0.4621761987198831,-9.586137737471867e-06,0.4621761987198831,7.091015252183246e-08,0.4621761987198831,-3.4277338431935062e-06,0.4621761987198831,-3.517207200710385e-06
0.4629703158998141,-9.212524817306429e-06,0.4629703158998141,5.9651058157708e-05,0.4629703158998141,-5.399952488291436e-06,0.4629703158998141,-4.412042956733931e-06
0.4637644330797452,-8.539946350819583e-06,0.4637644330797452,0.0001086770033475,0.4637644330797452,-7.127191484847159e-06,0.4637644330797452,-5.953554087704896e-06
0.4645585502596763,-1.0830932824066092e-05,0.4645585502596763,7.653728952310496e-05,0.4645585502596763,-1.3357997291564283e-05,0.4645585502596763,-5.578663292808456e-06
0.4653526674396073,-6.271060490458411e-06,0.4653526674396073,-1.5234672399325863e-05,0.4653526674396073,-1.209657506502836e-05,0.4653526674396073,-3.880742519508508e-06
0.4661467846195384,-7.631439018141582e-07,0.4661467846195384,-6.353254808101989e-05,0.4661467846195384,-1.594918138492701e-06,0.4661467846195384,-2.380472285771464e-06
0.4669409017994695,2.7951759091489284e-06,0.4669409017994695,-7.13363321550142e-05,0.4669409017994695,1.1731434090425594e-05,0.4669409017994695,-1.666010330402868e-06
0.4677350189794005,-2.054187699837451e-07,0.4677350189794005,-5.805468161764768e-05,0.4677350189794005,2.5024218448888776e-05,0.4677350189794005,-5.863285051096979e-06
0.4685291361593316,-4.314143397936024e-06,0.4685291361593316,-5.636718185441352e-05,0.4685291361593316,3.20592e-05,0.4685291361593316,-1.1501701436697636e-05
0.4693232533392627,-2.5275437973941743e-06,0.4693232533392627,-6.329600224600767e-05,0.4693232533392627,2.819854832993085e-05,0.4693232533392627,-1.42672e-05
0.4701173705191938,-2.0440048125194865e-06,0.4701173705191938,-3.87729579531826e-05,0.4701173705191938,2.2293667527913335e-05,0.4701173705191938,-1.6044766236043328e-05
0.4709114876991248,-6.249707439347219e-06,0.4709114876991248,1.1878962800066734e-05,0.4709114876991248,9.72608085170156e-06,0.4709114876991248,-1.8374678576798665e-05
0.4717056048790559,-7.51337679064179e-06,0.4717056048790559,5.2289958724203406e-05,0.4717056048790559,-8.372854102519689e-07,0.4717056048790559,-1.603483553765239e-05
0.472499722058987,-9.566609100445851e-06,0.472499722058987,4.549536978942328e-05,0.472499722058987,-1.2584094845456848e-05,0.472499722058987,-1.6616399183068123e-05
0.473293839238918,-9.143563051049514e-06,0.473293839238918,-2.6241457066576907e-05,0.473293839238918,-3.076706338740584e-05,0.473293839238918,-1.9005636338740583e-05
0.4740879564188491,-1.2660264292802493e-05,0.4740879564188491,-8.411479231072079e-05,0.4740879564188491,-3.5952867493867075e-05,0.4740879564188491,-1.800199249751913e-05
0.4748820735987802,-2.5282763547900348e-05,0.4748820735987802,-4.737213452581396e-05,0.4748820735987802,-2.912373525449925e-05,0.4748820735987802,-1.2128023441615089e-05
0.4756761907787112,-2.349476476011327e-05,0.4756761907787112,2.720270751025193e-05,0.4756761907787112,-1.9429020118506e-05,0.4756761907787112,-1.1007281497110494e-05
0.4764703079586423,-1.7072715646821394e-05,0.4764703079586423,9.829071745077428e-05,0.4764703079586423,-1.2303344524882416e-05,0.4764703079586423,-1.2253e-05
0.4772644251385734,-1.6795143266012458e-05,0.4772644251385734,0.0001508974259723,0.4772644251385734,-1.2352214899018685e-05,0.4772644251385734,-1.09102e-05
0.4780585423185045,-1.564964534915291e-05,0.4780585423185045,0.0001104492258148,0.4780585423185045,-8.42283615527677e-06,0.4780585423185045,-1.154195465084709e-05
0.4788526594984356,-1.2550975634681612e-05,0.4788526594984356,-2.4334152083213096e-05,0.4788526594984356,-2.756390480719024e-06,0.4788526594984356,-1.0594729718549531e-05
0.4796467766783666,-6.871753952746879e-07,0.4796467766783666,-0.0001649599468511,0.4796467766783666,1.1199519953136249e-05,0.4796467766783666,-1.0257808586630215e-05
0.4804408938582977,9.9031e-06,0.4804408938582977,-0.0002303962944586,0.4804408938582977,2.143338799999433e-05,0.4804408938582977,-1.3692878153016475e-05
0.4812350110382288,8.236089773076506e-06,0.4812350110382288,-0.00021438658727,0.4812350110382288,2.538272370014424e-05,0.4812350110382288,-1.501783453748197e-05
0.4820291282181598,9.981017927562616e-06,0.4820291282181598,-9.50608381612712e-05,0.4820291282181598,2.6925801287867303e-05,0.4820291282181598,-1.39514860822478e-05
0.4828232453980909,1.40302268731673e-05,0.4828232453980909,3.1106015457347204e-05,0.4828232453980909,2.109957317148743e-05,0.4828232453980909,-1.2450412358126628e-05
0.483617362578022,1.7496170672443107e-05,0.483617362578022,0.0001231001413953,0.483617362578022,1.0435192085810614e-05,0.483617362578022,-9.053787599694211e-06
0.484411479757953,1.2944660397704377e-05,0.484411479757953,0.0001692615086122,0.484411479757953,-6.623996752820887e-06,0.484411479757953,-1.3812551638027837e-05
0.4852055969378841,5.34282702244703e-06,0.4852055969378841,0.0001232745390029,0.4852055969378841,-1.8927142529340025e-05,0.4852055969378841,-1.6933900764873276e-05
0.4859997141178152,1.8469578367989835e-06,0.4859997141178152,3.9140150393046345e-05,0.4859997141178152,-1.628345945599661e-05,0.4859997141178152,-1.3093538677071853e-05
0.4867938312977463,1.17494e-06,0.4867938312977463,-5.197266181374856e-05,0.4867938312977463,-9.264375311864298e-06,0.4867938312977463,-1.4069146093133012e-05
0.4875879484776773,-6.771255489039314e-07,0.4875879484776773,-0.0001548193313857,0.4875879484776773,-2.937703059426318e-06,0.4875879484776773,-1.324223759186802e-05
0.4883820656576084,-1.0820344228617088e-05,0.4883820656576084,-0.0002181130756652,0.4883820656576084,3.86053e-06,0.4883820656576084,-1.2705795750058978e-05
0.4891761828375395,-2.400285109120893e-05,0.4891761828375395,-0.0002091595863602,0.4891761828375395,2.48033995497494e-06,0.4891761828375395,-1.442391896069964e-05
0.4899703000174705,-3.109042459969839e-05,0.4899703000174705,-9.44932753622912e-05,0.4899703000174705,-1.1941051286043344e-06,0.4899703000174705,-1.2293786252379812e-05
0.4907644171974016,-3.0421518829738743e-05,0.4907644171974016,2.233176369686553e-05,0.4907644171974016,-1.51064e-06,0.4907644171974016,-1.1955303816543915e-05
0.4915585343773327,-2.647127044554084e-05,0.4915585343773327,7.018461581216807e-05,0.4915585343773327,-2.7741263696394384e-06,0.4915585343773327,-1.7425915924098596e-05
0.4923526515572637,-2.418039113067088e-05,0.4923526515572637,0.0001629103079366,0.4923526515572637,-2.18204e-06,0.4923526515572637,-1.8098795890120853e-05
0.4931467687371948,-2.802651786300451e-05,0.4931467687371948,0.0002181763961081,0.4931467687371948,-7.62917850653947e-06,0.4931467687371948,-1.2295264912173552e-05
0.4939408859171259,-4.1033991145770544e-05,0.4939408859171259,8.473516215782698e-05,0.4939408859171259,-1.0199980783012551e-05,0.4939408859171259,-8.460394641563625e-06
0.494735003097057,-5.693409354517342e-05,0.494735003097057,-3.126655365800409e-05,0.494735003097057,-8.02865918870982e-06,0.494735003097057,-1.1619080294904054e-05
0.495529120276988,-6.997102650361628e-05,0.495529120276988,-7.903423718830932e-05,0.495529120276988,-1.3938476890762768e-06,0.495529120276988,-1.4918602476329996e-05
0.4963232374569191,-7.432756096960744e-05,0.4963232374569191,-0.0001169656243587,0.4963232374569191,4.650415469046175e-06,0.4963232374569191,-1.4207957265476911e-05
0.4971173546368502,-5.689903725834613e-05,0.4971173546368502,-0.0001169651524108,0.4971173546368502,8.758307230095858e-06,0.4971173546368502,-1.4820248719939417e-05
0.4979114718167812,-2.9040079384118968e-05,0.4979114718167812,-7.01509949413045e-05,0.4979114718167812,2.1375292347944136e-05,0.4979114718167812,-1.2016367933015775e-05
0.4987055889967123,3.013730072885429e-06,0.4987055889967123,-4.038671568022514e-05,0.4987055889967123,2.6983825330298877e-05,0.4987055889967123,-1.1304633773731833e-05
0.4994997061766434,4.244991922506487e-05,0.4994997061766434,-4.514769403261162e-05,0.4994997061766434,2.534668166417521e-05,0.4994997061766434,-1.2923976667378507e-05
0.5002938233565745,9.052771070326106e-05,0.5002938233565745,-4.833063853410011e-05,0.5002938233565745,2.1121297711730048e-05,0.5002938233565745,-1.531290194065842e-05
0.5010879405365055,0.000110277,0.5010879405365055,-4.559041182426754e-05,0.5010879405365055,2.2575313418096607e-05,0.5010879405365055,-1.3637972759711212e-05
0.5018820577164366,0.0001004638566106,0.5018820577164366,-4.041327624690893e-05,0.5018820577164366,3.480693098689687e-05,0.5018820577164366,-1.1854783285707934e-05
0.5026761748963677,7.276003549151424e-05,0.5026761748963677,-3.780559310136661e-05,0.5026761748963677,5.597638944850883e-05,0.5026761748963677,-1.5311669664277477e-05
0.5034702920762988,5.294715598573806e-05,0.5034702920762988,-4.0270538921261904e-05,0.5034702920762988,5.164065740224509e-05,0.5034702920762988,-1.5058572853932327e-05
0.5042644092562298,4.3595517264663406e-05,0.5042644092562298,-4.3770512703524665e-05,0.5042644092562298,2.26187739233977e-05,0.5042644092562298,-1.3003216925571572e-05
0.5050585264361609,2.542749734294702e-05,0.5050585264361609,-3.524603780457188e-05,0.5050585264361609,-5.890117696441195e-06,0.5050585264361609,-1.3102120024448584e-05
0.505852643616092,7.87242891025392e-07,0.505852643616092,-2.635753586066789e-05,0.505852643616092,-3.3592921189329244e-05,0.505852643616092,-7.515614691891859e-06
0.506646760796023,-2.097240558616724e-05,0.506646760796023,-1.043982402715741e-05,0.506646760796023,-4.347079259219794e-05,0.506646760796023,-6.2483748553582265e-06
0.507440877975954,-3.5590837481182564e-05,0.507440877975954,7.94868746672763e-06,0.507440877975954,-5.154327496236513e-05,0.507440877975954,-1.1084837481182564e-05
0.5082349951558852,-3.971977010547916e-05,0.5082349951558852,-1.08751054888004e-05,0.5082349951558852,-5.774950804219166e-05,0.5082349951558852,-1.3162137936712505e-05
0.5090291123358163,-4.6778790975720806e-05,0.5090291123358163,-2.9847363476944297e-05,0.5090291123358163,-5.12162351683753e-05,0.5090291123358163,-8.442487114711797e-06
0.5098232295157473,-4.925882986188029e-05,0.5098232295157473,-2.0658526492528947e-05,0.5098232295157473,-3.812166361326483e-05,0.5098232295157473,-7.434745972376058e-06
0.5106173466956784,-4.056941144061293e-05,0.5106173466956784,-2.4684545104355652e-05,0.5106173466956784,-2.149347303761879e-05,0.5106173466956784,-7.178063840299414e-06
0.5114114638756094,-2.0825311418266396e-05,0.5114114638756094,-3.808197478758728e-05,0.5114114638756094,-2.538929506258669e-06,0.5114114638756094,-1.0317561538250484e-05
0.5122055810555405,2.494412138688173e-06,0.5122055810555405,-4.0807993409075375e-05,0.5122055810555405,1.0710747719061264e-05,0.5122055810555405,-9.924178770261823e-06
0.5129996982354716,1.5270169653060885e-05,0.5129996982354716,-3.307059412668168e-05,0.5129996982354716,1.5273647838934514e-05,0.5129996982354716,-4.198403863742656e-06
0.5137938154154027,1.369999155029618e-05,0.5137938154154027,-2.6519897675703005e-05,0.5137938154154027,1.66171e-05,0.5137938154154027,-3.899117691823424e-06
0.5145879325953338,-5.921536074858811e-06,0.5145879325953338,-1.364141590292786e-05,0.5145879325953338,1.0305428915773584e-05,0.5145879325953338,-7.037461987516698e-06
0.5153820497752648,-1.7678704506589137e-05,0.5153820497752648,2.3535465410585807e-05,0.5153820497752648,2.9432490986821724e-06,0.5153820497752648,-7.951468007748362e-06
0.5161761669551959,-2.5613925593929007e-05,0.5161761669551959,5.389918734296272e-05,0.5161761669551959,2.211875893927847e-06,0.5161761669551959,-3.942530737456709e-06
0.5169702841351269,-3.9772528992146776e-05,0.5169702841351269,6.376938755611e-05,0.5169702841351269,4.925042965946932e-06,0.5169702841351269,-3.563113548942196e-06
0.5177644013150581,-4.4404221789187856e-05,0.5177644013150581,4.245914578428677e-05,0.5177644013150581,8.51939729121638e-06,0.5177644013150581,-6.919718496076891e-06
0.5185585184949891,-3.12520765876731e-05,0.5185585184949891,-1.533183313636329e-05,0.5185585184949891,1.357512415563408e-05,0.5185585184949891,-1.1442721475677453e-05
0.5193526356749202,-1.8990273423985628e-05,0.5193526356749202,-5.576783565644865e-05,0.5193526356749202,1.7702297807211923e-05,0.5193526356749202,-1.071344175423046e-05
0.5201467528548512,-4.59775706076987e-06,0.5201467528548512,-5.038813988090512e-05,0.5201467528548512,1.7250586020986284e-05,0.5201467528548512,-1.1855951972018289e-05
0.5209408700347823,5.28092314839854e-06,0.5209408700347823,-1.1604166271040758e-05,0.5209408700347823,1.409261411594031e-05,0.5209408700347823,-1.7088589020935315e-05
0.5217349872147133,5.263886137287172e-06,0.5217349872147133,-7.917695051942534e-06,0.5217349872147133,1.0733003399230625e-05,0.5217349872147133,-1.904625169961531e-05
0.5225291043946444,-2.055679540333731e-07,0.5225291043946444,-3.0401892285653397e-05,0.5225291043946444,1.1561579593485456e-05,0.5225291043946444,-1.76242e-05
0.5233232215745756,-8.876076686644852e-06,0.5233232215745756,1.3310283036177416e-05,0.5233232215745756,9.636560945457363e-06,0.5233232215745756,-1.7683431293100914e-05
0.5241173387545066,-1.782205728742908e-05,0.5241173387545066,3.637967268068647e-05,0.5241173387545066,9.725522658296562e-06,0.5241173387545066,-1.9441090536428783e-05
0.5249114559344377,-1.902613508469127e-05,0.5249114559344377,-1.9321179247707335e-05,0.5249114559344377,1.19173e-05,0.5249114559344377,-2.1770811361654705e-05
0.5257055731143687,-2.3822844509694072e-05,0.5257055731143687,-7.382759842032559e-05,0.5257055731143687,1.128580906778329e-05,0.5257055731143687,-2.1110301938988253e-05
0.5264996902942998,-2.9707515138136377e-05,0.5264996902942998,-0.0001213355686824,0.5264996902942998,9.903546215465903e-06,0.5264996902942998,-1.9638511520636253e-05
0.5272938074742308,-3.587591136912386e-05,0.5272938074742308,-0.000183797409875,0.5272938074742308,4.5757492835144194e-06,0.5272938074742308,-2.202679704634503e-05
0.528087924654162,-3.841972358707323e-05,0.528087924654162,-0.0001953556764265,0.528087924654162,1.5706694348292911e-06,0.528087924654162,-1.9482788304487877e-05
0.528882041834093,-3.461232338825693e-05,0.528882041834093,-9.599397187396488e-05,0.528882041834093,-2.416127143681556e-06,0.528882041834093,-1.8233003023516797e-05
0.5296761590140241,-2.7739830102801028e-05,0.5296761590140241,4.58206791599866e-05,0.5296761590140241,-3.6441850171335046e-06,0.5296761590140241,-2.210390508283392e-05
0.5304702761939551,-2.0283665564884536e-05,0.5304702761939551,0.0001276945268107,0.5304702761939551,-6.427027930333196e-07,0.5304702761939551,-2.1693463479423545e-05
0.5312643933738862,-1.584795809969224e-05,0.5312643933738862,0.0001494453649672,0.5312643933738862,-2.062276041547985e-06,0.5312643933738862,-1.83365561268054e-05
0.5320585105538173,-1.1434430307142452e-05,0.5320585105538173,8.857430760217951e-05,0.5320585105538173,-5.755646951383383e-06,0.5320585105538173,-1.5017982426525e-05
0.5328526277337483,-1.7612478520845615e-06,0.5328526277337483,7.989700128739973e-06,0.5328526277337483,-5.006591151398044e-06,0.5328526277337483,-1.118812937257098e-05
0.5336467449136795,9.345351700002556e-06,0.5336467449136795,-6.571391422828182e-05,0.5336467449136795,2.625483881408076e-07,0.5336467449136795,-6.408970467441649e-06
0.5344408620936105,2.0245592002885224e-05,0.5344408620936105,-0.000146409083392,0.5344408620936105,9.81951450345158e-06,0.5344408620936105,-7.947088095645618e-06
0.5352349792735416,2.6084272383406072e-05,0.5352349792735416,-0.0001485278321808,0.5352349792735416,1.5854781152351314e-05,0.5352349792735416,-9.40889515934729e-06
0.5360290964534726,1.5190186662782386e-05,0.5360290964534726,7.944337890383882e-06,0.5360290964534726,1.3695959239683162e-05,0.5360290964534726,-1.1225868152063367e-05
0.5368232136334037,-2.0715498734634106e-07,0.5368232136334037,0.0002124842201201,0.5368232136334037,7.148593873610586e-06,0.5368232136334037,-1.0673299474682169e-05
0.5376173308133347,-5.894680169857093e-06,0.5376173308133347,0.0002103542464397,0.5376173308133347,-1.0205264898621869e-08,0.5376173308133347,-1.0159865924225348e-05
0.5384114479932659,-5.470381405946492e-06,0.5384114479932659,6.089445605714367e-05,0.5384114479932659,-2.5768636186638784e-06,0.5384114479932659,-1.2253e-05
0.539205565173197,3.146756077180953e-06,0.539205565173197,-4.242752421677111e-05,0.539205565173197,-9.919403991633857e-06,0.539205565173197,-1.071301751121627e-05
0.539999682353128,1.694662163882639e-05,0.539999682353128,-0.0001005210428956,0.539999682353128,-2.164848108800662e-05,0.539999682353128,-1.225162702933554e-05
0.5407937995330591,2.7436500687069864e-05,0.5407937995330591,-0.0001371730324541,0.5407937995330591,-2.268161969294173e-05,0.5407937995330591,-1.3122499770976713e-05
0.5415879167129901,2.1267026113746715e-05,0.5415879167129901,-0.0001202140837646,0.5415879167129901,-2.1334606690500263e-05,0.5415879167129901,-1.0281097258734712e-05
0.5423820338929212,8.404275223493377e-06,0.5423820338929212,-7.86873056290008e-05,0.5423820338929212,-2.4814455076842715e-05,0.5423820338929212,-6.803802030737086e-06
0.5431761510728523,8.873612402206802e-06,0.5431761510728523,-9.783566430110389e-05,0.5431761510728523,-2.098489855949196e-05,0.5431761510728523,-7.866512402206801e-06
0.5439702682527834,1.0840638824252636e-05,0.5439702682527834,-9.379581992276008e-05,0.5439702682527834,-1.1707023408961117e-05,0.5439702682527834,-1.09102e-05
0.5447643854327144,7.013471181810719e-06,0.5447643854327144,-3.093055999175004e-05,0.5447643854327144,1.5263386372097194e-06,0.5447643854327144,-1.1482299290314845e-05
0.5455585026126455,-2.5358197483637392e-06,0.5455585026126455,2.2887983063082604e-05,0.5455585026126455,1.099775943712115e-05,0.5455585026126455,-1.2253e-05
0.5463526197925765,-9.94051611968065e-06,0.5463526197925765,4.398706757469e-05,0.5463526197925765,1.2242809818413512e-05,0.5463526197925765,-1.2253e-05
0.5471467369725076,-1.3425581615162124e-05,0.5471467369725076,2.4355017364882206e-05,0.5471467369725076,1.6810997896172778e-05,0.5471467369725076,-1.3633645182848974e-05
0.5479408541524387,-1.9554724776865016e-05,0.5479408541524387,-3.929951393265389e-05,0.5479408541524387,2.3686086965534732e-05,0.5479408541524387,-1.7424208758743146e-05
0.5487349713323698,-2.315382628207492e-05,0.5487349713323698,-8.178759713646997e-05,0.5487349713323698,2.169454465803508e-05,0.5487349713323698,-2.040771057688762e-05
0.5495290885123009,-1.624383138083217e-05,0.5495290885123009,-9.05285266747843e-05,0.5495290885123009,1.602587315743518e-05,0.5495290885123009,-1.770437315743518e-05
0.5503232056922319,-8.856775307997151e-06,0.5503232056922319,-0.0001115595650882,0.5503232056922319,1.2964000741606603e-05,0.5503232056922319,-1.5787659555036037e-05
0.551117322872163,-1.3918711410201344e-06,0.551117322872163,-0.0001136504928653,0.551117322872163,8.026897953195867e-06,0.551117322872163,-1.632087335874169e-05
0.551911440052094,6.505979002319652e-06,0.551911440052094,-6.166233907221656e-05,0.551911440052094,3.110502460681069e-06,0.551911440052094,-1.353668784736358e-05
0.5527055572320251,6.844418714135761e-06,0.5527055572320251,-4.278097577183363e-05,0.5527055572320251,-2.850887819998576e-06,0.5527055572320251,-1.4030085511378112e-05
0.5534996744119562,-2.848983587013311e-06,0.5534996744119562,-3.7769469553951016e-05,0.5534996744119562,-1.493297083425084e-05,0.5534996744119562,-1.309302095697726e-05
0.5542937915918873,-8.77496800270242e-06,0.5542937915918873,-1.0869434250037329e-05,0.5542937915918873,-2.642667877812867e-05,0.5542937915918873,-1.406908876299599e-05
0.5550879087718184,-1.4656057248368462e-05,0.5550879087718184,3.359778181137254e-05,0.5550879087718184,-2.625680946753682e-05,0.5550879087718184,-1.3044504733768407e-05
0.5558820259517494,-2.180860138798695e-05,0.5558820259517494,4.667533529335902e-05,0.5558820259517494,-2.006045122573301e-05,0.5558820259517494,-1.1729904183433223e-05
0.5566761431316805,-2.4375355250055e-05,0.5566761431316805,1.746796552382132e-05,0.5566761431316805,-1.0917812149813003e-05,0.5566761431316805,-1.0201544749945e-05
0.5574702603116115,-2.479388726815481e-05,0.5574702603116115,-1.8413553189798844e-05,0.5574702603116115,4.166215061029026e-06,0.5574702603116115,-6.035751094050175e-06
0.5582643774915427,-2.033032382909113e-05,0.5582643774915427,-4.384190609277616e-05,0.5582643774915427,2.2416691852979075e-05,0.5582643774915427,2.120466165570156e-06
0.5590584946714737,-1.93027e-05,0.5590584946714737,-5.680180050233408e-05,0.5590584946714737,3.606587269214471e-05,0.5590584946714737,5.20333e-06
0.5598526118514048,-1.6559421100789996e-05,0.5598526118514048,-7.572314234876695e-06,0.5598526118514048,3.5585677595734377e-05,0.5598526118514048,2.7550952751974984e-06
0.5606467290313358,-1.247049820253882e-05,0.5606467290313358,8.283124928334281e-05,0.5606467290313358,2.6792065848237565e-05,0.5606467290313358,2.2813364050776385e-06
0.5614408462112669,-1.343453109268974e-05,0.5614408462112669,9.328275908647592e-05,0.5614408462112669,1.763695013983134e-05,0.5614408462112669,-7.167405185237283e-07
0.5622349633911979,-1.7563555691256987e-05,0.5622349633911979,1.8618579362382563e-05,0.5622349633911979,1.4721791486119814e-05,0.5622349633911979,-6.63231817468889e-06
0.563029080571129,-1.906465844226605e-05,0.563029080571129,-3.331844831616132e-05,0.563029080571129,1.0734942547548834e-05,0.563029080571129,-8.540255269218872e-06
0.5638231977510602,-2.370586957161066e-05,0.5638231977510602,-8.053471267980895e-05,0.5638231977510602,-1.4309253041330102e-06,0.5638231977510602,-1.102862826193511e-05
0.5646173149309912,-3.0578350898935814e-05,0.5646173149309912,-0.0001064592201129,0.5646173149309912,-1.6301523882139274e-05,0.5646173149309912,-1.0989158183510696e-05
0.5654114321109223,-3.30663e-05,0.5654114321109223,-4.56293938107448e-05,0.5654114321109223,-2.2955144630440795e-05,0.5654114321109223,-9.310904850346862e-06
0.5662055492908533,-3.480341911345763e-05,0.5662055492908533,6.986746622769613e-06,0.5662055492908533,-2.4695102216355927e-05,0.5662055492908533,-8.797430221635593e-06
0.5669996664707844,-3.4074601349331224e-05,0.5669996664707844,-9.217795270374522e-06,0.5669996664707844,-1.4943885865484588e-05,0.5669996664707844,-9.902138927692302e-06
0.5677937836507154,-2.3556765630517345e-05,0.5677937836507154,-6.6479224421038e-05,0.5677937836507154,-6.568146509721063e-06,0.5677937836507154,-1.7382018375747898e-05
0.5685879008306466,-5.424032811784476e-06,0.5685879008306466,-9.257469054847247e-05,0.5685879008306466,-3.0936894370405926e-06,0.5685879008306466,-2.327093616708841e-05
0.5693820180105776,9.55132782087424e-06,0.5693820180105776,-0.0001003235329044,0.5693820180105776,-2.458436887050075e-07,0.5693820180105776,-2.2839321542359862e-05
0.5701761351905087,1.4088115987899869e-05,0.5701761351905087,-7.247703786786835e-05,0.5701761351905087,-3.047275479543321e-06,0.5701761351905087,-2.0548578682800176e-05
0.5709702523704397,1.2747003174342005e-05,0.5709702523704397,5.6906677393265775e-05,0.5709702523704397,-4.90581730263198e-06,0.5709702523704397,-1.6284153403835203e-05
0.5717643695503708,1.363518242607772e-05,0.5717643695503708,0.0001874870907449,0.5717643695503708,-7.868370941078076e-06,0.5717643695503708,-1.5253753288064134e-05
