X [s],R BICEPS BRACHII: EMG 1 [V],X [s].1,R DELTOID ANTERIOR: EMG 2 [V],X [s].5,R DELTOID MEDIUS: EMG 6 [V],X [s].6,R DELTOID POSTERIOR: EMG 7 [V]
0.0,-2.51774e-06,0.0,-6.86503e-05,0.0,5.20333e-06,0.0,-1.24208e-05
0.000794117179931,-2.3795106680836127e-06,0.000794117179931,-8.160437367550196e-05,0.000794117179931,3.1101490630731784e-06,0.000794117179931,-9.725383729031371e-06
0.0015882343598621,-1.5303893406136034e-06,0.0015882343598621,-9.0135e-05,0.0015882343598621,2.2709091081293614e-07,0.0015882343598621,-8.974997486718428e-06
0.0023823515397932,-7.237236521549344e-06,0.0023823515397932,-8.026146062000447e-05,0.0023823515397932,1.1354497197926094e-06,0.0023823515397932,-9.014481781724011e-06
0.0031764687197242,-1.1008933297915808e-05,0.0031764687197242,-1.381283066375378e-05,0.0031764687197242,9.875144202770524e-09,0.0031764687197242,-1.0732474973436856e-05
0.0039705858996553,-1.399071579972034e-05,0.0039705858996553,6.618159412714986e-05,0.0039705858996553,1.67849e-07,0.0039705858996553,-1.2805896499766948e-05
0.0047647030795864,-1.5017587486718428e-05,0.0047647030795864,4.4361948770146016e-05,0.0047647030795864,2.2708584538137282e-07,0.0047647030795864,-1.4010487486718428e-05
0.0055588202595174,-1.701196948390434e-05,0.0055588202595174,1.7485977098318576e-05,0.0055588202595174,1.1946915378071346e-06,0.0055588202595174,-1.5057024097325745e-05
0.0063529374394485,-2.070473319166323e-05,0.0063529374394485,2.1702028684512874e-05,0.0063529374394485,-1.1551927704269078e-06,0.0063529374394485,-1.52743e-05
0.0071470546193796,-3.0499097239782145e-05,0.0071470546193796,-6.407721120203161e-06,0.0071470546193796,-2.310384061080853e-06,0.0071470546193796,-1.5590267126702975e-05
0.0079411717993107,-3.86744709440131e-05,0.0079411717993107,-3.689713986621614e-05,0.0079411717993107,-3.2286310341966294e-06,0.0079411717993107,-1.3635291622394758e-05
0.0087352889792417,-3.247397783990728e-05,0.0087352889792417,-4.682992910129694e-05,0.0087352889792417,-3.3471240735669e-06,0.0087352889792417,-1.5294027146687272e-05
0.0095294061591728,-1.6577650796894352e-05,0.0095294061591728,-4.300893052296404e-05,0.0095294061591728,-4.19623e-06,0.0095294061591728,-1.430670010625258e-05
0.0103235233391039,-1.9058583962874664e-06,0.0103235233391039,-2.9590656401808992e-05,0.0103235233391039,-1.0960739745788392e-06,0.0103235233391039,-1.4504096283026298e-05
0.0111176405190349,4.591198728840231e-06,0.0111176405190349,-1.1028421856525785e-05,0.0111176405190349,-4.9378539242837765e-08,0.0111176405190349,-1.620241930070911e-05
0.011911757698966,5.499566961841824e-06,0.011911757698966,7.217488807775175e-06,0.011911757698966,-1.2342329300528851e-06,0.011911757698966,-1.3279723850237314e-05
0.0127058748788971,1.905932864667273e-06,0.0127058748788971,1.1324896466847431e-05,0.0127058748788971,4.243999268548446e-07,0.0127058748788971,-1.3891926080638666e-05
0.0134999920588282,-4.53187273161263e-06,0.0134999920588282,-2.181855157602144e-06,0.0134999920588282,3.524801365891612e-06,0.0134999920588282,-1.3931511453711593e-05
0.0142941092387592,-8.50126404072785e-06,0.0142941092387592,-3.211796166341399e-05,0.0142941092387592,4.8084494109687404e-06,0.0142941092387592,-1.2450440294515627e-05
0.0150882264186903,-2.074329174267845e-05,0.0150882264186903,-5.537996982866086e-05,0.0150882264186903,6.26973336732826e-06,0.0150882264186903,-9.07394421855661e-06
0.0158823435986214,-2.990695324879377e-05,0.0158823435986214,-7.378408166279108e-05,0.0158823435986214,5.341504959751326e-06,0.0158823435986214,-7.651916063817474e-06
0.0166764607785524,-1.598492334486861e-05,0.0166764607785524,-5.368388265698604e-05,0.0166764607785524,6.792966713297752e-06,0.0166764607785524,-8.807156713297752e-06
0.0174705779584835,1.5865973895277403e-05,0.0174705779584835,2.598179317927109e-06,0.0174705779584835,7.0102224857136654e-06,0.0174705779584835,-1.0949647514286331e-05
0.0182646951384146,4.382768203965594e-05,0.0182646951384146,6.527728986990444e-06,0.0182646951384146,3.544678277310905e-06,0.0182646951384146,-1.06733094438295e-05
0.0190588123183456,5.848058016307259e-05,0.0190588123183456,-2.506932368334884e-05,0.0190588123183456,2.833689098321481e-06,0.0190588123183456,-1.0850947294964445e-05
0.0198529294982767,6.631060515227388e-05,0.0198529294982767,-2.68463179341821e-05,0.0198529294982767,-1.284590079829974e-07,0.0198529294982767,-1.1147130644161073e-05
0.0206470466782078,7.648926654723668e-05,0.0206470466782078,-2.504905300268675e-05,0.0206470466782078,-5.630619246801243e-07,0.0206470466782078,-1.012035185848685e-05
0.0214411638581389,8.474416627888887e-05,0.0214411638581389,-2.923531624490459e-05,0.0214411638581389,6.072056623273312e-06,0.0214411638581389,-1.0298001163333388e-05
0.0222352810380699,8.391476139858178e-05,0.0222352810380699,-3.136807066040167e-05,0.0222352810380699,1.000186025484402e-05,0.0222352810380699,-1.1117578586061994e-05
0.023029398218001,8.590921283365304e-05,0.023029398218001,-3.3343043035349456e-05,0.023029398218001,1.0179577344340206e-05,0.023029398218001,-1.02388e-05
0.0238235153979321,8.332266152928988e-05,0.0238235153979321,-2.7833346862423447e-05,0.0238235153979321,8.323438388422623e-06,0.0238235153979321,-1.1700036687801554e-05
0.0246176325778631,7.173089406553351e-05,0.0246176325778631,-2.7260683126320143e-05,0.0246176325778631,6.032704306004966e-06,0.0246176325778631,-1.1068184306004963e-05
0.0254117497577942,3.54640244152943e-05,0.0254117497577942,-3.662062990869949e-05,0.0254117497577942,9.024582679716566e-06,0.0254117497577942,-8.89601e-06
0.0262058669377253,-3.839367245268639e-06,0.0262058669377253,-4.218947815142237e-05,0.0262058669377253,1.25887e-05,0.0262058669377253,-8.461607033309574e-06
0.0269999841176564,-2.568051057721773e-05,0.0269999841176564,-3.2059477264973337e-05,0.0269999841176564,1.1917322907423188e-05,0.0269999841176564,-8.22461e-06
0.0277941012975874,-4.1024534265954976e-05,0.0277941012975874,-1.9836024728920027e-05,0.0277941012975874,8.046846429672199e-06,0.0277941012975874,-1.0712748251772774e-05
0.0285882184775185,-4.517093794740036e-05,0.0285882184775185,-1.1275749249563643e-05,0.0285882184775185,8.165285178960146e-06,0.0285882184775185,-9.84378106255891e-06
0.0293823356574496,-4.971286584539027e-05,0.0293823356574496,-7.069338025650724e-06,0.0293823356574496,6.783316315987951e-06,0.0293823356574496,-1.300334633815611e-05
0.0301764528373806,-5.1194e-05,0.0301764528373806,-1.9301883053693472e-05,0.0301764528373806,4.838010586765673e-07,0.0301764528373806,-1.2489965005295857e-05
0.0309705700173117,-5.703888614124091e-05,0.0309705700173117,-3.873407131753299e-05,0.0309705700173117,-2.557164611783118e-06,0.0309705700173117,-9.725399140654248e-06
0.0317646871972428,-6.499689660646621e-05,0.0317646871972428,-4.23478639827159e-05,0.0317646871972428,-2.537608832529184e-06,0.0317646871972428,-1.02388e-05
0.0325588043771738,-6.888721685732842e-05,0.0325588043771738,-3.1644359193764715e-05,0.0325588043771738,-2.142526742931364e-06,0.0325588043771738,-1.02388e-05
0.0333529215571049,-7.044727104893633e-05,0.0333529215571049,-2.264023914636733e-05,0.0333529215571049,-3.722349333329709e-06,0.0333529215571049,-1.2490055827289022e-05
0.034147038737036,-6.584697181838833e-05,0.034147038737036,-1.80191300460035e-05,0.034147038737036,-3.9593451706853e-06,0.034147038737036,-1.472134241465735e-05
0.0349411559169671,-4.997043114801729e-05,0.0349411559169671,-2.208642438034236e-05,0.0349411559169671,-2.1425840114893336e-06,0.0349411559169671,-1.4859688022978669e-05
0.0357352730968981,-3.022266563669404e-05,0.0357352730968981,-2.856395313757653e-05,0.0357352730968981,-1.7673535738533112e-06,0.0357352730968981,-1.2825659278440066e-05
0.0365293902768292,-1.2569322405487535e-05,0.0365293902768292,-2.03109835465216e-05,0.0365293902768292,-2.18204e-06,0.0365293902768292,-1.4987901793974162e-05
0.0373235074567603,2.793738345009384e-06,0.0373235074567603,-7.88902965555407e-06,0.0373235074567603,-1.609490942904196e-06,0.0373235074567603,-1.639982523408996e-05
0.0381176246366913,7.513718196642962e-06,0.0381176246366913,-8.767649487398323e-06,0.0381176246366913,8.884574629578437e-08,0.0381176246366913,-1.813759278657185e-05
0.0389117418166224,-2.964522122200189e-07,0.0389117418166224,-1.1117473231014768e-05,0.0389117418166224,8.294027344057169e-07,0.0389117418166224,-1.683426489503624e-05
0.0397058589965535,-4.76893276016537e-06,0.0397058589965535,-2.1059847482801654e-05,0.0397058589965535,2.32034552033074e-06,0.0397058589965535,-1.49386e-05
0.0404999761764846,-4.196247180567392e-06,0.0404999761764846,-3.440869950614957e-05,0.0404999761764846,3.357753121438371e-07,0.0404999761764846,-1.4267234361134783e-05
0.0412940933564156,-7.632223335250005e-06,0.0412940933564156,-4.307779133044582e-05,0.0412940933564156,-4.798545933795891e-06,0.0412940933564156,-1.4049948904847585e-05
0.0420882105363467,-1.0120133334266462e-05,0.0420882105363467,-3.437099853128216e-05,0.0420882105363467,-5.835301322294227e-06,0.0420882105363467,-1.3319436274751449e-05
0.0428823277162778,-1.4108876748889366e-05,0.0428823277162778,-1.1594759325745331e-08,0.0428823277162778,-4.788695115555482e-06,0.0428823277162778,-1.3674734884444518e-05
0.0436764448962088,-2.1830159954270386e-05,0.0436764448962088,1.3971382788774698e-05,0.0436764448962088,-3.366879169660582e-06,0.0436764448962088,-1.4820106043640474e-05
0.0444705620761399,-2.3449597863400106e-05,0.0444705620761399,2.7150318673457063e-06,0.0444705620761399,-1.51064e-06,0.0444705620761399,-1.596540085463996e-05
0.045264679256071,-2.913551401536905e-05,0.045264679256071,-1.2301483980145844e-05,0.045264679256071,-2.53763173995238e-06,0.045264679256071,-1.6202447934988094e-05
0.046058796436002,-4.846836109286553e-05,0.046058796436002,-3.240485943674611e-05,0.046058796436002,-1.51064e-06,0.046058796436002,-1.626163764460989e-05
0.0468529136159331,-5.940883224207866e-05,0.0468529136159331,-5.241864798018564e-05,0.0468529136159331,-4.828169345247198e-06,0.0468529136159331,-1.6399876775792133e-05
0.0476470307958642,-6.075203312198444e-05,0.0476470307958642,-2.623413816326989e-05,0.0476470307958642,-4.591540025639022e-06,0.0476470307958642,-1.3991106497587552e-05
0.0484411479757953,-4.882564797019218e-05,0.0484411479757953,1.6379461360825693e-05,0.0484411479757953,9.773015192986615e-07,0.0484411479757953,-9.922822267399534e-06
0.0492352651557263,-1.416872697953961e-05,0.0492352651557263,7.375852337523378e-06,0.0492352651557263,3.702548047052913e-06,0.0492352651557263,-1.2549170622977655e-05
0.0500293823356574,2.1355549131305865e-05,0.0500293823356574,-5.421297970344839e-06,0.0500293823356574,1.5304210134011869e-06,0.0500293823356574,-1.3141702533502969e-05
0.0508234995155885,3.8536372439243256e-05,0.0508234995155885,9.744685105133911e-06,0.0508234995155885,1.6095138501908963e-06,0.0508234995155885,-1.0298006890189185e-05
0.0516176166955195,2.9433203315746466e-05,0.0516176166955195,9.81457940992433e-06,0.0516176166955195,-8.883429263537475e-08,0.0516176166955195,-1.2203514468180068e-05
0.0524117338754506,4.077405999041883e-06,0.0524117338754506,-1.6468056943974396e-05,0.0524117338754506,1.0859366600226673e-07,0.0524117338754506,-1.5728512197540585e-05
0.0532058510553817,-1.793894145170561e-05,0.0532058510553817,-3.727188135302205e-05,0.0532058510553817,4.639208930514414e-07,0.0532058510553817,-1.541261697404233e-05
0.0539999682353128,-2.9708933481229023e-05,0.0539999682353128,-5.0857827628756026e-05,0.0539999682353128,2.5176483703072563e-06,0.0539999682353128,-1.3595891629692745e-05
0.0547940854152438,-3.829924008262196e-05,0.0547940854152438,-4.803481553136304e-05,0.0547940854152438,7.010203026607642e-07,0.0547940854152438,-1.2351737327825202e-05
0.0555882025951749,-4.430201565401043e-05,0.0555882025951749,-4.155783464098088e-05,0.0555882025951749,6.417233125564725e-07,0.0555882025951749,-1.01599757087546e-05
0.056382319775106,-4.811323200756526e-05,0.056382319775106,-3.3619907455103266e-05,0.056382319775106,1.826609142316768e-06,0.056382319775106,-1.122589372293172e-05
0.057176436955037,-4.82517689352489e-05,0.057176436955037,-2.078437517771402e-05,0.057176436955037,7.109310555850079e-07,0.057176436955037,-1.48397716525865e-05
0.0579705541349681,-2.428055493602087e-05,0.0579705541349681,-1.0357274929858958e-05,0.0579705541349681,-1.7474066772521297e-06,0.0579705541349681,-1.458321059661164e-05
0.0587646713148992,1.1598657421673618e-05,0.0587646713148992,-1.1106801053525126e-05,0.0587646713148992,-4.324606830921944e-06,0.0587646713148992,-1.2351860985531669e-05
0.0595587884948302,4.509102944733659e-05,0.0595587884948302,-2.5404361522701108e-05,0.0595587884948302,-2.932511740122073e-06,0.0595587884948302,-1.2213463835508188e-05
0.0603529056747613,5.6555293893109234e-05,0.0603529056747613,-3.506060026977958e-05,0.0603529056747613,-3.050903518824513e-06,0.0603529056747613,-1.2253e-05
0.0611470228546924,4.311938972381555e-05,0.0611470228546924,-3.634430372172622e-05,0.0611470228546924,-3.0511096840978267e-06,0.0611470228546924,-1.2746735919176988e-05
0.0619411400346235,2.044937339072784e-05,0.0619411400346235,-4.053021990726927e-05,0.0619411400346235,4.835715842170903e-07,0.0619411400346235,-9.62681902700943e-06
0.0627352572145545,-2.438415971102372e-06,0.0627352572145545,-4.31373e-05,0.0627352572145545,4.39364507407876e-06,0.0627352572145545,-9.172420600708572e-06
0.0635293743944856,-1.7742182888819473e-05,0.0635293743944856,-4.088622925951914e-05,0.0635293743944856,5.73656340218523e-06,0.0635293743944856,-1.09102e-05
0.0643234915744167,-2.652990349000016e-05,0.0643234915744167,-4.430206908851032e-05,0.0643234915744167,2.735037673333226e-06,0.0643234915744167,-8.777607673333227e-06
0.0651176087543477,-2.6470839771205905e-05,0.0651176087543477,-3.867496674335496e-05,0.0651176087543477,3.366778148766182e-06,0.0651176087543477,-8.816983485862729e-06
0.0659117259342788,-1.8650967728400455e-05,0.0659117259342788,-1.3004551935739105e-05,0.0659117259342788,4.334457677470656e-06,0.0659117259342788,-1.0702879071771e-05
0.0667058431142099,-7.770826650717395e-06,0.0667058431142099,-2.577807100656496e-05,0.0667058431142099,3.86053e-06,0.0667058431142099,-9.893402688271066e-06
0.067499960294141,-8.396755119670461e-07,0.067499960294141,-6.562707186571275e-05,0.067499960294141,1.1751690733789068e-06,0.067499960294141,-9.231695682860508e-06
0.068294077474072,7.09897144536725e-06,0.068294077474072,-4.2350258496603374e-05,0.068294077474072,3.060627730602832e-07,0.068294077474072,-1.3200827781275978e-05
0.0690881946540031,9.09353959108732e-06,0.0690881946540031,-1.3455218466381166e-05,0.0690881946540031,3.208587928673947e-06,0.0690881946540031,-9.133444960477464e-06
0.0698823118339342,7.89862077296322e-06,0.0698823118339342,-6.278075821124179e-05,0.0698823118339342,4.413562034468001e-06,0.0698823118339342,-9.468444755729222e-06
0.0706764290138652,1.3654766854958218e-05,0.0706764290138652,-9.740379172834024e-05,0.0706764290138652,2.6955135304541693e-06,0.0706764290138652,-1.0416575295674065e-05
0.0714705461937963,2.5364337614415597e-05,0.0714705461937963,-4.621847733731624e-05,0.0714705461937963,4.127063464102563e-06,0.0714705461937963,-1.1976333856410254e-05
0.0722646633737274,3.132879694349846e-05,0.0722646633737274,6.610413055798775e-05,0.0722646633737274,4.56143152825077e-06,0.0722646633737274,-1.2608637554798769e-05
0.0730587805536585,2.6885738091017044e-05,0.0730587805536585,0.0001588238554992,0.0730587805536585,6.309062257176179e-06,0.0730587805536585,-1.1897526190898296e-05
0.0738528977335895,1.87103587540447e-05,0.0738528977335895,0.0001642110264151,0.0738528977335895,4.512211732683669e-06,0.0738528977335895,-1.2253e-05
0.0746470149135206,1.458332429773012e-05,0.0746470149135206,9.078890462897412e-05,0.0746470149135206,3.18914e-06,0.0746470149135206,-1.0732579787416458e-05
0.0754411320934517,6.665619565360204e-06,0.0754411320934517,2.5242473294733893e-06,0.0754411320934517,4.94647266759614e-06,0.0754411320934517,-1.0989043254751744e-05
0.0762352492733827,-5.262381426229241e-06,0.0762352492733827,-4.90601043534178e-05,0.0762352492733827,7.493894319828696e-06,0.0762352492733827,-1.3793178359715552e-05
0.0770293664533138,-3.166198320185429e-07,0.0770293664533138,-7.153180707111658e-05,0.0770293664533138,3.841208779353895e-06,0.0770293664533138,-1.6597296084095617e-05
0.0778234836332449,1.819510895271477e-05,0.0778234836332449,-7.80499e-05,0.0778234836332449,-2.063649127044824e-06,0.0778234836332449,-1.69528e-05
0.078617600813176,3.83280389085128e-05,0.078617600813176,-6.914422100378645e-05,0.078617600813176,8.587904830272412e-07,0.078617600813176,-1.69528e-05
0.079411717993107,4.2841092865604535e-05,0.079411717993107,-6.91832916798979e-05,0.079411717993107,9.380137050689664e-07,0.079411717993107,-1.4889229730639044e-05
0.0802058351730381,3.103367857758626e-05,0.0802058351730381,-5.003126649503575e-05,0.0802058351730381,-2.379400118534479e-06,0.0802058351730381,-1.205563988146552e-05
0.0809999523529692,1.5275330823807847e-05,0.0809999523529692,6.2066615357684e-06,0.0809999523529692,-1.846443083404352e-06,0.0809999523529692,-1.15816e-05
0.0817940695329002,-6.53573834183966e-06,0.0817940695329002,2.424036009570282e-05,0.0817940695329002,-1.67849e-07,0.0817940695329002,-1.3200804873852824e-05
0.0825881867128313,-2.1601820085628863e-05,0.0825881867128313,-9.683280010160471e-06,0.0825881867128313,-2.865897412037508e-07,0.0825881867128313,-1.3319470635886215e-05
0.0833823038927624,-3.379650261654868e-05,0.0833823038927624,-4.274018737305511e-05,0.0833823038927624,1.8362910466194704e-06,0.0833823038927624,-1.1008819778316248e-05
0.0841764210726934,-3.454751326997723e-05,0.0841764210726934,-6.26078e-05,0.0841764210726934,3.7123713685226055e-06,0.0841764210726934,-1.2716966617432513e-05
0.0849705382526245,-3.551453250442582e-05,0.0849705382526245,-5.609155550427215e-05,0.0849705382526245,3.307819040704889e-06,0.0849705382526245,-1.0604347415483596e-05
0.0857646554325556,-4.035280465333356e-05,0.0857646554325556,-4.526979429394809e-05,0.0857646554325556,2.0042097688890382e-06,0.0857646554325556,-8.481375115555482e-06
0.0865587726124866,-3.954349767978752e-05,0.0865587726124866,-4.795535721129825e-05,0.0865587726124866,2.51774e-06,0.0865587726124866,-1.075196430154271e-05
0.0873528897924177,-3.282950934539286e-05,0.0873528897924177,-5.360289899185904e-05,0.0873528897924177,2.280752087280952e-06,0.0873528897924177,-1.3694512087280952e-05
0.0881470069723488,-2.246349823216376e-05,0.0881470069723488,-5.103629821020306e-05,0.0881470069723488,3.544394994162827e-06,0.0881470069723488,-1.2668002463829149e-05
0.0889411241522799,-1.1542189826335703e-05,0.0889411241522799,-3.178525425685317e-05,0.0889411241522799,3.840824913167853e-06,0.0889411241522799,-9.587114499847136e-06
0.0897352413322109,-1.3990487997161516e-05,0.0897352413322109,-1.0693808488785198e-05,0.0897352413322109,3.0114563135700846e-06,0.0897352413322109,-1.0929862665720506e-05
0.090529358512142,-1.9598769265688e-05,0.090529358512142,2.887925976278333e-08,0.090529358512142,3.6629622444010474e-06,0.090529358512142,-1.1068142316421998e-05
0.0913234756920731,-2.3587197096217988e-05,0.0913234756920731,2.4091718668269985e-06,0.0913234756920731,4.472740290378201e-06,0.0913234756920731,-1.3101969128865397e-05
0.0921175928720041,-2.9314052892197767e-05,0.0921175928720041,-9.902314534364187e-06,0.0921175928720041,3.751967066170335e-06,0.0921175928720041,-1.185827297546156e-05
0.0929117100519352,-3.2236865212906536e-05,0.0929117100519352,-2.4041206006764265e-05,0.0929117100519352,3.465614144427901e-06,0.0929117100519352,-9.271218696773366e-06
0.0937058272318663,-3.294830534070848e-05,0.0937058272318663,-1.963888816326841e-05,0.0937058272318663,1.9256963570197675e-06,0.0937058272318663,-1.0495145994468642e-05
0.0944999444117974,-2.635286123186802e-05,0.0944999444117974,-1.3596123475802204e-05,0.0944999444117974,-1.6776882437710266e-07,0.0944999444117974,-1.292427973602828e-05
0.0952940615917284,-1.3912271726600015e-05,0.0952940615917284,-1.0317472626863218e-05,0.0952940615917284,1.6388925572398053e-06,0.0952940615917284,-1.35958e-05
0.0960881787716595,3.690304476836988e-06,0.0960881787716595,-2.2658322257493296e-05,0.0960881787716595,2.241422089597824e-06,0.0960881787716595,-1.3062558955201089e-05
0.0968822959515906,2.000299534481948e-05,0.0968822959515906,-4.031172307648514e-05,0.0968822959515906,2.300373604397206e-06,0.0968822959515906,-1.4188310930401862e-05
0.0976764131315216,2.6490271029573515e-05,0.0976764131315216,-5.873643658183436e-05,0.0976764131315216,2.636279771205886e-06,0.0976764131315216,-1.3042939771205884e-05
0.0984705303114527,2.5049592177381963e-05,0.0984705303114527,-6.45232939693579e-05,0.0984705303114527,-2.0715892361874507e-07,0.0984705303114527,-1.1305232651694264e-05
0.0992646474913838,1.6282404320991795e-05,0.0992646474913838,-4.252920622007743e-05,0.0992646474913838,-2.339898315177436e-06,0.0992646474913838,-1.0396658315177434e-05
0.1000587646713148,7.808661979815403e-06,0.1000587646713148,-1.0754932938661183e-06,0.1000587646713148,-3.643556902545261e-06,0.1000587646713148,-1.122625052688676e-05
0.1008528818512459,1.3724188849383635e-06,0.1008528818512459,2.277663369257723e-05,0.1008528818512459,-4.630664569734504e-06,0.1008528818512459,-1.075224171981189e-05
0.101646999031177,-7.650663745185655e-06,0.101646999031177,2.123668073920044e-05,0.101646999031177,-5.519533367079401e-06,0.101646999031177,-1.162058031956297e-05
0.1024411162111081,-1.4146837704857789e-05,0.1024411162111081,1.6221706830238544e-05,0.1024411162111081,-2.0254314598766173e-06,0.1024411162111081,-1.3744023845012928e-05
0.1032352333910391,-1.942057949700207e-05,0.1032352333910391,9.609267553392906e-06,0.1032352333910391,1.0167931692630387e-06,0.1032352333910391,-1.4582753613396752e-05
0.1040293505709702,-2.506918852665634e-05,0.1040293505709702,-7.369095643295694e-06,0.1040293505709702,3.288155264414781e-06,0.1040293505709702,-1.5451982861213063e-05
0.1048234677509013,-2.880026545941998e-05,0.1048234677509013,-1.9574903782639608e-05,0.1048234677509013,6.902570041175802e-06,0.1048234677509013,-1.3753274094564986e-05
0.1056175849308323,-2.502735752360457e-05,0.1056175849308323,-3.0220532978520376e-05,0.1056175849308323,7.967478338578792e-06,0.1056175849308323,-1.2776147935727403e-05
0.1064117021107634,-2.4990376328852635e-05,0.1064117021107634,-4.681540015453624e-05,0.1064117021107634,7.355624734229473e-06,0.1064117021107634,-1.0869833139606313e-05
0.1072058192906945,-2.58584264958478e-05,0.1072058192906945,-5.967877738201873e-05,0.1072058192906945,7.019970598339121e-06,0.1072058192906945,-5.9534747373677e-06
0.1079999364706256,-2.165301187756639e-05,0.1079999364706256,-7.670553851162904e-05,0.1079999364706256,4.867858827080766e-06,0.1079999364706256,-5.538892702933566e-06
0.1087940536505566,-1.2492062864795802e-05,0.1087940536505566,-6.423012518610478e-05,0.1087940536505566,1.8670020582653796e-06,0.1087940536505566,-7.404920356425393e-06
0.1095881708304877,-4.158904051098774e-06,0.1095881708304877,1.0488351827196446e-05,0.1095881708304877,-2.61473993688085e-06,0.1095881708304877,-7.82924190081972e-06
0.1103822880104188,-8.39246e-07,0.1103822880104188,4.430236316085813e-05,0.1103822880104188,-4.750052676789697e-06,0.1103822880104188,-8.89601e-06
0.1111764051903498,-1.944040397361976e-06,0.1111764051903498,1.366505237304866e-05,0.1111764051903498,-5.241529167386864e-06,0.1111764051903498,-9.448409666954746e-06
0.1119705223702809,-4.256167675679677e-07,0.1119705223702809,-1.542371251733794e-05,0.1119705223702809,-5.144877311166995e-06,0.1119705223702809,-1.0396908670164562e-05
0.112764639550212,3.544601048005998e-06,0.112764639550212,-3.555580580020136e-05,0.112764639550212,-1.7476363381597202e-06,0.112764639550212,-9.9031e-06
0.1135587567301431,-9.585944564834066e-07,0.1135587567301431,-5.355838139681547e-05,0.1135587567301431,-4.93714058396812e-07,0.1135587567301431,-1.2115324817555369e-05
0.1143528739100741,-7.039732577722097e-06,0.1143528739100741,-4.95005060482353e-05,0.1143528739100741,-3.050879737007505e-06,0.1143528739100741,-1.5807446207414174e-05
0.1151469910900052,-1.4620819738269064e-05,0.1151469910900052,-3.6658858037967006e-05,0.1151469910900052,-2.17230351962982e-06,0.1151469910900052,-1.4465036052346189e-05
0.1159411082699363,-2.855920139328108e-05,0.1159411082699363,-2.4897705025906568e-05,0.1159411082699363,-9.175273381093644e-07,0.1159411082699363,-1.3121558547827796e-05
0.1167352254498673,-4.479322120830332e-05,0.1167352254498673,-1.820654862534337e-05,0.1167352254498673,-3.208512042548096e-06,0.1167352254498673,-1.4622279686871051e-05
0.1175293426297984,-6.462314114534439e-05,0.1175293426297984,-2.9938304330013305e-05,0.1175293426297984,-2.576766198468399e-06,0.1175293426297984,-1.7426834254227493e-05
0.1183234598097295,-7.648745628349149e-05,0.1183234598097295,-3.136993141344314e-05,0.1183234598097295,-1.0768565960213144e-06,0.1183234598097295,-1.6932082513396594e-05
0.1191175769896605,-5.544771272740319e-05,0.1191175769896605,-1.4783966578761722e-05,0.1191175769896605,-1.5892198046061889e-06,0.1191175769896605,-1.4385069706909284e-05
0.1199116941695916,-2.2081900491587425e-06,0.1199116941695916,5.44592827532715e-06,0.1199116941695916,1.4320110667327832e-06,0.1199116941695916,-1.6005179065513638e-05
0.1207058113495227,6.225552252079386e-05,0.1207058113495227,1.092265676946161e-05,0.1207058113495227,2.043877935633462e-06,0.1207058113495227,-1.6242006903450194e-05
0.1214999285294538,0.0001030561940755,0.1214999285294538,8.404017109558243e-07,0.1214999285294538,3.860324055934042e-06,0.1214999285294538,-1.762409702720017e-05
0.1222940457093848,9.833443863856556e-05,0.1222940457093848,-1.2534557474026772e-05,0.1222940457093848,5.775850783190126e-06,0.1222940457093848,-1.5196132972380616e-05
0.1230881628893159,7.107125564148567e-05,0.1230881628893159,-2.658238954982172e-05,0.1230881628893159,5.686351344457781e-06,0.1230881628893159,-1.0753560473051034e-05
0.123882280069247,3.765569508840079e-05,0.123882280069247,-3.693666900862682e-05,0.123882280069247,6.330594273003158e-06,0.123882280069247,-9.469443229859018e-06
0.124676397249178,9.952537226082482e-06,0.124676397249178,-3.1089313644643724e-05,0.124676397249178,3.456914719960571e-06,0.124676397249178,-7.76148883272684e-06
0.1254705144291091,-4.01629916597092e-06,0.1254705144291091,-2.5701246856347155e-05,0.1254705144291091,5.755552755612459e-06,0.1254705144291091,-1.0000460801234127e-05
0.1262646316090402,-1.0673087124144156e-05,0.1262646316090402,-3.0243200019315657e-05,0.1262646316090402,6.644888683552759e-06,0.1262646316090402,-1.0722693614890594e-05
0.1270587487889713,-2.0271701291818572e-05,0.1270587487889713,-4.808473443406961e-05,0.1270587487889713,2.2404354144357643e-06,0.1270587487889713,-1.14635588887271e-05
0.1278528659689023,-3.194050473911703e-05,0.1278528659689023,-6.902402900162748e-05,0.1278528659689023,3.949450905800826e-07,0.1278528659689023,-1.734764655071868e-05
0.1286469831488334,-4.051976279854397e-05,0.1286469831488334,-5.336158917895538e-05,0.1286469831488334,-1.2438669812801598e-06,0.1286469831488334,-1.6301663470954756e-05
0.1294411003287645,-4.469521157855642e-05,0.1294411003287645,-1.6557447843336526e-05,0.1294411003287645,-1.2140693779193494e-06,0.1294411003287645,-1.35958e-05
0.1302352175086955,-4.996899940704667e-05,0.1302352175086955,-3.61966980418534e-05,0.1302352175086955,-1.5897257989933329e-06,0.1302352175086955,-1.4622256804026667e-05
0.1310293346886266,-5.154938860527053e-05,0.1310293346886266,-5.892509469979265e-05,0.1310293346886266,3.061657387177087e-07,0.1310293346886266,-1.448427151317634e-05
0.1318234518685577,-4.99699943874456e-05,0.1318234518685577,-5.066778754621191e-05,0.1318234518685577,3.169781214953589e-06,0.1318234518685577,-1.189661683766322e-05
0.1326175690484888,-5.230102618809913e-05,0.1326175690484888,-9.10407372733618e-06,0.1326175690484888,3.712327817658406e-06,0.1326175690484888,-9.646000100075529e-06
0.1334116862284198,-4.858512400513768e-05,0.1334116862284198,5.553663321671259e-05,0.1334116862284198,1.934579101412863e-06,0.1334116862284198,-1.0298267599486233e-05
0.1342058034083509,-3.152502354709107e-05,0.1342058034083509,7.551118934549983e-05,0.1342058034083509,6.908635359873061e-08,0.1342058034083509,-1.043632646960605e-05
0.134999920588282,-5.877637542212611e-06,0.134999920588282,3.1393706961844266e-05,0.134999920588282,8.390743795189996e-07,0.134999920588282,-1.1245842792888982e-05
0.135794037768213,2.797410313064927e-05,0.135794037768213,-1.8978966730498787e-05,0.135794037768213,1.6095178950771344e-06,0.135794037768213,-1.2627766314768595e-05
0.1365881549481441,5.112655543937962e-05,0.1365881549481441,-3.993422708626262e-05,0.1365881549481441,8.000968678540293e-07,0.1365881549481441,-1.3319796920034465e-05
0.1373822721280752,7.605047880738947e-05,0.1373822721280752,-4.5743769094767926e-05,0.1373822721280752,4.251864000573911e-07,0.1373822721280752,-1.3159485850256112e-05
0.1381763893080062,0.0001003540527784,0.1381763893080062,-2.944236588411097e-05,0.1381763893080062,3.8452531593881893e-07,0.1381763893080062,-1.714810713644132e-05
0.1389705064879373,0.0001019670815964,0.1389705064879373,1.6206132016074837e-06,0.1389705064879373,3.583214040640637e-06,0.1389705064879373,-1.778232011158676e-05
0.1397646236678684,6.87901941107383e-05,0.1397646236678684,-4.217291294040516e-06,0.1397646236678684,5.124358615228686e-06,0.1397646236678684,-1.4978228921829483e-05
0.1405587408477994,1.443855296579237e-05,0.1405587408477994,-3.2048760305453384e-05,0.1405587408477994,5.183650650766217e-06,0.1405587408477994,-1.245032195494231e-05
0.1413528580277305,-2.0723738646567804e-05,0.1413528580277305,-4.542584369732146e-05,0.1413528580277305,4.768929828347747e-06,0.1413528580277305,-1.5807400343304507e-05
0.1421469752076616,-3.446741568797451e-05,0.1421469752076616,-5.287352102621241e-05,0.1421469752076616,3.623774484576439e-06,0.1421469752076616,-1.3230909787755503e-05
0.1429410923875927,-3.819959477972973e-05,0.1429410923875927,-6.027667087471403e-05,0.1429410923875927,2.4981810440540537e-06,0.1429410923875927,-1.19173e-05
0.1437352095675237,-4.157655936206894e-05,0.1437352095675237,-3.524918318285708e-05,0.1437352095675237,1.4122145591133103e-06,0.1437352095675237,-1.2430516960591129e-05
0.1445293267474548,-4.5645099976653625e-05,0.1445293267474548,1.1655053139366504e-05,0.1445293267474548,-3.801435153339205e-06,0.1445293267474548,-1.35958e-05
0.1453234439273859,-4.323543410795323e-05,0.1453234439273859,1.2881972547567576e-05,0.1453234439273859,-5.360855580964921e-06,0.1453234439273859,-1.5057382946023386e-05
0.146117561107317,-4.18338013683305e-05,0.146117561107317,-3.3256791300286548e-06,0.146117561107317,-3.049945670923637e-06,0.146117561107317,-1.442440547332201e-05
0.146911678287248,-4.119214039440812e-05,0.146911678287248,-8.778334295553309e-06,0.146911678287248,-7.203330300815255e-07,0.146911678287248,-1.06723813517194e-05
0.1477057954671791,-3.7765722469581605e-05,0.1477057954671791,-2.8507294411884103e-05,0.1477057954671791,1.0851975794553313e-07,0.1477057954671791,-8.066718314424606e-06
0.1484999126471102,-2.6353684412086263e-05,0.1484999126471102,-6.411421889348341e-05,0.1484999126471102,-1.1748770733026122e-06,0.1484999126471102,-1.15810965792977e-05
0.1492940298270412,-1.5177938049453712e-05,0.1492940298270412,-7.883892492352843e-05,0.1492940298270412,2.595838231454858e-06,0.1492940298270412,-1.3398032743818285e-05
0.1500881470069723,-9.87523555842032e-06,0.1500881470069723,-5.362763437549054e-05,0.1500881470069723,2.262313061670132e-06,0.1500881470069723,-1.2441394122166657e-05
0.1508822641869034,-7.374219801144137e-06,0.1508822641869034,-6.04382510704473e-07,0.1508822641869034,3.424190285202085e-06,0.1508822641869034,-1.0465457028184654e-05
0.1516763813668344,-8.974584007016092e-06,0.1516763813668344,4.505579525640195e-05,0.1516763813668344,5.755687115620164e-06,0.1516763813668344,-1.118638267134406e-05
0.1524704985467655,-6.13263194805122e-06,0.1524704985467655,4.253414465787904e-05,0.1524704985467655,5.361455832297854e-06,0.1524704985467655,-1.2114322503106438e-05
0.1532646157266966,8.979906116102266e-07,0.1532646157266966,1.6201389057710188e-05,0.1532646157266966,4.482528496090286e-06,0.1532646157266966,-1.2065466273073207e-05
0.1540587329066277,1.2550384610075864e-05,0.1540587329066277,-1.912755533750463e-05,0.1540587329066277,6.447695175151645e-06,0.1540587329066277,-1.1226214917752508e-05
0.1548528500865587,1.9776326586561693e-05,0.1548528500865587,-5.813559578826858e-05,0.1548528500865587,9.192069646980294e-06,0.1548528500865587,-1.0584440820253016e-05
0.1556469672664898,2.0311580867948165e-05,0.1556469672664898,-7.508850026267369e-05,0.1556469672664898,9.607169056496954e-06,0.1556469672664898,-1.0120426212127672e-05
0.1564410844464209,6.03773853360615e-06,0.1564410844464209,-5.908764399008503e-05,0.1564410844464209,7.849804136596699e-06,0.1564410844464209,-8.935116445864515e-06
0.157235201626352,-6.544263981500717e-06,0.157235201626352,-2.537506990137636e-05,0.157235201626352,5.03640418734378e-06,0.157235201626352,-1.2646635471201844e-05
0.158029318806283,-1.3516954047540192e-05,0.158029318806283,1.9429071148524457e-05,0.158029318806283,1.84634e-06,0.158029318806283,-1.5985122976229904e-05
0.1588234359862141,-1.716182902760731e-05,0.1588234359862141,5.053185096236307e-05,0.1588234359862141,2.636511504601218e-06,0.1588234359862141,-1.3655185752300608e-05
0.1596175531661451,-2.507164578366272e-05,0.1596175531661451,3.5127384913319857e-05,0.1596175531661451,2.0035684053769147e-06,0.1596175531661451,-1.437604520248192e-05
0.1604116703460762,-3.460840200688258e-05,0.1604116703460762,-9.71790997082137e-06,0.1604116703460762,1.3821314994264515e-06,0.1604116703460762,-1.6933561668578494e-05
0.1612057875260073,-4.484557886380791e-05,0.1612057875260073,-4.717120842543324e-05,0.1612057875260073,-7.800786061565227e-07,0.1612057875260073,-1.8344961176051683e-05
0.1619999047059384,-4.58231089286242e-05,0.1619999047059384,-5.72363534472718e-05,0.1619999047059384,-4.195749462312348e-06,0.1619999047059384,-1.695310890817484e-05
0.1627940218858694,-4.104503616662731e-05,0.1627940218858694,-4.273848577880876e-05,0.1627940218858694,-4.118166166627308e-06,0.1627940218858694,-1.314300424994096e-05
0.1635881390658005,-3.8754649630223145e-05,0.1635881390658005,-3.9659040324242136e-05,0.1635881390658005,1.490061148326252e-06,0.1635881390658005,-1.1285064558345336e-05
0.1643822562457316,-3.151634522052668e-05,0.1643822562457316,-4.649382474593671e-05,0.1643822562457316,-5.203735310165306e-07,0.1643822562457316,-1.2409678036061071e-05
0.1651763734256627,-9.067505092387662e-06,0.1651763734256627,-6.134855382014617e-05,0.1651763734256627,-3.741485674368408e-06,0.1651763734256627,-1.35958e-05
0.1659704906055937,2.1328374795544416e-05,0.1659704906055937,-7.504533227007603e-05,0.1659704906055937,-2.4594246075518438e-06,0.1659704906055937,-1.616214223495511e-05
0.1667646077855248,4.48942554592999e-05,0.1667646077855248,-5.553700487842878e-05,0.1667646077855248,7.799059200431517e-07,0.1667646077855248,-1.427733235532639e-05
0.1675587249654559,4.76194448915672e-05,0.1675587249654559,-6.741078853290056e-06,0.1675587249654559,1.8364945923694004e-06,0.1675587249654559,-1.2213618369477602e-05
0.1683528421453869,3.1724486926843874e-05,0.1683528421453869,-1.089808186619738e-05,0.1683528421453869,2.320385520805162e-06,0.1683528421453869,-1.4701577239597418e-05
0.169146959325318,1.3283397351396167e-05,0.169146959325318,-3.2731446384696475e-05,0.169146959325318,4.841435984275796e-07,0.169146959325318,-1.458349583542408e-05
0.1699410765052491,-2.7327612245231723e-06,0.1699410765052491,-1.849027490386885e-05,0.1699410765052491,-4.6445319485003197e-07,0.1699410765052491,-1.245012414633e-05
0.1707351936851801,-6.338718519436678e-06,0.1707351936851801,-1.09102e-05,0.1707351936851801,-6.0193829479941e-07,0.1707351936851801,-1.3950788155493422e-05
0.1715293108651112,8.197280506719642e-07,0.1715293108651112,-1.938273138538378e-05,0.1715293108651112,-3.169412364221121e-06,0.1715293108651112,-1.3141557323842846e-05
0.1723234280450423,9.154108547052685e-06,0.1723234280450423,-1.9324744899064828e-05,0.1723234280450423,-1.4306819014842068e-06,0.1723234280450423,-1.0672681642484228e-05
0.1731175452249733,1.5473945987704968e-05,0.1731175452249733,-2.35058727208812e-05,0.1731175452249733,3.467403764347582e-06,0.1731175452249733,-7.789095835077085e-06
0.1739116624049044,2.475501908972993e-05,0.1739116624049044,-3.883628737787895e-05,0.1739116624049044,8.798041035189972e-06,0.1739116624049044,-8.284043201403998e-06
0.1747057795848355,3.766753657219041e-05,0.1747057795848355,-4.586347316663366e-05,0.1747057795848355,1.21542539642381e-05,0.1747057795848355,-9.01448698211905e-06
0.1754998967647666,4.112317436924431e-05,0.1754998967647666,-3.5082503221024936e-05,0.1754998967647666,1.1246048738488624e-05,0.1754998967647666,-5.87538932098345e-06
0.1762940139446976,3.0187019982095735e-05,0.1762940139446976,-1.264070249488034e-05,0.1762940139446976,9.577854613160602e-06,0.1762940139446976,-5.242344717645221e-06
0.1770881311246287,1.1769138693374294e-05,0.1770881311246287,9.816392571916742e-06,0.1770881311246287,8.02898155328439e-06,0.1770881311246287,-7.3256386818833e-06
0.1778822483045598,-1.2750885805771264e-05,0.1778822483045598,1.93027e-05,0.1778822483045598,2.047777021241691e-06,0.1778822483045598,-8.854042986532523e-06
0.1786763654844909,-3.828719165671868e-05,0.1786763654844909,8.22046711806151e-06,0.1786763654844909,-2.062982459843746e-06,0.1786763654844909,-1.370168555062212e-05
0.1794704826644219,-5.592991725187869e-05,0.1794704826644219,-3.4738122996564814e-06,0.1794704826644219,-2.97135425265222e-06,0.1794704826644219,-1.561e-05
0.180264599844353,-5.980405777361997e-05,0.180264599844353,-4.551980358340517e-06,0.180264599844353,-3.2090154613759795e-06,0.180264599844353,-1.6518262667914007e-05
0.181058717024284,-5.344455857929891e-05,0.181058717024284,-3.596984709823326e-05,0.181058717024284,-3.4460443936310257e-06,0.181058717024284,-1.697249654827491e-05
0.1818528342042151,-5.176673422642999e-05,0.1818528342042151,-6.13894525340496e-05,0.1818528342042151,-4.86763e-06,0.1818528342042151,-1.508686177491856e-05
0.1826469513841462,-4.9377750712620274e-05,0.1826469513841462,-2.6466225718911725e-05,0.1826469513841462,-2.834053034465207e-06,0.1826469513841462,-1.251011424436165e-05
0.1834410685640773,-4.736450770166611e-05,0.1834410685640773,1.088988021530848e-05,0.1834410685640773,-3.2086811747851834e-06,0.1834410685640773,-9.72548912154758e-06
0.1842351857440083,-4.207238061676194e-05,0.1842351857440083,-9.004849411718004e-06,0.1842351857440083,-1.985289734497364e-06,0.1842351857440083,-1.0593767629178125e-05
0.1850293029239394,-3.995801718547966e-05,0.1850293029239394,-2.647086414560014e-05,0.1850293029239394,-1.1552088053978751e-06,0.1850293029239394,-1.2253e-05
0.1858234201038705,-3.7172356891216025e-05,0.1858234201038705,-2.0177288474778983e-05,0.1858234201038705,-1.6887629326351928e-06,0.1858234201038705,-1.0494581592522971e-05
0.1866175372838016,-2.937061564531768e-05,0.1866175372838016,-6.962333206811024e-06,0.1866175372838016,-1.0358381341134136e-06,0.1866175372838016,-7.967547134743257e-06
0.1874116544637326,-1.248686183483873e-05,0.1874116544637326,-6.092651838739235e-06,0.1874116544637326,2.122618264623436e-06,0.1874116544637326,-9.488686718022616e-06
0.1882057716436637,6.151337317143502e-06,0.1882057716436637,-1.917547361347808e-05,0.1882057716436637,-1.135465143449216e-06,0.1882057716436637,-1.075227635299037e-05
0.1889998888235948,2.366421723523974e-05,0.1889998888235948,-3.440694266362871e-05,0.1889998888235948,-2.181959910044585e-06,0.1889998888235948,-1.292407964017834e-05
0.1897940060035258,3.547328924728441e-05,0.1897940060035258,-5.23153791159968e-05,0.1897940060035258,-1.7084416542639365e-06,0.1897940060035258,-1.4168299172868032e-05
0.1905881231834569,3.2320927841441166e-05,0.1905881231834569,-6.450509418859545e-05,0.1905881231834569,-1.1152007497502903e-06,0.1905881231834569,-1.0891706960360291e-05
0.191382240363388,1.8955990882315338e-05,0.191382240363388,-5.846164780389864e-05,0.191382240363388,-2.892598042987872e-06,0.191382240363388,-1.02388e-05
0.192176357543319,4.065629666747325e-06,0.192176357543319,-3.680749968931982e-05,0.192176357543319,-2.912974490789247e-06,0.192176357543319,-9.686477208135218e-06
0.1929704747232501,-1.1349829131827292e-05,0.1929704747232501,1.4952566799704328e-05,0.1929704747232501,-4.453043135755778e-07,0.1929704747232501,-9.251124011137668e-06
0.1937645919031812,-2.8187672044201823e-05,0.1937645919031812,4.177465804254883e-05,0.1937645919031812,1.2538885019268987e-06,0.1937645919031812,-9.85368040113277e-06
0.1945587090831123,-3.8250325393250953e-05,0.1945587090831123,1.4144760117373468e-05,0.1945587090831123,5.626543743446972e-07,0.1945587090831123,-1.1186793156134153e-05
0.1953528262630433,-3.0598565539658995e-05,0.1953528262630433,-1.6984166294857772e-05,0.1953528262630433,-4.836792266229377e-07,0.1953528262630433,-1.1463077153771312e-05
0.1961469434429744,-2.485240387818149e-05,0.1961469434429744,-3.393607941724437e-05,0.1961469434429744,-1.51064e-06,0.1961469434429744,-1.3378456588831217e-05
0.1969410606229055,-1.999722361774188e-05,0.1969410606229055,-3.5406041861703895e-05,0.1969410606229055,-8.00174126802399e-07,0.1969410606229055,-1.35958e-05
0.1977351778028366,-1.0063481291728304e-05,0.1977351778028366,-3.388617242362146e-05,0.1977351778028366,1.628241774527634e-06,0.1977351778028366,-1.4622142389804667e-05
0.1985292949827676,-9.861723235821874e-09,0.1985292949827676,-2.8562360809215623e-05,0.1985292949827676,3.228626330664026e-06,0.1985292949827676,-1.547176871857233e-05
0.1993234121626987,1.0062868493840816e-05,0.1993234121626987,-1.8083681886263623e-05,0.1993234121626987,2.51774e-06,0.1993234121626987,-1.2272387367088484e-05
0.2001175293426297,1.9266262593063947e-05,0.2001175293426297,-9.90410415433401e-06,0.2001175293426297,4.295985369099969e-06,0.2001175293426297,-1.2322495106096591e-05
0.2009116465225608,3.808535025230837e-05,0.2009116465225608,-1.233346819391631e-05,0.2009116465225608,7.336334653826842e-06,0.2009116465225608,-1.2864989730650854e-05
0.2017057637024919,6.02381333828316e-05,0.2017057637024919,-2.8259528753403995e-05,0.2017057637024919,7.730940092482374e-06,0.2017057637024919,-1.2766385699845224e-05
0.202499880882423,6.831417097222902e-05,0.202499880882423,-3.642252952272433e-05,0.202499880882423,5.874891621333078e-06,0.202499880882423,-1.393141418933346e-05
0.203293998062354,5.137960176670112e-05,0.203293998062354,-3.476484893846729e-05,0.203293998062354,1.0079970145549843e-05,0.203293998062354,-1.1660981131755337e-05
0.2040881152422851,1.9692718465030627e-05,0.2040881152422851,-3.3581866676915173e-05,0.2040881152422851,8.523379470867888e-06,0.2040881152422851,-1.165981862474276e-05
0.2048822324222162,-9.860670457741716e-06,0.2048822324222162,-3.0262377270612885e-05,0.2048822324222162,4.414473070077571e-06,0.2048822324222162,-1.2429179563440394e-05
0.2056763496021472,-2.595199392913085e-05,0.2056763496021472,-3.1981888310793614e-05,0.2056763496021472,2.1440392838879857e-06,0.2056763496021472,-1.5006360180180055e-05
0.2064704667820783,-2.1064619483566173e-05,0.2064704667820783,-4.1197011700118514e-05,0.2064704667820783,3.5233706323040456e-06,0.2064704667820783,-1.3487595342921952e-05
0.2072645839620094,-5.717613271026533e-06,0.2072645839620094,-4.667191523726337e-05,0.2072645839620094,6.21042e-06,0.2072645839620094,-1.25887e-05
0.2080587011419405,1.6886767074826583e-06,0.2080587011419405,-4.86849689745137e-05,0.2080587011419405,3.998485513043923e-06,0.2080587011419405,-1.2904691985697696e-05
0.2088528183218715,5.489309186470712e-06,0.2088528183218715,-4.172550294395679e-05,0.2088528183218715,-1.253700281497856e-06,0.2088528183218715,-1.1927210522807496e-05
0.2096469355018026,8.362313423270057e-06,0.2096469355018026,-3.205508052854324e-06,0.2096469355018026,-7.112225079067484e-07,0.2096469355018026,-1.2233647432547455e-05
0.2104410526817337,1.0336451454387214e-05,0.2104410526817337,3.0222363603288388e-05,0.2104410526817337,-8.001855927785447e-07,0.2104410526817337,-1.0219269709122555e-05
0.2112351698616647,1.3456779260440262e-05,0.2112351698616647,2.3511852887827887e-05,0.2112351698616647,1.8847816064772632e-06,0.2112351698616647,-1.0929419506960176e-05
0.2120292870415958,8.639338426675986e-06,0.2120292870415958,3.115190808854697e-05,0.2120292870415958,3.613694313450936e-06,0.2120292870415958,-1.3398314119294386e-05
0.2128234042215269,8.184691725234258e-06,0.2128234042215269,2.5235109207376183e-05,0.2128234042215269,3.1400139705814526e-06,0.2128234042215269,-1.29244e-05
0.2136175214014579,1.8828782580172751e-06,0.2136175214014579,-1.376006015151327e-06,0.2136175214014579,3.840864983300478e-06,0.2136175214014579,-1.351713993320191e-05
0.214411638581389,-1.2413191477103436e-05,0.214411638581389,-2.2337416613570973e-05,0.214411638581389,6.191071123603751e-06,0.214411638581389,-1.2134202393356458e-05
0.2152057557613201,-2.720123626490248e-05,0.2152057557613201,-3.65500530554549e-05,0.2152057557613201,5.302106665578301e-06,0.2152057557613201,-9.764864732457437e-06
0.2159998729412512,-4.380604559004894e-05,0.2159998729412512,-5.857561954931628e-05,0.2159998729412512,1.8467976541615309e-06,0.2159998729412512,-1.1916842343111889e-05
0.2167939901211822,-5.5032074188274655e-05,0.2167939901211822,-7.48932866543696e-05,0.2167939901211822,3.938459187492732e-06,0.2167939901211822,-1.215408770684062e-05
0.2175881073011133,-5.822526429049738e-05,0.2175881073011133,-7.734883496066508e-05,0.2175881073011133,5.20333e-06,0.2175881073011133,-1.1770135552520323e-05
0.2183822244810444,-4.986302804452326e-05,0.2183822244810444,-4.938107177036832e-05,0.2183822244810444,5.125036846079091e-06,0.2183822244810444,-1.0848526038723184e-05
0.2191763416609755,-2.9286445424034534e-05,0.2191763416609755,1.1302720591584852e-05,0.2191763416609755,3.7034677966343056e-06,0.2191763416609755,-1.4029016271154258e-05
0.2199704588409065,-9.434703377903574e-06,0.2199704588409065,8.643266739958558e-05,0.2199704588409065,-4.8477589680067894e-08,0.2199704588409065,-1.5787545564146627e-05
0.2207645760208376,1.0170677601239924e-06,0.2207645760208376,8.923770246744734e-05,0.2207645760208376,-1.8363641210094123e-06,0.2207645760208376,-1.3951451757981176e-05
0.2215586932007686,-1.3923582207953886e-06,0.2215586932007686,7.703016630690061e-06,0.2215586932007686,-2.191896873658017e-06,0.2215586932007686,-1.2608413747316034e-05
0.2223528103806997,-8.569411098111275e-06,0.2223528103806997,-5.8250703827013394e-05,0.2223528103806997,-5.134987621922453e-07,0.2223528103806997,-1.268733137548779e-05
0.2231469275606308,-1.6141386596449643e-05,0.2231469275606308,-7.571986402392119e-05,0.2231469275606308,-1.2932851228038188e-06,0.2231469275606308,-1.4168190245607635e-05
0.2239410447405619,-2.378384734718229e-05,0.2239410447405619,-6.714808207216958e-05,0.2239410447405619,-8.39246e-07,0.2239410447405619,-1.2807252652817704e-05
0.2247351619204929,-2.56809e-05,0.2247351619204929,-5.71011575134641e-05,0.2247351619204929,-5.826733725629737e-07,0.2247351619204929,-9.883911018843827e-06
0.225529279100424,-2.6470728261935124e-05,0.225529279100424,-5.310959747210927e-05,0.225529279100424,4.640084334319939e-07,0.225529279100424,-1.1186593914322147e-05
0.2263233962803551,-2.7003257107529462e-05,0.2263233962803551,-5.502355030110778e-05,0.2263233962803551,-6.621609035695734e-07,0.2263233962803551,-1.3506755436079752e-05
0.2271175134602862,-2.53452e-05,0.2271175134602862,-5.494619010166445e-05,0.2271175134602862,-1.8856757664127509e-06,0.2271175134602862,-1.2054969323676916e-05
0.2279116306402172,-2.8761587337294317e-05,0.2279116306402172,-5.202254827096837e-05,0.2279116306402172,-9.773998620707815e-07,0.2279116306402172,-1.1680342411674091e-05
0.2287057478201483,-2.4140822115142272e-05,0.2287057478201483,-5.612761162280915e-05,0.2287057478201483,1.2736631037070869e-06,0.2287057478201483,-1.2647892414828346e-05
0.2294998650000794,-2.098139450417745e-05,0.2294998650000794,-4.246991672885155e-05,0.2294998650000794,5.038397539485844e-07,0.2294998650000794,-1.6783976119642067e-05
0.2302939821800104,-2.29953e-05,0.2302939821800104,1.9339442967672785e-05,0.2302939821800104,1.6485039476538129e-06,0.2302939821800104,-1.6440290130865467e-05
0.2310880993599415,-1.731146309335806e-05,0.2310880993599415,4.365230688762899e-05,0.2310880993599415,7.125694823268437e-08,0.2310880993599415,-1.2786438591113171e-05
0.2318822165398726,-1.306439578026627e-05,0.2318822165398726,2.7194385451416774e-06,0.2318822165398726,-2.9317205219463984e-06,0.2318822165398726,-1.3002681687893491e-05
0.2326763337198036,-7.16324289885166e-06,0.2326763337198036,-2.388620766498685e-05,0.2326763337198036,-2.558319011274388e-06,0.2326763337198036,-1.3181536349156369e-05
0.2334704508997347,4.370646604547736e-06,0.2334704508997347,-3.6081471554912125e-05,0.2334704508997347,1.213703142825393e-06,0.2334704508997347,-1.1897920313128936e-05
0.2342645680796658,1.2233025359174428e-05,0.2342645680796658,-5.012745023025272e-05,0.2342645680796658,7.408206877554095e-07,0.2342645680796658,-1.0752337320412786e-05
0.2350586852595969,1.2628138960659443e-05,0.2350586852595969,-5.597134124976931e-05,0.2350586852595969,-1.4613417103653344e-06,0.2350586852595969,-1.0396837322766278e-05
0.2358528024395279,1.4088899547301874e-05,0.2358528024395279,-5.964472176251967e-05,0.2358528024395279,1.1351036126244906e-06,0.2358528024395279,-1.1897379864190562e-05
0.236646919619459,2.5973102914122723e-05,0.236646919619459,-6.542213947675512e-05,0.236646919619459,3.879848169370292e-06,0.236646919619459,-1.1838829761500192e-05
0.2374410367993901,4.003404472305034e-05,0.2374410367993901,-7.692487323461024e-05,0.2374410367993901,6.259217062125066e-06,0.2374410367993901,-9.45029763233639e-06
0.2382351539793211,4.311812625872857e-05,0.2382351539793211,-7.408374251359125e-05,0.2382351539793211,7.177954217658928e-06,0.2382351539793211,-7.55322e-06
0.2390292711592522,2.597793026512857e-05,0.2390292711592522,-3.98317334832136e-05,0.2390292711592522,9.36988508963808e-06,0.2390292711592522,-1.2312059248435127e-05
0.2398233883391833,2.7513942309408817e-06,0.2398233883391833,4.338062305904027e-05,0.2398233883391833,1.05745e-05,0.2398233883391833,-1.549129714393203e-05
0.2406175055191144,-1.561519253527395e-05,0.2406175055191144,0.0001274224258442,0.2406175055191144,7.907291150989334e-06,0.2406175055191144,-1.3753165997705763e-05
0.2414116226990454,-3.855854155407135e-05,0.2414116226990454,0.0001501857260714,0.2414116226990454,3.662992064366544e-06,0.2414116226990454,-1.2134248257466174e-05
0.2422057398789765,-4.720548199255802e-05,0.2422057398789765,8.00625880799754e-05,0.2422057398789765,2.626420517226487e-06,0.2422057398789765,-1.1107634741386756e-05
0.2429998570589076,-2.5014854585591184e-05,0.2429998570589076,-1.6648526238310856e-06,0.2429998570589076,8.395034301591331e-07,0.2429998570589076,-1.191719702720017e-05
0.2437939742388386,2.175636921601746e-06,0.2437939742388386,-4.535854025630809e-05,0.2437939742388386,1.2892080416510697e-07,0.2437939742388386,-9.459566823909434e-06
0.2445880914187697,1.3416434055238768e-05,0.2445880914187697,-7.08202100467207e-05,0.2445880914187697,-1.312895675873128e-06,0.2445880914187697,-1.059287837936564e-05
0.2453822085987008,1.09945756675571e-05,0.2453822085987008,-6.86121922598213e-05,0.2453822085987008,-4.644130056445961e-07,0.2453822085987008,-1.1651568051548991e-05
0.2461763257786318,3.508567561720267e-06,0.2461763257786318,-5.172356186641695e-05,0.2461763257786318,-7.201317849701837e-07,0.2461763257786318,-9.805637720409664e-06
0.2469704429585629,-5.0225753866400014e-06,0.2469704429585629,-3.3242534111464296e-05,0.2469704429585629,1.2136802601173489e-06,0.2469704429585629,-9.251078245448876e-06
0.247764560138494,-1.2154076857247496e-05,0.247764560138494,-1.869083195399028e-05,0.247764560138494,1.6884887618350032e-06,0.247764560138494,-9.932571696630312e-06
0.2485586773184251,-1.1818441184624758e-05,0.2485586773184251,-1.580583444000689e-05,0.2485586773184251,2.2702411120419785e-07,0.2485586773184251,-1.1838399146626276e-05
0.2493527944983561,-1.4977396438881267e-05,0.2493527944983561,-2.681786863954973e-05,0.2493527944983561,-1.1550054901903255e-06,0.2493527944983561,-1.2687308443432956e-05
0.2501469116782872,-1.932200097032917e-05,0.2501469116782872,-5.03162945088026e-05,0.2501469116782872,-2.2013409703291665e-06,0.2501469116782872,-1.3832467313552778e-05
0.2509410288582183,-2.177943219060697e-05,0.2509410288582183,-6.375102104912735e-05,0.2509410288582183,-2.775387632654885e-06,0.2509410288582183,-1.4958113091836278e-05
0.2517351460381494,-2.4732531288029463e-05,0.2517351460381494,-2.0134122453469823e-05,0.2517351460381494,-2.793453573033836e-06,0.2517351460381494,-1.45046118561797e-05
0.2525292632180804,-2.1415804942544447e-05,0.2525292632180804,2.556236153697572e-05,0.2525292632180804,-4.452952894517586e-06,0.2525292632180804,-1.35958e-05
0.2533233803980115,-1.7347845707322875e-05,0.2533233803980115,4.88077256572497e-07,0.2533233803980115,-3.573990353173944e-06,0.2533233803980115,-1.4020509721885818e-05
0.2541174975779426,-1.88096110702394e-05,0.2541174975779426,-3.126537237788689e-05,0.2541174975779426,-2.280408081100375e-06,0.2541174975779426,-1.4879573290864284e-05
0.2549116147578736,-1.4582413568562924e-05,0.2549116147578736,-3.677865380690137e-05,0.2549116147578736,-4.9120720033979445e-08,0.2549116147578736,-1.6676464405239512e-05
0.2557057319378047,-9.883521476714092e-06,0.2557057319378047,-3.799980889250552e-05,0.2557057319378047,9.77519077018085e-07,0.2557057319378047,-1.517558836232033e-05
0.2564998491177358,-6.21107215782767e-06,0.2564998491177358,-4.045150481242356e-05,0.2564998491177358,1.5103139220575102e-06,0.2564998491177358,-1.6280965225956342e-05
0.2572939662976669,-1.5004479625922778e-07,0.2572939662976669,-3.7450407846345945e-05,0.2572939662976669,3.66267396256032e-06,0.2572939662976669,-1.62814e-05
0.2580880834775979,4.094981267090578e-06,0.2580880834775979,-3.89629574568477e-05,0.2580880834775979,4.433054971429709e-06,0.2580880834775979,-1.4524750171421742e-05
0.258882200657529,1.3746116936306336e-05,0.258882200657529,-3.116235065489238e-05,0.258882200657529,2.797847502972598e-06,0.258882200657529,-1.28461412441613e-05
0.2596763178374601,2.218311298819536e-05,0.2596763178374601,-1.722834619162775e-05,0.2596763178374601,-1.824663030797319e-06,0.2596763178374601,-1.1700726188689492e-05
0.2604704350173911,2.248207159798668e-05,0.2604704350173911,-1.7304728891589405e-05,0.2604704350173911,-1.2944022205774506e-06,0.2604704350173911,-1.2785585206039974e-05
0.2612645521973222,2.1514780609771817e-05,0.2612645521973222,-2.544363226268566e-05,0.2612645521973222,1.3327797967427278e-06,0.2612645521973222,-1.2608720406514543e-05
0.2620586693772533,1.7288315982812155e-05,0.2620586693772533,-3.235188603695214e-05,0.2620586693772533,2.4782781072857613e-06,0.2620586693772533,-1.15816e-05
0.2628527865571843,9.785730649283784e-06,0.2628527865571843,-3.772489263578871e-05,0.2628527865571843,1.3727256819543995e-06,0.2628527865571843,-1.02388e-05
0.2636469037371154,1.986575450633137e-06,0.2636469037371154,-4.542818664685669e-05,0.2636469037371154,-1.67849e-07,0.2636469037371154,-1.12459e-05
0.2644410209170465,-4.55143735882263e-06,0.2644410209170465,-5.409687867284693e-05,0.2644410209170465,1.9243694352905216e-06,0.2644410209170465,-1.027781471764526e-05
0.2652351380969776,-3.3282956790745165e-06,0.2652351380969776,-4.979479104723305e-05,0.2652351380969776,4.215360333134178e-06,0.2652351380969776,-1.2064668260288272e-05
0.2660292552769086,9.418185035079546e-06,0.2660292552769086,-2.2220119606857737e-05,0.2660292552769086,7.01996547076111e-06,0.2660292552769086,-1.35958e-05
0.2668233724568397,3.148781982595342e-05,0.2668233724568397,3.752131035974138e-05,0.2668233724568397,7.750738225656612e-06,0.2668233724568397,-1.29837399866118e-05
0.2676174896367708,2.8264518205439096e-05,0.2676174896367708,6.900746665933758e-05,0.2676174896367708,6.703530689549619e-06,0.2676174896367708,-1.2667405930907748e-05
0.2684116068167018,-3.686278159417119e-06,0.2684116068167018,4.640957237866007e-05,0.2684116068167018,3.939350591181846e-06,0.2684116068167018,-1.15816e-05
0.2692057239966329,-3.0261453521315517e-05,0.2692057239966329,1.15837042692194e-05,0.2692057239966329,4.166668190668037e-06,0.2692057239966329,-1.4425029523329909e-05
0.269999841176564,-3.91079846862237e-05,0.269999841176564,-1.644421761058041e-05,0.269999841176564,1.8469692748129828e-06,0.269999841176564,-1.3932072071110191e-05
0.270793958356495,-2.9871674954712373e-05,0.270793958356495,-2.975251271716021e-05,0.270793958356495,7.01416092722703e-07,0.270793958356495,-1.2390829549571604e-05
0.2715880755364261,-1.3842297734227256e-05,0.2715880755364261,-4.394486858476716e-05,0.2715880755364261,9.771877443549383e-07,0.2715880755364261,-1.35958e-05
0.2723821927163572,6.689158745548916e-08,0.2723821927163572,-4.369096690485911e-05,0.2723821927163572,4.253010598191862e-07,0.2723821927163572,-1.3556676355094378e-05
0.2731763098962882,-8.656842396802849e-08,0.2731763098962882,-3.341959364500129e-05,0.2731763098962882,-4.439793623907366e-07,0.2731763098962882,-1.2431706445167511e-05
0.2739704270762193,-1.0156306346519152e-05,0.2739704270762193,-1.994175066874097e-05,0.2739704270762193,-1.51064e-06,0.2739704270762193,-1.2114168043906602e-05
0.2747645442561504,-1.42672e-05,0.2747645442561504,-7.395156425677343e-06,0.2747645442561504,6.889235761337645e-08,0.2747645442561504,-1.1858429111698447e-05
0.2755586614360815,-1.3951236679370847e-05,0.2755586614360815,-1.4142306991729734e-05,0.2755586614360815,-1.0863925585050948e-07,0.2755586614360815,-1.183835328251661e-05
0.2763527786160125,-3.487438067300423e-06,0.2763527786160125,-3.197109940072961e-05,0.2763527786160125,-3.163626057390691e-07,0.2763527786160125,-1.4148642755689042e-05
0.2771468957959436,1.0731355335243085e-05,0.2771468957959436,-4.866659257152203e-05,0.2771468957959436,2.872703047606263e-06,0.2771468957959436,-1.2905133427752965e-05
0.2779410129758747,4.304171936787241e-06,0.2779410129758747,-4.91798e-05,0.2779410129758747,2.10403384531892e-06,0.2779410129758747,-1.2627703251617804e-05
0.2787351301558057,-1.691728797528915e-05,0.2787351301558057,-5.139001338426196e-05,0.2787351301558057,6.959600158542432e-08,0.2787351301558057,-1.3516651273184527e-05
0.2795292473357368,-2.932380386443312e-05,0.2795292473357368,-5.6230279229897534e-05,0.2795292473357368,-1.4019522189780994e-06,0.2795292473357368,-1.211487169137214e-05
0.2803233645156679,-3.12683813706485e-05,0.2803233645156679,-6.613630062712339e-05,0.2803233645156679,-1.747977063602709e-06,0.2803233645156679,-1.2885371329503388e-05
0.2811174816955989,-2.3625039175481068e-05,0.2811174816955989,-5.412762649713586e-05,0.2811174816955989,-3.5942844262677366e-06,0.2811174816955989,-1.5008009116014353e-05
0.2819115988755301,-1.4385030424299282e-05,0.2819115988755301,5.451985859134141e-06,0.2819115988755301,-3.682511464292608e-06,0.2819115988755301,-1.4424875580445822e-05
0.2827057160554611,-7.87916233934734e-06,0.2827057160554611,5.223334976934645e-05,0.2827057160554611,-9.775420087996742e-07,0.2827057160554611,-1.1779000343304504e-05
0.2834998332353922,-4.5328310084197775e-06,0.2834998332353922,3.273809669569237e-05,0.2834998332353922,1.8454990597625116e-06,0.2834998332353922,-1.2253e-05
0.2842939504153233,-3.7404052814797982e-06,0.2842939504153233,-6.316495574829248e-06,0.2842939504153233,5.1218497826930426e-08,0.2842939504153233,-1.076180329917265e-05
0.2850880675952543,-6.468004569503992e-06,0.2850880675952543,-2.3588906614821653e-05,0.2850880675952543,-2.874945580603156e-07,0.2850880675952543,-1.2528876953664005e-05
0.2858821847751854,-6.028001568120691e-06,0.2858821847751854,-1.8770761263858088e-05,0.2858821847751854,1.67849e-07,0.2858821847751854,-1.475937164756757e-05
0.2866763019551165,-1.4567447398715026e-05,0.2866763019551165,-1.4327933965491412e-05,0.2866763019551165,1.5484689183379316e-06,0.2866763019551165,-1.4565072678834609e-05
0.2874704191350475,-1.7269166078817728e-05,0.2874704191350475,-2.5121591557056143e-05,0.2874704191350475,3.110048480295568e-06,0.2874704191350475,-1.0595571483943245e-05
0.2882645363149786,-1.5491625561752726e-05,0.2882645363149786,-3.462581389995136e-05,0.2882645363149786,3.0313230861016268e-06,0.2882645363149786,-9.370138857627031e-06
0.2890586534949096,-1.747612896663126e-05,0.2890586534949096,-4.137693338587088e-05,0.2890586534949096,2.201782412384576e-06,0.2890586534949096,-8.57018120619229e-06
0.2898527706748408,-2.0744074045350736e-05,0.2898527706748408,-4.463752761288649e-05,0.2898527706748408,3.3862816225149157e-06,0.2898527706748408,-1.0218814599839547e-05
0.2906468878547718,-2.1948373521988232e-05,0.2906468878547718,-4.79752685574488e-05,0.2906468878547718,2.0444741690588657e-06,0.2906468878547718,-1.0337867084529432e-05
0.2914410050347029,-2.307328357118069e-05,0.2914410050347029,-5.692132134051831e-05,0.2914410050347029,1.8073482144096531e-06,0.2914410050347029,-9.7839991512345e-06
0.292235122214634,-2.485119110494689e-05,0.292235122214634,-5.865969924437687e-05,0.292235122214634,1.487661964245915e-07,0.292235122214634,-1.1857227762367225e-05
0.293029239394565,-2.453568885350545e-05,0.293029239394565,-2.966613743967255e-05,0.293029239394565,-2.2610085244157573e-06,0.293029239394565,-1.0722837410843385e-05
0.2938233565744961,-2.1237300183672892e-05,0.2938233565744961,2.0574879693642187e-05,0.2938233565744961,4.254345078565502e-07,0.2938233565744961,-1.0910983797569157e-05
0.2946174737544272,-1.989537113703749e-05,0.2946174737544272,4.315878993264136e-05,0.2946174737544272,3.781802309644921e-06,0.2946174737544272,-1.2963764431481254e-05
0.2954115909343582,-1.9657924982106827e-05,0.2954115909343582,2.21416779112006e-05,0.2954115909343582,2.725017494632048e-06,0.2954115909343582,-9.517858949192111e-06
0.2962057081142893,-1.6755411122722954e-05,0.2962057081142893,-1.1523372600878927e-05,0.2962057081142893,3.18914e-06,0.2962057081142893,-8.659004438638525e-06
0.2969998252942204,-1.62814e-05,0.2969998252942204,-3.2055583926983e-05,0.2969998252942204,3.860278292460638e-06,0.2969998252942204,-8.89601e-06
0.2977939424741515,-1.3518080147449692e-05,0.2977939424741515,-4.092723919078436e-05,0.2977939424741515,3.3870304350095574e-06,0.2977939424741515,-1.0040909564990444e-05
0.2985880596540825,-1.0694169024726905e-05,0.2985880596540825,-4.706321851735278e-05,0.2985880596540825,4.807795487636549e-06,0.2985880596540825,-1.0041032743818274e-05
0.2993821768340136,-9.80208190817626e-06,0.2993821768340136,-5.5200983988293786e-05,0.2993821768340136,3.664970270701984e-06,0.2993821768340136,-1.1816273073269465e-05
0.3001762940139447,-1.2409959230565884e-05,0.3001762940139447,-6.72283717854595e-05,0.3001762940139447,5.253289415423208e-07,0.3001762940139447,-1.4700278974087846e-05
0.3009704111938757,-1.2056166280359964e-05,0.3009704111938757,-5.144969883667218e-05,0.3009704111938757,2.8983604522492154e-08,0.3009704111938757,-1.561e-05
0.3017645283738068,-9.923191405442e-06,0.3017645283738068,3.623468298799743e-07,0.3017645283738068,9.382339066406424e-07,0.3017645283738068,-1.320128631880964e-05
0.3025586455537379,-5.736510277447301e-06,0.3025586455537379,2.378281066721727e-05,0.3025586455537379,-2.6757073385100665e-06,0.3025586455537379,-1.44449148368139e-05
0.3033527627336689,6.188946389185972e-06,0.3033527627336689,1.4233679274075418e-05,0.3033527627336689,-3.9590925793233305e-06,0.3033527627336689,-1.805846257932333e-05
0.3041468799136,1.4334480231072414e-05,0.3041468799136,5.114480871563983e-06,0.3041468799136,-3.52483e-06,0.3041468799136,-1.691433565167067e-05
0.3049409970935311,2.1589756431114224e-05,0.3049409970935311,6.822434428473897e-06,0.3049409970935311,-2.933584280983317e-06,0.3049409970935311,-1.363478031956297e-05
0.3057351142734621,2.832545848586116e-05,0.3057351142734621,-4.76148702271973e-06,0.3057351142734621,2.8589820249470425e-08,0.3057351142734621,-1.6832598317623515e-05
0.3065292314533932,2.941327468751844e-05,0.3065292314533932,-2.626480423377888e-05,0.3065292314533932,3.0605762720041304e-06,0.3065292314533932,-1.833527468751844e-05
0.3073233486333243,2.2776875304203006e-05,0.3073233486333243,-4.328599086797281e-05,0.3073233486333243,4.53193e-06,0.3073233486333243,-1.4345371755214976e-05
0.3081174658132554,1.3593692796414722e-05,0.3081174658132554,-4.756085173984651e-05,0.3081174658132554,4.976424753257524e-06,0.3081174658132554,-9.803629814191692e-06
0.3089115829931864,3.603049885815476e-06,0.3089115829931864,-5.0957907764455246e-05,0.3089115829931864,2.9323080718105114e-06,0.3089115829931864,-1.1403943758886117e-05
0.3097057001731175,-7.789433410420679e-06,0.3097057001731175,-4.3635094578667785e-05,0.3097057001731175,5.262381882710836e-06,0.3097057001731175,-1.0614133883125373e-05
0.3104998173530486,-1.627955793102538e-05,0.3104998173530486,-2.165779811815991e-05,0.3104998173530486,3.861451030567848e-06,0.3104998173530486,-1.0238668423644669e-05
0.3112939345329796,-1.6223100647371307e-05,0.3112939345329796,-1.715060013133685e-05,0.3112939345329796,1.2900679894380661e-07,0.3112939345329796,-1.0436704848510688e-05
0.3120880517129107,-1.3113034918988871e-05,0.3120880517129107,-1.1314722044932738e-05,0.3120880517129107,3.917811461591081e-06,0.3120880517129107,-1.1323981032413876e-05
0.3128821688928418,-1.3111759047544391e-05,0.3128821688928418,2.2397445744628985e-06,0.3128821688928418,5.281541726806605e-06,0.3128821688928418,-1.1956406445864516e-05
0.3136762860727728,-1.2431757931567488e-05,0.3136762860727728,5.802699156695069e-07,0.3136762860727728,5.87472e-06,0.3136762860727728,-1.2253e-05
0.314470403252704,-9.962915051583885e-06,0.314470403252704,-1.5078926620207302e-05,0.314470403252704,4.690124480831072e-06,0.314470403252704,-1.051657217260988e-05
0.315264520432635,-7.120056483069918e-06,0.315264520432635,-2.2876242170502004e-05,0.315264520432635,6.032514031053976e-06,0.315264520432635,-7.987921303642912e-06
0.3160586376125661,2.7940641970762564e-06,0.3160586376125661,-3.2941019545117256e-05,0.3160586376125661,5.282344925209373e-06,0.3160586376125661,-9.429133439554768e-06
0.3168527547924971,8.20459020209881e-06,0.3168527547924971,-3.98216717326968e-05,0.3168527547924971,4.21625333005619e-06,0.3168527547924971,-1.2687251113295872e-05
0.3176468719724282,6.488478598757639e-06,0.3176468719724282,-3.0193339248258107e-05,0.3176468719724282,4.4590212288607874e-07,0.3176468719724282,-1.39122850248764e-05
0.3184409891523593,3.087044288163118e-07,0.3184409891523593,-5.3005102245796765e-06,0.3184409891523593,-3.208623846355916e-06,0.3184409891523593,-1.0199831726876287e-05
0.3192351063322903,-5.418765826978703e-06,0.3192351063322903,6.54612e-06,0.3192351063322903,-4.679233499730524e-06,0.3192351063322903,-1.0978301760181029e-05
0.3200292235122214,-9.251558785181344e-06,0.3200292235122214,-1.541417409116437e-05,0.3200292235122214,-5.104945452501921e-06,0.3200292235122214,-1.2687488067049933e-05
0.3208233406921525,-7.909120855636627e-06,0.3208233406921525,-3.9491061124192e-05,0.3208233406921525,2.064049407520317e-06,0.3208233406921525,-1.0298117103767378e-05
0.3216174578720835,-1.1345345787896711e-05,0.3216174578720835,-6.879646439487066e-05,0.3216174578720835,3.267890622068437e-06,0.3216174578720835,-1.3241416922421589e-05
0.3224115750520147,-1.3438021225307548e-05,0.3224115750520147,-0.0001042781712811,0.3224115750520147,2.922538231224371e-06,0.3224115750520147,-1.4612670572794116e-05
0.3232056922319457,-1.7229468109555408e-05,0.3232056922319457,-7.297766709788754e-05,0.3232056922319457,8.198633071870145e-07,0.3232056922319457,-1.3338922129617326e-05
0.3239998094118768,-7.892342422571477e-06,0.3239998094118768,4.411296463732121e-05,0.3239998094118768,-8.39246e-07,0.3239998094118768,-1.5273750811734183e-05
0.3247939265918079,1.0863805968106046e-05,0.3247939265918079,6.469109835623826e-05,0.3247939265918079,-1.2137678864451216e-06,0.3247939265918079,-1.6380358157269022e-05
0.3255880437717389,2.693780820795414e-05,0.3255880437717389,5.222014894455834e-06,0.3255880437717389,-2.18204e-06,0.3255880437717389,-1.5136378722209105e-05
0.32638216095167,3.198768645583504e-05,0.32638216095167,-1.5964413444522953e-05,0.32638216095167,-2.8143392871492127e-06,0.32638216095167,-1.6633306415657084e-05
0.3271762781316011,1.889745809183275e-05,0.3271762781316011,-1.750552075704715e-05,0.3271762781316011,-1.827469244750616e-06,0.3271762781316011,-2.068324151049877e-05
0.3279703953115321,6.372424202665217e-06,0.3279703953115321,-1.59662779995298e-05,0.3279703953115321,-2.8744735265451774e-07,0.3279703953115321,-1.7242126283554172e-05
0.3287645124914632,-8.221326973580032e-06,0.3287645124914632,-1.5787118929755126e-05,0.3287645124914632,2.260931294815895e-06,0.3287645124914632,-1.209521741036821e-05
0.3295586296713942,-2.674685793189605e-05,0.3295586296713942,-2.3819061678078965e-05,0.3295586296713942,1.0960176628063498e-06,0.3295586296713942,-1.379318272002023e-05
0.3303527468513254,-4.2217024046130985e-05,0.3303527468513254,-3.373362274726167e-05,0.3303527468513254,3.800411945034013e-06,0.3303527468513254,-1.5847160352731503e-05
0.3311468640312564,-4.6139302223917584e-05,0.3311468640312564,-4.195229870788407e-05,0.3311468640312564,8.007209258694138e-06,0.3311468640312564,-1.3794002965223446e-05
0.3319409812111875,-4.5754627473066266e-05,0.3319409812111875,-4.58228e-05,0.3319409812111875,7.475305224983728e-06,0.3319409812111875,-9.05640233645449e-06
0.3327350983911186,-4.246744689009058e-05,0.3327350983911186,-4.333657714981209e-05,0.3327350983911186,5.440842470575917e-06,0.3327350983911186,-6.98000517102046e-06
0.3335292155710496,-3.501240561706725e-05,0.3335292155710496,-3.723260062886748e-05,0.3335292155710496,4.53193e-06,0.3335292155710496,-9.409490113301796e-06
0.3343233327509807,-1.924100335982808e-05,0.3343233327509807,-2.997076429314744e-05,0.3343233327509807,3.623286234572185e-06,0.3343233327509807,-8.105989000684707e-06
0.3351174499309118,2.285271817822756e-06,0.3351174499309118,-2.5957027714092843e-05,0.3351174499309118,1.77694407630599e-06,0.3351174499309118,-8.738484651030181e-06
0.3359115671108428,2.87134141042518e-05,0.3359115671108428,-3.0302539243217345e-05,0.3359115671108428,3.505223139523973e-06,0.3359115671108428,-1.0377002195462473e-05
0.3367056842907739,4.738229515637677e-05,0.3367056842907739,-3.701286056127643e-05,0.3367056842907739,6.447442760402581e-06,0.3367056842907739,-1.0396486197987097e-05
0.337499801470705,4.615993017777538e-05,0.337499801470705,-3.2397211431826564e-05,0.337499801470705,3.1904271514772708e-06,0.337499801470705,-1.2923827928889847e-05
0.338293918650636,4.244840942296713e-05,0.338293918650636,-1.2051855743135927e-05,0.338293918650636,-6.112450284663175e-07,0.338293918650636,-1.256926057535412e-05
0.3390880358305671,3.293372019401096e-05,0.3390880358305671,1.804770122795055e-06,0.3390880358305671,3.838086599815006e-07,0.3390880358305671,-9.944795294857247e-06
0.3398821530104982,2.5250866867600624e-05,0.3398821530104982,4.255288634390184e-06,0.3398821530104982,3.228233815256228e-06,0.3398821530104982,-9.20876867411592e-06
0.3406762701904293,2.088388967444535e-05,0.3406762701904293,2.7861881967924332e-08,0.3406762701904293,2.6965304805162102e-06,0.3406762701904293,-1.4066523232497963e-05
0.3414703873703603,1.964032677556617e-05,0.3414703873703603,-1.55022405076783e-05,0.3414703873703603,1.17494e-06,0.3414703873703603,-1.5146950213726712e-05
0.3422645045502914,9.7378390092748e-06,0.3422645045502914,-2.5956492756311e-05,0.3422645045502914,2.161882296419244e-06,0.3422645045502914,-1.0871632182939754e-05
0.3430586217302225,-6.604796677499513e-06,0.3430586217302225,-3.322089034236208e-05,0.3430586217302225,4.452869211022515e-06,0.3430586217302225,-8.87624465556063e-06
0.3438527389101535,-3.077132713102739e-05,0.3438527389101535,-3.382060783387912e-05,0.3438527389101535,5.20333e-06,0.3438527389101535,-1.242999863434364e-05
0.3446468560900846,-4.854355109065035e-05,0.3446468560900846,-1.59761676448735e-05,0.3446468560900846,3.870120288520675e-06,0.3446468560900846,-1.45037870513609e-05
0.3454409732700157,-6.076885664666342e-05,0.3454409732700157,2.601772724352164e-05,0.3454409732700157,4.089129295998235e-06,0.3454409732700157,-1.35958e-05
0.3462350904499467,-6.18192413125968e-05,0.3462350904499467,2.691367603201093e-05,0.3462350904499467,-8.706466347942724e-08,0.3462350904499467,-1.4108845339258058e-05
0.3470292076298778,-5.8223828331974194e-05,0.3470292076298778,-1.041774353233376e-05,0.3470292076298778,-4.669972497961297e-06,0.3470292076298778,-1.51163858340129e-05
0.3478233248098089,-5.873718301296447e-05,0.3478233248098089,-3.313498545556056e-05,0.3478233248098089,-3.4453921302105767e-06,0.3478233248098089,-1.4148588675309644e-05
0.34861744198974,-5.746348691175685e-05,0.34861744198974,-4.48913332850007e-05,0.34861744198974,-9.18020023097852e-07,0.34861744198974,-1.35958e-05
0.349411559169671,-5.789815959377398e-05,0.349411559169671,-5.326824332489414e-05,0.349411559169671,-1.0960195081770856e-06,0.349411559169671,-1.42672e-05
0.3502056763496021,-5.8856113973665074e-05,0.3502056763496021,-5.78261194691552e-05,0.3502056763496021,-1.7278257532918657e-06,0.3502056763496021,-1.406985698683254e-05
0.3509997935295332,-4.985476972372692e-05,0.3509997935295332,-5.5559569043338486e-05,0.3509997935295332,-2.014115630755689e-06,0.3509997935295332,-1.35958e-05
0.3517939107094642,-2.5908264320179476e-05,0.3517939107094642,-2.2730548523936112e-05,0.3517939107094642,-1.826944434944674e-06,0.3517939107094642,-1.517533037670355e-05
0.3525880278893953,2.1142791139731219e-07,0.3525880278893953,1.9718963382529235e-05,0.3525880278893953,-1.3128498117634805e-06,0.3525880278893953,-1.2294731317655637e-05
0.3533821450693264,2.0505246234117027e-05,0.3533821450693264,3.920676762611925e-05,0.3533821450693264,-1.5497292468234058e-06,0.3533821450693264,-9.37196376588297e-06
0.3541762622492574,1.6742459647126767e-05,0.3541762622492574,1.973295626606913e-05,0.3541762622492574,-2.260485291016308e-06,0.3541762622492574,-7.060627642479171e-06
0.3549703794291886,5.44264171675585e-06,0.3549703794291886,-1.5631633946730722e-05,0.3549703794291886,-1.1556664581960558e-06,0.3549703794291886,-8.342273962512512e-06
0.3557644966091196,1.1873237995695794e-05,0.3557644966091196,-3.894972058568049e-05,0.3557644966091196,-7.401856804109475e-07,0.3557644966091196,-7.909092936137894e-06
0.3565586137890507,4.3194885855056336e-05,0.3565586137890507,-4.471667740189293e-05,0.3565586137890507,-1.6686044612734508e-06,0.3565586137890507,-7.513677845093803e-06
0.3573527309689818,8.001837638359167e-05,0.3573527309689818,-4.062163767458075e-05,0.3573527309689818,-1.2935316423931283e-06,0.3573527309689818,-1.2212850145641228e-05
0.3581468481489128,8.952774041949202e-05,0.3581468481489128,-3.689736215502844e-05,0.3581468481489128,-2.0046083109998577e-06,0.3581468481489128,-1.2214673243999433e-05
0.3589409653288439,6.515183936312303e-05,0.3589409653288439,-3.57519e-05,0.3589409653288439,1.7089025513687114e-08,0.3589409653288439,-8.382726386136674e-06
0.3597350825087749,3.238584422207074e-05,0.3597350825087749,-3.354193316846632e-05,0.3597350825087749,5.7147026811269e-06,0.3597350825087749,-9.76370405225188e-06
0.360529199688706,7.605216261638437e-06,0.360529199688706,-2.625333943645592e-05,0.360529199688706,7.612864032199891e-06,0.360529199688706,-1.2371142226380074e-05
0.3613233168686371,-1.4821980467726687e-05,0.3613233168686371,-2.0924236580916416e-05,0.3613233168686371,5.144030058365914e-06,0.3613233168686371,-1.3299300291829566e-05
0.3621174340485681,-2.6926075937952008e-05,0.3621174340485681,-2.2085587548034317e-05,0.3621174340485681,5.163936903450183e-06,0.3621174340485681,-1.1028379289649452e-05
0.3629115512284993,-1.5520668766572387e-05,0.3629115512284993,-2.5720780222944687e-05,0.3629115512284993,3.663043661489888e-06,0.3629115512284993,-1.3437918031060674e-05
0.3637056684084303,-9.685333249454686e-06,0.3637056684084303,-3.292293715980893e-05,0.3637056684084303,3.5838001551745647e-06,0.3637056684084303,-1.4839934226429969e-05
0.3644997855883614,-1.44336871198077e-05,0.3644997855883614,-3.591949199179183e-05,0.3644997855883614,5.203021081600509e-06,0.3644997855883614,-1.3596263377599235e-05
0.3652939027682925,-2.488504557552219e-05,0.3652939027682925,-3.132802301369022e-05,0.3652939027682925,2.1646906147738157e-06,0.3652939027682925,-1.1306101425240553e-05
0.3660880199482235,-3.3875604078749774e-05,0.3660880199482235,-3.0555457744832e-05,0.3660880199482235,-1.193065107384177e-06,0.3660880199482235,-1.1107995921250224e-05
0.3668821371281546,-3.4666632972380635e-05,0.3668821371281546,-4.0309857752485206e-05,0.3668821371281546,-5.476913432428458e-06,0.3668821371281546,-1.054348647713731e-05
0.3676762543080857,-3.214076202023477e-05,0.3676762543080857,-5.899333448391259e-05,0.3676762543080857,-8.657576335524471e-06,0.3676762543080857,-1.2823969008142202e-05
0.3684703714880167,-2.797300418205293e-05,0.3684703714880167,-3.068935093699857e-05,0.3684703714880167,-4.929521574313968e-06,0.3684703714880167,-1.4701250389195784e-05
0.3692644886679478,-2.710257413268257e-05,0.3692644886679478,2.528442215492044e-05,0.3692644886679478,-6.814984394975242e-07,0.3692644886679478,-1.3674674132682572e-05
0.3700586058478789,-2.6727553620933568e-05,0.3700586058478789,1.975231218782916e-05,0.3700586058478789,-1.67849e-07,0.3700586058478789,-1.4405337729907578e-05
0.3708527230278099,-2.722071049837257e-05,0.3708527230278099,-6.81517959720173e-06,0.3708527230278099,-1.67849e-07,0.3708527230278099,-1.42672e-05
0.371646840207741,-2.7794235880693933e-05,0.371646840207741,-1.709072954744743e-05,0.371646840207741,6.314003303763202e-07,0.371646840207741,-1.4721182059653034e-05
0.3724409573876721,-2.6274454021148307e-05,0.3724409573876721,-2.107019880813965e-05,0.3724409573876721,1.8658014947129228e-06,0.3724409573876721,-1.3172520375148012e-05
0.3732350745676032,-2.372694385896574e-05,0.3732350745676032,-3.09976157155389e-05,0.3732350745676032,2.438551228206852e-06,0.3732350745676032,-1.1108160134908578e-05
0.3740291917475342,-1.9253563982450656e-05,0.3740291917475342,-4.234754045314279e-05,0.3740291917475342,2.201934550870176e-06,0.3740291917475342,-1.2213210898259648e-05
0.3748233089274653,-1.981628266276889e-05,0.3748233089274653,-4.108890946094477e-05,0.3748233089274653,1.263881331384444e-06,0.3748233089274653,-1.3102282662768887e-05
0.3756174261073964,-2.06455e-05,0.3756174261073964,-1.830169390753339e-05,0.3756174261073964,1.826640585218247e-06,0.3756174261073964,-1.4524102340872988e-05
0.3764115432873274,-1.94606163670216e-05,0.3764115432873274,-2.2325504660056603e-05,0.3764115432873274,1.4909463213609298e-06,0.3764115432873274,-1.46127278995157e-05
0.3772056604672585,-1.574837991888737e-05,0.3772056604672585,-4.676216024605553e-05,0.3772056604672585,4.610730101390784e-06,0.3772056604672585,-1.3812944714952055e-05
0.3779997776471896,-1.594537964017834e-05,0.3779997776471896,-4.44827326260703e-05,0.3779997776471896,5.20333e-06,0.3779997776471896,-1.3595960179910829e-05
0.3787938948271206,-1.593495144487476e-05,0.3787938948271206,-1.295705566225791e-05,0.3787938948271206,3.940132723309666e-06,0.3787938948271206,-1.2115262178647733e-05
0.3795880120070517,-1.7348403308527875e-05,0.3795880120070517,2.910417084615786e-05,0.3795880120070517,4.669828345736064e-06,0.3795880120070517,-1.09102e-05
0.3803821291869828,-1.3224566902780748e-05,0.3803821291869828,4.1221752557949365e-05,0.3803821291869828,4.492852219204006e-06,0.3803821291869828,-1.2784088903979967e-05
0.3811762463669139,-9.854496264805468e-06,0.3811762463669139,3.6441541312159545e-05,0.3811762463669139,4.748400838510676e-06,0.3811762463669139,-1.3715029161489324e-05
0.3819703635468449,-1.3317861493680458e-05,0.3819703635468449,7.973600753767363e-06,0.3819703635468449,5.558278544455428e-06,0.3819703635468449,-1.276617691561341e-05
0.382764480726776,-1.182929865707293e-05,0.382764480726776,-3.592703296944146e-05,0.382764480726776,5.144687940142557e-06,0.382764480726776,-1.1779789528171067e-05
0.3835585979067071,-9.9031e-06,0.3835585979067071,-3.61002519331135e-05,0.3835585979067071,1.9650346715905225e-06,0.3835585979067071,-1.02388e-05
0.3843527150866381,-1.2992697460310642e-05,0.3843527150866381,-3.4757478884630963e-06,0.3843527150866381,-1.4774008794179957e-07,0.3843527150866381,-1.4216894351890056e-05
0.3851468322665692,-1.2847884080327864e-05,0.3851468322665692,-6.408717139768859e-07,0.3851468322665692,-1.4872042939178645e-07,0.3851468322665692,-1.6498823673360654e-05
0.3859409494465003,-3.09680556084792e-06,0.3859409494465003,-2.816929101984128e-05,0.3859409494465003,5.327317584605095e-07,0.3859409494465003,-1.4899688476601453e-05
0.3867350666264313,1.104266128713646e-05,0.3867350666264313,-4.4199987008141885e-05,0.3867350666264313,3.658354671691833e-07,0.3867350666264313,-1.4780211014991477e-05
0.3875291838063624,2.581754007707576e-05,0.3875291838063624,-2.854400630307392e-05,0.3875291838063624,-8.790562177484896e-07,0.3875291838063624,-1.5965605992292425e-05
0.3883233009862935,3.2967754000847515e-05,0.3883233009862935,-9.951536555658633e-06,0.3883233009862935,1.4513514997881213e-06,0.3883233009862935,-1.2598322079412594e-05
0.3891174181662246,3.0517854750926816e-05,0.3891174181662246,-1.646330042454722e-05,0.3891174181662246,-6.028202678606214e-07,0.3891174181662246,-1.241138533741683e-05
0.3899115353461556,1.4049853825519134e-05,0.3899115353461556,-3.307757967115902e-05,0.3899115353461556,-5.825206767844197e-07,0.3899115353461556,-1.561e-05
0.3907056525260867,3.66531264388622e-07,0.3907056525260867,-5.29967823916587e-05,0.3907056525260867,7.995085716166749e-07,0.3907056525260867,-1.446450861508525e-05
0.3914997697060178,-6.20892690428628e-06,0.3914997697060178,-6.596186982451373e-05,0.3914997697060178,2.5172422981341392e-06,0.3914997697060178,-1.577738527315477e-05
0.3922938868859488,-1.0019321547631124e-05,0.3922938868859488,-8.002832022699873e-05,0.3922938868859488,2.2810268223375544e-06,0.3922938868859488,-1.3044894578700438e-05
0.3930880040658799,-1.1821259098220998e-05,0.3930880040658799,-0.0001048140693138,0.3930880040658799,1.84634e-06,0.3930880040658799,-1.0436607387277624e-05
0.393882121245811,-5.089702614401712e-06,0.393882121245811,-6.292377387987305e-05,0.393882121245811,6.438866922068826e-07,0.393882121245811,-1.129299044331366e-05
0.394676238425742,-4.3613875815153433e-07,0.394676238425742,5.3707452471808894e-05,0.394676238425742,-4.251280969837896e-07,0.394676238425742,-1.3476559397088428e-05
0.3954703556056732,-2.309260377060466e-06,0.3954703556056732,8.540939032458362e-05,0.3954703556056732,3.069390687910649e-06,0.3954703556056732,-1.2885915220390696e-05
0.3962644727856042,-3.880781584159827e-06,0.3962644727856042,4.412882705591553e-05,0.3962644727856042,6.654289419411383e-06,0.3962644727856042,-1.0081076966680617e-05
0.3970585899655353,2.201128755018953e-06,0.3970585899655353,1.7716779508919033e-05,0.3970585899655353,6.605484829482611e-06,0.3970585899655353,-1.1146959206992089e-05
0.3978527071454664,2.261508167442572e-05,0.3978527071454664,-9.259792025778364e-06,0.3978527071454664,2.992171832557428e-06,0.3978527071454664,-1.1147417682868547e-05
0.3986468243253974,4.3702306139485394e-05,0.3986468243253974,-2.749660201651904e-05,0.3986468243253974,9.384016312317336e-07,0.3986468243253974,-1.1404211725080396e-05
0.3994409415053285,6.285559506669426e-05,0.3994409415053285,-4.440109084500141e-05,0.3994409415053285,1.865790028685546e-06,0.3994409415053285,-8.69645962141161e-06
0.4002350586852595,7.747299573569227e-05,0.4002350586852595,-6.161405244309392e-05,0.4002350586852595,2.18204e-06,0.4002350586852595,-1.3988197441415362e-05
0.4010291758651906,8.541538256628541e-05,0.4010291758651906,-6.287435705274751e-05,0.4010291758651906,2.51774e-06,0.4010291758651906,-1.4346869734858368e-05
0.4018232930451217,7.048423511092826e-05,0.4018232930451217,-6.35522341393723e-05,0.4018232930451217,2.6166607418082546e-06,0.4018232930451217,-1.3161531118003047e-05
0.4026174102250527,3.365316776926435e-05,0.4026174102250527,-7.407787261705835e-05,0.4026174102250527,4.156819704409077e-06,0.4026174102250527,-1.3970910295590923e-05
0.4034115274049838,-1.352588008945344e-06,0.4034115274049838,-7.072300617136497e-05,0.4034115274049838,5.519269815035251e-06,0.4034115274049838,-1.1305180005000376e-05
0.4042056445849149,-2.402013640276129e-05,0.4042056445849149,-4.612299491481668e-05,0.4042056445849149,5.578777215006533e-06,0.4042056445849149,-7.75051421046457e-06
0.404999761764846,-3.860075206023516e-05,0.404999761764846,-8.549636694056014e-07,0.404999761764846,3.861044863999233e-06,0.404999761764846,-1.0908827034447722e-05
0.4057938789447771,-4.775518189113633e-05,0.4057938789447771,6.757371698959234e-05,0.4057938789447771,1.4719176660537296e-06,0.4057938789447771,-1.464162233394627e-05
0.4065879961247081,-5.636156383475564e-05,0.4065879961247081,0.0001155315988532,0.4065879961247081,2.51774e-06,0.4065879961247081,-1.0478509069774369e-05
0.4073821133046392,-6.381023157384268e-05,0.4073821133046392,9.409604896138866e-05,0.4073821133046392,-1.0561392328007592e-07,0.4073821133046392,-9.961705290787712e-06
0.4081762304845703,-6.694976162869757e-05,0.4081762304845703,3.28055272643434e-05,0.4081762304845703,-2.7341879556663257e-06,0.4081762304845703,-9.440408182263366e-06
0.4089703476645013,-6.88662273709561e-05,0.4089703476645013,-2.0066676749647763e-05,0.4089703476645013,-1.906226314521948e-06,0.4089703476645013,-7.869684338048127e-06
0.4097644648444324,-6.5572670138226e-05,0.4097644648444324,-5.2800303729059945e-05,0.4097644648444324,-1.6683539410985428e-06,0.4097644648444324,-7.276102503715361e-06
0.4105585820243635,-4.791777236129991e-05,0.4105585820243635,-6.403867748663132e-05,0.4105585820243635,-2.18204e-06,0.4105585820243635,-1.1403454504062855e-05
0.4113526992042945,-2.2961820516655013e-05,0.4113526992042945,-5.696338906631946e-05,0.4113526992042945,-9.186961838876022e-07,0.4113526992042945,-1.2371614574447987e-05
0.4121468163842256,2.5962792491671336e-07,0.4121468163842256,-5.490627637907162e-05,0.4121468163842256,4.635115038231185e-07,0.4121468163842256,-1.0229285094417136e-05
0.4129409335641567,1.4238030660410046e-05,0.4129409335641567,-5.6979840654609134e-05,0.4129409335641567,1.5300842956718575e-06,0.4129409335641567,-8.540865704328144e-06
0.4137350507440878,7.6077958982526415e-06,0.4137350507440878,-5.840097592364317e-05,0.4137350507440878,1.3333518678529408e-06,0.4137350507440878,-1.0276554888014327e-05
0.4145291679240188,-6.3468324359346415e-06,0.4145291679240188,-5.806603175157751e-05,0.4145291679240188,-5.625633763964314e-07,0.4145291679240188,-1.3240171124863198e-05
0.4153232851039499,-1.7348369400465858e-05,0.4153232851039499,-5.38227919889003e-05,0.4153232851039499,-1.214256648404049e-06,0.4153232851039499,-1.286512294121036e-05
0.416117402283881,-2.6620061714510973e-05,0.416117402283881,-5.754079330158944e-05,0.416117402283881,7.604142950341075e-07,0.416117402283881,-1.2884983971395388e-05
0.416911519463812,-3.843728745391458e-05,0.416911519463812,-5.894467023115727e-05,0.416911519463812,-2.103030219365836e-06,0.416911519463812,-1.2529473187089444e-05
0.4177056366437431,-5.182405683030337e-05,0.4177056366437431,-5.43659463963163e-05,0.4177056366437431,-2.932194165365475e-06,0.4177056366437431,-1.2647571366060672e-05
0.4184997538236742,-5.790729063182352e-05,0.4184997538236742,-5.186603692788101e-05,0.4184997538236742,-5.537965947735271e-06,0.4184997538236742,-1.54411246451711e-05
0.4192938710036052,-4.618462943065257e-05,0.4192938710036052,-3.965860785207533e-05,0.4192938710036052,-9.289767702357628e-06,0.4192938710036052,-1.5807996576729945e-05
0.4200879881835363,-2.9544258681999307e-05,0.4200879881835363,-1.198748749127153e-06,0.4200879881835363,-6.57004445420651e-06,0.4200879881835363,-1.2630631973135572e-05
0.4208821053634674,-8.786201855570846e-06,0.4208821053634674,2.248057469198421e-05,0.4208821053634674,-3.082464874930034e-07,0.4208821053634674,-1.2409242327019553e-05
0.4216762225433985,-3.129508257122046e-06,0.4216762225433985,2.4881976434755345e-05,0.4216762225433985,1.17494e-06,0.4216762225433985,-1.580434605697637e-05
0.4224703397233295,-7.98501224854081e-06,0.4224703397233295,3.782782840727274e-05,0.4224703397233295,-1.9040013491244863e-06,0.4224703397233295,-1.8137359753480098e-05
0.4232644569032606,-1.750240650751065e-05,0.4232644569032606,3.688020069829108e-05,0.4232644569032606,-1.2943840697653895e-06,0.4232644569032606,-1.5650590001294498e-05
0.4240585740831917,-3.1248306179481105e-05,0.4240585740831917,1.4778378496945338e-05,0.4240585740831917,2.3989420167140064e-06,0.4240585740831917,-1.2648099227564862e-05
0.4248526912631227,-3.81018e-05,0.4248526912631227,-1.4016973734736153e-05,0.4248526912631227,2.320821229846763e-06,0.4248526912631227,-1.4345498462691544e-05
0.4256468084430538,-3.1589958320436974e-05,0.4256468084430538,-3.713218624661547e-05,0.4256468084430538,3.05183635354519e-07,0.4256468084430538,-1.6517918255196477e-05
0.4264409256229849,-1.558418917312416e-05,0.4264409256229849,-4.7659226265731085e-05,0.4264409256229849,2.7562471867093548e-06,0.4264409256229849,-1.5473930061393097e-05
0.4272350428029159,1.4391591570050072e-05,0.4272350428029159,-5.03633520834374e-05,0.4272350428029159,1.17494e-06,0.4272350428029159,-1.3516588345362437e-05
0.428029159982847,5.452454189039403e-05,0.428029159982847,-5.826323376654118e-05,0.428029159982847,4.955714030759879e-06,0.428029159982847,-1.529424031655905e-05
0.4288232771627781,8.969214734652733e-05,0.4288232771627781,-6.645389108861531e-05,0.4288232771627781,5.183401971528478e-06,0.4288232771627781,-1.2015914647685652e-05
0.4296173943427092,0.000108234768217,0.4296173943427092,-6.02051071539132e-05,0.4296173943427092,2.6360041105398083e-06,0.4296173943427092,-1.09102e-05
0.4304115115226402,9.430231862040397e-05,0.4304115115226402,-4.060855855267523e-05,0.4304115115226402,3.584049464914872e-06,0.4304115115226402,-1.144335767344155e-05
0.4312056287025713,5.372882046190571e-05,0.4312056287025713,-3.59505476563399e-05,0.4312056287025713,5.44039289149848e-06,0.4312056287025713,-1.264754843400608e-05
0.4319997458825024,1.8641002271496352e-05,0.4319997458825024,-2.0988267795911094e-05,0.4319997458825024,4.196779188265736e-06,0.4319997458825024,-1.4266833874489507e-05
0.4327938630624334,2.2650492764938725e-05,0.4327938630624334,-8.304111891793239e-06,0.4327938630624334,6.5051508315986025e-06,0.4327938630624334,-1.17409201068935e-05
0.4335879802423645,5.246776492379963e-05,0.4335879802423645,-1.6681314175212042e-05,0.4335879802423645,9.180765789973589e-06,0.4335879802423645,-9.15378375895624e-06
0.4343820974222956,7.203056121007072e-05,0.4343820974222956,-2.780559793673969e-06,0.4343820974222956,9.3721357562942e-06,0.4343820974222956,-9.762683080320373e-06
0.4351762146022266,6.192773121538736e-05,0.4351762146022266,2.181129678329058e-05,0.4351762146022266,6.784668077845629e-06,0.4351762146022266,-1.2902275218465532e-05
0.4359703317821577,4.068126735352287e-05,0.4359703317821577,2.9247202551787656e-05,0.4359703317821577,5.27284895084648e-06,0.4359703317821577,-1.373483790169296e-05
0.4367644489620888,9.043095983642866e-06,0.4367644489620888,9.474445991753964e-06,0.4367644489620888,5.045638941745854e-06,0.4367644489620888,-1.0437129173927736e-05
0.4375585661420199,-2.3940011400798597e-05,0.4375585661420199,-2.10034511289083e-05,0.4375585661420199,2.636572263236414e-06,0.4375585661420199,-9.211904524464691e-06
0.438352683321951,-5.45928812322003e-05,0.438352683321951,-3.2631021914329204e-05,0.438352683321951,1.629266040475379e-06,0.438352683321951,-1.2884043757147723e-05
0.439146800501882,-7.397948734042963e-05,0.439146800501882,-3.6225247039113246e-05,0.439146800501882,3.425643266577583e-06,0.439146800501882,-1.2886279632492935e-05
0.4399409176818131,-7.47759732146228e-05,0.4399409176818131,-3.772681822887469e-05,0.4399409176818131,4.157364340711199e-06,0.4399409176818131,-1.03165313185776e-05
0.4407350348617442,-6.681733703256056e-05,0.4407350348617442,-3.2199379721194254e-05,0.4407350348617442,1.729459267673618e-06,0.4407350348617442,-1.3120495747908114e-05
0.4415291520416752,-5.771196230586823e-05,0.4415291520416752,-2.966008321670535e-05,0.4415291520416752,-2.260977060504706e-06,0.4415291520416752,-1.5254348242018825e-05
0.4423232692216063,-5.156907191316268e-05,0.4423232692216063,-2.7143255897923583e-05,0.4423232692216063,-2.4191007040359124e-06,0.4423232692216063,-1.4879334382632536e-05
0.4431173864015373,-5.107571751610379e-05,0.4431173864015373,-2.736877746976935e-05,0.4431173864015373,-4.413647516103796e-06,0.4431173864015373,-1.4010354989264136e-05
0.4439115035814684,-5.0265944178716366e-05,0.4439115035814684,-2.770496579705481e-05,0.4439115035814684,-6.467075821283635e-06,0.4439115035814684,-1.2371536859087294e-05
0.4447056207613995,-4.811387449804883e-05,0.4447056207613995,-2.4101755003150963e-05,0.4447056207613995,-6.407682750975584e-06,0.4447056207613995,-9.409946060641932e-06
0.4454997379413306,-4.582355513386548e-05,0.4454997379413306,-2.970633368773544e-05,0.4454997379413306,-7.049575608266815e-06,0.4454997379413306,-7.88909878346637e-06
0.4462938551212617,-4.3434329263177126e-05,0.4462938551212617,-4.128243281373584e-05,0.4462938551212617,-4.138223894765695e-06,0.4462938551212617,-8.274114877196188e-06
0.4470879723011927,-3.769430638664917e-05,0.4470879723011927,-5.864468913326594e-05,0.4470879723011927,-1.6305637414885597e-06,0.4470879723011927,-7.811005064928584e-06
0.4478820894811238,-2.474373285468813e-05,0.4478820894811238,-7.599263207699026e-05,0.4478820894811238,-1.737063673591147e-06,0.4478820894811238,-8.458903531149939e-06
0.4486762066610549,-1.2379120501703072e-05,0.4486762066610549,-7.350617819477886e-05,0.4486762066610549,3.024598286520752e-07,0.4486762066610549,-1.0790913631399676e-05
0.4494703238409859,-1.357072864831442e-06,0.4494703238409859,-8.90950596616366e-06,0.4494703238409859,3.3281903497456043e-06,0.4494703238409859,-8.591449569600829e-06
0.450264441020917,8.01086421295983e-07,0.450264441020917,4.94739110132573e-05,0.450264441020917,-7.400655464320374e-07,0.450264441020917,-6.703799616831898e-06
0.4510585582008481,-6.564841843508477e-06,0.4510585582008481,5.413825090740715e-05,0.4510585582008481,1.0164515119004571e-06,0.4510585582008481,-9.428732130303236e-06
0.4518526753807791,-1.2884009359065354e-05,0.4518526753807791,4.928669992665379e-05,0.4518526753807791,3.31786589985999e-06,0.4518526753807791,-1.1364531773489107e-05
0.4526467925607102,-1.6792476615707822e-05,0.4526467925607102,2.515159829786333e-05,0.4526467925607102,2.670537335846336e-07,0.4526467925607102,-1.1146695323141564e-05
0.4534409097406413,-2.224084646915878e-05,0.4534409097406413,-1.5430772644343585e-05,0.4534409097406413,3.842652786136008e-07,0.4534409097406413,-1.3634654193261505e-05
0.4542350269205724,-2.891706903940238e-05,0.4542350269205724,-4.8474481926336725e-05,0.4542350269205724,-3.63910727553685e-07,0.4542350269205724,-1.4780153807880477e-05
0.4550291441005034,-2.435994742096353e-05,0.4550291441005034,-7.374449679771518e-05,0.4550291441005034,-1.9452373995525677e-06,0.4550291441005034,-1.5747905200894866e-05
0.4558232612804345,-1.4464520826749229e-05,0.4558232612804345,-6.41568343330926e-05,0.4558232612804345,1.3626576146745492e-06,0.4558232612804345,-1.7900640103343653e-05
0.4566173784603656,-1.1956733227645751e-05,0.4566173784603656,-8.955015188335363e-06,0.4566173784603656,3.169423386177124e-06,0.4566173784603656,-1.6587222170043964e-05
0.4574114956402966,-1.232210630442628e-05,0.4574114956402966,4.176222498557848e-06,0.4574114956402966,2.1228475851716533e-06,0.4574114956402966,-1.4020475267355412e-05
0.4582056128202277,-1.3121651284948124e-05,0.4582056128202277,-3.442277891858591e-05,0.4582056128202277,1.5997788317249544e-06,0.4582056128202277,-1.2618051284948126e-05
0.4589997300001588,-1.309249178523612e-05,0.4589997300001588,-4.045449421222949e-05,0.4589997300001588,-1.509181224463089e-06,0.4589997300001588,-1.4266519206408971e-05
0.4597938471800898,-1.529124512593923e-05,0.4597938471800898,7.419707377835003e-06,0.4597938471800898,-3.425817462116932e-06,0.4597938471800898,-1.4465230974812154e-05
0.4605879643600209,-2.046558368592288e-05,0.4605879643600209,2.641318338142396e-05,0.4605879643600209,-2.5777121046923742e-06,0.4605879643600209,-1.4414003282986192e-05
0.461382081539952,-2.210541851770253e-05,0.461382081539952,9.641255470785964e-06,0.461382081539952,-1.3935107822938675e-06,0.461382081539952,-1.545382646914503e-05
0.4621761987198831,-2.465160656993248e-05,0.4621761987198831,-1.3329739251134604e-06,0.4621761987198831,-3.655224525056264e-07,0.4621761987198831,-1.42672e-05
0.4629703158998141,-2.3076869535368155e-05,0.4629703158998141,-6.204838745996548e-06,0.4629703158998141,1.0550571995599003e-06,0.4629703158998141,-1.6161512956733933e-05
0.4637644330797452,-1.3817184328666515e-05,0.4637644330797452,-2.7608266236202847e-05,0.4637644330797452,3.011105827060441e-06,0.4637644330797452,-1.6765858347074725e-05
0.4645585502596763,7.016968703459034e-06,0.4645585502596763,-6.728244849758987e-05,0.4645585502596763,9.977805879946132e-07,0.4645585502596763,-1.561e-05
0.4653526674396073,4.046129741765122e-05,0.4653526674396073,-8.259725639682557e-05,0.4653526674396073,-1.273367107414462e-06,0.4653526674396073,-1.529451251950851e-05
0.4661467846195384,8.150875784794341e-05,0.4661467846195384,-6.590844321122362e-05,0.4661467846195384,-1.827314214328598e-06,0.4661467846195384,-1.5510783857114266e-05
0.4669409017994695,0.0001153790349587,0.4669409017994695,-3.3661181573684096e-05,0.4669409017994695,9.751951981991732e-07,0.4669409017994695,-1.4564057272765952e-05
0.4677350189794005,0.0001340660979661,0.4677350189794005,2.1129387816642675e-05,0.4677350189794005,4.5997238678678645e-06,0.4677350189794005,-1.470091354968734e-05
0.4685291361593316,0.0001317056568718,0.4685291361593316,3.221924554138605e-05,0.4685291361593316,5.696887977094516e-06,0.4685291361593316,-1.529427464082559e-05
0.4693232533392627,0.000106385802396,0.4693232533392627,-1.8746868535075948e-05,0.4693232533392627,6.872016202605826e-06,0.4693232533392627,-1.3418037472164212e-05
0.4701173705191938,7.054242069458848e-05,0.4701173705191938,-4.6393512427052425e-05,0.4701173705191938,1.0318147930541152e-05,0.4701173705191938,-1.2292438960659444e-05
0.4709114876991248,2.6749799439322024e-05,0.4709114876991248,-4.469709590258541e-05,0.4709114876991248,1.1384159525599554e-05,0.4709114876991248,-9.152883272253449e-06
0.4717056048790559,-1.915730974311638e-05,0.4717056048790559,-3.784835035993707e-05,0.4717056048790559,1.32601e-05,0.4717056048790559,-8.6190896378415e-06
0.472499722058987,-4.531239227116746e-05,0.472499722058987,-3.843642133181436e-05,0.472499722058987,1.225360067466561e-05,0.472499722058987,-9.735159887555733e-06
0.473293839238918,-5.127127267748117e-05,0.473293839238918,-3.752879782748849e-05,0.473293839238918,1.0535863661259415e-05,0.473293839238918,-8.857373661259417e-06
0.4740879564188491,-5.383750750248087e-05,0.4740879564188491,-3.152973564917789e-05,0.4740879564188491,1.0712358214640124e-05,0.4740879564188491,-6.606103570719751e-06
0.4748820735987802,-5.836081294910015e-05,0.4748820735987802,-2.7577188191826526e-05,0.4748820735987802,9.590801128145786e-06,0.4748820735987802,-7.865518871854213e-06
0.4756761907787112,-5.92508e-05,0.4756761907787112,-2.693482231110417e-05,0.4756761907787112,5.561255977312344e-06,0.4756761907787112,-1.189507224566574e-05
0.4764703079586423,-5.940906312936428e-05,0.4764703079586423,-2.414196333937386e-05,0.4764703079586423,4.335319388092837e-06,0.4764703079586423,-1.1600773741271445e-05
0.4772644251385734,-5.686284469705605e-05,0.4772644251385734,-2.3271864317882285e-05,0.4772644251385734,1.64927143069451e-06,0.4772644251385734,-1.3338928366993772e-05
0.4780585423185045,-5.2023981396611634e-05,0.4780585423185045,-2.4533438448478025e-05,0.4780585423185045,2.1740574548991338e-07,0.4780585423185045,-1.2648168023729363e-05
0.4788526594984356,-5.131264323951651e-05,0.4788526594984356,-3.0359767580923476e-05,0.4788526594984356,-2.161810281450469e-06,0.4788526594984356,-1.2232770281450468e-05
0.4796467766783666,-4.6872101849022544e-05,0.4796467766783666,-3.0617869763423815e-05,0.4796467766783666,-3.543845064551112e-06,0.4796467766783666,-1.499770048737618e-05
0.4804408938582977,-4.195545932457034e-05,0.4804408938582977,-3.269078988453508e-05,0.4804408938582977,-4.53193e-06,0.4804408938582977,-1.3121326337717662e-05
0.4812350110382288,-3.449252167467546e-05,0.4812350110382288,-3.900679512896778e-05,0.4812350110382288,-2.73667940209564e-06,0.4812350110382288,-1.462166185007212e-05
0.4820291282181598,-2.4813702575734608e-05,0.4820291282181598,-5.15087024771128e-05,0.4820291282181598,1.478635070555156e-07,0.4820291282181598,-1.51164430411239e-05
0.4828232453980909,-1.6301066992424116e-05,0.4828232453980909,-7.41420070083424e-05,0.4828232453980909,-7.997888642326922e-07,0.4828232453980909,-1.4148703089531656e-05
0.483617362578022,-1.3852610612653734e-05,0.483617362578022,-8.117570876013146e-05,0.483617362578022,-2.18204e-06,0.483617362578022,-1.3003289387346266e-05
0.484411479757953,-1.792998996682626e-05,0.484411479757953,-4.823141335342773e-05,0.484411479757953,-8.39246e-07,0.484411479757953,-1.3319269482773513e-05
0.4852055969378841,-2.1770084035887837e-05,0.4852055969378841,1.620466266108486e-05,0.4852055969378841,-3.4849795917714677e-06,0.4852055969378841,-1.49386e-05
0.4859997141178152,-2.8363616761604742e-05,0.4859997141178152,8.239107070644629e-05,0.4859997141178152,-2.854263776263833e-06,0.4859997141178152,-1.3596623782398644e-05
0.4867938312977463,-3.428828437253205e-05,0.4867938312977463,8.772345661634783e-05,0.4867938312977463,-1.51064e-06,0.4867938312977463,-1.2973898727393923e-05
0.4875879484776773,-3.328841773885685e-05,0.4875879484776773,3.759449899576276e-05,0.4875879484776773,-9.592337692714034e-07,0.4875879484776773,-1.070344180965478e-05
0.4883820656576084,-2.474414562655132e-05,0.4883820656576084,-1.9387504841567363e-05,0.4883820656576084,7.80698357510974e-07,0.4883820656576084,-9.825037329329662e-06
0.4891761828375395,-1.0033117749727642e-05,0.4891761828375395,-4.7205098228003855e-05,0.4891761828375395,2.6820284770695077e-06,0.4891761828375395,-8.265571212517087e-06
0.4899703000174705,3.025895313877639e-06,0.4899703000174705,-4.554938874222769e-05,0.4899703000174705,7.965563913988678e-06,0.4899703000174705,-9.960591614139485e-06
0.4907644171974016,1.6158920030698493e-05,0.4907644171974016,-3.8715950179154566e-05,0.4907644171974016,6.706577349785725e-06,0.4907644171974016,-1.0081157055443212e-05
0.4915585343773327,2.769371707096761e-05,0.4915585343773327,-3.11348125092759e-05,0.4915585343773327,-1.4732883668392854e-07,0.4915585343773327,-1.019914377547827e-05
0.4923526515572637,3.225600410987915e-05,0.4923526515572637,-3.101019406972564e-05,0.4923526515572637,4.630511129438802e-07,0.4923526515572637,-9.804704410685312e-06
0.4931467687371948,3.330276092505935e-05,0.4931467687371948,-3.948225689192174e-05,0.4931467687371948,4.27433661885387e-06,0.4931467687371948,-9.349940462529676e-06
0.4939408859171259,3.24394515361559e-05,0.4939408859171259,-5.034469809979971e-05,0.4939408859171259,4.8094003072311794e-06,0.4939408859171259,-9.289939114577056e-06
0.494735003097057,2.07707633667271e-05,0.494735003097057,-4.959633857846984e-05,0.494735003097057,2.8346986723236924e-06,0.494735003097057,-1.0751719483613872e-05
0.495529120276988,6.192550831828782e-06,0.495529120276988,-4.509252123152942e-05,0.495529120276988,3.978391488673117e-06,0.495529120276988,-1.0554502476329992e-05
0.4963232374569191,2.51774e-06,0.4963232374569191,-3.722074945047117e-05,0.4963232374569191,7.306384101784631e-06,0.4963232374569191,-1.1956758394592278e-05
0.4971173546368502,3.1102391466262765e-06,0.4971173546368502,-1.4911016396655216e-05,0.4971173546368502,7.86918596182567e-06,0.4971173546368502,-1.3516899146626275e-05
0.4979114718167812,1.382346487440458e-06,0.4979114718167812,1.3319343132683678e-05,0.4979114718167812,6.9017708392492e-06,0.4979114718167812,-1.260865495813486e-05
0.4987055889967123,2.9121708363340528e-06,0.4987055889967123,2.8147192159887432e-05,0.4987055889967123,3.703190720232989e-06,0.4987055889967123,-1.140324221716479e-05
0.4994997061766434,1.8476099915592476e-06,0.4994997061766434,2.0985761168857487e-05,0.4994997061766434,8.403043277705913e-07,0.4994997061766434,-1.3091882532059992e-05
0.5002938233565745,3.2663368313521784e-06,0.5002938233565745,-1.411246134342686e-05,0.5002938233565745,-1.67849e-07,0.5002938233565745,-1.1009232686447192e-05
0.5010879405365055,5.479019390977272e-06,0.5010879405365055,-4.8511684738114696e-05,0.5010879405365055,4.489753134040691e-06,0.5010879405365055,-1.3454671145835612e-05
0.5018820577164366,2.962932425657218e-06,0.5018820577164366,-3.812746929647268e-05,0.5018820577164366,3.392218237245482e-06,0.5018820577164366,-1.50868927208214e-05
0.5026761748963677,-1.0209285787764612e-05,0.5026761748963677,-3.383637779709438e-05,0.5026761748963677,-2.9281727055441587e-06,0.5026761748963677,-1.5214633932855496e-05
0.5034702920762988,-9.414203703058827e-06,0.5034702920762988,-5.367181676378571e-05,0.5034702920762988,-5.89387557318938e-06,0.5034702920762988,-1.561e-05
0.5042644092562298,4.642875333796762e-06,0.5042644092562298,-3.862661972549436e-05,0.5042644092562298,-5.223762297713707e-06,0.5042644092562298,-1.4148962872452058e-05
0.5050585264361609,3.300236231568438e-05,0.5050585264361609,1.785834312091464e-05,0.5050585264361609,-4.827961718792263e-06,0.5050585264361609,-1.5816775131928203e-05
0.505852643616092,5.243547941684049e-05,0.505852643616092,6.881821191041587e-05,0.505852643616092,-3.0024873459459293e-06,0.505852643616092,-1.7407154705543967e-05
0.506646760796023,3.792075252835389e-05,0.506646760796023,5.8052024149201945e-05,0.506646760796023,1.2128935597057363e-06,0.506646760796023,-1.5572051622904223e-05
0.507440877975954,-2.0617057093814147e-06,0.507440877975954,1.6527905874917792e-06,0.507440877975954,2.440123341696637e-06,0.507440877975954,-1.2608104164575842e-05
0.5082349951558852,-3.570847553791158e-05,0.5082349951558852,-3.534296404562499e-05,0.5082349951558852,1.491323189358038e-07,0.5082349951558852,-1.4463124126574987e-05
0.5090291123358163,-6.261216546443088e-05,0.5090291123358163,-5.669207408623656e-05,0.5090291123358163,1.1349263082305624e-06,0.5090291123358163,-1.7130654482546067e-05
0.5098232295157473,-7.882005194475211e-05,0.5098232295157473,-6.639693440503503e-05,0.5098232295157473,1.7278659723760587e-06,0.5098232295157473,-1.5679124614936717e-05
0.5106173466956784,-6.556829079432523e-05,0.5106173466956784,-5.74568379294604e-05,0.5106173466956784,1.17494e-06,0.5106173466956784,-1.3101946841953245e-05
0.5114114638756094,-3.271379246179871e-05,0.5114114638756094,-5.141126540758554e-05,0.5114114638756094,2.438609826077948e-06,0.5114114638756094,-1.0554947940960202e-05
0.5122055810555405,7.338849603718775e-07,0.5122055810555405,-3.580747477243211e-05,0.5122055810555405,2.419137289580782e-06,0.5122055810555405,-1.0198908131257652e-05
0.5129996982354716,2.533693935792684e-05,0.5129996982354716,-1.5282302632490577e-05,0.5129996982354716,3.188487838934513e-06,0.5129996982354716,-1.1245682612978171e-05
0.5137938154154027,3.016590735568719e-05,0.5137938154154027,-8.981277899001295e-07,0.5137938154154027,2.1434552583826967e-06,0.5137938154154027,-8.620763677843596e-06
0.5145879325953338,1.8050869577204106e-05,0.5145879325953338,-4.954589548661876e-06,0.5145879325953338,1.1571386174745734e-06,0.5145879325953338,-9.843087925120686e-06
0.5153820497752648,5.87472e-06,0.5153820497752648,-1.9535654785996266e-05,0.5153820497752648,-4.430351541592724e-06,0.5153820497752648,-1.0098202253294567e-05
0.5161761669551959,9.463070312942276e-06,0.5161761669551959,-2.29954161924773e-05,0.5161761669551959,-5.658371798178238e-06,0.5161761669551959,-1.213365642428861e-05
0.5169702841351269,1.913925475304263e-05,0.5169702841351269,-1.7092424977556e-05,0.5169702841351269,-3.131717034053068e-06,0.5169702841351269,-1.2766119708502367e-05
0.5177644013150581,2.3056689018350924e-05,0.5177644013150581,-2.4336044633727773e-05,0.5177644013150581,-1.0949479289869289e-07,0.5177644013150581,-1.2016566385418468e-05
0.5185585184949891,1.2709317093203005e-05,0.5185585184949891,-2.9511131764491783e-05,0.5185585184949891,2.273680889524689e-07,0.5185585184949891,-1.2193480379147434e-05
0.5193526356749202,-1.3281122978110528e-06,0.5193526356749202,-3.05354148179694e-05,0.5193526356749202,-1.51064e-06,0.5193526356749202,-1.4148539561442384e-05
0.5201467528548512,-1.893905367590316e-05,0.5201467528548512,-3.5928755804970413e-05,0.5201467528548512,3.050231122856961e-07,0.5201467528548512,-1.3654891890417288e-05
0.5209408700347823,-3.4048074904995004e-05,0.5209408700347823,-3.473545699785881e-05,0.5209408700347823,1.136143599155793e-06,0.5209408700347823,-1.49386e-05
0.5217349872147133,-4.244272790500096e-05,0.5217349872147133,-2.457247714679948e-05,0.5217349872147133,7.599947725425657e-07,0.5217349872147133,-1.3912806798461244e-05
0.5225291043946444,-4.057182243908727e-05,0.5225291043946444,-1.1700831804489286e-05,0.5225291043946444,1.312762569141557e-06,0.5225291043946444,-1.1443780609771816e-05
0.5233232215745756,-3.156566189658722e-05,0.5233232215745756,-6.449715166741618e-06,0.5233232215745756,2.5769712931009125e-06,0.5233232215745756,-1.1966594583098574e-05
0.5241173387545066,-2.3844004605285165e-05,0.5241173387545066,-9.740504722617152e-06,0.5241173387545066,1.9647256781427303e-06,0.5241173387545066,-1.5985429927089897e-05
0.5249114559344377,-1.1918207660896994e-05,0.5249114559344377,-2.054655618149481e-05,0.5249114559344377,2.51774e-06,0.5249114559344377,-1.5294312288271827e-05
0.5257055731143687,-7.316116977405569e-06,0.5257055731143687,-2.9188166861048893e-05,0.5257055731143687,3.663338982245084e-06,0.5257055731143687,-1.2194312090377723e-05
0.5264996902942998,-1.0237015151428466e-05,0.5264996902942998,-3.843389416635066e-05,0.5264996902942998,1.0085501936181486e-06,0.5264996902942998,-1.1581376892267046e-05
0.5272938074742308,-1.6633758475253488e-05,0.5272938074742308,-3.760768091408728e-05,0.5272938074742308,-8.887692563880849e-07,0.5272938074742308,-1.1600848523172514e-05
0.528087924654162,-2.080111169551213e-05,0.528087924654162,-1.75280173240043e-05,0.528087924654162,-5.03548e-07,0.528087924654162,-1.0221027692979768e-05
0.528882041834093,-2.652379132938833e-05,0.528882041834093,7.211971591451298e-06,0.528882041834093,-1.073333608557548e-06,0.528882041834093,-9.606423555455275e-06
0.5296761590140241,-3.327889504856691e-05,0.5296761590140241,5.1644213082887305e-06,0.5296761590140241,-3.6814992520033048e-06,0.5296761590140241,-9.62708573086319e-06
0.5304702761939551,-3.9875939877912864e-05,0.5304702761939551,-2.119038046412937e-05,0.5304702761939551,-5.025916012208714e-06,0.5304702761939551,-1.1866822532785174e-05
0.5312643933738862,-4.230828903170135e-05,0.5312643933738862,-3.815033957961399e-05,0.5312643933738862,-5.1194445002955934e-08,0.5312643933738862,-1.1266378063402696e-05
0.5320585105538173,-3.926766485305e-05,0.5320585105538173,-3.5097614751424265e-05,0.5320585105538173,2.51774e-06,0.5320585105538173,-9.607100622091617e-06
0.5328526277337483,-3.269312788728509e-05,0.5328526277337483,-2.703155205209804e-05,0.5328526277337483,1.17494e-06,0.5328526277337483,-8.89601e-06
0.5336467449136795,-2.6158327574648385e-05,0.5336467449136795,-3.5117771653284486e-05,0.5336467449136795,2.3191930539543434e-06,0.5336467449136795,-1.0475226526977173e-05
0.5344408620936105,-2.0903629205805845e-05,0.5344408620936105,-5.34232223220724e-05,0.5344408620936105,3.663591529856624e-06,0.5344408620936105,-1.0209711529856624e-05
0.5352349792735416,-1.8612629681305423e-05,0.5352349792735416,-6.969075747377013e-05,0.5352349792735416,6.247226062077757e-07,0.5352349792735416,-9.863473650796615e-06
0.5360290964534726,-1.96384e-05,0.5360290964534726,-5.325269804295353e-05,0.5360290964534726,-2.85344e-06,0.5360290964534726,-1.0801261681876049e-05
0.5368232136334037,-1.4800495420882218e-05,0.5368232136334037,1.375161878407724e-05,0.5368232136334037,-2.18204e-06,0.5368232136334037,-1.1028651144779445e-05
0.5376173308133347,-1.377362949708783e-05,0.5376173308133347,5.173153743226125e-05,0.5376173308133347,-9.9711579750331e-07,0.5376173308133347,-1.2174064748543914e-05
0.5384114479932659,-1.7229376381336123e-05,0.5384114479932659,2.668898792624697e-05,0.5384114479932659,3.553896308051417e-06,0.5384114479932659,-1.365492361866388e-05
0.539205565173197,-1.3281287556081355e-05,0.539205565173197,-3.9716578933827e-06,0.539205565173197,5.9146492037098525e-06,0.539205565173197,-1.4898673733175596e-05
0.539999682353128,-9.232854135403927e-06,0.539999682353128,-3.7081242360855085e-05,0.539999682353128,4.867858828444077e-06,0.539999682353128,-1.5106743276748398e-05
0.5407937995330591,-2.5423643734264877e-06,0.5407937995330591,-6.150250535250533e-05,0.5407937995330591,5.676623179570965e-06,0.5407937995330591,-1.6201590039017492e-05
0.5415879167129901,6.00575368081689e-06,0.5415879167129901,-4.093464377014299e-05,0.5415879167129901,5.9948059074494485e-06,0.5415879167129901,-1.383596360342737e-05
0.5423820338929212,2.112485923653196e-05,0.5423820338929212,1.5575070214652312e-05,0.5423820338929212,3.033104061474173e-06,0.5423820338929212,-1.203432695389437e-05
0.5431761510728523,3.77436368549508e-05,0.5431761510728523,2.617563993867538e-05,0.5431761510728523,1.84634e-06,0.5431761510728523,-1.3752450312166414e-05
0.5439702682527834,6.20594439725871e-05,0.5439702682527834,-5.36022031056599e-06,0.5439702682527834,2.6760317329197573e-06,0.5439702682527834,-1.5116008267080245e-05
0.5447643854327144,8.574727155893509e-05,0.5447643854327144,-2.3425882378273835e-05,0.5447643854327144,1.84634e-06,0.5447643854327144,-1.3479202365617184e-05
0.5455585026126455,8.98787053585799e-05,0.5455585026126455,-3.7875246353254805e-05,0.5455585026126455,2.4780373207100517e-06,0.5455585026126455,-9.962654018934925e-06
0.5463526197925765,7.337686046964769e-05,0.5463526197925765,-2.398547140500747e-05,0.5463526197925765,8.697187425862471e-07,0.5463526197925765,-1.2015656190829854e-05
0.5471467369725076,4.0886385487589625e-05,0.5471467369725076,2.8021241401244065e-05,0.5471467369725076,-7.115808216904058e-07,0.5471467369725076,-1.2725830121899317e-05
0.5479408541524387,-1.4667670859483152e-06,0.5479408541524387,2.278385260494972e-05,0.5479408541524387,3.3442345692605736e-06,0.5479408541524387,-1.42672e-05
0.5487349713323698,-3.80458115377524e-05,0.5487349713323698,-2.470913601395832e-05,0.5487349713323698,6.13115685896254e-06,0.5487349713323698,-1.375432628207492e-05
0.5495290885123009,-6.649333200023645e-05,0.5495290885123009,-4.30178720778788e-05,0.5495290885123009,2.104383264760977e-06,0.5495290885123009,-1.29244e-05
0.5503232056922319,-6.99542419420248e-05,0.5503232056922319,-5.1227112334838455e-05,0.5503232056922319,-1.7475194067147157e-06,0.5503232056922319,-1.2213399258393394e-05
0.551117322872163,-5.067978763218425e-05,0.551117322872163,-5.65652e-05,0.551117322872163,-1.964760076225073e-06,0.551117322872163,-1.5373159847549856e-05
0.551911440052094,-1.856652513110814e-05,0.551911440052094,-5.230014899405639e-05,0.551911440052094,4.344010381591054e-07,0.551911440052094,-1.59457e-05
0.5527055572320251,1.4499192508331038e-05,0.5527055572320251,-5.494111674508496e-05,0.5527055572320251,1.0364152607274243e-06,0.5527055572320251,-1.617214204551245e-05
0.5534996744119562,2.366576180337952e-05,0.5534996744119562,-6.12622622374148e-05,0.5534996744119562,2.181570901689758e-06,0.5534996744119562,-1.762384814133298e-05
0.5542937915918873,1.14824330414984e-05,0.5542937915918873,-6.938121686449052e-05,0.5542937915918873,1.9453956185020043e-06,0.5542937915918873,-1.8334133144493987e-05
0.5550879087718184,-2.768772862906588e-06,0.5550879087718184,-6.724377235510563e-05,0.5550879087718184,8.992956513361933e-07,0.5550879087718184,-1.610813801786313e-05
0.5558820259517494,-4.8286267483822015e-06,0.5558820259517494,-4.190493168350591e-05,0.5558820259517494,2.5762448774266984e-06,0.5558820259517494,-1.1815619509706792e-05
0.5566761431316805,-3.1518829719006163e-06,0.5566761431316805,-5.007064096851765e-06,0.5566761431316805,1.2272231081018702e-06,0.5566761431316805,-1.4423833150033e-05
0.5574702603116115,-3.442957632765306e-06,0.5574702603116115,1.2123701066482417e-05,0.5574702603116115,1.7453615969384368e-06,0.5574702603116115,-1.201828217541673e-05
0.5582643774915427,-1.5031291852979078e-05,0.5582643774915427,-1.2123202503474297e-05,0.5582643774915427,6.426275951934062e-06,0.5582643774915427,-9.538274893181954e-06
0.5590584946714737,-3.0101812907618683e-05,0.5590584946714737,-5.0459462171970914e-05,0.5590584946714737,7.908767072658628e-06,0.5590584946714737,-8.89601e-06
0.5598526118514048,-2.72542409818331e-05,0.5598526118514048,-4.995769303620759e-05,0.5598526118514048,3.901202290363494e-06,0.5598526118514048,-8.916342912796248e-06
0.5606467290313358,-1.2607669750947124e-05,0.5606467290313358,-5.52810151968061e-06,0.5606467290313358,5.695039061173828e-06,0.5606467290313358,-8.22461e-06
0.5614408462112669,3.883381646964271e-06,0.5614408462112669,2.8302819950835837e-05,0.5614408462112669,8.876628767478917e-06,0.5614408462112669,-8.22461e-06
0.5622349633911979,1.217134817468889e-05,0.5622349633911979,7.310389835486566e-05,0.5622349633911979,6.508868532688206e-06,0.5622349633911979,-7.711755362196587e-06
0.563029080571129,6.86437988345808e-06,0.563029080571129,8.940811588511835e-05,0.563029080571129,2.242204192343384e-06,0.563029080571129,-8.22461e-06
0.5638231977510602,-2.0701769103013714e-07,0.5638231977510602,4.265016028082159e-05,0.5638231977510602,1.05651314918508e-06,0.5638231977510602,-9.527778890937538e-06
0.5646173149309912,-8.856788700449703e-06,0.5646173149309912,-4.41374041330337e-06,0.5646173149309912,-5.332207668677742e-07,0.5646173149309912,-1.2687525449467908e-05
0.5654114321109223,-1.8965805836177e-05,0.5654114321109223,-4.9335448785007015e-05,0.5654114321109223,1.0756476901236953e-06,0.5654114321109223,-1.420809931339094e-05
0.5662055492908533,-2.875817534565256e-05,0.5662055492908533,-8.49269338036092e-05,0.5662055492908533,3.86053e-06,0.5662055492908533,-1.2450159556728814e-05
0.5669996664707844,-4.044689460267511e-05,0.5669996664707844,-8.342584607575303e-05,0.5669996664707844,3.5250702698662445e-06,0.5669996664707844,-1.3930779190401266e-05
0.5677937836507154,-3.93510816242521e-05,0.5677937836507154,-3.842623957661316e-05,0.5677937836507154,-5.200323866209004e-07,0.5677937836507154,-1.3793922703031512e-05
0.5685879008306466,-1.7369490836887793e-05,0.5685879008306466,1.9204596774134e-05,0.5685879008306466,-3.680344395871004e-06,0.5685879008306466,-1.2253e-05
0.5693820180105776,1.2540489522490952e-05,0.5693820180105776,2.6970946898590327e-05,0.5693820180105776,-6.249417518604151e-06,0.5693820180105776,-1.5250580148833206e-05
0.5701761351905087,2.5598737305099693e-05,0.5701761351905087,-2.5753587981823478e-06,0.5701761351905087,-6.270114670700044e-06,0.5701761351905087,-1.6796184012100133e-05
0.5709702523704397,2.0689194110302384e-05,0.5709702523704397,-3.127099767213278e-05,0.5709702523704397,-3.448460679121673e-06,0.5709702523704397,-1.4545619046052032e-05
0.5717643695503708,1.1941249931635409e-05,0.5717643695503708,-3.885600738418896e-05,0.5717643695503708,1.7264559071261771e-06,0.5717643695503708,-1.0595049058921924e-05
