X [s].2,L DELTOID ANTERIOR: EMG 3 [V],X [s].3,L BICEPS BRACHII: EMG 4 [V],X [s].4,L DELTOID POSTERIOR: EMG 5 [V],X [s].7,L DELTOID MEDIUS: EMG 8 [V]
0.0,-0.000192523,0.0,9.81918e-05,0.0,-9.23171e-06,0.0,-1.82956e-05
0.000794117179931,-8.81210078138493e-05,0.000794117179931,8.023191854681038e-05,0.000794117179931,-1.3092196013353304e-05,0.000794117179931,-2.030979791997809e-05
0.0015882343598621,0.0001079256075978,0.0015882343598621,4.95157181588352e-05,0.0015882343598621,-1.930265589081253e-05,0.0015882343598621,-2.03098e-05
0.0023823515397932,0.0002250859160319,0.0023823515397932,2.1652562897638225e-05,0.0023823515397932,-2.1988306509005985e-05,0.0023823515397932,-1.795989674540006e-05
0.0031764687197242,0.000181781069816,0.0031764687197242,2.5177708491117417e-06,0.0031764687197242,-2.534519458802504e-05,0.0031764687197242,-1.628140270606809e-05
0.0039705858996553,5.858003613688244e-05,0.0039705858996553,-2.568075439965927e-05,0.0039705858996553,-2.316321126649879e-05,0.0039705858996553,-1.3595813866777795e-05
0.0047647030795864,5.622952047836582e-05,0.0047647030795864,-5.052238351528996e-05,0.0047647030795864,-1.7624248269997984e-05,0.0047647030795864,-1.35958e-05
0.0055588202595174,9.718470844719445e-05,0.0055588202595174,-3.994809495353965e-05,0.0055588202595174,-1.4267198793229923e-05,0.0055588202595174,-1.2924399670880887e-05
0.0063529374394485,0.000123032916655,0.0063529374394485,-2.4506049791330417e-05,0.0063529374394485,-1.0574511906699597e-05,0.0063529374394485,-1.1917303247281708e-05
0.0071470546193796,3.323480843858867e-05,0.0071470546193796,-3.6423219253428855e-05,0.0071470546193796,-9.567416823614771e-06,0.0071470546193796,-7.888937294662359e-06
0.0079411717993107,-0.0001331022822647,0.0079411717993107,-1.3763834001358988e-05,0.0079411717993107,-1.2252972266547671e-05,0.0079411717993107,-3.189188533412488e-06
0.0087352889792417,-0.0002042729085185,0.0087352889792417,3.541613678371354e-05,0.0087352889792417,-1.6281394821847825e-05,0.0087352889792417,-7.217514821873532e-06
0.0095294061591728,-0.0001720451558733,0.0095294061591728,3.1387819483690246e-05,0.0095294061591728,-2.064547889266889e-05,0.0095294061591728,-1.2588674021843065e-05
0.0103235233391039,-8.845406433582499e-05,0.0103235233391039,-1.8296655702822096e-05,0.0103235233391039,-2.0309706267384188e-05,0.0103235233391039,-1.6281518397237408e-05
0.0111176405190349,-2.176062700527621e-06,0.0111176405190349,-5.4214700561131085e-05,0.0111176405190349,-1.7120488677242073e-05,0.0111176405190349,-2.0310005518545257e-05
0.011911757698966,0.000114970759823,0.011911757698966,-4.2466525801773096e-05,0.011911757698966,-1.4938716218655325e-05,0.011911757698966,-2.4337885442892185e-05
0.0127058748788971,0.0002187047185025,0.0127058748788971,-1.980691683245775e-05,0.0127058748788971,-1.829549380236452e-05,0.0127058748788971,-2.3666721239527096e-05
0.0134999920588282,0.0002207219798595,0.0134999920588282,-5.539172674786639e-06,0.0134999920588282,-1.963838657170949e-05,0.0134999920588282,-2.1988316784363115e-05
0.0142941092387592,0.0001240395705453,0.0142941092387592,6.881878584041717e-06,0.0142941092387592,-1.6952786329754263e-05,0.0142941092387592,-1.963843905501951e-05
0.0150882264186903,1.1727177949555457e-06,0.0150882264186903,1.1917098996411632e-05,0.0150882264186903,-1.5777794418211737e-05,0.0150882264186903,-2.299541166902981e-05
0.0158823435986214,-6.562435580464457e-05,0.0158823435986214,5.875149123447785e-06,0.0158823435986214,-1.5610011916584396e-05,0.0158823435986214,-2.635206159729549e-05
0.0166764607785524,-7.267835181272332e-05,0.0166764607785524,-3.5078477177922466e-05,0.0166764607785524,-1.4267266322326816e-05,0.0166764607785524,-2.1652832123204755e-05
0.0174705779584835,-8.174234841694887e-05,0.0174705779584835,-5.001868535524799e-05,0.0174705779584835,-1.3595818635781564e-05,0.0174705779584835,-2.098121863578157e-05
0.0182646951384146,-9.04706465654158e-05,0.0182646951384146,-2.2995465443282744e-05,0.0182646951384146,-1.4434994862306452e-05,0.0182646951384146,-1.7624220551998613e-05
0.0190588123183456,-0.0001223627290487,0.0190588123183456,-2.8532629460796286e-06,0.0190588123183456,-1.493857135802356e-05,0.0190588123183456,-1.29244e-05
0.0198529294982767,-0.0001693594264512,0.0198529294982767,8.560584309088697e-06,0.0198529294982767,-1.3092156361715724e-05,0.0198529294982767,-1.2924499748894589e-05
0.0206470466782078,-0.0001539190367604,0.0206470466782078,1.5945204152315987e-05,0.0206470466782078,-1.1917378881608682e-05,0.0206470466782078,-1.5609819691507127e-05
0.0214411638581389,-7.066828911526583e-05,0.0214411638581389,1.25888527870894e-05,0.0214411638581389,-8.224778065343211e-06,0.0214411638581389,-2.098095554065696e-05
0.0222352810380699,-1.728977453970141e-05,0.0222352810380699,2.0980999599549536e-05,0.0222352810380699,-1.0910135872094634e-05,0.0222352810380699,-1.980622805725699e-05
0.023029398218001,7.569979132929168e-05,0.023029398218001,4.313725028063598e-05,0.023029398218001,-1.6281387946766443e-05,0.023029398218001,-1.2588716196420389e-05
0.0238235153979321,0.0001260528323876,0.0238235153979321,4.515119821166054e-05,0.0238235153979321,-1.7624219528091468e-05,0.0238235153979321,-1.0910258584274404e-05
0.0246176325778631,1.4261044695376445e-05,0.0246176325778631,3.4744607215510686e-05,0.0246176325778631,-1.863128622967933e-05,0.0246176325778631,-1.3931527540641333e-05
0.0254117497577942,-0.000135780507171,0.0254117497577942,3.004529731593873e-05,0.0254117497577942,-1.829562123685277e-05,0.0254117497577942,-1.4602857526294468e-05
0.0262058669377253,-0.0001888277916848,0.0262058669377253,1.5778394013455726e-05,0.0262058669377253,-1.6952855907344704e-05,0.0262058669377253,-1.6617016138982946e-05
0.0269999841176564,-0.0002203853688663,0.0269999841176564,-0.0001008746668535,0.0269999841176564,-1.9134756359055865e-05,0.0269999841176564,-2.03097261444022e-05
0.0277941012975874,-0.0001344466993987,0.0277941012975874,-0.0001354538425687,0.0277941012975874,-2.03097991770998e-05,0.0277941012975874,-2.4338106582548004e-05
0.0285882184775185,4.951976438188037e-05,0.0285882184775185,-3.910758788214042e-05,0.0285882184775185,-1.980615313848169e-05,0.0285882184775185,-2.8366484379493894e-05
0.0293823356574496,0.0002327921505381,0.0293823356574496,1.728393093357936e-05,0.0293823356574496,-1.7792163181522275e-05,0.0293823356574496,-2.769515439384076e-05
0.0301764528373806,0.0003200828162692,0.0301764528373806,1.930258037407401e-05,0.0301764528373806,-1.2253328968326903e-05,0.0301764528373806,-2.4002619314197647e-05
0.0309705700173117,0.0002180398531586,0.0309705700173117,-8.894945306471538e-06,0.0309705700173117,-1.0910250699853644e-05,0.0309705700173117,-1.9974252095785252e-05
0.0317646871972428,0.0001220275479067,0.0317646871972428,-4.917915053068705e-05,0.0317646871972428,-1.2252978350910044e-05,0.0317646871972428,-1.69528487104524e-05
0.0325588043771738,0.0001507288843447,0.0325588043771738,-9.617755374009044e-05,0.0325588043771738,-1.594570185041843e-05,0.0325588043771738,-1.4267177794978824e-05
0.0333529215571049,0.0001297443575554,0.0333529215571049,-8.778395166664883e-05,0.0333529215571049,-1.6281381776076205e-05,0.0333529215571049,-1.02387088809239e-05
0.034147038737036,3.2402409541921784e-05,0.034147038737036,-4.179804762855308e-05,0.034147038737036,-1.5610051790423077e-05,0.034147038737036,-6.882078950572618e-06
0.0349411559169671,-3.3901819452570374e-05,0.0349411559169671,-5.541042657192388e-06,0.0349411559169671,-1.8631132277965902e-05,0.0349411559169671,-1.4266790013915816e-05
0.0357352730968981,-7.13346319054748e-05,0.0357352730968981,2.198736740893855e-05,0.0357352730968981,-1.443514216532701e-05,0.0357352730968981,-1.4938577253818708e-05
0.0365293902768292,-5.790816441476449e-05,0.0365293902768292,6.546309078142371e-06,0.0365293902768292,-1.1078141102772803e-05,0.0365293902768292,-8.560388097472293e-06
0.0373235074567603,-5.4215495441115015e-05,0.0373235074567603,-2.030980630458239e-05,0.0373235074567603,-8.560322609070876e-06,0.0373235074567603,-8.224598967074723e-06
0.0381176246366913,-7.502933936752023e-05,0.0381176246366913,-2.0981356201958972e-05,0.0381176246366913,-9.903146859967277e-06,0.0381176246366913,-7.049560656767473e-06
0.0389117418166224,-9.886145386863452e-05,0.0389117418166224,-2.6016231104785573e-05,0.0389117418166224,-1.141358933290088e-05,0.0389117418166224,-3.52508823104572e-06
0.0397058589965535,-0.0001038987399758,0.0397058589965535,-2.970910932700317e-05,0.0397058589965535,-8.896140001217915e-06,0.0397058589965535,-1.0072300032833202e-06
0.0404999761764846,-0.0001210184863888,0.0404999761764846,-2.4673951068268247e-05,0.0404999761764846,-8.560320071217884e-06,0.0404999761764846,-3.021229572992708e-06
0.0412940933564156,-0.0001485467696957,0.0412940933564156,-1.2253103914660908e-05,0.0412940933564156,-1.3595757872179258e-05,0.0412940933564156,-5.203311744658421e-06
0.0420882105363467,-0.0001977263184385,0.0420882105363467,1.1744768273978438e-06,0.0420882105363467,-1.4938577731984384e-05,0.0420882105363467,-6.21045562869232e-06
0.0428823277162778,-0.0002217268153787,0.0428823277162778,-3.373452244325029e-05,0.0428823277162778,-1.326025276785154e-05,0.0428823277162778,-8.89576557234768e-06
0.0436764448962088,-0.0001237118020325,0.0436764448962088,-8.945973309614204e-05,0.0436764448962088,-1.124603976836176e-05,0.0436764448962088,-6.881959767667846e-06
0.0444705620761399,6.629132590580853e-05,0.0444705620761399,-6.69729741368631e-05,0.0444705620761399,-8.224754287846765e-06,0.0444705620761399,-1.0910007616522692e-05
0.045264679256071,0.0001834559395168,0.045264679256071,2.0978902439416016e-05,0.045264679256071,-7.553237538429009e-06,0.045264679256071,-1.359572984523906e-05
0.046058796436002,0.0001153123058503,0.046058796436002,8.711350319047013e-05,0.046058796436002,-1.1581581920239427e-05,0.046058796436002,-1.5609990960074834e-05
0.0468529136159331,-3.642350718951626e-05,0.0468529136159331,9.517098344106168e-05,0.0468529136159331,-1.6281457553119635e-05,0.0468529136159331,-1.8295559712816256e-05
0.0476470307958642,-4.850734694170096e-05,0.0476470307958642,0.0001233665428697,0.0476470307958642,-1.9638107481385355e-05,0.0476470307958642,-1.5945904763030254e-05
0.0484411479757953,4.6152298047873865e-05,0.0484411479757953,0.000160293580786,0.0484411479757953,-1.7624331957125165e-05,0.0484411479757953,-1.4938665978562582e-05
0.0492352651557263,9.88608873731417e-05,0.0492352651557263,0.0001376369942969,0.0492352651557263,-1.3260291492122567e-05,0.0492352651557263,-1.5609970539673452e-05
0.0500293823356574,0.0001153116341049,0.0500293823356574,8.912897903752076e-05,0.0500293823356574,-1.2253022402417064e-05,0.0500293823356574,-1.5106411202320757e-05
0.0508234995155885,9.248491392483234e-05,0.0508234995155885,1.762424361820095e-05,0.0508234995155885,-1.057450102390716e-05,0.0508234995155885,-1.8966997644983034e-05
0.0516176166955195,5.2872739938707526e-05,0.0516176166955195,-6.932278677069377e-05,0.0516176166955195,-1.0238856456166476e-05,0.0516176166955195,-1.7624044745542188e-05
0.0524117338754506,6.428534969481076e-05,0.0524117338754506,-0.0001210146957181,0.0524117338754506,-1.2924176398779004e-05,0.0524117338754506,-1.0239414903357742e-05
0.0532058510553817,7.838473098494353e-05,0.0532058510553817,-0.0001357890895844,0.0532058510553817,-9.903286218832858e-06,0.0532058510553817,-8.896092763309362e-06
0.0539999682353128,1.4437558079341716e-05,0.0539999682353128,-0.0001710365900494,0.0539999682353128,-8.224677141052536e-06,0.0539999682353128,-8.224636856581017e-06
0.0547940854152438,-6.277418191944178e-05,0.0547940854152438,-0.0001767448951829,0.0547940854152438,-5.539079324429359e-06,0.0547940854152438,1.1747673641299136e-06
0.0555882025951749,-0.0001075910208443,0.0555882025951749,-9.987007512557508e-05,0.0555882025951749,-9.56742535731207e-06,0.0555882025951749,1.8463147702071955e-06
0.056382319775106,-0.0001139693556351,0.056382319775106,-3.1059051564844166e-05,0.056382319775106,-1.4266725257926844e-05,0.056382319775106,-5.873940068975131e-06
0.057176436955037,-6.865389800882245e-05,0.057176436955037,-5.119240089996402e-05,0.057176436955037,-1.4938546696400828e-05,0.057176436955037,-1.1581146920994874e-05
0.0579705541349681,-2.702610423792277e-05,0.0579705541349681,-6.797793055034258e-05,0.0579705541349681,-1.49386e-05,0.0579705541349681,-1.1917280610891338e-05
0.0587646713148992,2.7357435531161977e-05,0.0587646713148992,-3.373893688738554e-05,0.0587646713148992,-1.3595848505670984e-05,0.0587646713148992,-1.0910236379253237e-05
0.0595587884948302,0.000142166336617,0.0595587884948302,5.030519020662614e-07,0.0595587884948302,-1.6281361090185414e-05,0.0595587884948302,-1.628132218037083e-05
0.0603529056747613,0.0002385138872621,0.0603529056747613,-6.881896757042259e-06,0.0603529056747613,-1.2588659222888288e-05,0.0603529056747613,-1.7288504797324073e-05
0.0611470228546924,0.0002227375326097,0.0611470228546924,-1.762315652957808e-05,0.0611470228546924,-6.882374342750995e-06,0.0611470228546924,-1.7959834782977212e-05
0.0619411400346235,3.945844099963452e-05,0.0619411400346235,-1.76242e-05,0.0619411400346235,-8.895857901194197e-06,0.0619411400346235,-1.4603153499268232e-05
0.0627352572145545,-9.717733852731608e-05,0.0627352572145545,3.859372420673925e-06,0.0627352572145545,-1.5945320168584885e-05,0.0627352572145545,-3.5254268771683344e-06
0.0635293743944856,-8.241447627675454e-05,0.0635293743944856,2.668726393513335e-05,0.0635293743944856,-1.4267254122724888e-05,0.0635293743944856,-5.203275877275113e-06
0.0643234915744167,-5.2537117003950354e-05,0.0643234915744167,1.7792094388602086e-05,0.0643234915744167,-1.292441424741624e-05,0.0643234915744167,-1.2420723420986524e-05
0.0651176087543477,-4.800514237263918e-05,0.0651176087543477,-2.182002996511661e-06,0.0651176087543477,-1.963842220222528e-05,0.0651176087543477,-1.7959918501854397e-05
0.0659117259342788,-6.999104941842122e-05,0.0659117259342788,1.1746269338395896e-06,0.0659117259342788,-2.1652412159184656e-05,0.0659117259342788,-1.9638243465987213e-05
0.0667058431142099,-9.349031664337974e-05,0.0667058431142099,-2.635032807102922e-05,0.0667058431142099,-1.8295840480540546e-05,0.0667058431142099,-1.5610288576648656e-05
0.067499960294141,-9.483473285854744e-05,0.067499960294141,-5.253549074667539e-05,0.067499960294141,-1.82956e-05,0.067499960294141,-1.728841607318431e-05
0.068294077474072,-0.0001116195238607,0.068294077474072,-4.313756663198534e-05,0.068294077474072,-1.9638361909311145e-05,0.068294077474072,-1.359590474939436e-05
0.0690881946540031,-9.282072656029908e-05,0.0690881946540031,-1.896716271798021e-05,0.0690881946540031,-1.96384e-05,0.0690881946540031,-1.5609986440112217e-05
0.0698823118339342,-5.548719338506833e-06,0.0698823118339342,1.392784785782535e-05,0.0698823118339342,-1.8967074533740324e-05,0.0698823118339342,-2.064494099694757e-05
0.0706764290138652,-3.525010053233288e-06,0.0706764290138652,2.131623980481128e-05,0.0706764290138652,-1.9302669991127782e-05,0.0706764290138652,-2.3162974937927986e-05
0.0714705461937963,-7.80448503701132e-05,0.0714705461937963,1.191793689307617e-05,0.0714705461937963,-1.4603218446538084e-05,0.0714705461937963,-2.0309993339153105e-05
0.0722646633737274,-9.483402583009356e-05,0.0722646633737274,3.860901602385304e-06,0.0722646633737274,-8.224904185855889e-06,0.0722646633737274,-1.2253371603768992e-05
0.0730587805536585,-6.193720563344799e-05,0.0730587805536585,-1.510508467943521e-06,0.0730587805536585,-1.0910134233849316e-05,0.0730587805536585,-1.2924383558401108e-05
0.0738528977335895,-3.64233728159628e-05,0.0738528977335895,7.888883173103895e-06,0.0738528977335895,-1.896697700539531e-05,0.0738528977335895,-1.560999233513177e-05
0.0746470149135206,0.0001025411104767,0.0746470149135206,2.8699970171782867e-05,0.0746470149135206,-2.064532017419339e-05,0.0746470149135206,-1.3260351756129256e-05
0.0754411320934517,0.0002092988712254,0.0754411320934517,3.4744283274009865e-05,0.0754411320934517,-2.030982870699945e-05,0.0754411320934517,-1.7623826809007128e-05
0.0762352492733827,0.0001955448792358,0.0762352492733827,2.198911487733616e-05,0.0762352492733827,-1.9302764332925587e-05,0.0762352492733827,-1.9973949889840298e-05
0.0770293664533138,4.415079586307091e-05,0.0770293664533138,-4.362966745975072e-06,0.0770293664533138,-1.6952899271323243e-05,0.0770293664533138,-2.299517236966604e-05
0.0778234836332449,-7.4354757629184e-05,0.0778234836332449,-3.910818389376705e-05,0.0778234836332449,-1.8966958486439863e-05,0.0778234836332449,-2.400237924321993e-05
0.078617600813176,-0.000156435016327,0.078617600813176,-0.000137133001031,0.078617600813176,-1.4267202749767642e-05,0.078617600813176,-1.980619639098116e-05
0.079411717993107,-0.0001723793534601,0.079411717993107,-0.0001381398960199,0.079411717993107,-1.6952522692380148e-05,0.079411717993107,-1.6281763961088196e-05
0.0802058351730381,-4.046247014947787e-05,0.0802058351730381,-2.569008068478456e-05,0.0802058351730381,-1.863116297436658e-05,0.0802058351730381,-1.527438221538005e-05
0.0809999523529692,9.381964306169434e-05,0.0809999523529692,5.421050612428818e-05,0.0809999523529692,-1.5610181281921896e-05,0.0809999523529692,-1.6617019430256937e-05
0.0817940695329002,8.77854318315704e-05,0.0817940695329002,7.234230449761546e-05,0.0817940695329002,-1.2253128797448372e-05,0.0817940695329002,-1.93025969620413e-05
0.0825881867128313,5.287308417193448e-05,0.0825881867128313,5.9586713446375744e-05,0.0825881867128313,-1.124591685116176e-05,0.0825881867128313,-1.6952839319377444e-05
0.0833823038927624,8.91235126840323e-05,0.0833823038927624,4.2132312410943655e-05,0.0833823038927624,-1.292419688239954e-05,0.0833823038927624,-1.393186561168083e-05
0.0841764210726934,9.130978311638892e-05,0.0841764210726934,3.709520048917265e-05,0.0841764210726934,-1.5274066438386097e-05,0.0841764210726934,-1.6281166438386096e-05
0.0849705382526245,6.898773586249744e-05,0.0849705382526245,3.3402287135793064e-05,0.0849705382526245,-1.4938626103253912e-05,0.0849705382526245,-1.6617073896746087e-05
0.0857646554325556,3.373967824789009e-05,0.0857646554325556,1.225418694985652e-05,0.0857646554325556,-1.661700579718501e-05,0.0857646554325556,-1.426733188394098e-05
0.0865587726124866,-2.9875006001862928e-05,0.0865587726124866,-6.881160064050516e-06,0.0865587726124866,-1.7791959479172155e-05,0.0865587726124866,-1.2253069467232484e-05
0.0873528897924177,-7.939206351399283e-05,0.0873528897924177,-1.3092120170048384e-05,0.0873528897924177,-1.3595853939121756e-05,0.0873528897924177,-1.1245912945543472e-05
0.0881470069723488,-9.953224070303824e-05,0.0881470069723488,-1.5609705080558923e-05,0.0881470069723488,-1.443490170132856e-05,0.0881470069723488,-8.22496389512993e-06
0.0889411241522799,-0.000102891679321,0.0889411241522799,-2.249114269129817e-05,0.0889411241522799,-1.6281223642827885e-05,0.0889411241522799,-6.378446351441269e-06
0.0897352413322109,-6.328212657775252e-05,0.0897352413322109,-2.4673638794716456e-05,0.0897352413322109,-1.3931673609668103e-05,0.0897352413322109,-1.1581215580069648e-05
0.090529358512142,-2.1852320290838875e-06,0.090529358512142,-2.098139292036807e-05,0.090529358512142,-1.3763608771957371e-05,0.090529358512142,-1.292432984523906e-05
0.0913234756920731,1.3931006753869673e-05,0.0913234756920731,-3.373730951508722e-05,0.0913234756920731,-1.2588735964467058e-05,0.0913234756920731,-9.567512759687012e-06
0.0921175928720041,9.063903692881876e-06,0.0921175928720041,-2.6688063279476168e-05,0.0921175928720041,-8.560346159610907e-06,0.0921175928720041,-9.56741e-06
0.0929117100519352,-5.790041502241315e-05,0.0929117100519352,8.361283690436902e-07,0.0929117100519352,-8.224648020102411e-06,0.0929117100519352,-1.5609315639289153e-05
0.0937058272318663,-0.0001619654637182,0.0937058272318663,2.030801579665517e-05,0.0937058272318663,-1.1245623141122554e-05,0.0937058272318663,-1.896669237800688e-05
0.0944999444117974,-0.0001935277911022,0.0944999444117974,2.534484751437432e-05,0.0944999444117974,-1.2252929501474832e-05,0.0944999444117974,-1.7624293998033556e-05
0.0952940615917284,-5.590045705646985e-05,0.0952940615917284,5.2043042027606e-06,0.0952940615917284,-9.903213657722302e-06,0.0952940615917284,-1.359599484180966e-05
0.0960881787716595,0.0001166503873256,0.0960881787716595,-1.0238387192050028e-05,0.0960881787716595,-1.2420732695387513e-05,0.0960881787716595,-1.1581653844759292e-05
0.0968822959515906,0.0001468640417846,0.0968822959515906,-1.32597041784698e-05,0.0968822959515906,-1.628089422149423e-05,0.0968822959515906,-1.5105938214765285e-05
0.0976764131315216,2.938645299047771e-05,0.0976764131315216,-2.1148137014559164e-05,0.0976764131315216,-1.997369604680787e-05,0.0976764131315216,-1.9637904233794597e-05
0.0984705303114527,-7.199840302526112e-05,0.0984705303114527,-2.903720768671399e-05,0.0984705303114527,-2.047755581389807e-05,0.0984705303114527,-1.577813879814321e-05
0.0992646474913838,-9.449761276502538e-05,0.0992646474913838,-5.152821276502539e-05,0.0992646474913838,-2.299513352103897e-05,0.0992646474913838,-1.292458867659665e-05
0.1000587646713148,-0.0001082589221446,0.1000587646713148,-3.4581922636450835e-05,0.1000587646713148,-2.29953e-05,0.1000587646713148,-1.359560108311824e-05
0.1008528818512459,-5.808326795358724e-05,0.1008528818512459,-2.354685442163252e-06,0.1008528818512459,-1.645017407249214e-05,0.1008528818512459,-1.5609700283097775e-05
0.101646999031177,0.0001146407892544,0.101646999031177,1.9302673579941477e-05,0.101646999031177,-1.5442101228843337e-05,0.101646999031177,-2.333099057898977e-05
0.1024411162111081,0.0002771137918689,0.1024411162111081,3.306394160240512e-05,0.1024411162111081,-1.863125086641185e-05,0.1024411162111081,-2.769414190234922e-05
0.1032352333910391,0.0002414883261131,0.1032352333910391,1.6948951613979034e-05,0.1032352333910391,-1.82954026464185e-05,0.1032352333910391,-2.1146878463696036e-05
0.1040293505709702,8.272157375720204e-05,0.1040293505709702,3.849723581491625e-06,0.1040293505709702,-1.7623311798681404e-05,0.1040293505709702,-1.3931944100659298e-05
0.1048234677509013,1.9009702244763025e-05,0.1048234677509013,-2.062909331776124e-05,0.1048234677509013,-1.5611348498282478e-05,0.1048234677509013,-1.493792575085876e-05
0.1056175849308323,-1.4920875605579785e-05,0.1056175849308323,-5.285565310571175e-05,0.1056175849308323,-1.6281049020857505e-05,0.1056175849308323,-1.577736130220974e-05
0.1064117021107634,-5.453613840353453e-05,0.1064117021107634,-8.240291675707645e-05,0.1064117021107634,-1.62814e-05,0.1064117021107634,-1.3261044579006098e-05
0.1072058192906945,-6.629772591194758e-05,0.1072058192906945,-0.00010255141581,0.1072058192906945,-1.091142245065681e-05,0.1072058192906945,-7.386707050854016e-06
0.1079999364706256,-3.911107564103778e-05,0.1079999364706256,-0.0001243742541423,0.1079999364706256,-7.553488598034348e-06,0.1079999364706256,-8.22454285089147e-06
0.1087940536505566,-3.507986486930425e-05,0.1087940536505566,-0.000141156372653,0.1087940536505566,-8.224700732956535e-06,0.1087940536505566,-1.25887680497174e-05
0.1095881708304877,-2.567801096384591e-05,0.1095881708304877,-7.266309916367393e-05,0.1095881708304877,-9.567012756721994e-06,0.1095881708304877,-1.3595149962024414e-05
0.1103822880104188,-1.2257140131633856e-05,0.1103822880104188,-1.6066460948395937e-07,0.1103822880104188,-7.721496190127819e-06,0.1103822880104188,-1.0571760197511924e-05
0.1111764051903498,-2.367457047851695e-05,0.1111764051903498,1.9637715610563745e-05,0.1111764051903498,-8.897892065852971e-06,0.1111764051903498,-3.021204451320468e-06
0.1119705223702809,-3.909962244824205e-05,0.1119705223702809,1.829640674363113e-05,0.1119705223702809,-1.2586481461022324e-05,0.1119705223702809,-2.853540842953891e-06
0.112764639550212,-4.4477561697914114e-05,0.112764639550212,2.399980930119645e-05,0.112764639550212,-1.5608628429541048e-05,0.112764639550212,-3.021213801641169e-06
0.1135587567301431,-3.7096962746692886e-05,0.1135587567301431,4.0111063031276944e-05,0.1135587567301431,-1.829477717187949e-05,0.1135587567301431,-2.517894280272595e-06
0.1143528739100741,-4.447882718900597e-05,0.1143528739100741,6.327552160431982e-05,0.1143528739100741,-1.913466673215899e-05,0.1143528739100741,-4.867256829400734e-06
0.1151469910900052,-5.152962089069254e-05,0.1151469910900052,5.4215401711966746e-05,0.1151469910900052,-1.7624216951433373e-05,0.1151469910900052,-1.124582842524894e-05
0.1159411082699363,-3.323243762724834e-05,0.1159411082699363,4.528542578684027e-06,0.1159411082699363,-1.963803379125825e-05,0.1159411082699363,-1.930302043264903e-05
0.1167352254498673,-2.031561444861977e-05,0.1167352254498673,-2.028997367175792e-05,0.1167352254498673,-1.6952228084228136e-05,0.1167352254498673,-2.165202808422813e-05
0.1175293426297984,-4.0788268081685584e-05,0.1175293426297984,4.953691259538152e-05,0.1175293426297984,-1.4937659556624908e-05,0.1175293426297984,-1.963760423690584e-05
0.1183234598097295,-4.280023138208451e-05,0.1183234598097295,9.916514089398148e-05,0.1183234598097295,-1.275798270338268e-05,0.1183234598097295,-1.7793254600396762e-05
0.1191175769896605,-4.816983850020906e-05,0.1191175769896605,9.65147307765334e-05,0.1191175769896605,-1.14144153882667e-05,0.1191175769896605,-1.7624289396895407e-05
0.1199116941695916,-9.716582171287932e-05,0.1199116941695916,5.087588524847986e-05,0.1199116941695916,-1.359495950562462e-05,0.1199116941695916,-1.9637624176815508e-05
0.1207058113495227,-0.0001579315634153,0.1207058113495227,-1.223800506691942e-05,0.1207058113495227,-1.6952002393385155e-05,0.1207058113495227,-1.896715952132297e-05
0.1214999285294538,-0.0001668411992418,0.1214999285294538,-8.140067523047218e-05,0.1214999285294538,-1.9134603591017865e-05,0.1214999285294538,-1.4267623044424493e-05
0.1222940457093848,-4.8163500974780336e-05,0.1222940457093848,-0.0001210179371128,0.1222940457093848,-1.8967019325743703e-05,0.1222940457093848,-7.55310404611345e-06
0.1230881628893159,0.0001116296416524,0.1230881628893159,-0.0001025449121201,0.1230881628893159,-1.930235565526851e-05,0.1230881628893159,-5.538754524214808e-06
0.123882280069247,0.0001585943767233,0.123882280069247,-4.8491111915150535e-05,0.123882280069247,-1.762384476355333e-05,0.123882280069247,-4.1959931757022204e-06
0.124676397249178,9.162817081787216e-05,0.124676397249178,5.017866930838168e-07,0.124676397249178,-1.661810646452137e-05,0.124676397249178,-3.526842924045895e-06
0.1254705144291091,5.658662650268768e-05,0.1254705144291091,-3.0191370959398915e-06,0.1254705144291091,-1.8630069764920298e-05,0.1254705144291091,-7.550759535948403e-06
0.1262646316090402,0.0001032053503963,0.1262646316090402,-6.22446094927421e-05,0.1262646316090402,-1.6282490279491628e-05,0.1262646316090402,-1.4935173416591398e-05
0.1270587487889713,0.0001139666010578,0.1270587487889713,-0.0001216722006511,0.1270587487889713,-1.359664968808398e-05,0.1270587487889713,-1.6952162733937016e-05
0.1278528659689023,5.221152689353506e-05,0.1278528659689023,-0.0001062516066854,0.1278528659689023,-1.225322667123162e-05,0.1278528659689023,-1.8295373328768385e-05
0.1286469831488334,-1.090886058056806e-05,0.1286469831488334,-5.824471882280441e-05,0.1286469831488334,-1.0238842747631878e-05,0.1286469831488334,-1.9638371501578748e-05
0.1294411003287645,-1.7614719487731042e-05,0.1294411003287645,-1.964289634604109e-05,0.1294411003287645,-1.0910539348778323e-05,0.1294411003287645,-2.3330809122630125e-05
0.1302352175086955,5.741318231079776e-05,0.1302352175086955,-5.5244286908372136e-05,0.1302352175086955,-1.3596719617998828e-05,0.1302352175086955,-2.1819434414798248e-05
0.1310293346886266,8.943173090687152e-05,0.1310293346886266,-0.0001350938437503,0.1310293346886266,-1.695393061607009e-05,0.1310293346886266,-1.829439869937593e-05
0.1318234518685577,1.3815793144882268e-05,0.1318234518685577,-7.540549928288634e-05,0.1318234518685577,-1.9636548349935327e-05,0.1318234518685577,-1.544406741266739e-05
0.1326175690484888,-5.14942614026348e-05,0.1326175690484888,2.7974681266248845e-05,0.1326175690484888,-1.6283222045621144e-05,0.1326175690484888,-1.4267837688829396e-05
0.1334116862284198,5.180910336940881e-06,0.1334116862284198,7.198992144093979e-05,0.1334116862284198,-1.1247889920392656e-05,0.1334116862284198,-1.1247093952235597e-05
0.1342058034083509,-3.522668937823985e-06,0.1342058034083509,8.408950774635095e-05,0.1342058034083509,-7.55413429477417e-06,0.1342058034083509,-1.5273302582116983e-05
0.134999920588282,-9.18046698300186e-05,0.134999920588282,7.721138828156294e-05,0.134999920588282,-9.567208551274191e-06,0.134999920588282,-1.5609966425045675e-05
0.135794037768213,-9.315590079854976e-05,0.135794037768213,5.421410238613587e-05,0.135794037768213,-1.3260307587227612e-05,0.135794037768213,-1.4938855491972444e-05
0.1365881549481441,-8.474778424943658e-05,0.1365881549481441,2.9032986666554092e-05,0.1365881549481441,-1.76242e-05,0.1365881549481441,-2.031025856064121e-05
0.1373822721280752,-2.1058742855216696e-06,0.1373822721280752,3.851440740640692e-06,0.1373822721280752,-1.7622244070891144e-05,0.1373822721280752,-2.265948494534654e-05
0.1381763893080062,0.000220080905669,0.1381763893080062,-2.2668148322365742e-05,0.1381763893080062,-1.1918286344888356e-05,0.1381763893080062,-2.2321269795933948e-05
0.1389705064879373,0.0002831228219706,0.1389705064879373,-4.010516359248978e-05,0.1389705064879373,-1.3930249645287282e-05,0.1389705064879373,-1.6956134217156925e-05
0.1397646236678684,0.0001668971321833,0.1397646236678684,-3.1727477792713085e-05,0.1397646236678684,-1.39315e-05,0.1397646236678684,-9.906441345878992e-06
0.1405587408477994,1.6330541197480224e-05,0.1405587408477994,-1.5615259255645884e-05,0.1405587408477994,-1.2924728705517792e-05,0.1405587408477994,-7.889567407771706e-06
0.1413528580277305,-4.64829753219175e-05,0.1413528580277305,-1.561e-05,0.1413528580277305,-1.3595679949393322e-05,0.1413528580277305,-7.217640048818614e-06
0.1421469752076616,-6.932098722027247e-05,0.1421469752076616,7.552496737547239e-06,0.1421469752076616,-1.3931489517899265e-05,0.1421469752076616,-8.22457855401004e-06
0.1429410923875927,-0.000112291390611,0.1429410923875927,4.515307962737935e-05,0.1429410923875927,-1.3595839061101844e-05,0.1429410923875927,-1.091051248881476e-05
0.1437352095675237,-0.0001156347094599,0.1437352095675237,5.958738604304449e-05,0.1437352095675237,-1.3931145582782204e-05,0.1437352095675237,-1.3595977208608898e-05
0.1445293267474548,-6.528043050986064e-05,0.1445293267474548,6.293466972195841e-05,0.1445293267474548,-1.2587458240480702e-05,0.1445293267474548,-1.426857973736592e-05
0.1453234439273859,-3.375977202589757e-05,0.1453234439273859,4.147382773998997e-05,0.1453234439273859,-9.569523278777655e-06,0.1453234439273859,-1.7621851904697467e-05
0.146117561107317,-3.776387325530956e-05,0.146117561107317,2.6360650292589137e-05,0.146117561107317,-8.225352248230145e-06,0.146117561107317,-1.8966257751769853e-05
0.146911678287248,-6.998004227096131e-05,0.146911678287248,1.2929840713679787e-05,0.146911678287248,-1.0909111853212244e-05,0.146911678287248,-1.6282488150839552e-05
0.1477057954671791,-8.140395982782003e-05,0.1477057954671791,-1.0232833205747508e-05,0.1477057954671791,-1.4937562292171774e-05,0.1477057954671791,-1.829508114608589e-05
0.1484999126471102,-0.0001174900298331,0.1484999126471102,-3.3399451671969e-05,0.1484999126471102,-1.2253295459597985e-05,0.1484999126471102,-2.0645241472851764e-05
0.1492940298270412,-0.0001683544754618,0.1492940298270412,-4.666283772340586e-05,0.1492940298270412,-1.2924374778494334e-05,0.1492940298270412,-1.8966880195969812e-05
0.1500881470069723,-0.0002076348478974,0.1500881470069723,-6.630736128003832e-05,0.1500881470069723,-1.2252751384178254e-05,0.1500881470069723,-1.577739600854703e-05
0.1508822641869034,-0.0002337736775588,0.1508822641869034,-0.0001039046963221,0.1508822641869034,-1.0909753214695178e-05,0.1508822641869034,-1.3594012848798838e-05
0.1516763813668344,-0.0001125042900641,0.1516763813668344,-0.0001210093377474,0.1516763813668344,-9.566443779541726e-06,0.1516763813668344,-8.22219445125285e-06
0.1524704985467655,0.0001430136506411,0.1524704985467655,-0.0001008897047434,0.1524704985467655,-7.554490468038073e-06,0.1524704985467655,-3.192316166941391e-06
0.1532646157266966,0.0003045678526516,0.1532646157266966,-8.074524791025243e-05,0.1532646157266966,-5.5400048103841e-06,0.1532646157266966,-1.6931121847997805e-07
0.1540587329066277,0.0002643765507837,0.1540587329066277,-4.650571841850027e-05,0.1540587329066277,-4.86785585200273e-06,0.1540587329066277,-8.390201490064389e-07
0.1548528500865587,9.184607870192088e-05,0.1548528500865587,-5.6563298516037166e-05,0.1548528500865587,-1.0237785880884058e-05,0.1548528500865587,-8.894488819626817e-06
0.1556469672664898,-1.292008206660467e-05,0.1556469672664898,-7.267803570350595e-05,0.1556469672664898,-1.71203162903396e-05,0.1556469672664898,-1.1078010040975782e-05
0.1564410844464209,4.750076445653922e-05,0.1564410844464209,-3.182534860464192e-06,0.1564410844464209,-1.930284281442569e-05,0.1564410844464209,-9.567624220574984e-06
0.157235201626352,4.245848355300941e-05,0.157235201626352,5.8922260706563545e-05,0.157235201626352,-2.064592620865133e-05,0.157235201626352,-1.158334754688794e-05
0.158029318806283,1.3252292045144596e-05,0.158029318806283,8.71162231282582e-05,0.158029318806283,-2.2322351884709844e-05,0.158029318806283,-1.8465217356219e-05
0.1588234359862141,-6.196606614216288e-06,0.1588234359862141,9.315201314050173e-05,0.1588234359862141,-1.846613883675516e-05,0.1588234359862141,-2.2992084837640025e-05
0.1596175531661451,-3.0534903371802225e-05,0.1596175531661451,7.369675727779664e-05,0.1596175531661451,-1.628262794895623e-05,0.1596175531661451,-2.58471941556615e-05
0.1604116703460762,-6.158780774986723e-05,0.1604116703460762,3.878769505740305e-05,0.1604116703460762,-1.3596915010803024e-05,0.1604116703460762,-1.76276146998252e-05
0.1612057875260073,-3.37451561245053e-05,0.1612057875260073,-1.5742839526573218e-07,0.1612057875260073,-1.963678300334007e-05,0.1612057875260073,-1.6617369499443324e-05
0.1619999047059384,1.72823759523341e-05,0.1619999047059384,-4.380346232500746e-05,0.1619999047059384,-1.9134860440918677e-05,0.1619999047059384,-1.762407913016442e-05
0.1627940218858694,-4.683151930902116e-05,0.1627940218858694,-3.977939318408149e-05,0.1627940218858694,-1.7624135227198128e-05,0.1627940218858694,-1.191730925325741e-05
0.1635881390658005,-0.0001055767942036,0.1635881390658005,-6.880644075879182e-06,0.1635881390658005,-1.5274476389380008e-05,0.1635881390658005,-1.2253e-05
0.1643822562457316,-0.0001043983707019,0.1643822562457316,-1.70557478978486e-07,0.1643822562457316,-1.62814e-05,0.1643822562457316,-1.225191660660133e-05
0.1651763734256627,-9.31509387817782e-05,0.1651763734256627,-8.564725154874006e-06,0.1651763734256627,-1.6279823157296006e-05,0.1651763734256627,-8.895852315729601e-06
0.1659704906055937,-8.174991330180481e-05,0.1659704906055937,-1.795387723450666e-05,0.1659704906055937,-1.2926550989964576e-05,0.1659704906055937,-8.560525098996458e-06
0.1667646077855248,-5.241138324450092e-06,0.1667646077855248,-2.500601768871008e-05,0.1667646077855248,-1.0575660786895736e-05,0.1667646077855248,-1.090903921804399e-05
0.1675587249654559,0.0001236603473,0.1675587249654559,-2.836533716503201e-05,0.1675587249654559,-1.527267203104482e-05,0.1675587249654559,-1.7621874330064023e-05
0.1683528421453869,0.0001495488609774,0.1683528421453869,-3.1051566077646344e-05,0.1683528421453869,-1.5777699899499158e-05,0.1683528421453869,-2.5008031733408383e-05
0.169146959325318,8.174607381250377e-05,0.169146959325318,-2.4674126744740454e-05,0.169146959325318,-1.6449165605816798e-05,0.169146959325318,-2.064572355706808e-05
0.1699410765052491,3.852184739015797e-06,0.1699410765052491,1.5943823932307407e-05,0.1699410765052491,-1.3931629384443958e-05,0.1699410765052491,-1.5777848523984195e-05
0.1707351936851801,-8.274855354960985e-05,0.1707351936851801,-3.547103788401705e-06,0.1707351936851801,-1.5273972442745673e-05,0.1707351936851801,-1.62814e-05
0.1715293108651112,-7.803375421355639e-05,0.1715293108651112,-9.481740719478112e-05,0.1715293108651112,-1.3931631267192266e-05,0.1715293108651112,-1.627877466006494e-05
0.1723234280450423,-3.678870633328672e-05,0.1723234280450423,-5.038680070002332e-05,0.1723234280450423,-1.4266958483925407e-05,0.1723234280450423,-9.572240314297429e-06
0.1731175452249733,-5.588284026551742e-05,0.1731175452249733,6.992416899316766e-05,0.1731175452249733,-1.4434903890114023e-05,0.1731175452249733,-1.0238415451630837e-05
0.1739116624049044,-0.000107234161679,0.1739116624049044,0.0001146220164835,0.1739116624049044,-1.3260599547201204e-05,0.1739116624049044,-1.644655944511162e-05
0.1747057795848355,-8.745499830347016e-05,0.1747057795848355,0.0001059154229012,0.1747057795848355,-1.460252723742712e-05,0.1747057795848355,-1.493901934401444e-05
0.1754998967647666,2.130275828124817e-05,0.1754998967647666,8.577361884643695e-05,0.1754998967647666,-1.4938556352559384e-05,0.1754998967647666,-2.0309101640950147e-05
0.1762940139446976,0.0001428399410423,0.1762940139446976,5.08572623509853e-05,0.1762940139446976,-1.4938564625428142e-05,0.1762940139446976,-3.138792675800436e-05
0.1770881311246287,0.0001394787866717,0.1770881311246287,-8.230708251422226e-06,0.1770881311246287,-1.2924732633787411e-05,0.1770881311246287,-3.860471789912925e-05
0.1778822483045598,0.0001139737792954,0.1778822483045598,-4.515035020960101e-05,0.1778822483045598,-1.4939019928668642e-05,0.1778822483045598,-3.507798042798814e-05
0.1786763654844909,0.0001260208928953,0.1786763654844909,-4.1781073249126855e-05,0.1786763654844909,-1.628263464798584e-05,0.1786763654844909,-2.7019996102015365e-05
0.1794704826644219,5.191367788629029e-05,0.1794704826644219,-1.260770528229586e-05,0.1794704826644219,-1.896525238185108e-05,0.1794704826644219,-1.8972242789373103e-05
0.180264599844353,-7.530017949254603e-05,0.180264599844353,-1.896378550029833e-05,0.180264599844353,-1.9134715433101305e-05,0.180264599844353,-8.565554704999826e-06
0.181058717024284,-0.0001394601485704,0.181058717024284,-6.66192110503815e-05,0.181058717024284,-1.7960318725653184e-05,0.181058717024284,-8.895890359007767e-06
0.1818528342042151,-0.0001706964809264,0.1818528342042151,-0.0001005349201023,0.1818528342042151,-1.79599e-05,0.1818528342042151,-9.902889708719222e-06
0.1826469513841462,-0.0001270646720963,0.1826469513841462,-0.0001163190339282,0.1826469513841462,-1.3596067209631476e-05,0.1826469513841462,-7.04984471276523e-06
0.1834410685640773,-8.312451813107968e-07,0.1834410685640773,-0.0001242081014644,0.1834410685640773,-1.0910113034153332e-05,0.1834410685640773,-1.5106979772311112e-06
0.1842351857440083,9.179983553382264e-05,0.1842351857440083,-0.0001253770316987,0.1842351857440083,-9.902707343248606e-06,0.1842351857440083,-2.182668252205837e-06
0.1850293029239394,3.335326502506503e-05,0.1850293029239394,-9.986198563329736e-05,0.1850293029239394,-8.224865827840193e-06,0.1850293029239394,-4.866990434209881e-06
0.1858234201038705,-9.440580521654617e-05,0.1858234201038705,-7.806581643459577e-05,0.1858234201038705,-8.895520261306503e-06,0.1858234201038705,-3.1903643394394533e-06
0.1866175372838016,1.7901931539909246e-06,0.1866175372838016,-5.859074674526599e-05,0.1866175372838016,-1.225104366038928e-05,0.1866175372838016,-2.3503790863595944e-06
0.1874116544637326,0.0001397579569113,0.1874116544637326,-2.8715202085852435e-05,0.1874116544637326,-1.3595215634635017e-05,0.1874116544637326,-3.1887747716468858e-06
0.1882057716436637,0.0001482085861527,0.1882057716436637,-2.2325734414634417e-05,0.1882057716436637,-8.897361671065123e-06,0.1882057716436637,2.1804952355335942e-06
0.1889998888235948,2.9222463186820264e-05,0.1889998888235948,-3.809959076800567e-05,0.1889998888235948,-8.56035700493605e-06,0.1889998888235948,7.720294421355596e-06
0.1897940060035258,-7.670702385275984e-05,0.1897940060035258,-5.11937664809903e-05,0.1897940060035258,-8.89603030605673e-06,0.1897940060035258,3.860479234895981e-06
0.1905881231834569,-6.6617867400436e-05,0.1905881231834569,-2.030459186860081e-05,0.1905881231834569,-1.1581964570283944e-05,0.1905881231834569,-2.8541170559958944e-06
0.191382240363388,5.157207730648024e-05,0.191382240363388,1.3263148709879692e-05,0.191382240363388,-1.3932211372702171e-05,0.191382240363388,-7.218688692806735e-06
0.192176357543319,0.0001915098853346,0.192176357543319,2.3336586175863835e-05,0.192176357543319,-1.62804941336437e-05,0.192176357543319,-1.1079987199088618e-05
0.1929704747232501,0.0001779289832235,0.1929704747232501,3.5743693194990985e-05,0.1929704747232501,-1.4268530833244704e-05,0.1929704747232501,-1.527152746377647e-05
0.1937645919031812,3.750260826049375e-05,0.1937645919031812,5.017948075871647e-05,0.1937645919031812,-1.3092803921614696e-05,0.1937645919031812,-1.6280882374929223e-05
0.1945587090831123,-0.0001258271614739,0.1945587090831123,6.092536404839468e-05,0.1945587090831123,-1.1582153474874796e-05,0.1945587090831123,-1.9637170015123336e-05
0.1953528262630433,-0.0002599686548652,0.1953528262630433,6.495681853657925e-05,0.1953528262630433,-1.3259732723574689e-05,0.1953528262630433,-1.8967146910570125e-05
0.1961469434429744,-0.0003398893088958,0.1961469434429744,6.630030435879317e-05,0.1961469434429744,-1.292442391208247e-05,0.1961469434429744,-2.030970435167012e-05
0.1969410606229055,-0.0002089480863252,0.1969410606229055,5.673209009905324e-05,0.1969410606229055,-1.2924886991282317e-05,0.1969410606229055,-2.165267688572524e-05
0.1977351778028366,0.0001042749698939,0.1977351778028366,4.481333202003079e-05,0.1977351778028366,-1.930356449351469e-05,0.1977351778028366,-2.2660877963486336e-05
0.1985292949827676,0.0002871545627368,0.1985292949827676,3.4236404470712364e-05,0.1985292949827676,-2.316214125304509e-05,0.1985292949827676,-2.8367496485183326e-05
0.1993234121626987,0.0001917546188544,0.1993234121626987,2.132645645991564e-05,0.1993234121626987,-2.03119098552899e-05,0.1993234121626987,-3.105011421904866e-05
0.2001175293426297,2.4772798213515467e-05,0.2001175293426297,1.628438488058907e-05,0.2001175293426297,-1.863229496019636e-05,0.2001175293426297,-3.1890902490263444e-05
0.2009116465225608,-0.0001021635086958,0.2009116465225608,3.866059593601567e-06,0.2009116465225608,-2.1986805511633207e-05,0.2009116465225608,-3.0045821990861022e-05
0.2017057637024919,-0.0001357800094365,0.2017057637024919,-9.563413792493215e-06,0.2017057637024919,-2.333060040722409e-05,0.2017057637024919,-2.568219877324298e-05
0.202499880882423,3.841136201807179e-05,0.202499880882423,-2.299328551924264e-05,0.202499880882423,-1.628245759605918e-05,0.202499880882423,-1.7625408683353667e-05
0.203293998062354,0.0001777516600224,0.203293998062354,-3.81017631346999e-05,0.203293998062354,-1.3595806553831128e-05,0.203293998062354,-1.158161474612004e-05
0.2040881152422851,0.000101198748316,0.2040881152422851,-6.865400300748803e-05,0.2040881152422851,-1.22533897917897e-05,0.2040881152422851,-1.3763380749375364e-05
0.2048822324222162,3.005812995841856e-06,0.2048822324222162,-9.41779435420914e-05,0.2048822324222162,-1.4937027728106542e-05,0.2048822324222162,-1.2252213865516888e-05
0.2056763496021472,-4.986810293400799e-05,0.2056763496021472,-0.000143813194088,0.2056763496021472,-9.566524257674158e-06,0.2056763496021472,-9.56741e-06
0.2064704667820783,-8.826291941652534e-05,0.2064704667820783,-6.702346123402076e-05,0.2064704667820783,-7.554570946170505e-06,0.2064704667820783,-9.56741e-06
0.2072645839620094,-0.0001075808860326,0.2072645839620094,5.3480752454325095e-05,0.2072645839620094,-1.3592633825137084e-05,0.2072645839620094,-6.547703087431457e-06
0.2080587011419405,-0.000120343198322,0.2080587011419405,7.904739698292484e-05,0.2080587011419405,-1.762268372820294e-05,0.2080587011419405,-8.895125511882336e-06
0.2088528183218715,-0.0001290740029134,0.2088528183218715,6.798143482175676e-05,0.2088528183218715,-1.76242e-05,0.2088528183218715,-1.0406354333335164e-05
0.2096469355018026,-0.0001002083451674,0.2096469355018026,5.589478169668135e-05,0.2096469355018026,-1.2253436313246466e-05,0.2096469355018026,-1.0238813638850551e-05
0.2104410526817337,-4.1121318116659e-05,0.2104410526817337,2.735650444205899e-05,0.2104410526817337,-6.546231367460001e-06,0.2104410526817337,-1.2253311830745796e-05
0.2112351698616647,-1.428422050249278e-05,0.2112351698616647,-1.628398538438893e-05,0.2112351698616647,-8.225184532478926e-06,0.2112351698616647,-1.6953159084136403e-05
0.2120292870415958,-9.385085046434644e-05,0.2120292870415958,-2.8359712426673974e-05,0.2120292870415958,-1.0910806036878792e-05,0.2120292870415958,-1.862887585248483e-05
0.2128234042215269,-0.0001578979493045,0.2128234042215269,-9.581498167466116e-06,0.2128234042215269,-1.2587442120544565e-05,0.2128234042215269,-1.192233151782174e-05
0.2136175214014579,-8.011104479066717e-05,0.2136175214014579,-1.7351476346375942e-07,0.2136175214014579,-1.762116475697942e-05,0.2136175214014579,-1.17495012049058e-05
0.214411638581389,4.878542264158536e-05,0.214411638581389,5.032423887013587e-07,0.214411638581389,-1.79597471936679e-05,0.214411638581389,-9.9039404120672e-06
0.2152057557613201,0.0001444885701926,0.2152057557613201,-1.325586622768512e-05,0.2152057557613201,-1.561072284190665e-05,0.2152057557613201,-1.292347063183431e-05
0.2159998729412512,0.0001371341817743,0.2159998729412512,-4.145428754214132e-05,0.2159998729412512,-8.561438116865024e-06,0.2159998729412512,-1.762344792102316e-05
0.2167939901211822,0.000130755079354,0.2167939901211822,-4.280158329310275e-05,0.2167939901211822,-5.874753413670087e-06,0.2167939901211822,-1.4938633413794504e-05
0.2175881073011133,0.0001054058470905,0.2175881073011133,-6.882915590314658e-05,0.2175881073011133,-1.040749390661268e-05,0.2175881073011133,-1.3596208298304405e-05
0.2183822244810444,8.207322234620949e-05,0.2183822244810444,-0.0001498808378239,0.2183822244810444,-1.6281637260066092e-05,0.2183822244810444,-1.6619282894387865e-05
0.2191763416609755,6.407634514392073e-05,0.2191763416609755,-0.0001209699481506,0.2191763416609755,-1.7119085174080018e-05,0.2191763416609755,-2.4338821355908617e-05
0.2199704588409065,-3.367108903350328e-05,0.2199704588409065,-6.959513550764941e-06,0.2199704588409065,-1.359819934285862e-05,0.2199704588409065,-2.601545743957439e-05
0.2207645760208376,-0.0001541886473854,0.2207645760208376,3.841330044416574e-05,0.2207645760208376,-1.1918196283405572e-05,0.2207645760208376,-1.2260349470527813e-05
0.2215586932007686,-0.0001508972971347,0.2215586932007686,3.810192971347853e-05,0.2215586932007686,-1.846087060648844e-05,0.2215586932007686,-6.212754834885672e-06
0.2223528103806997,4.0070383423455625e-05,0.2223528103806997,4.112237846751663e-05,0.2223528103806997,-1.997373922181755e-05,0.2223528103806997,-1.1076937523834557e-05
0.2231469275606308,0.0001757256267353,0.2231469275606308,2.9710341320493487e-05,0.2231469275606308,-2.249157030151164e-05,0.2231469275606308,-1.091021531809834e-05
0.2239410447405619,6.662724324942452e-05,0.2239410447405619,2.0644932516122373e-05,0.2239410447405619,-2.047751488023577e-05,0.2239410447405619,-1.0574537832258509e-05
0.2247351619204929,-9.232610226958478e-05,0.2247351619204929,1.0569023273844355e-05,0.2247351619204929,-1.8966794622004424e-05,0.2247351619204929,-1.1246105377995574e-05
0.225529279100424,-0.0001364622375207,0.225529279100424,-1.6291064001387357e-05,0.225529279100424,-1.7959428583585642e-05,0.225529279100424,-1.225288214589641e-05
0.2263233962803551,-0.0001399833231298,0.2263233962803551,-4.378779588455258e-05,0.2263233962803551,-1.6618119716653026e-05,0.2263233962803551,-1.1917554929163256e-05
0.2271175134602862,-8.815268139913095e-05,0.2271175134602862,-5.756386607304182e-05,0.2271175134602862,-1.5946111414060255e-05,0.2271175134602862,-1.3594771464849362e-05
0.2279116306402172,3.988852375564459e-05,0.2279116306402172,-6.059219452555208e-05,0.2279116306402172,-1.8294506853207173e-05,0.2279116306402172,-1.896450137875925e-05
0.2287057478201483,0.0001761987121215,0.2287057478201483,-5.6566479447499314e-05,0.2287057478201483,-2.0309160276250345e-05,0.2287057478201483,-2.165174703500045e-05
0.2294998650000794,0.0002307837249613,0.2294998650000794,-3.877622508638208e-05,0.2294998650000794,-1.930287123226705e-05,0.2294998650000794,-2.16526e-05
0.2302939821800104,0.0001680184089013,0.2302939821800104,-2.769534862925204e-05,0.2302939821800104,-1.628146780797783e-05,0.2302939821800104,-1.661721301329638e-05
0.2310880993599415,2.8012400165624584e-05,0.2310880993599415,-5.387993607186276e-05,0.2310880993599415,-1.1245942008982844e-05,0.2310880993599415,-1.4938305937120084e-05
0.2318822165398726,-0.0001190357614797,0.2318822165398726,-5.654551636194704e-05,0.2318822165398726,-1.1581508447814562e-05,0.2318822165398726,-1.2587509824316515e-05
0.2326763337198036,-0.0002317887265672,0.2326763337198036,1.5633815000782625e-05,0.2326763337198036,-1.1246322753728664e-05,0.2326763337198036,-8.225314585350037e-06
0.2334704508997347,-0.0002049625492285,0.2334704508997347,7.230381496182539e-05,0.2334704508997347,-1.2252304403928124e-05,0.2334704508997347,-9.901940680120464e-06
0.2342645680796658,-8.013203220168577e-05,0.2342645680796658,0.000105223104137,0.2342645680796658,-1.560817385823452e-05,0.2342645680796658,-1.2922756472411063e-05
0.2350586852595969,5.886000885462129e-05,0.2350586852595969,8.779211945280662e-05,0.2350586852595969,-1.6281133858052086e-05,0.2350586852595969,-1.628006929026044e-05
0.2358528024395279,0.0001344282064007,0.2358528024395279,4.684009036322472e-05,0.2358528024395279,-2.165126355565818e-05,0.2358528024395279,-2.0308797666743637e-05
0.236646919619459,0.0001159858691006,0.236646919619459,1.930548671439229e-05,0.236646919619459,-2.2995164071848405e-05,0.236646919619459,-2.1988130077156146e-05
0.2374410367993901,1.6443684485166722e-05,0.2374410367993901,-2.184809425696802e-06,0.2374410367993901,-1.762416888273236e-05,0.2374410367993901,-2.1988222206830895e-05
0.2382351539793211,-0.0001025571067506,0.2382351539793211,-6.194186851547392e-05,0.2382351539793211,-1.6952669796327153e-05,0.2382351539793211,-2.030895367612648e-05
0.2390292711592522,-0.0001082232683104,0.2390292711592522,-9.012984749669418e-05,0.2390292711592522,-1.6280369492517217e-05,0.2390292711592522,-1.5945241996674318e-05
0.2398233883391833,8.134986218029009e-06,0.2398233883391833,-7.504022263265566e-05,0.2398233883391833,-1.3262424541918828e-05,0.2398233883391833,-1.46039331297417e-05
0.2406175055191144,9.47808616077417e-05,0.2406175055191144,-9.297731507902108e-05,0.2406175055191144,-1.2253627193576684e-05,0.2406175055191144,-1.6280354677372195e-05
0.2414116226990454,4.7523792411500605e-05,0.2414116226990454,-0.0001210056801833,0.2414116226990454,-1.0407577343516825e-05,0.2414116226990454,-1.326153569190672e-05
0.2422057398789765,-4.1094065907263855e-05,0.2422057398789765,-8.242664732003916e-05,0.2422057398789765,-7.21856480197183e-06,0.2422057398789765,-9.904199781203767e-06
0.2429998570589076,-6.461776957375774e-05,0.2429998570589076,-3.5760300417566755e-05,0.2429998570589076,-6.881880434917784e-06,0.2429998570589076,-2.1834299959079844e-06
0.2437939742388386,-9.181261777755837e-05,0.2437939742388386,-2.266002477689251e-05,0.2437939742388386,-7.553198216569615e-06,0.2437939742388386,-1.007138120678726e-06
0.2445880914187697,-8.979423667817652e-05,0.2445880914187697,9.237353092983296e-06,0.2445880914187697,-7.889567074134624e-06,0.2445880914187697,-2.8535559533108643e-06
0.2453822085987008,-4.5810893782003774e-05,0.2453822085987008,5.824228888495994e-05,0.2453822085987008,-1.3597211115040057e-05,0.2453822085987008,-3.860882778760015e-06
0.2461763257786318,-5.040982552712641e-07,0.2461763257786318,5.286355833954842e-05,0.2461763257786318,-1.896672487072523e-05,0.2461763257786318,-5.203192435362615e-06
0.2469704429585629,-1.8453991310876527e-06,0.2469704429585629,3.106738914084607e-05,0.2469704429585629,-1.82960704372589e-05,0.2469704429585629,-4.867865218629449e-06
0.247764560138494,-3.2713490683734025e-05,0.247764560138494,1.7799345853344665e-05,0.247764560138494,-1.561148777337595e-05,0.247764560138494,-6.377433133015846e-06
0.2485586773184251,-4.9173115045639897e-05,0.2485586773184251,-3.180613265367132e-06,0.2485586773184251,-1.0912109998571456e-05,0.2485586773184251,-9.566113933604795e-06
0.2493527944983561,-4.88441868852668e-05,0.2493527944983561,-1.627801148494762e-05,0.2493527944983561,-1.242040902924032e-05,0.2493527944983561,-1.493720983831942e-05
0.2501469116782872,-3.1389741776215044e-05,0.2501469116782872,-1.5945737342064203e-05,0.2501469116782872,-1.4602657271020843e-05,0.2501469116782872,-1.628125063174318e-05
0.2509410288582183,4.3140630896238216e-05,0.2509410288582183,-2.098137081230272e-05,0.2509410288582183,-1.1581563396584876e-05,0.2509410288582183,-1.762422440227675e-05
0.2517351460381494,0.0001347850684446,0.2517351460381494,-2.5680282556589977e-05,0.2517351460381494,-1.057505569906902e-05,0.2517351460381494,-1.8295353022635992e-05
0.2525292632180804,0.0001460141617842,0.2525292632180804,-2.232462247568973e-05,0.2525292632180804,-1.3595911147559251e-05,0.2525292632180804,-1.6952577704881498e-05
0.2533233803980115,0.0001012479284059,0.2533233803980115,-2.450429932893196e-05,0.2533233803980115,-1.3931238364292406e-05,0.2533233803980115,-1.6281923271415188e-05
0.2541174975779426,5.089016311331724e-05,0.2541174975779426,-4.3293204430101625e-05,0.2541174975779426,-1.527345031191602e-05,0.2541174975779426,-1.829432546787403e-05
0.2549116147578736,-7.189342100267943e-06,0.2549116147578736,-2.669606247725194e-05,0.2549116147578736,-1.8126315554303057e-05,0.2549116147578736,-2.0476541311939885e-05
0.2557057319378047,-4.530643646499916e-05,0.2557057319378047,-6.88850676081965e-06,0.2557057319378047,-1.9134459993152567e-05,0.2557057319378047,-1.6953990007085522e-05
0.2564998491177358,-3.122267926235188e-05,0.2564998491177358,-5.04760050530143e-07,0.2564998491177358,-1.6617578433597648e-05,0.2564998491177358,-1.493898275447924e-05
0.2572939662976669,3.457410716745111e-05,0.2572939662976669,4.531716262774424e-06,0.2572939662976669,-1.66171e-05,0.2572939662976669,-1.9638200511051235e-05
0.2580880834775979,9.885885886001386e-05,0.2580880834775979,-1.4266776472096268e-05,0.2580880834775979,-1.4266988236048134e-05,0.2580880834775979,-2.047737059430892e-05
0.258882200657529,5.754124971314182e-05,0.258882200657529,-1.0241429953032023e-05,0.258882200657529,-1.2252024374789483e-05,0.258882200657529,-1.8294581953665024e-05
0.2596763178374601,-6.53342001750665e-05,0.2596763178374601,-2.0679857829638364e-05,0.2596763178374601,-8.391587630124053e-06,0.2596763178374601,-1.4265925012020226e-05
0.2604704350173911,-0.000167273474284,0.2604704350173911,-0.0001065229260906,0.2604704350173911,-6.211970710253894e-06,0.2604704350173911,-1.1080366397531985e-05
0.2612645521973222,-0.0002223689504677,0.2612645521973222,-6.19615804972778e-05,0.2612645521973222,-1.0907549402935515e-05,0.2612645521973222,-1.2923358717778244e-05
0.2620586693772533,-0.0002512579784903,0.2620586693772533,3.36978611665892e-05,0.2620586693772533,-1.2420170983978418e-05,0.2620586693772533,-1.695112256842226e-05
0.2628527865571843,-0.0001166911871594,0.2628527865571843,7.015120870062084e-05,0.2628527865571843,-1.4602313408604512e-05,0.2628527865571843,-1.7624019514475538e-05
0.2636469037371154,0.0001569058300407,0.2636469037371154,6.965746105540138e-05,0.2636469037371154,-1.426724069955965e-05,0.2636469037371154,-1.5610244197357906e-05
0.2644410209170465,0.0003147155319605,0.2644410209170465,5.455059319505748e-05,0.2644410209170465,-1.4938564625428094e-05,0.2644410209170465,-2.131691768728595e-05
0.2652351380969776,0.0002589645509502,0.2652351380969776,3.910729437044347e-05,0.2652351380969776,-1.3595624839463329e-05,0.2652351380969776,-2.198777451838999e-05
0.2660292552769086,0.0001068918658195,0.2660292552769086,2.987984094397807e-05,0.2660292552769086,-1.2589885737157777e-05,0.2660292552769086,-1.8964844114258597e-05
0.2668233724568397,1.937186180797019e-05,0.2668233724568397,3.809530780946421e-05,0.2668233724568397,-1.627848512122273e-05,0.2668233724568397,-1.2258299779595031e-05
0.2676174896367708,-1.7600464317469036e-05,0.2676174896367708,8.579298526741528e-06,0.2676174896367708,-1.79588211024178e-05,0.2676174896367708,-1.124654733854932e-05
0.2684116068167018,-6.745071403119353e-05,0.2684116068167018,1.5141309477347758e-06,0.2684116068167018,-1.8295433763686164e-05,0.2684116068167018,-9.568241176617252e-06
0.2692057239966329,-0.0001253628706642,0.2692057239966329,3.0035081134210806e-05,0.2692057239966329,-1.460418362422356e-05,0.2692057239966329,-6.882753541413748e-06
0.269999841176564,-0.0001492132322964,0.269999841176564,2.333234299817305e-05,0.269999841176564,-1.3931634299817304e-05,0.269999841176564,-7.553085700182696e-06
0.270793958356495,-0.0001505609295626,0.270793958356495,-1.4600910452706085e-05,0.270793958356495,-1.628127675305766e-05,0.270793958356495,-8.895939573700285e-06
0.2715880755364261,-0.0001290724550679,0.2715880755364261,-7.670598223213396e-05,0.2715880755364261,-1.35958e-05,0.2715880755364261,-9.567601618027992e-06
0.2723821927163572,-9.180575947712524e-05,0.2723821927163572,-6.494254483421251e-05,0.2723821927163572,-1.3596451837593087e-05,0.2723821927163572,-1.1581274081203455e-05
0.2731763098962882,-5.991408683721104e-05,0.2731763098962882,-2.511066260642419e-06,0.2731763098962882,-1.6282512274300664e-05,0.2731763098962882,-1.0241155445675052e-05
0.2739704270762193,-3.912389928871037e-05,0.2739704270762193,1.4590561859375195e-05,0.2739704270762193,-1.9132743672055552e-05,0.2739704270762193,-1.627704534687141e-05
0.2747645442561504,4.842388144745645e-06,0.2747645442561504,-2.8434203279715166e-06,0.2747645442561504,-1.9302603627969348e-05,0.2747645442561504,-2.0978502386720276e-05
0.2755586614360815,6.72808754571051e-05,0.2755586614360815,-4.983116001790067e-05,0.2755586614360815,-1.6282688291142317e-05,0.2755586614360815,-2.1316756856539745e-05
0.2763527786160125,0.0001059022359703,0.2763527786160125,-4.129328679262971e-05,0.2763527786160125,-1.2589729602834446e-05,0.2763527786160125,-2.3666044826078376e-05
0.2771468957959436,0.0001106123831749,0.2771468957959436,-1.4942058459135484e-05,0.2771468957959436,-1.0574764342330298e-05,0.2771468957959436,-2.2995388114110097e-05
0.2779410129758747,8.912766958343795e-05,0.2779410129758747,-5.539449688978717e-06,0.2779410129758747,-1.0910169826352004e-05,0.2779410129758747,-1.7791887534792736e-05
0.2787351301558057,7.502628878368774e-05,0.2787351301558057,-3.1226823606628964e-05,0.2787351301558057,-9.06372242662472e-06,0.2787351301558057,-1.090964970977737e-05
0.2795292473357368,6.091885592962011e-05,0.2795292473357368,-7.283944580603416e-05,0.2795292473357368,-8.225654407037989e-06,0.2795292473357368,-7.552593357021663e-06
0.2803233645156679,2.7386234145258112e-05,0.2803233645156679,-4.986958140428981e-05,0.2803233645156679,-1.1578916585474188e-05,0.2803233645156679,-5.540640045518082e-06
0.2811174816955989,-7.261339749685313e-05,0.2811174816955989,-2.8841190249944315e-06,0.2811174816955989,-1.4936408629881374e-05,0.2811174816955989,-2.184231363590861e-06
0.2819115988755301,-0.0001162979526532,0.2819115988755301,6.205840987357801e-06,0.2819115988755301,-1.258988715666481e-05,0.2819115988755301,-3.859682036005653e-06
0.2827057160554611,-0.0001377963170472,0.2827057160554611,-2.58373352135519e-05,0.2827057160554611,-1.4937759645753252e-05,0.2827057160554611,-1.0907678947988142e-05
0.2834998332353922,-0.0001117934641662,0.2834998332353922,-5.45449716484563e-05,0.2834998332353922,-1.8966153911151108e-05,0.2834998332353922,-1.158145898519185e-05
0.2842939504153233,-5.6568648620509256e-05,0.2842939504153233,-7.217409938254527e-05,0.2842939504153233,-1.7288604821007352e-05,0.2842939504153233,-1.6281106501179412e-05
0.2850880675952543,7.067415969386193e-05,0.2850880675952543,-8.073401390045554e-05,0.2850880675952543,-1.5777528503746082e-05,0.2850880675952543,-2.3330857113507707e-05
0.2858821847751854,0.0001841277969198,0.2858821847751854,-6.327701257829666e-05,0.2858821847751854,-1.2588309388981549e-05,0.2858821847751854,-2.165088131151881e-05
0.2866763019551165,0.0001703582022813,0.2866763019551165,-5.387602986501477e-05,0.2866763019551165,-1.0908797454566445e-05,0.2866763019551165,-1.4264904917021955e-05
0.2874704191350475,0.0001472209239935,0.2874704191350475,-4.4486867796486445e-05,0.2874704191350475,-7.220218048292433e-06,0.2874704191350475,-8.229025004720522e-06
0.2882645363149786,6.634764658374766e-05,0.2882645363149786,-2.065941901844088e-05,0.2882645363149786,-6.211008132474851e-06,0.2882645363149786,-6.211596259109839e-06
0.2890586534949096,-2.899629394678257e-05,0.2890586534949096,-5.7220631483109264e-05,0.2890586534949096,-7.552633996177188e-06,0.2890586534949096,-7.552633996177188e-06
0.2898527706748408,-5.269786449284765e-05,0.2898527706748408,-0.0001290552511563,0.2898527706748408,-8.89562217187583e-06,0.2898527706748408,-1.023802434375166e-05
0.2906468878547718,-6.059248576512541e-05,0.2906468878547718,-7.167970784576242e-05,0.2906468878547718,-1.1916873270457953e-05,0.2906468878547718,-1.6280546538091087e-05
0.2914410050347029,-6.932181068990844e-05,0.2914410050347029,3.877385988087826e-05,0.2914410050347029,-1.7624225543825023e-05,0.2914410050347029,-1.7791998935991003e-05
0.292235122214634,-8.67858507628111e-05,0.292235122214634,0.0001428404132824,0.292235122214634,-2.165311670315462e-05,0.292235122214634,-1.762347659403435e-05
0.293029239394565,-0.0001371515999037,0.293029239394565,0.0001455040750179,0.293029239394565,-2.5008590240427723e-05,0.293029239394565,-1.2924096736771732e-05
0.2938233565744961,-0.000198851008671,0.2938233565744961,7.609194048788244e-05,0.2938233565744961,-2.1990745178782783e-05,0.2938233565744961,-1.191811508657227e-05
0.2946174737544272,-0.0001306322770025,0.2946174737544272,5.406207329081047e-05,0.2946174737544272,-1.6285182406623837e-05,0.2946174737544272,-1.644619635729055e-05
0.2954115909343582,2.258064796124078e-05,0.2954115909343582,3.609685286904187e-05,0.2954115909343582,-1.410042420924038e-05,0.2954115909343582,-1.9301229888150214e-05
0.2962057081142893,0.0001198082736301,0.2962057081142893,-1.106076121679376e-05,0.2962057081142893,-1.4602714869466103e-05,0.2962057081142893,-2.1651736143285133e-05
0.2969998252942204,6.496977676804655e-05,0.2969998252942204,-3.406834028738937e-05,0.2969998252942204,-1.2253517054296474e-05,0.2969998252942204,-2.2323752292204256e-05
0.2977939424741515,-8.139629578361507e-05,0.2977939424741515,-3.709448110472776e-05,0.2977939424741515,-1.1245972965090748e-05,0.2977939424741515,-1.4603459391783997e-05
0.2985880596540825,-0.0001070849608123,0.2985880596540825,-5.7909639390355085e-05,0.2985880596540825,-1.628167743656231e-05,0.2985880596540825,-7.5530686717173235e-06
0.2993821768340136,-6.66325365292937e-05,0.2993821768340136,-7.972537204044981e-05,0.2993821768340136,-1.997372617645854e-05,0.2993821768340136,-5.537534712515549e-06
0.3001762940139447,-5.016281471049693e-05,0.3001762940139447,-6.612682697147595e-05,0.3001762940139447,-1.829336527212304e-05,0.3001762940139447,1.1769264173829471e-06
0.3009704111938757,1.4890365668874705e-05,0.3009704111938757,-5.053416133786099e-05,0.3009704111938757,-1.2257475370926254e-05,0.3009704111938757,6.542141907322729e-06
0.3017645283738068,5.083696414184855e-05,0.3017645283738068,-3.542517301501903e-05,0.3017645283738068,-5.543018015254948e-06,0.3017645283738068,1.5136310129261791e-06
0.3025586455537379,-4.339428405319527e-06,0.3025586455537379,-1.4276641037780282e-05,0.3025586455537379,-6.2101202875618095e-06,0.3025586455537379,-4.864782702820802e-06
0.3033527627336689,-2.0305035034659974e-05,0.3033527627336689,-1.7206222579550297e-07,0.3033527627336689,-1.4264792440011975e-05,0.3033527627336689,-9.566005592497188e-06
0.3041468799136,2.315662504273703e-05,0.3041468799136,-3.524322282414198e-06,0.3041468799136,-1.493849845590812e-05,0.3041468799136,-1.2923892281053016e-05
0.3049409970935311,6.327905315377035e-05,0.3049409970935311,-2.500942135450232e-05,0.3049409970935311,-1.5274298771156662e-05,0.3049409970935311,-1.8631279109663277e-05
0.3057351142734621,7.554739474365646e-05,0.3057351142734621,5.095872736080535e-07,0.3057351142734621,-1.4267489886155602e-05,0.3057351142734621,-2.265945507131432e-05
0.3065292314533932,0.0001811205327839,0.3065292314533932,4.247029802206224e-05,0.3065292314533932,-1.6281497734470575e-05,0.3065292314533932,-2.1652306796588275e-05
0.3073233486333243,0.0002206895439143,0.3073233486333243,5.755992288610179e-05,0.3073233486333243,-1.6616824951203755e-05,0.3073233486333243,-2.064632514638874e-05
0.3081174658132554,0.0001496018803554,0.3081174658132554,4.817902385607645e-05,0.3081174658132554,-1.32623585200273e-05,0.3081174658132554,-2.06455e-05
0.3089115829931864,6.956751072000403e-06,0.3089115829931864,3.5087375990686087e-05,0.3089115829931864,-1.2253528926400448e-05,0.3089115829931864,-1.6954739396801646e-05
0.3097057001731175,-9.00983649235716e-05,0.3097057001731175,2.5348876202328143e-05,0.3097057001731175,-1.4266439406414866e-05,0.3097057001731175,-1.7288373234402475e-05
0.3104998173530486,-0.00011899835892,0.3104998173530486,2.333146333436965e-05,0.3104998173530486,-1.628093666563035e-05,0.3104998173530486,-1.930223666563035e-05
0.3112939345329796,-8.778777414015396e-05,0.3112939345329796,9.90420715944924e-06,0.3112939345329796,-1.779187544775698e-05,0.3112939345329796,-1.7624338395961808e-05
0.3120880517129107,-3.642316881593841e-05,0.3120880517129107,-3.306586271979468e-05,0.3120880517129107,-1.9638487456041064e-05,0.3120880517129107,-2.0309712543958937e-05
0.3128821688928418,-3.44255948959984e-05,0.3128821688928418,-2.6344909393885564e-05,0.3128821688928418,-2.0981057185574308e-05,0.3128821688928418,-1.8967e-05
0.3136762860727728,-0.0001119771060486,0.3136762860727728,8.370776813714758e-06,0.3136762860727728,-2.030786722757537e-05,0.3136762860727728,-1.896712079827654e-05
0.314470403252704,-0.0001733418868218,0.314470403252704,-5.182016891192568e-05,0.314470403252704,-1.4942631759844522e-05,0.314470403252704,-1.930244801500972e-05
0.315264520432635,-0.0001062895512258,0.315264520432635,-0.0001172874619055,0.315264520432635,-1.1583627591491509e-05,0.315264520432635,-2.7690031081670136e-05
0.3160586376125661,7.343595302036666e-05,0.3160586376125661,-5.676065554681284e-05,0.3160586376125661,-1.1917146784053451e-05,0.3160586376125661,-3.457375909591615e-05
0.3168527547924971,0.0001955063152509,0.3168527547924971,7.868953101787136e-06,0.3168527547924971,-1.3091837160837394e-05,0.3168527547924971,-3.340236283916261e-05
0.3176468719724282,0.0001616444669708,0.3176468719724282,3.2055302690758706e-05,0.3176468719724282,-1.0239260093039392e-05,0.3176468719724282,-2.568214497945134e-05
0.3184409891523593,5.690233093359415e-05,0.3184409891523593,2.2995423831146488e-05,0.3184409891523593,-1.1917277068306206e-05,0.3184409891523593,-1.6281528416119043e-05
0.3192351063322903,3.18887025881707e-06,0.3192351063322903,-1.5133374064725088e-06,0.3192351063322903,-1.2924310086272355e-05,0.3192351063322903,-1.2923770605245694e-05
0.3200292235122214,1.171447912527401e-06,0.3200292235122214,-2.165382692746468e-05,0.3200292235122214,-1.2253e-05,0.3200292235122214,-8.223099909259743e-06
0.3208233406921525,-1.1235599173227249e-05,0.3208233406921525,-2.601298085604224e-05,0.3208233406921525,-1.2253e-05,0.3208233406921525,-2.8578944082153067e-06
0.3216174578720835,-4.781201630125502e-05,0.3216174578720835,-2.165557965519821e-05,0.3216174578720835,-1.2588470790501824e-05,0.3216174578720835,-5.537196330842403e-06
0.3224115750520147,-8.222768428498616e-05,0.3224115750520147,-1.2929071323684254e-05,0.3224115750520147,-1.493734233593116e-05,0.3224115750520147,-4.8679893325910965e-06
0.3232056922319457,-0.0001163067923703,0.3232056922319457,-8.226431719425377e-06,0.3232056922319457,-1.5609739753814065e-05,0.3232056922319457,-5.874329634597269e-06
0.3239998094118768,-0.0002166689069248,0.3239998094118768,-2.1984996226894474e-05,0.3239998094118768,-1.2253805798903873e-05,0.3239998094118768,-8.224045943167642e-06
0.3247939265918079,-0.0002458962997989,0.3247939265918079,3.018977772307348e-06,0.3247939265918079,-1.02389862201267e-05,0.3247939265918079,-1.2252627560671134e-05
0.3255880437717389,-9.851408283188332e-05,0.3255880437717389,3.256260567883798e-05,0.3255880437717389,-9.903266558633385e-06,0.3255880437717389,-1.7288629545603742e-05
0.32638216095167,0.0001448559733809,0.32638216095167,2.9036811204521587e-05,0.32638216095167,-1.2924570114158006e-05,0.32638216095167,-1.96378556022608e-05
0.3271762781316011,0.0001545416699431,0.3271762781316011,2.366118012327766e-05,0.3271762781316011,-1.3763776184999127e-05,0.3271762781316011,-1.6950803434925505e-05
0.3279703953115321,1.940560071128121e-05,0.3279703953115321,7.900910814668193e-06,0.3279703953115321,-1.4266816954575583e-05,0.3279703953115321,-1.1250240750461878e-05
0.3287645124914632,-1.2233625096809204e-05,0.3287645124914632,-6.86033056444937e-05,0.3287645124914632,-1.8293126600265125e-05,0.3287645124914632,-1.0574912233289146e-05
0.3295586296713942,0.0001199503104369,0.3295586296713942,-0.0001350879984118,0.3295586296713942,-2.0308860559348044e-05,0.3295586296713942,-1.5272107971812106e-05
0.3303527468513254,0.0002193473191129,0.3303527468513254,-0.0001059223116627,0.3303527468513254,-1.9806360561300434e-05,0.3303527468513254,-1.997260157664856e-05
0.3311468640312564,0.000115665763443,0.3311468640312564,-5.271381166964731e-05,0.3311468640312564,-2.2491340103705536e-05,0.3311468640312564,-2.0981027538889576e-05
0.3319409812111875,1.849032944650631e-06,0.3319409812111875,-1.6909220534393709e-07,0.3319409812111875,-1.9638467521407565e-05,0.3319409812111875,-2.09812e-05
0.3327350983911186,-3.9452795013615576e-05,0.3327350983911186,3.407419038799959e-05,0.3327350983911186,-9.567243602526402e-06,0.3327350983911186,-1.96384831987368e-05
0.3335292155710496,-0.0001056179622956,0.3335292155710496,4.044760374331935e-05,0.3335292155710496,-8.225429248624545e-06,0.3335292155710496,-2.0309162804516343e-05
0.3343233327509807,-0.000256514210936,0.3343233327509807,2.53578789903274e-05,0.3343233327509807,-1.1243364210327593e-05,0.3343233327509807,-1.7961872287384264e-05
0.3351174499309118,-0.0003374889511467,0.3351174499309118,1.1916847265495175e-06,0.3351174499309118,-1.0239497700980792e-05,0.3351174499309118,-1.7792116318135908e-05
0.3359115671108428,-0.0001818659226028,0.3359115671108428,-1.040038568466272e-05,0.3359115671108428,-7.890191161084953e-06,0.3359115671108428,-2.0308427294307524e-05
0.3367056842907739,0.0001410325922306,0.3367056842907739,-2.533926017345841e-05,0.3367056842907739,-6.882220437789053e-06,0.3367056842907739,-1.5444035488412925e-05
0.337499801470705,0.000275071509058,0.337499801470705,-3.5245823859620463e-05,0.337499801470705,-4.196901496586107e-06,0.337499801470705,-7.555192511063937e-06
0.338293918650636,0.0001488949321923,0.338293918650636,-3.5416182797785644e-05,0.338293918650636,-3.524898788366412e-06,0.338293918650636,-1.5112590932485963e-06
0.3390880358305671,6.0258960426843576e-05,0.3390880358305671,-3.676036340723107e-05,0.3390880358305671,-7.553401787329965e-06,0.3390880358305671,-1.680913834525918e-07
0.3398821530104982,8.376779771627808e-05,0.3398821530104982,-6.697144715444615e-05,0.3398821530104982,-1.158263507555166e-05,0.3398821530104982,-5.539741610587598e-06
0.3406762701904293,0.0001408193825435,0.3406762701904293,-6.460539970394064e-05,0.3406762701904293,-1.695439728425115e-05,0.3406762701904293,-9.232109334657277e-06
0.3414703873703603,0.0001213700044172,0.3414703873703603,-1.581543950270023e-05,0.3414703873703603,-2.1648978318514985e-05,0.3414703873703603,-1.0405794548804612e-05
0.3422645045502914,8.445124203060103e-05,0.3422645045502914,1.02225658477492e-05,0.3422645045502914,-2.031063789655998e-05,0.3422645045502914,-1.1916357397569627e-05
0.3430586217302225,-2.0930981876215944e-05,0.3430586217302225,-1.628911652370733e-07,0.3430586217302225,-1.7625479447499315e-05,0.3430586217302225,-1.4266080483438096e-05
0.3438527389101535,-9.749523172798922e-05,0.3438527389101535,3.85920535408739e-06,0.3438527389101535,-1.7288610387734834e-05,0.3438527389101535,-1.695191689812133e-05
0.3446468560900846,-5.757954046308605e-05,0.3446468560900846,1.7118196655476647e-05,0.3446468560900846,-1.527466506719338e-05,0.3446468560900846,-2.198738733201655e-05
0.3454409732700157,1.8964423306944683e-05,0.3454409732700157,8.2249094832152e-06,0.3454409732700157,-1.896687568537411e-05,0.3454409732700157,-1.997416780797776e-05
0.3462350904499467,-1.0582186582288727e-05,0.3462350904499467,-5.35476285655255e-05,0.3462350904499467,-2.1652294065016368e-05,0.3462350904499467,-1.8294911646286827e-05
0.3470292076298778,-7.805358230935437e-05,0.3470292076298778,-8.626235712570243e-05,0.3470292076298778,-1.8967e-05,0.3470292076298778,-1.2251641048085164e-05
0.3478233248098089,-9.21372255231934e-05,0.3478233248098089,-3.981978733054416e-05,0.3478233248098089,-1.8967e-05,0.3478233248098089,-7.054089166511959e-06
0.34861744198974,-2.3714828384924902e-05,0.34861744198974,-1.5962450568442027e-05,0.34861744198974,-1.762514369795608e-05,0.34861744198974,-7.55286611326647e-06
0.349411559169671,-1.0196806535543608e-06,0.349411559169671,-2.9030631185349065e-05,0.349411559169671,-1.359803657543727e-05,0.349411559169671,-3.694823379242033e-06
0.3502056763496021,-5.989818501819193e-05,0.3502056763496021,4.277231677234528e-05,0.3502056763496021,-1.577691057283608e-05,0.3502056763496021,-9.565015341685285e-06
0.3509997935295332,-7.20041574102795e-05,0.3509997935295332,9.51568820765394e-05,0.3509997935295332,-1.6952494454913774e-05,0.3509997935295332,-1.1916688938431764e-05
0.3517939107094642,-5.882157044708152e-06,0.3517939107094642,0.0001284012625613,0.3517939107094642,-1.82954489932854e-05,0.3517939107094642,-1.0238988758393255e-05
0.3525880278893953,-4.213273515306224e-05,0.3525880278893953,6.965466438014176e-05,0.3525880278893953,-2.165256462542814e-05,0.3525880278893953,-1.225308254066767e-05
0.3533821450693264,-0.0001143155801946,0.3533821450693264,-8.2244259976474e-06,0.3533821450693264,-2.064568400417967e-05,0.3533821450693264,-1.4602961334726556e-05
0.3541762622492574,-0.0001722223575153,0.3541762622492574,-7.220509931823719e-06,0.3541762622492574,-2.165060670771921e-05,0.3541762622492574,-1.4940371815360702e-05
0.3549703794291886,-0.0002005578569406,0.3549703794291886,-1.6274324805828833e-05,0.3549703794291886,-1.5614716806522006e-05,0.3549703794291886,-2.030560728309155e-05
0.3557644966091196,-5.39726071076907e-05,0.3557644966091196,-0.0001365527003975,0.3557644966091196,-1.1584153979625286e-05,0.3557644966091196,-2.165174867345824e-05
0.3565586137890507,0.0001783110047935,0.3565586137890507,-0.0001310926942348,0.3565586137890507,-1.460143040410426e-05,0.3565586137890507,-2.04781715338356e-05
0.3573527309689818,0.0002348018910046,0.3573527309689818,-1.83338181262942e-05,0.3573527309689818,-1.091145119753256e-05,0.3573527309689818,-1.863192558182478e-05
0.3581468481489128,9.116957833396144e-05,0.3581468481489128,4.010482888543815e-05,0.3581468481489128,-9.903292606082955e-06,0.3581468481489128,-1.0911676646636004e-05
0.3589409653288439,-3.574635899032272e-05,0.3589409653288439,7.469139014975089e-05,0.3589409653288439,-1.7623862847023347e-05,0.3589409653288439,-4.532208516366372e-06
0.3597350825087749,-7.536266044464862e-05,0.3597350825087749,6.965436507993982e-05,0.3597350825087749,-1.8631160462489963e-05,0.3597350825087749,-3.5252486114909496e-06
0.360529199688706,-5.957595987749591e-05,0.360529199688706,4.043930480458182e-05,0.360529199688706,-1.728807839309039e-05,0.360529199688706,-7.55389456603176e-06
0.3613233168686371,-1.76602575637585e-05,0.3613233168686371,-8.85360626618033e-06,0.3613233168686371,-1.5611442309424618e-05,0.3613233168686371,-1.0236492322106304e-05
0.3621174340485681,-1.1082765963057812e-05,0.3621174340485681,-5.72021435439219e-05,0.3621174340485681,-1.997098933420195e-05,0.3621174340485681,-9.903339281984463e-06
0.3629115512284993,-2.5672646447769546e-05,0.3629115512284993,-6.528884626923533e-05,0.3629115512284993,-1.8296548693909307e-05,0.3629115512284993,-5.876996854078268e-06
0.3637056684084303,-5.655230204847048e-05,0.3637056684084303,-4.381767247531032e-05,0.3637056684084303,-8.899935472042991e-06,0.3637056684084303,-2.854701751860884e-06
0.3644997855883614,-6.596216176045703e-05,0.3644997855883614,5.190094798911928e-06,0.3644997855883614,-6.378949890124679e-06,0.3644997855883614,-3.5246486979470447e-06
0.3652939027682925,7.544217137412062e-06,0.3652939027682925,1.6615702291755257e-05,0.3652939027682925,-1.023832724694732e-05,0.3652939027682925,-9.566670037315846e-06
0.3660880199482235,0.0001357906831638,0.3660880199482235,-4.3976921698913e-05,0.3660880199482235,-1.0910216868057016e-05,0.3660880199482235,-1.527442651042761e-05
0.3668821371281546,0.0001629508662959,0.3668821371281546,-6.0759399794161934e-05,0.3668821371281546,-1.1582208752291391e-05,0.3668821371281546,-2.0309944934442503e-05
0.3676762543080857,-1.730664800078751e-05,0.3676762543080857,-4.918645784966053e-05,0.3676762543080857,-1.5106346323400277e-05,0.3676762543080857,-2.1148463074060568e-05
0.3684703714880167,-7.397664796183027e-05,0.3684703714880167,-6.997664539816266e-05,0.3684703714880167,-1.4938732659510424e-05,0.3684703714880167,-1.9471826990394795e-05
0.3692644886679478,-5.508931955537606e-07,0.3692644886679478,-9.649622112305953e-05,0.3692644886679478,-1.4267632378261771e-05,0.3692644886679478,-2.1986678549318604e-05
0.3700586058478789,1.526646766718423e-05,0.3700586058478789,-9.517116658371312e-05,0.3700586058478789,-9.569743038031817e-06,0.3700586058478789,-1.6284232980780795e-05
0.3708527230278099,-6.325179806684073e-05,0.3708527230278099,-5.65786667436867e-05,0.3708527230278099,-9.56741e-06,0.3708527230278099,-9.569752051025253e-06
0.371646840207741,-7.133427859157062e-05,0.371646840207741,-3.172849938458427e-05,0.371646840207741,-1.292372440678152e-05,0.371646840207741,-5.53984071025218e-06
0.3724409573876721,3.856494364061242e-06,0.3724409573876721,-2.198882246792821e-05,0.3724409573876721,-1.896667570623069e-05,0.3724409573876721,-5.874701984216162e-06
0.3732350745676032,9.225751446516234e-06,0.3732350745676032,-1.292433694623578e-05,0.3732350745676032,-1.930244778494312e-05,0.3732350745676032,-5.538840838707341e-06
0.3740291917475342,-5.42021832267611e-05,0.3740291917475342,-1.2251623546958238e-05,0.3740291917475342,-1.661718096810974e-05,0.3740291917475342,-3.525518226520881e-06
0.3748233089274653,1.2057516273677264e-07,0.3748233089274653,-6.551080840285302e-06,0.3748233089274653,-1.6952508184842897e-05,0.3748233089274653,-6.3757895798573485e-06
0.3756174261073964,7.899997997447904e-05,0.3756174261073964,6.536657103651595e-06,0.3756174261073964,-1.3598226394798873e-05,0.3756174261073964,-1.3590583265638155e-05
0.3764115432873274,3.208623336378198e-05,0.3764115432873274,-1.0900159039596434e-05,0.3764115432873274,-9.066466793991594e-06,0.3764115432873274,-1.896391045956309e-05
0.3772056604672585,-0.0001266580997805,0.3772056604672585,-5.92301284427674e-05,0.3772056604672585,-1.0909410462365364e-05,0.3772056604672585,-2.232246451201528e-05
0.3779997776471896,-0.0002555979004331,0.3779997776471896,-3.844332858406601e-05,0.3779997776471896,-1.2923835940767404e-05,0.3779997776471896,-3.0378443763069625e-05
0.3787938948271206,-0.0001290927638151,0.3787938948271206,4.547598338560415e-05,0.3787938948271206,-1.4938333199982887e-05,0.3787938948271206,-3.675815513327914e-05
0.3795880120070517,0.0001811111219817,0.3795880120070517,0.0001072563934199,0.3795880120070517,-1.795987969386766e-05,0.3795880120070517,-3.675901522959926e-05
0.3803821291869828,0.0003214235172426,0.3803821291869828,0.000133270716428,0.3803821291869828,-1.6616826901321553e-05,0.3803821291869828,-3.776511684475759e-05
0.3811762463669139,0.0002754122872532,0.3811762463669139,0.0001253624018976,0.3811762463669139,-1.4938183872337176e-05,0.3811762463669139,-3.172287580850577e-05
0.3819703635468449,0.0001828621752128,0.3819703635468449,5.896831220712667e-05,0.3819703635468449,-1.3596875005404558e-05,0.3819703635468449,-2.971091250810684e-05
0.382764480726776,0.0001109949831088,0.382764480726776,2.536715459723116e-05,0.382764480726776,-1.4937721813494768e-05,0.382764480726776,-2.8702858639878925e-05
0.3835585979067071,1.3645100587742422e-05,0.3835585979067071,4.346381981511998e-05,0.3835585979067071,-1.5609659993152594e-05,0.3835585979067071,-2.3669250051355564e-05
0.3843527150866381,-5.922466023966604e-05,0.3843527150866381,5.286912714969183e-05,0.3843527150866381,-1.2589784141990114e-05,0.3843527150866381,-1.9304265946991317e-05
0.3851468322665692,-8.744354299156946e-05,0.3851468322665692,4.850932192124076e-05,0.3851468322665692,-9.90366733614816e-06,0.3851468322665692,-1.4939521921240756e-05
0.3859409494465003,-0.0001025550381782,0.3859409494465003,2.7360746544035767e-05,0.3859409494465003,-1.0910135878552253e-05,0.3859409494465003,-1.0239099233422824e-05
0.3867350666264313,-0.000115986450745,0.3867350666264313,-4.046071414499396e-05,0.3867350666264313,-1.1581318306972478e-05,0.3867350666264313,-4.531845491840007e-06
0.3875291838063624,-0.0001451973732939,0.3875291838063624,-0.0001478772507609,0.3875291838063624,-8.223833856248457e-06,0.3875291838063624,-3.5246747726369093e-06
0.3883233009862935,-0.0001770529594388,0.3883233009862935,-0.0001576014403793,0.3883233009862935,-4.870581666707366e-06,0.3883233009862935,-2.8540303280658983e-06
0.3891174181662246,-0.000132633594416,0.3891174181662246,-9.488080092143554e-05,0.3891174181662246,-5.203084003024667e-06,0.3891174181662246,3.1847120690997727e-06
0.3899115353461556,-8.646941230596928e-05,0.3899115353461556,-7.134965170557039e-05,0.3899115353461556,-7.551844829442961e-06,0.3899115353461556,6.879659020204109e-06
0.3907056525260867,-3.308965869312496e-05,0.3907056525260867,-6.294717272049068e-05,0.3907056525260867,-6.043231097565563e-06,0.3907056525260867,3.861852190754879e-06
0.3914997697060178,2.0629921279201427e-05,0.3914997697060178,-4.951939469470178e-05,0.3914997697060178,-9.734188961857438e-06,0.3914997697060178,-1.6668059768036426e-07
0.3922938868859488,4.380540014686519e-05,0.3922938868859488,-5.085810870334024e-05,0.3922938868859488,-1.0910032616847315e-05,0.3922938868859488,3.356262641799722e-07
0.3930880040658799,7.100056787405994e-05,0.3930880040658799,-5.6565180231322906e-05,0.3930880040658799,-9.903129223640276e-06,0.3930880040658799,2.182007338438021e-06
0.393882121245811,0.0001428357964046,0.393882121245811,-5.270349532971914e-05,0.393882121245811,-1.561025631120122e-05,0.393882121245811,-4.19694766830936e-06
0.394676238425742,0.0001152716281638,0.394676238425742,-4.481197492018024e-05,0.394676238425742,-1.7290211506949262e-05,0.394676238425742,-8.896614068862083e-06
0.3954703556056732,-1.919358685661676e-05,0.3954703556056732,-3.2404967790006104e-05,0.3954703556056732,-2.299067430245984e-05,0.3954703556056732,-1.0908567380365804e-05
0.3962644727856042,-0.0001377253153762,0.3962644727856042,-2.971108323297384e-05,0.3962644727856042,-2.0647060262452317e-05,0.3962644727856042,-8.8973474180904e-06
0.3970585899655353,-0.0001901459557998,0.3970585899655353,-2.937377336091915e-05,0.3970585899655353,-1.5612600413787247e-05,0.3970585899655353,-6.882860160350735e-06
0.3978527071454664,-0.0002344686562089,0.3978527071454664,1.6432298973900102e-05,0.3978527071454664,-1.594557618228345e-05,0.3978527071454664,-7.888538550538708e-06
0.3986468243253974,-0.0002527769519615,0.3986468243253974,5.185756407196704e-05,0.3986468243253974,-1.6449088599291723e-05,0.3986468243253974,-1.0238280080614933e-05
0.3994409415053285,-0.0001176719543344,0.3994409415053285,6.697078709098873e-05,0.3994409415053285,-2.064519085492444e-05,0.3994409415053285,-1.8295006448527327e-05
0.4002350586852595,0.000205964323919,0.4002350586852595,5.824134287772529e-05,0.4002350586852595,-1.896685112865269e-05,0.4002350586852595,-2.836674811891219e-05
0.4010291758651906,0.0003861762205193,0.4010291758651906,2.6350814790813348e-05,0.4010291758651906,-1.6952948523130807e-05,0.4010291758651906,-3.1723797046261614e-05
0.4018232930451217,0.0001839750076077,0.4018232930451217,1.964437034510371e-05,0.4018232930451217,-1.7623602956597114e-05,0.4018232930451217,-3.3065105913194227e-05
0.4026174102250527,1.204496896907377e-05,0.4026174102250527,-2.836733295026803e-06,0.4026174102250527,-1.829510129105849e-05,0.4026174102250527,-3.105359612682453e-05
0.4034115274049838,4.680911974715387e-05,0.4034115274049838,-2.6170613170432216e-05,0.4034115274049838,-1.6953599245072605e-05,0.4034115274049838,-2.9710099245072604e-05
0.4042056445849149,6.595613476502508e-05,0.4042056445849149,-1.0917037174602153e-05,0.4042056445849149,-1.8630548659672148e-05,0.4042056445849149,-2.903820053613114e-05
0.404999761764846,5.221561101186594e-06,0.404999761764846,3.2046307277546125e-05,0.404999761764846,-1.628210507404093e-05,0.404999761764846,-3.054814672311433e-05
0.4057938789447771,-3.50743582266751e-05,0.4057938789447771,4.548505274883174e-05,0.4057938789447771,-1.493880472664145e-05,0.4057938789447771,-3.0380725598453304e-05
0.4065879961247081,0.0001059123118501,0.4065879961247081,2.618459421059037e-05,0.4065879961247081,-1.4267203276915565e-05,0.4065879961247081,-2.1652642599414268e-05
0.4073821133046392,0.0002589832874359,0.4073821133046392,8.892656680707225e-06,0.4073821133046392,-2.232418742846879e-05,0.4073821133046392,-8.894237533004532e-06
0.4081762304845703,0.0002048888167463,0.4081762304845703,-1.4607084961978045e-05,0.4081762304845703,-2.433751604777165e-05,0.4081762304845703,3.523759427002971e-06
0.4089703476645013,1.475908397028446e-05,0.4089703476645013,-2.902605539255024e-05,0.4089703476645013,-2.232555274737273e-05,0.4089703476645013,-1.6481898038150485e-07
0.4097644648444324,-4.309838313664568e-05,0.4097644648444324,-3.5076427290890835e-05,0.4097644648444324,-2.031115750230311e-05,0.4097644648444324,-1.0567485922893529e-05
0.4105585820243635,-4.31373e-05,0.4105585820243635,-3.3067360310487427e-05,0.4105585820243635,-1.661904390256029e-05,0.4105585820243635,-1.5607349223781425e-05
0.4113526992042945,-0.0001397813738798,0.4113526992042945,-2.1321351094536105e-05,0.4113526992042945,-1.7623818474364026e-05,0.4113526992042945,-1.779117338006385e-05
0.4121468163842256,-0.0002871559196172,0.4121468163842256,-0.0001723460658039,0.4121468163842256,-1.896668947196245e-05,0.4121468163842256,-1.8295483540423214e-05
0.4129409335641567,-0.0003452611406447,0.4129409335641567,-0.0001599610392942,0.4129409335641567,-1.8295656177613568e-05,0.4129409335641567,-2.131664720073895e-05
0.4137350507440878,-0.0001485246231354,0.4137350507440878,2.9213662981736547e-05,0.4137350507440878,-1.896719308956217e-05,0.4137350507440878,-2.836662872637478e-05
0.4145291679240188,0.0002016169939756,0.4145291679240188,0.0001522387163245,0.4145291679240188,-2.1987661825360792e-05,0.4145291679240188,-3.037970728389456e-05
0.4153232851039499,0.0003434593078753,0.4153232851039499,0.0001508972076797,0.4153232851039499,-1.896971687476261e-05,0.4153232851039499,-2.5685126249630727e-05
0.416117402283881,0.0002208144916762,0.416117402283881,6.300970985762637e-05,0.416117402283881,-1.3264396103425008e-05,0.416117402283881,-1.846883326963325e-05
0.416911519463812,1.808261350956573e-05,0.416911519463812,7.251245881610966e-06,0.416911519463812,-9.234148019111066e-06,0.416911519463812,-1.158576492939326e-05
0.4177056366437431,-0.0001055204661138,0.4177056366437431,-3.3047865015051034e-05,0.4177056366437431,-7.553988123228804e-06,0.4177056366437431,-8.226146251033886e-06
0.4184997538236742,-0.0001381299039802,0.4184997538236742,-6.461221628931604e-05,0.4184997538236742,-5.204058573408263e-06,0.4184997538236742,-5.5398626526661945e-06
0.4192938710036052,-0.0001136379813421,0.4192938710036052,-3.105755389933443e-05,0.4192938710036052,-5.538975460844192e-06,0.4192938710036052,-6.210310923313024e-06
0.4200879881835363,-8.879266969905064e-05,0.4200879881835363,-2.182469649894086e-06,0.4200879881835363,-8.560265036718595e-06,0.4200879881835363,-7.553200016187088e-06
0.4208821053634674,-6.948619215532588e-05,0.4208821053634674,4.529880835816592e-06,0.4208821053634674,-8.224877282169401e-06,0.4208821053634674,-1.0910690019743394e-05
0.4216762225433985,-4.3807478362710265e-05,0.4216762225433985,-1.0922228372713144e-05,0.4216762225433985,-1.0238847000046044e-05,0.4216762225433985,-1.4601678362710268e-05
0.4224703397233295,-3.944822454517926e-05,0.4224703397233295,-5.384391233665003e-05,0.4224703397233295,-1.0406560552889349e-05,0.4224703397233295,-1.0242424545179258e-05
0.4232644569032606,-6.661760092027968e-05,0.4232644569032606,-7.467866368341905e-05,0.4232644569032606,-8.561572932479325e-06,0.4232644569032606,-5.877705034783752e-06
0.4240585740831917,-9.04579147176726e-05,0.4240585740831917,-8.308089810224956e-05,0.4240585740831917,-8.895829924089982e-06,0.4240585740831917,-6.210239924089984e-06
0.4248526912631227,-6.597422884875744e-05,0.4248526912631227,-0.000115635338444,0.4248526912631227,-1.3258403078692e-05,0.4248526912631227,-8.55939627493648e-06
0.4256468084430538,-3.508795098619135e-05,0.4256468084430538,-0.0001119558909569,0.4256468084430538,-1.3931338020990382e-05,0.4256468084430538,-6.210986924121111e-06
0.4264409256229849,-6.092687864409575e-05,0.4264409256229849,-5.321370303731841e-05,0.4264409256229849,-1.2253157231511146e-05,0.4264409256229849,-5.035590061121063e-06
0.4272350428029159,-8.878806534148467e-05,0.4272350428029159,-1.1580007478157808e-05,0.4272350428029159,-1.2924544775202998e-05,0.4272350428029159,-9.9031e-06
0.428029159982847,-1.0218263374214456e-05,0.428029159982847,1.7965034161477295e-05,0.428029159982847,-1.5609729779915744e-05,0.428029159982847,-9.90276222690704e-06
0.4288232771627781,9.172071106790438e-05,0.4288232771627781,4.344980274424537e-05,0.4288232771627781,-1.426842091298303e-05,0.4288232771627781,-8.226136132136494e-06
0.4296173943427092,6.732619299441918e-05,0.4296173943427092,3.273879422277192e-05,0.4296173943427092,-8.900107103758032e-06,0.4296173943427092,-1.15790393130117e-05
0.4304115115226402,3.543581987156683e-05,0.4304115115226402,1.595602625143102e-05,0.4304115115226402,-7.889529578777127e-06,0.4304115115226402,-1.627850863237341e-05
0.4312056287025713,3.977825922026661e-05,0.4312056287025713,3.866181376002057e-06,0.4312056287025713,-1.359313129271724e-05,0.4312056287025713,-1.3932598881394904e-05
0.4319997458825024,-1.8444759265371564e-05,0.4319997458825024,-2.2651112305955124e-05,0.4319997458825024,-1.7287318161607824e-05,0.4319997458825024,-1.3092468615636946e-05
0.4327938630624334,-8.42489523080939e-05,0.4327938630624334,-5.387421562867994e-05,0.4327938630624334,-1.2925152656466296e-05,0.4327938630624334,-9.90365000956364e-06
0.4335879802423645,-0.0001183331521212,0.4335879802423645,-6.260758281033571e-05,0.4335879802423645,-1.3260091646551374e-05,0.4335879802423645,-8.224651766994296e-06
0.4343820974222956,-0.000108087524078,0.4343820974222956,-6.697066430738138e-05,0.4343820974222956,-1.62814e-05,0.4343820974222956,-3.5251595168046515e-06
0.4351762146022266,-4.714040810105579e-05,0.4351762146022266,-5.6893106807869466e-05,0.4351762146022266,-1.6281581237654058e-05,0.4351762146022266,-6.210963710262778e-06
0.4359703317821577,4.608005870600044e-05,0.4359703317821577,-2.805506605776961e-05,0.4359703317821577,-1.6952235671120415e-05,0.4359703317821577,-8.222917021766499e-06
0.4367644489620888,0.0001048652290935,0.4367644489620888,-2.3677126133549688e-06,0.4367644489620888,-1.3262662742688477e-05,0.4367644489620888,-8.560077023391957e-06
0.4375585661420199,8.376835635918474e-05,0.4375585661420199,1.4929153212405112e-05,0.4375585661420199,-1.1918033733621758e-05,0.4375585661420199,-1.3928565070977178e-05
0.438352683321951,5.624047895674862e-05,0.438352683321951,2.5676615553393152e-05,0.438352683321951,-1.5608527207768812e-05,0.438352683321951,-1.6280462768580153e-05
0.439146800501882,9.314702188022336e-05,0.439146800501882,1.1249526895885256e-05,0.439146800501882,-1.561e-05,0.439146800501882,-2.030878783599694e-05
0.4399409176818131,9.114230882278604e-05,0.4399409176818131,5.046617165491722e-07,0.4399409176818131,-1.3596008822786048e-05,0.4399409176818131,-1.6785265445059348e-05
0.4407350348617442,7.687235428778759e-05,0.4407350348617442,5.203447914361493e-06,0.4407350348617442,-1.0910082085199442e-05,0.4407350348617442,-9.56741e-06
0.4415291520416752,1.659950879729833e-05,0.4415291520416752,7.888653194916844e-06,0.4415291520416752,-8.22448159841466e-06,0.4415291520416752,-9.568694033065672e-06
0.4423232692216063,-7.52797490317722e-05,0.4423232692216063,6.547354316879571e-06,0.4423232692216063,-7.553837153843695e-06,0.4423232692216063,-1.627522837883342e-05
0.4431173864015373,-0.000169623101025,0.4431173864015373,6.378399713478534e-06,0.4431173864015373,-1.426201147631452e-05,0.4431173864015373,-1.460419713478534e-05
0.4439115035814684,-0.0002102896045033,0.4439115035814684,5.03631952876564e-06,0.4439115035814684,-1.527367034873668e-05,0.4439115035814684,-8.228597785082248e-06
0.4447056207613995,-0.0001425363886004,0.4447056207613995,-8.364400518055799e-07,0.4447056207613995,-1.426768102165558e-05,0.4447056207613995,-5.204773055414131e-06
0.4454997379413306,1.505438089204972e-05,0.4454997379413306,-3.523943626486542e-06,0.4454997379413306,-1.3596021594698558e-05,0.4454997379413306,-6.881266016554088e-06
0.4462938551212617,7.971660862238164e-05,0.4462938551212617,-5.538662475119945e-06,0.4462938551212617,-1.5777401857169955e-05,0.4462938551212617,-1.309106681105918e-05
0.4470879723011927,-1.2249791215278353e-05,0.4470879723011927,-7.5531497346844195e-06,0.4470879723011927,-2.1652395056734483e-05,0.4470879723011927,-2.0980924791070056e-05
0.4478820894811238,-0.0001790981400661,0.4478820894811238,-3.395568680539352e-07,0.4478820894811238,-2.4338440490326577e-05,0.4478820894811238,-2.366677566451702e-05
0.4486762066610549,-0.000206891329454,0.4486762066610549,-3.4584361191944e-05,0.4486762066610549,-2.735896367222564e-05,0.4486762066610549,-2.433984531109744e-05
0.4494703238409859,4.929736557372113e-05,0.4494703238409859,-6.3254788278152e-05,0.4494703238409859,-2.5682327588559868e-05,0.4494703238409859,-3.104638964576053e-05
0.450264441020917,0.0004607922555859,0.450264441020917,2.8068823646537275e-06,0.450264441020917,-1.9307190277565897e-05,0.450264441020917,-3.809683698382674e-05
0.4510585582008481,0.0005892476460984,0.4510585582008481,6.626509670892071e-05,0.4510585582008481,-1.8967186790900865e-05,0.4510585582008481,-4.313449813648708e-05
0.4518526753807791,0.0003175141702267,0.4518526753807791,8.223958075477368e-05,0.4518526753807791,-1.6953623486189688e-05,0.4518526753807791,-3.541935669706046e-05
0.4526467925607102,2.54215025977492e-05,0.4526467925607102,8.912610207090106e-05,0.4526467925607102,-1.9973310659538696e-05,0.4526467925607102,-2.568344343037532e-05
0.4534409097406413,-9.213584361563048e-05,0.4534409097406413,6.059684368717587e-05,0.4534409097406413,-2.3666280237143875e-05,0.4534409097406413,-2.366692896775844e-05
0.4542350269205724,-9.886285854610528e-05,0.4542350269205724,2.668651466928555e-05,0.4542350269205724,-2.433802033002395e-05,0.4542350269205724,-1.7959808944723943e-05
0.4550291441005034,-8.879698529645624e-05,0.4550291441005034,-1.7123490293581588e-05,0.4550291441005034,-2.1987326424372377e-05,0.4550291441005034,-1.5274239151523275e-05
0.4558232612804345,-0.000114616981207,0.4558232612804345,-3.3051483143929696e-05,0.4558232612804345,-1.66220909566419e-05,0.4558232612804345,-1.4938911934790118e-05
0.4566173784603656,-0.0001793802826789,0.4566173784603656,1.0204900962187898e-05,0.4566173784603656,-1.4939913922262447e-05,0.4566173784603656,-9.90704176678735e-06
0.4574114956402966,-0.0001821142944511,0.4574114956402966,4.3451889179782655e-05,0.4574114956402966,-1.1751425823634605e-05,0.4574114956402966,-8.561162958647408e-06
0.4582056128202277,-8.88378076182822e-05,0.4582056128202277,3.2064765733608394e-05,0.4582056128202277,-7.890792498286099e-06,0.4582056128202277,-7.218174787312903e-06
0.4589997300001588,3.336044780655366e-05,0.4589997300001588,-1.4251446699441191e-05,0.4589997300001588,-9.566839225776493e-06,0.4589997300001588,-4.532843235357113e-06
0.4597938471800898,9.21378930203734e-05,0.4597938471800898,-5.789960052502096e-05,0.4597938471800898,-8.896139223284196e-06,0.4597938471800898,-6.210096943714195e-06
0.4605879643600209,7.637210821216866e-05,0.4605879643600209,-7.670625617187568e-05,0.4605879643600209,-8.560325068439519e-06,0.4605879643600209,-9.567259316053692e-06
0.461382081539952,9.785222160455704e-05,0.461382081539952,-9.95353584447879e-05,0.461382081539952,-6.881957898025394e-06,0.461382081539952,-1.2924089727132222e-05
0.4621761987198831,6.007896559731356e-05,0.4621761987198831,-0.0001069396352741,0.4621761987198831,-8.224442177934192e-06,0.4621761987198831,-9.901673498692714e-06
0.4629703158998141,1.598368631929044e-05,0.4629703158998141,-0.0001854054048781,0.4629703158998141,-7.553797733363274e-06,0.4629703158998141,-4.201140780915521e-06
0.4637644330797452,7.230273202558853e-05,0.4637644330797452,-0.0001673589427751,0.4637644330797452,-5.540468142453271e-06,0.4637644330797452,-2.518938450854383e-06
0.4645585502596763,0.000142464259155,0.4645585502596763,-8.246210748762328e-05,0.4645585502596763,-5.203520148396307e-06,0.4645585502596763,-4.866298966890088e-06
0.4653526674396073,3.344769647854021e-05,0.4653526674396073,-2.97313749316467e-05,0.4653526674396073,-5.538889394806274e-06,0.4653526674396073,-8.558763351245846e-06
0.4661467846195384,-0.0001001697574902,0.4661467846195384,-8.901655813609542e-06,0.4661467846195384,-8.55949044750531e-06,0.4661467846195384,-7.889092123982198e-06
0.4669409017994695,-0.0001183317579606,0.4669409017994695,-1.6280486587889373e-05,0.4669409017994695,-1.3595177219409005e-05,0.4669409017994695,-5.539320629046066e-06
0.4677350189794005,-8.879197902343753e-05,0.4677350189794005,-1.6280862366170146e-05,0.4677350189794005,-1.7624336412648697e-05,0.4677350189794005,-4.531889878168727e-06
0.4685291361593316,-7.537027948415067e-05,0.4685291361593316,6.21197236709861e-06,0.4685291361593316,-2.3330971260961183e-05,0.4685291361593316,-2.85378496951486e-06
0.4693232533392627,-0.0001102442101354,0.4693232533392627,1.526578724110246e-05,0.4693232533392627,-2.316335759707134e-05,0.4693232533392627,-4.865738281018302e-06
0.4701173705191938,-0.0001740094330298,0.4701173705191938,-6.864254694861563e-06,0.4701173705191938,-1.930576059276114e-05,0.4701173705191938,-1.1576277184825667e-05
0.4709114876991248,-0.0002435041646404,0.4709114876991248,1.995677215199069e-05,0.4709114876991248,-1.6283349388707984e-05,0.4709114876991248,-2.097513523513072e-05
0.4717056048790559,-0.0001578206825169,0.4717056048790559,4.480333798936483e-05,0.4717056048790559,-1.2255004666512731e-05,0.4717056048790559,-2.332983066096425e-05
0.472499722058987,9.508195495929158e-05,0.472499722058987,2.333852075476276e-05,0.472499722058987,-1.0910670049360494e-05,0.472499722058987,-2.4337747462979628e-05
0.473293839238918,0.0001836090902233,0.473293839238918,3.138616874069896e-05,0.473293839238918,-1.3595256246899651e-05,0.473293839238918,-2.366683593827509e-05
0.4740879564188491,9.853217094980752e-05,0.4740879564188491,2.6688257963089152e-05,0.4740879564188491,-1.393148157406506e-05,0.4740879564188491,-2.36667e-05
0.4748820735987802,1.997092604796999e-05,0.4748820735987802,-3.709420212371775e-05,0.4748820735987802,-1.9806153328733224e-05,0.4748820735987802,-2.3666202132987116e-05
0.4756761907787112,-1.4277350387332618e-05,0.4756761907787112,-3.171044951228549e-05,0.4756761907787112,-1.930181385088413e-05,0.4756761907787112,-1.829519720494733e-05
0.4764703079586423,-5.6528379917806136e-05,0.4764703079586423,2.2612259931629e-05,0.4764703079586423,-1.5613214466819173e-05,0.4764703079586423,-1.661856112128144e-05
0.4772644251385734,-0.0001028584590801,0.4772644251385734,5.352153955572207e-05,0.4772644251385734,-1.7622741705434004e-05,0.4772644251385734,-1.426890134366033e-05
0.4780585423185045,-0.0001384554884907,0.4780585423185045,6.360909482324743e-05,0.4780585423185045,-1.963723896464949e-05,0.4780585423185045,-1.7622264941082475e-05
0.4788526594984356,-0.0001143153655709,0.4788526594984356,6.663490433579788e-05,0.4788526594984356,-1.5611727552269502e-05,0.4788526594984356,-1.9637536223865253e-05
0.4796467766783666,-2.4363404225510903e-05,0.4796467766783666,4.113027585285125e-05,0.4796467766783666,-1.6952422322053823e-05,0.4796467766783666,-1.3094041194050695e-05
0.4804408938582977,4.128212673327291e-05,0.4804408938582977,9.235973232271834e-06,0.4804408938582977,-1.8966730742296213e-05,0.4804408938582977,-8.896570945528768e-06
0.4812350110382288,5.052216131242828e-05,0.4812350110382288,-8.225417372615032e-06,0.4812350110382288,-1.4267162664650884e-05,0.4812350110382288,-1.091019066616272e-05
0.4820291282181598,1.895308558788244e-05,0.4820291282181598,-6.630743838670126e-05,0.4820291282181598,-1.1581193937119717e-05,0.4820291282181598,-1.0238583433883158e-05
0.4828232453980909,-6.722560955672448e-05,0.4828232453980909,-0.0001098995770061,0.4828232453980909,-9.066249800516404e-06,0.4828232453980909,-8.897284555845886e-06
0.483617362578022,-0.0001694459375399,0.483617362578022,-3.111543188750443e-05,0.483617362578022,-1.0908717761089646e-05,0.483617362578022,-8.225148998886668e-06
0.484411479757953,-0.0001505734274948,0.484411479757953,2.89985280294701e-05,0.484411479757953,-1.1581160087518493e-05,0.484411479757953,-1.1076230345744928e-05
0.4852055969378841,3.263755478573839e-05,0.4852055969378841,4.413673141328221e-05,0.4852055969378841,-9.736197266633604e-06,0.4852055969378841,-1.5104355094305414e-05
0.4859997141178152,0.0002169626427843,0.4859997141178152,3.20388606953202e-06,0.4859997141178152,-1.1077616506255598e-05,0.4859997141178152,-1.6952135197901712e-05
0.4867938312977463,0.000189842777521,0.4867938312977463,-6.0580047994979125e-05,0.4867938312977463,-1.2924007714142258e-05,0.4867938312977463,-1.762405734673407e-05
0.4875879484776773,2.032080054798795e-05,0.4875879484776773,-9.953207313505324e-05,0.4875879484776773,-1.3931434649708846e-05,0.4875879484776773,-1.4603096050873464e-05
0.4883820656576084,3.407723083202777e-05,0.4883820656576084,-8.475979157025004e-05,0.4883820656576084,-1.6281344480455563e-05,0.4883820656576084,-1.359604983794997e-05
0.4891761828375395,8.038775595081014e-05,0.4891761828375395,-3.506891918524039e-05,0.4891761828375395,-1.5610772057383765e-05,0.4891761828375395,-1.661949335489124e-05
0.4899703000174705,2.8076909918344943e-05,0.4899703000174705,1.5229963546825884e-05,0.4899703000174705,-1.896404422471531e-05,0.4899703000174705,-2.7014537184665574e-05
0.4907644171974016,0.0001078683555252,0.4907644171974016,6.52566855649247e-05,0.4907644171974016,-2.097972156046133e-05,0.4907644171974016,-3.239095749456354e-05
0.4915585343773327,0.0002387722238654,0.4915585343773327,5.4557299628389584e-05,0.4915585343773327,-2.2994118878319607e-05,0.4915585343773327,-3.004637804371022e-05
0.4923526515572637,0.0002005967941499,0.4923526515572637,2.871354361032746e-05,0.4923526515572637,-2.031097851759209e-05,0.4923526515572637,-2.098517760109893e-05
0.4931467687371948,4.955949949626406e-05,0.4931467687371948,-5.864649023282349e-06,0.4931467687371948,-1.762498221585592e-05,0.4931467687371948,-1.0913133309459704e-05
0.4939408859171259,-2.1306722715653872e-05,0.4939408859171259,-4.447445314698045e-05,0.4939408859171259,-1.6952896467558772e-05,0.4939408859171259,-8.896299401239506e-06
0.494735003097057,-8.207863128251384e-05,0.494735003097057,-4.917983142615722e-05,0.494735003097057,-1.4938606547116088e-05,0.494735003097057,-9.063846251134227e-06
0.495529120276988,-0.0001670143169604,0.495529120276988,-5.724045992304838e-05,0.495529120276988,-1.661715078866023e-05,0.495529120276988,-5.538953817009654e-06
0.4963232374569191,-0.000195516630938,0.4963232374569191,-8.272522850581645e-05,0.4963232374569191,-1.6952478005393412e-05,0.4963232374569191,-5.035962991909886e-06
0.4971173546368502,-0.0001621691491434,0.4971173546368502,-0.000147151611549,0.4971173546368502,-1.4940237141632677e-05,0.4971173546368502,-3.8614849992857285e-06
0.4979114718167812,-0.0001010856428339,0.4979114718167812,-0.0001277459524627,0.4979114718167812,-1.4267646627472398e-05,0.4979114718167812,-5.5379134313190045e-06
0.4987055889967123,8.83910053329847e-06,0.4987055889967123,-3.932248819913871e-05,0.4987055889967123,-1.3931673770533595e-05,0.4987055889967123,-7.887693616617561e-06
0.4994997061766434,6.695040874944996e-05,0.4994997061766434,2.8005892549655347e-05,0.4994997061766434,-1.5609378863345043e-05,0.4994997061766434,-9.734576749679548e-06
0.5002938233565745,-6.194138922298797e-06,0.5002938233565745,7.099064047605797e-05,0.5002938233565745,-1.5777762669059435e-05,0.5002938233565745,-1.2252439871261643e-05
0.5010879405365055,-7.065967296621017e-05,0.5010879405365055,7.234289943629677e-05,0.5010879405365055,-1.6952712003015123e-05,0.5010879405365055,-1.3931374295370964e-05
0.5018820577164366,2.1326063036746903e-05,0.5018820577164366,5.1359618398027495e-05,0.5018820577164366,-1.6281204781786e-05,0.5018820577164366,-1.2924522011383748e-05
0.5026761748963677,0.0001473565278973,0.5026761748963677,1.997199521571253e-05,0.5026761748963677,-1.3595061475337808e-05,0.5026761748963677,-1.4603195409864877e-05
0.5034702920762988,7.710542604725473e-05,0.5034702920762988,1.0415219483294348e-05,0.5034702920762988,-1.0241789308006264e-05,0.5034702920762988,-1.5944504276797493e-05
0.5042644092562298,-9.688739787984312e-05,0.5042644092562298,9.903474683328256e-06,0.5042644092562298,-1.560600377463717e-05,0.5042644092562298,-1.6281150235914823e-05
0.5050585264361609,-0.0001052360949164,0.5050585264361609,-1.2910785039624642e-05,0.5050585264361609,-1.39325011044131e-05,0.5050585264361609,-1.62814e-05
0.505852643616092,-2.5045511606446865e-05,0.505852643616092,-3.7251575935525765e-05,0.505852643616092,-1.124710542144013e-05,0.505852643616092,-1.44358287496824e-05
0.506646760796023,-2.366710453790965e-05,0.506646760796023,-4.380672786262724e-05,0.506646760796023,-6.883134742181069e-06,0.506646760796023,-7.219694370175849e-06
0.507440877975954,-4.112041725370752e-05,0.507440877975954,-5.656323954692377e-05,0.507440877975954,-5.874874773824566e-06,0.507440877975954,-3.693221706849153e-06
0.5082349951558852,-2.299541059589904e-05,0.5082349951558852,-6.898592422193854e-05,0.5082349951558852,-8.895991567411169e-06,0.5082349951558852,-5.539018735602876e-06
0.5090291123358163,-1.0243258912350837e-05,0.5090291123358163,-5.924928206758089e-05,0.5090291123358163,-9.902720519721282e-06,0.5090291123358163,-6.210823199385796e-06
0.5098232295157473,-4.176391739630951e-05,0.5098232295157473,-4.851881113212144e-05,0.5098232295157473,-7.22012276364711e-06,0.5098232295157473,-9.061094552721869e-06
0.5106173466956784,-8.774735878707145e-05,0.5106173466956784,-5.957738492367058e-05,0.5106173466956784,-5.8758248577369004e-06,0.5106173466956784,-1.4262918684497524e-05
0.5114114638756094,-3.2432300618173574e-05,0.5114114638756094,-5.858008001369486e-05,0.5114114638756094,-6.210193328768379e-06,0.5114114638756094,-1.4099413369376794e-05
0.5122055810555405,0.00014476047677,0.5122055810555405,-4.44874393772207e-05,0.5122055810555405,-9.565638724985736e-06,0.5122055810555405,-7.892186836879418e-06
0.5129996982354716,0.0002294178487757,0.5129996982354716,-3.072163093987734e-05,0.5129996982354716,-5.876123429289987e-06,0.5129996982354716,-5.5399230861837725e-06
0.5137938154154027,0.0001170171438277,0.5137938154154027,-3.698962320495013e-06,0.5137938154154027,-6.210341958376191e-06,0.5137938154154027,-3.525298249742857e-06
0.5145879325953338,-1.2242028150264044e-05,0.5145879325953338,1.59440328482992e-05,0.5145879325953338,-1.158114402695781e-05,0.5145879325953338,-8.224211023800315e-06
0.5153820497752648,-6.881913648963568e-05,0.5153820497752648,2.803125245966459e-05,0.5153820497752648,-1.6281357910437296e-05,0.5153820497752648,-1.5778178806064322e-05
0.5161761669551959,-8.375524901773116e-05,0.5161761669551959,3.5244669323008005e-05,0.5161761669551959,-1.5610211497582117e-05,0.5161761669551959,-2.1820364760903307e-05
0.5169702841351269,-7.637805024960177e-05,0.5169702841351269,1.7975467494680727e-05,0.5169702841351269,-1.661619314778158e-05,0.5169702841351269,-2.165275109701345e-05
0.5177644013150581,-4.618128086685489e-05,0.5177644013150581,-4.179524028459709e-06,0.5177644013150581,-1.3262631215806225e-05,0.5177644013150581,-2.5677862616433655e-05
0.5185585184949891,-2.166746110030946e-05,0.5185585184949891,3.740515638421871e-05,0.5185585184949891,-1.2589107156756036e-05,0.5185585184949891,-2.0984050036649318e-05
0.5193526356749202,-4.044307407606155e-05,0.5193526356749202,-6.8614874394378535e-06,0.5193526356749202,-1.560861368342127e-05,0.5193526356749202,-1.913564721640717e-05
0.5201467528548512,-9.179751282153256e-05,0.5201467528548512,8.555503391037159e-06,0.5201467528548512,-2.0308337112379996e-05,0.5201467528548512,-2.534326691406543e-05
0.5209408700347823,-7.033231670492783e-05,0.5209408700347823,0.0001010298617218,0.5209408700347823,-2.366615052866588e-05,0.5209408700347823,-2.97085856659867e-05
0.5217349872147133,1.6280005369987278e-05,0.5217349872147133,0.0001106128459324,0.5217349872147133,-2.1149040540952252e-05,0.5217349872147133,-2.9037910811135297e-05
0.5225291043946444,4.4141622826700224e-05,0.5225291043946444,-1.2942275199499535e-05,0.5225291043946444,-1.7960208574811086e-05,0.5225291043946444,-2.7694747343073043e-05
0.5233232215745756,2.301600817250854e-05,0.5233232215745756,-0.0001489167124176,0.5233232215745756,-2.030749909194349e-05,0.5233232215745756,-2.501212960920743e-05
0.5241173387545066,3.657977737849039e-05,0.5241173387545066,-5.56359603243586e-05,0.5241173387545066,-2.265764307977292e-05,0.5241173387545066,-2.4674079571929623e-05
0.5249114559344377,1.4617966778839704e-05,0.5249114559344377,8.600962828831052e-05,0.5249114559344377,-2.0311410132567355e-05,0.5249114559344377,-2.4338330028727067e-05
0.5257055731143687,-9.554415090626216e-06,0.5257055731143687,0.0001466674226585,0.5257055731143687,-1.695460485524463e-05,0.5257055731143687,-2.769329514475537e-05
0.5264996902942998,-3.392988990289353e-07,0.5264996902942998,0.0001351235172565,0.5264996902942998,-1.829507623071257e-05,0.5264996902942998,-2.803066905767814e-05
0.5272938074742308,4.950341229188754e-05,0.5272938074742308,8.309801688773937e-05,0.5272938074742308,-2.131616740792628e-05,0.5272938074742308,-2.0311672155496368e-05
0.528087924654162,5.01868362881667e-05,0.528087924654162,4.481933156500883e-05,0.528087924654162,-1.5610541550583072e-05,0.528087924654162,-1.2925100830166323e-05
0.528882041834093,1.174993061857858e-06,0.528882041834093,-5.541382396913526e-06,0.528882041834093,-1.158154693814214e-05,0.528882041834093,-7.553158094499165e-06
0.5296761590140241,2.182778601140079e-06,0.5296761590140241,-5.019260738335612e-05,0.5296761590140241,-1.0574365708156286e-05,0.5296761590140241,-6.377564971820849e-06
0.5304702761939551,5.871358007414089e-06,0.5304702761939551,-7.86953209167208e-05,0.5304702761939551,-9.903711274689976e-06,0.5304702761939551,-2.856649173913417e-06
0.5312643933738862,-4.986749220031157e-07,0.5312643933738862,-8.475928337663077e-05,0.5312643933738862,-8.225892387740213e-06,0.5312643933738862,-1.6990082573242958e-07
0.5320585105538173,-4.864939844740724e-06,0.5320585105538173,-7.838953178159582e-05,0.5320585105538173,-8.22461e-06,0.5320585105538173,-1.1743191979274865e-06
0.5328526277337483,-2.4328971286037782e-05,0.5328526277337483,-9.616925823532685e-05,0.5328526277337483,-6.043593047672404e-06,0.5328526277337483,2.516008689997005e-06
0.5336467449136795,-7.568349909561027e-05,0.5336467449136795,-0.000121346911322,0.5336467449136795,-7.552734677392846e-06,0.5336467449136795,-1.5093458128062727e-06
0.5344408620936105,-0.000140478746908,0.5344408620936105,-0.0001683448371228,0.5344408620936105,-7.888851695471158e-06,0.5344408620936105,-4.195763551611262e-06
0.5352349792735416,-0.0001096068061913,0.5352349792735416,-0.0001519044293822,0.5352349792735416,-9.567366184684522e-06,0.5352349792735416,-2.853475051991343e-06
0.5360290964534726,1.56148467081395e-05,0.5360290964534726,-7.535823142654844e-05,0.5360290964534726,-1.2588414898093851e-05,0.5360290964534726,-5.203452185317956e-06
0.5368232136334037,5.551858572147799e-05,0.5368232136334037,-2.539467591121531e-05,0.5368232136334037,-1.0241124380961769e-05,0.5368232136334037,-6.209423846622074e-06
0.5376173308133347,-4.271870201556272e-05,0.5376173308133347,-8.598997249840366e-07,0.5376173308133347,-1.0909634141149768e-05,0.5376173308133347,-8.222912431877348e-06
0.5384114479932659,-0.0001169394218534,0.5384114479932659,7.211918754298399e-06,0.5384114479932659,-1.3593932910220277e-05,0.5384114479932659,-9.063276534443837e-06
0.539205565173197,-0.0001003831001473,0.539205565173197,-4.260639943750797e-05,0.539205565173197,-1.4266832313960276e-05,0.539205565173197,-1.4935382752628832e-05
0.539999682353128,-0.0001109437697757,0.539999682353128,-7.082111885535234e-05,0.539999682353128,-1.6951725601461566e-05,0.539999682353128,-1.997208550274043e-05
0.5407937995330591,-0.0001473628037684,0.5407937995330591,-8.408224664690231e-06,0.5407937995330591,-1.76240304867706e-05,0.5407937995330591,-1.9638484756614706e-05
0.5415879167129901,-0.0001701966055509,0.5415879167129901,5.253040879612414e-05,0.5415879167129901,-1.4938881707296772e-05,0.5415879167129901,-1.762441128047258e-05
0.5423820338929212,-0.0001075815137384,0.5423820338929212,8.946375762769506e-05,0.5423820338929212,-1.2253035822341835e-05,0.5423820338929212,-1.5610157627695064e-05
0.5431761510728523,0.000114673406552,0.5431761510728523,9.315929821653126e-05,0.5431761510728523,-1.3092806039673813e-05,0.5431761510728523,-1.930352928544353e-05
0.5439702682527834,0.0002850190333187,0.5439702682527834,0.000108919477625,0.5439702682527834,-1.6278464543115505e-05,0.5439702682527834,-2.366268321402109e-05
0.5447643854327144,0.0003328081035164,0.5447643854327144,8.377628751065925e-05,0.5447643854327144,-1.997124179771335e-05,0.5447643854327144,-2.802742212457033e-05
0.5455585026126455,0.0002637343203087,0.5455585026126455,1.917528131690699e-05,0.5455585026126455,-2.232242800906088e-05,0.5455585026126455,-2.7024330880106728e-05
0.5463526197925765,0.0001568221987124,0.5463526197925765,3.60794821405441e-05,0.5463526197925765,-2.098184295278016e-05,0.5463526197925765,-2.5681543000665225e-05
0.5471467369725076,8.609407589603804e-06,0.5471467369725076,0.0001005206482629,0.5471467369725076,-1.9974433620891244e-05,0.5471467369725076,-2.853345472424469e-05
0.5479408541524387,-9.54870843240518e-05,0.5479408541524387,0.0001085965202166,0.5479408541524387,-2.2994745044518407e-05,0.5479408541524387,-3.30654675484089e-05
0.5487349713323698,-0.0001065836000324,0.5487349713323698,8.409338477910686e-05,0.5487349713323698,-2.5680803035532048e-05,0.5487349713323698,-3.5080427276649035e-05
0.5495290885123009,-6.89750490132026e-05,0.5495290885123009,3.0707691536362255e-05,0.5495290885123009,-2.19878888687129e-05,0.5495290885123009,-3.440838986414046e-05
0.5503232056922319,2.9275326044844423e-05,0.5503232056922319,-4.742315040664893e-05,0.5503232056922319,-1.82992894846482e-05,0.5503232056922319,-2.8037172746210524e-05
0.551117322872163,0.0001338548217521,0.551117322872163,-0.0001191118779556,0.551117322872163,-1.6283117721523088e-05,0.551117322872163,-1.6962247383096404e-05
0.551911440052094,0.00023038893671,0.551911440052094,-0.0001542282607398,0.551911440052094,-1.3933157206025375e-05,0.551911440052094,-1.0914461386922396e-05
0.5527055572320251,0.0002200558033832,0.5527055572320251,-0.0001723708910606,0.5527055572320251,-1.1918423203092125e-05,0.5527055572320251,-2.1869071910935096e-06
0.5534996744119562,0.0001166973982062,0.5534996744119562,-0.0002022457486221,0.5534996744119562,-1.1246175314625408e-05,0.5534996744119562,8.555904986496527e-06
0.5542937915918873,4.561359921163632e-06,0.5542937915918873,-0.000209642061332,0.5542937915918873,-9.232238682035808e-06,0.5542937915918873,1.4601313948643004e-05
0.5550879087718184,-6.864189158466768e-05,0.5550879087718184,-0.0001653360914287,0.5550879087718184,-7.553412853388741e-06,0.5550879087718184,1.829517572001704e-05
0.5558820259517494,-0.0001146419326287,0.5558820259517494,-0.0001002049905521,0.5558820259517494,-8.392443541557408e-06,0.5558820259517494,1.7288346387869134e-05
0.5566761431316805,-0.000143173730899,0.5566761431316805,-6.931759014033108e-05,0.5566761431316805,-7.889212196887715e-06,0.5566761431316805,1.2587309899717712e-05
0.5574702603116115,-0.0001361325585703,0.5574702603116115,-4.651543929143321e-05,0.5574702603116115,-9.565848280553252e-06,0.5574702603116115,4.874813881542271e-06
0.5582643774915427,-0.0001052652143245,0.5582643774915427,-2.3684597118148454e-05,0.5582643774915427,-8.225662776267648e-06,0.5582643774915427,-4.189123791554001e-06
0.5590584946714737,-3.244126172840774e-05,0.5590584946714737,-1.796353200104985e-05,0.5590584946714737,-7.88912365086431e-06,0.5590584946714737,-6.880110799449873e-06
0.5598526118514048,6.021260648089751e-05,0.5598526118514048,-1.3597933399602766e-05,0.5598526118514048,-1.1579794820609255e-05,0.5598526118514048,-1.0908230717836029e-05
0.5606467290313358,6.092907087108171e-05,0.5606467290313358,-8.226443027933653e-06,0.5606467290313358,-1.3595112613245116e-05,0.5606467290313358,-1.460163979094938e-05
0.5614408462112669,-6.124133235946248e-05,0.5614408462112669,1.1074361285496296e-05,0.5614408462112669,-1.35958e-05,0.5614408462112669,-1.46029e-05
0.5622349633911979,-0.0001334366722414,0.5622349633911979,3.709350045773207e-05,0.5622349633911979,-1.2924430956107972e-05,0.5622349633911979,-1.930248330724419e-05
0.563029080571129,-0.0001196772721175,0.563029080571129,4.951679284737621e-05,0.563029080571129,-1.393139793310188e-05,0.563029080571129,-1.527392575470689e-05
0.5638231977510602,-0.0001223592905177,0.5638231977510602,6.225922708323786e-05,0.5638231977510602,-1.2925416282902274e-05,0.5638231977510602,-1.1585326370641672e-05
0.5646173149309912,-0.0001257161035558,0.5646173149309912,6.428456213350451e-05,0.5646173149309912,-1.3595220711168173e-05,0.5646173149309912,-1.694816568934539e-05
0.5654114321109223,-0.0001055914060728,0.5654114321109223,6.814403887180767e-05,0.5654114321109223,-1.6614939089079794e-05,0.5654114321109223,-2.030739898786644e-05
0.5662055492908533,-8.041409168051331e-05,0.5662055492908533,6.898552363335531e-05,0.5662055492908533,-1.8965666093924733e-05,0.5662055492908533,-1.896776223204301e-05
0.5669996664707844,-3.711289082623877e-05,0.5669996664707844,5.824821243185455e-05,0.5669996664707844,-2.366472583469212e-05,0.5669996664707844,-1.393361522212223e-05
0.5677937836507154,-5.790232878770135e-05,0.5677937836507154,5.3880789130872686e-05,0.5677937836507154,-2.0981931745596714e-05,0.5677937836507154,-1.191784882963355e-05
0.5685879008306466,-5.723668385680588e-05,0.5685879008306466,5.38796e-05,0.5685879008306466,-1.7288961212432346e-05,0.5685879008306466,-1.628085493076177e-05
0.5693820180105776,9.248706258721265e-05,0.5693820180105776,6.596472284666719e-05,0.5693820180105776,-1.7120603808533977e-05,0.5693820180105776,-2.601672183679386e-05
0.5701761351905087,0.0001878114686747,0.5701761351905087,6.696704769804934e-05,0.5701761351905087,-1.7288785430526808e-05,0.5701761351905087,-3.138774291389464e-05
0.5709702523704397,0.0001200757704504,0.5709702523704397,3.846433416468465e-05,0.5709702523704397,-1.896542151419258e-05,0.5709702523704397,-3.105241569716148e-05
