X [s],R BICEPS BRACHII: EMG 1 [V],X [s].1,R DELTOID ANTERIOR: EMG 2 [V],X [s].5,R DELTOID MEDIUS: EMG 6 [V],X [s].6,R DELTOID POSTERIOR: EMG 7 [V]
0.0,-4.53193e-06,0.0,-3.40734e-05,0.0,1.51064e-06,0.0,-1.15816e-05
0.000794117179931,-3.0509077269059527e-06,0.000794117179931,-3.2355405264899606e-05,0.000794117179931,2.0833046659581936e-06,0.000794117179931,-1.6064181993623745e-05
0.0015882343598621,-1.648869162239476e-06,0.0015882343598621,-2.927486011973768e-05,0.0015882343598621,2.7941983244789515e-06,0.0015882343598621,-1.6794825026563145e-05
0.0023823515397932,-3.4655757258591017e-06,0.0023823515397932,-2.7300156071842607e-05,0.0023823515397932,3.919766479050658e-06,0.0023823515397932,-1.2687454083797368e-05
0.0031764687197242,-5.8154800891997004e-06,0.0031764687197242,-2.530570480854433e-05,0.0031764687197242,5.608134224876031e-06,0.0031764687197242,-1.0633741675521047e-05
0.0039705858996553,-7.316248949930084e-06,0.0039705858996553,-2.5443926949576497e-05,0.0039705858996553,5.361310700046611e-06,0.0039705858996553,-9.113242450163137e-06
0.0047647030795864,-8.461572460155282e-06,0.0047647030795864,-2.726064985125792e-05,0.0047647030795864,6.190669946873711e-06,0.0047647030795864,-6.605363796485503e-06
0.0055588202595174,-9.863597512754447e-06,0.0055588202595174,-2.9314345803362847e-05,0.0055588202595174,6.585623075614268e-06,0.0055588202595174,-6.8126896176750284e-06
0.0063529374394485,-1.0465924028313564e-05,0.0063529374394485,-3.17235e-05,0.0063529374394485,5.440293172642697e-06,0.0063529374394485,-7.651946827357303e-06
0.0071470546193796,-9.666148280406229e-06,0.0071470546193796,-2.992653401174777e-05,0.0071470546193796,7.020026968458456e-06,0.0071470546193796,-7.434742375567658e-06
0.0079411717993107,-7.444618038414413e-06,0.0079411717993107,-2.1810528432172023e-05,0.0079411717993107,5.104600944013103e-06,0.0079411717993107,-8.343084278986147e-06
0.0087352889792417,-5.578524253574627e-06,0.0087352889792417,-1.5925968567597963e-05,0.0087352889792417,3.139777466902809e-06,0.0087352889792417,-1.1265627146687272e-05
0.0095294061591728,-5.2230800531262905e-06,0.0095294061591728,-8.925672024702274e-06,0.0095294061591728,1.86609005312629e-06,0.0095294061591728,-1.197651390440336e-05
0.0103235233391039,-4.808405929243426e-06,0.0103235233391039,-4.72937340462129e-06,0.0103235233391039,2.2412640707565744e-06,0.0103235233391039,-1.2272748644090207e-05
0.0111176405190349,-4.235720349645445e-06,0.0111176405190349,-5.795777138292047e-06,0.0111176405190349,2.51774e-06,0.0111176405190349,-1.15816e-05
0.011911757698966,-2.458449540094926e-06,0.011911757698966,-8.461571658585404e-06,0.011911757698966,1.648844770047463e-06,0.011911757698966,-1.15816e-05
0.0127058748788971,-3.643106607985696e-06,0.0127058748788971,-1.0456010593877153e-05,0.0127058748788971,1.2145162716685976e-06,0.0127058748788971,-1.2253e-05
0.0134999920588282,-7.553185639035815e-06,0.0134999920588282,-1.863120757834222e-05,0.0134999920588282,-1.5106056390699342e-06,0.0134999920588282,-1.2588694273144204e-05
0.0142941092387592,-4.117150883546889e-06,0.0142941092387592,-2.3745614330082604e-05,0.0142941092387592,-2.3794802945156297e-06,0.0142941092387592,-1.406975970548437e-05
0.0150882264186903,-4.551496581679351e-06,0.0150882264186903,-2.2264821495851195e-05,0.0150882264186903,-1.45132663267174e-06,0.0150882264186903,-1.588638663267174e-05
0.0158823435986214,-6.960777791867704e-06,0.0158823435986214,-1.902620628175316e-05,0.0158823435986214,-2.6955244162645923e-06,0.0158823435986214,-1.4198126624396888e-05
0.0166764607785524,-8.106140715601187e-06,0.0166764607785524,-2.419980084129496e-05,0.0166764607785524,9.904732870111964e-09,0.0166764607785524,-1.2835537890610164e-05
0.0174705779584835,-9.429140341944164e-06,0.0174705779584835,-2.481196470983876e-05,0.0174705779584835,-1.0564036284643909e-06,0.0174705779584835,-1.596542375714317e-05
0.0182646951384146,-7.849643035898311e-06,0.0182646951384146,-1.9283063082059448e-05,0.0182646951384146,-1.886034437637394e-06,0.0182646951384146,-1.2292691850211996e-05
0.0190588123183456,-4.907131803357038e-06,0.0190588123183456,-1.963846473260325e-05,0.0190588123183456,1.5896114719614552e-06,0.0190588123183456,-1.1186647294964444e-05
0.0198529294982767,-5.973492884743368e-06,0.0198529294982767,-2.267946163841253e-05,0.0198529294982767,6.908058548974104e-08,0.0198529294982767,-1.3694569355838929e-05
0.0206470466782078,-7.661845929243426e-06,0.0206470466782078,-1.985556612264909e-05,0.0206470466782078,-1.9844325660525954e-06,0.0206470466782078,-1.404994814151315e-05
0.0214411638581389,-6.170953145615725e-06,0.0214411638581389,-1.8117740612261476e-05,0.0214411638581389,-2.85344e-06,0.0214411638581389,-1.4997801163333389e-05
0.0222352810380699,-6.052460954134911e-06,0.0222352810380699,-2.289662074371606e-05,0.0222352810380699,-2.85344e-06,0.0222352810380699,-1.722929650354555e-05
0.023029398218001,-4.749175277244931e-06,0.023029398218001,-2.499970619686956e-05,0.023029398218001,-2.51774e-06,0.023029398218001,-1.5669274332693916e-05
0.0238235153979321,-2.616566624396888e-06,0.0238235153979321,-2.3785186715605864e-05,0.0238235153979321,-3.062833745290267e-07,0.0238235153979321,-1.3773455031702334e-05
0.0246176325778631,-1.8068439234987584e-06,0.0246176325778631,-2.2708979025380063e-05,0.0246176325778631,3.663050794022733e-06,0.0246176325778631,-1.4899103923498758e-05
0.0254117497577942,-2.5770190061934816e-06,0.0254117497577942,-2.0398685200069325e-05,0.0254117497577942,4.136950993806519e-06,0.0254117497577942,-1.547178950309674e-05
0.0262058669377253,-4.393635933380853e-06,0.0262058669377253,-2.011231092428881e-05,0.0262058669377253,3.919641866761706e-06,0.0262058669377253,-1.7821605933380854e-05
0.0269999841176564,-5.035474273144204e-06,0.0269999841176564,-2.0981189730926917e-05,0.0269999841176564,5.035474273144204e-06,0.0269999841176564,-1.6952845814846374e-05
0.0277941012975874,-9.350273014769214e-06,0.0277941012975874,-2.044807252686243e-05,0.0277941012975874,2.7151917482272246e-06,0.0277941012975874,-1.3990703496454448e-05
0.0285882184775185,-1.015994134796102e-05,0.0285882184775185,-1.841399429394809e-05,0.0285882184775185,2.9322986520389814e-06,0.0285882184775185,-1.1769364018825923e-05
0.0293823356574496,-9.409517323687778e-06,0.0293823356574496,-2.2284221256484887e-05,0.0293823356574496,5.914193169078056e-06,0.0293823356574496,-8.372723415460972e-06
0.0301764528373806,-5.183580235147378e-06,0.0301764528373806,-2.4101249797665315e-05,0.0301764528373806,7.039796246028108e-06,0.0301764528373806,-8.777527497352072e-06
0.0309705700173117,5.429697888230869e-07,0.0309705700173117,-2.1889507333163757e-05,0.0309705700173117,8.71830384705422e-06,0.0309705700173117,-9.21199769410844e-06
0.0317646871972428,9.380687412277696e-07,0.0317646871972428,-2.4436529906562804e-05,0.0317646871972428,4.887498832529185e-06,0.0317646871972428,-1.0712546751206225e-05
0.0325588043771738,-1.7278008761664905e-06,0.0325588043771738,-2.87417140182046e-05,0.0325588043771738,3.702558314267159e-06,0.0325588043771738,-1.4148660228794092e-05
0.0333529215571049,-6.279611710988881e-06,0.0333529215571049,-2.7655856971338136e-05,0.0333529215571049,1.747582097872663e-06,0.0333529215571049,-1.62814e-05
0.034147038737036,-1.1304781731916149e-05,0.034147038737036,-2.35482020644049e-05,0.034147038737036,-2.023664501418198e-06,0.034147038737036,-1.504719643378164e-05
0.0349411559169671,-1.5728367965532e-05,0.0349411559169671,-2.192911745047817e-05,0.0349411559169671,-3.011588580602653e-06,0.0349411559169671,-1.6222216017234e-05
0.0357352730968981,-1.76242e-05,0.0357352730968981,-2.153411328439413e-05,0.0357352730968981,8.589968835892579e-07,0.0357352730968981,-1.347730498302682e-05
0.0365293902768292,-1.2055691640594197e-05,0.0365293902768292,-2.4219359936441983e-05,0.0365293902768292,3.149596170153671e-06,0.0365293902768292,-1.1087934781074789e-05
0.0373235074567603,-6.644971295675224e-06,0.0373235074567603,-2.5996855530131703e-05,0.0373235074567603,3.742106529765182e-06,0.0373235074567603,-7.395636889080574e-06
0.0381176246366913,-5.53903e-06,0.0381176246366913,-2.3992554775445e-05,0.0381176246366913,1.708149016785189e-06,0.0381176246366913,-1.1552585441370484e-06
0.0389117418166224,-3.88021700154109e-06,0.0389117418166224,-2.31829580550074e-05,0.0389117418166224,7.79977153714753e-07,0.0389117418166224,-3.643369222217969e-06
0.0397058589965535,-3.682623259130259e-06,0.0397058589965535,-2.4071524234093405e-05,0.0397058589965535,8.489859873868923e-07,0.0397058589965535,-4.808214639212944e-06
0.0404999761764846,-7.72092396568895e-06,0.0404999761764846,-2.3666730807219265e-05,0.0404999761764846,3.524735507391128e-06,0.0404999761764846,-7.888806917107432e-06
0.0412940933564156,-8.422073201938817e-06,0.0412940933564156,-2.3597582503930163e-05,0.0412940933564156,3.959261600969409e-06,0.0412940933564156,-1.1996310394183548e-05
0.0420882105363467,-4.57176107786071e-06,0.0420882105363467,-2.33901817433644e-05,0.0420882105363467,4.413257450497104e-06,0.0420882105363467,-1.3872163725248552e-05
0.0428823277162778,-2.103105115555482e-06,0.0428823277162778,-2.38445222231844e-05,0.0428823277162778,4.581605590119989e-06,0.0428823277162778,-1.531376744222226e-05
0.0436764448962088,-9.577388974323018e-07,0.0436764448962088,-2.3982459193487232e-05,0.0436764448962088,6.9136971352474e-08,0.0436764448962088,-1.5057093956359526e-05
0.0444705620761399,-3.5642364158504462e-06,0.0444705620761399,-2.591785289306556e-05,0.0444705620761399,1.6883404273199792e-06,0.0444705620761399,-1.529400085463996e-05
0.045264679256071,-5.183435908183902e-06,0.045264679256071,-2.153417489883266e-05,0.045264679256071,-1.4795667299753006e-07,0.045264679256071,-1.6182556195035715e-05
0.046058796436002,-7.474170578439552e-06,0.046058796436002,-2.2047512627551547e-05,0.046058796436002,-3.070565867659329e-06,0.046058796436002,-1.7584675289219775e-05
0.0468529136159331,-6.941058387896066e-06,0.0468529136159331,-2.2501713115608763e-05,0.0468529136159331,-2.8731667981307712e-06,0.0468529136159331,-1.6399876775792133e-05
0.0476470307958642,-6.664556687801556e-06,0.0476470307958642,-2.0704755718686204e-05,0.0476470307958642,-1.5302500634046677e-06,0.0476470307958642,-1.6399836687801555e-05
0.0484411479757953,-6.151253785298193e-06,0.0484411479757953,-1.9657884973654435e-05,0.0484411479757953,-7.011909506987744e-07,0.0484411479757953,-1.6962658196215793e-05
0.0492352651557263,-5.460037846997517e-06,0.0492352651557263,-2.3528429710522308e-05,0.0492352651557263,1.7673478469975174e-06,0.0492352651557263,-1.6607184306004966e-05
0.0500293823356574,-6.862038986598813e-06,0.0500293823356574,-2.362745697133817e-05,0.0500293823356574,-5.919885109786657e-08,0.0500293823356574,-1.62814e-05
0.0508234995155885,-4.512390422549436e-06,0.0508234995155885,-2.0843017436510467e-05,0.0508234995155885,4.837138145253262e-07,0.0508234995155885,-1.813752067056756e-05
0.0516176166955195,-1.3724776510641593e-06,0.0516176166955195,-2.09812e-05,0.0516176166955195,1.17494e-06,0.0516176166955195,-1.748603765106416e-05
0.0524117338754506,-5.697082660661412e-06,0.0524117338754506,-1.971745275817576e-05,0.0524117338754506,-6.615447117203856e-07,0.0524117338754506,-1.6419621950614853e-05
0.0532058510553817,-8.22461e-06,0.0532058510553817,-1.9598840164002677e-05,0.0532058510553817,-1.3132587379657058e-06,0.0532058510553817,-1.561e-05
0.0539999682353128,-8.895964185153629e-06,0.0539999682353128,-2.0981158923707657e-05,0.0539999682353128,-1.6789481464165853e-07,0.0539999682353128,-1.6281354185153627e-05
0.0547940854152438,-9.96235637006376e-06,0.0547940854152438,-2.09812e-05,0.0547940854152438,-2.458490688699189e-06,0.0547940854152438,-1.399074931130081e-05
0.0555882025951749,-8.89601e-06,0.0555882025951749,-2.0329522113251598e-05,0.0555882025951749,-1.688686478237146e-06,0.0555882025951749,-1.5076776135768482e-05
0.056382319775106,-8.481386569267071e-06,0.056382319775106,-2.0250624519533643e-05,0.056382319775106,2.221501715366465e-06,0.056382319775106,-1.3901721881309493e-05
0.057176436955037,-7.336023645021813e-06,0.057176436955037,-1.923346778960444e-05,0.057176436955037,1.964845410071113e-06,0.057176436955037,-1.659728376978666e-05
0.0579705541349681,-6.86213059661164e-06,0.0579705541349681,-1.975688158106932e-05,0.0579705541349681,8.195548312187701e-07,0.0579705541349681,-1.624202119322328e-05
0.0587646713148992,-8.540395352624444e-06,0.0587646713148992,-1.68740480876701e-05,0.0587646713148992,2.3200156772435425e-06,0.0587646713148992,-1.6834024367092777e-05
0.0595587884948302,-8.303682328983623e-06,0.0595587884948302,-1.5175561070328449e-05,0.0595587884948302,2.438845781245026e-06,0.0595587884948302,-2.084282342427866e-05
0.0603529056747613,-9.824114770148476e-06,0.0603529056747613,-1.6696050067444894e-05,0.0603529056747613,9.478573369095464e-07,0.0603529056747613,-1.9776630010591712e-05
0.0611470228546924,-8.965462281733421e-06,0.0611470228546924,-1.5925985113095143e-05,0.0611470228546924,1.0663119525920068e-06,0.0611470228546924,-1.774263096094576e-05
0.0619411400346235,-6.38812827027187e-06,0.0619411400346235,-1.4079524378722908e-05,0.0619411400346235,-2.4671463358138e-07,0.0619411400346235,-1.833503308108748e-05
0.0627352572145545,-5.776021286346384e-06,0.0627352572145545,-1.650838897304601e-05,0.0627352572145545,-2.537448480566857e-06,0.0627352572145545,-1.960871706649665e-05
0.0635293743944856,-4.373976232326387e-06,0.0635293743944856,-1.9233247546623903e-05,0.0635293743944856,-4.591114419184031e-06,0.0635293743944856,-1.865109246465277e-05
0.0643234915744167,-5.163634053152983e-06,0.0643234915744167,-2.449586908851032e-05,0.0643234915744167,-3.3078742018469364e-06,0.0643234915744167,-1.6113881294096456e-05
0.0651176087543477,-8.027044891697547e-06,0.0651176087543477,-3.095324452052951e-05,0.0651176087543477,-9.182718079128368e-07,0.0651176087543477,-1.2430803771605244e-05
0.0659117259342788,-9.76487644012474e-06,0.0659117259342788,-3.462619005551709e-05,0.0659117259342788,3.455796998096218e-07,0.0659117259342788,-8.056751140905176e-06
0.0667058431142099,-9.804417153578664e-06,0.0667058431142099,-3.390570681285071e-05,0.0667058431142099,5.992810409580905e-06,0.0667058431142099,-1.530886254351998e-06
0.067499960294141,-8.89606726855797e-06,0.067499960294141,-2.7024110762923492e-05,0.067499960294141,9.735102511465583e-06,0.067499960294141,3.1889395605588893e-06
0.068294077474072,-3.406424550721401e-06,0.068294077474072,-1.9559649943447064e-05,0.068294077474072,1.0811456945318994e-05,0.068294077474072,4.571400835956984e-06
0.0690881946540031,-8.39246e-07,0.0690881946540031,-1.817729812770972e-05,0.0690881946540031,1.15816e-05,0.0690881946540031,6.63465724901974e-06
0.0698823118339342,-9.181572718204662e-07,0.0698823118339342,-1.489937175320235e-05,0.0698823118339342,1.0416677221292111e-05,0.0698823118339342,7.533808454073557e-06
0.0706764290138652,-1.6488607840543226e-06,0.0706764290138652,-1.5688919260225642e-05,0.0706764290138652,1.0337468037654477e-05,0.0706764290138652,2.379664121802298e-06
0.0714705461937963,-3.3865016351167726e-06,0.0714705461937963,-1.6064186715605868e-05,0.0714705461937963,7.652192460609724e-06,0.0714705461937963,-8.786001404939838e-07
0.0722646633737274,-6.940820704979011e-06,0.0722646633737274,-1.5195212240002169e-05,0.0722646633737274,6.4671793886996914e-06,0.0722646633737274,-2.85344e-06
0.0730587805536585,-7.592767029171264e-06,0.0730587805536585,-1.620235454666836e-05,0.0730587805536585,4.630798456476378e-06,0.0730587805536585,-2.3795507136525566e-06
0.0738528977335895,-3.5643658474355312e-06,0.0738528977335895,-1.9400805544204323e-05,0.0738528977335895,1.6488929180148997e-06,0.0738528977335895,-4.610888852481376e-06
0.0746470149135206,-3.7616804681799193e-06,0.0746470149135206,-2.4535491523138032e-05,0.0746470149135206,-2.862738813189317e-07,0.0746470149135206,-7.45436694046964e-06
0.0754411320934517,-2.51774e-06,0.0754411320934517,-2.269926664463432e-05,0.0754411320934517,-9.377997161463185e-07,0.0754411320934517,-6.901530813687936e-06
0.0762352492733827,-2.774436393285925e-06,0.0762352492733827,-2.1711858761412563e-05,0.0762352492733827,-2.774436393285925e-06,0.0762352492733827,-8.629342516471659e-06
0.0770293664533138,-3.840726084095617e-06,0.0770293664533138,-2.188942519281507e-05,0.0770293664533138,-3.0113880420478084e-06,0.0770293664533138,-1.2529288252286848e-05
0.0778234836332449,-4.986020872955176e-06,0.0778234836332449,-2.202780433875772e-05,0.0778234836332449,-3.288050017433005e-06,0.0778234836332449,-1.2806009127044824e-05
0.078617600813176,-5.53903e-06,0.078617600813176,-2.2511582350470863e-05,0.078617600813176,-7.011419778530673e-07,0.078617600813176,-1.3437724064302302e-05
0.079411717993107,-6.674469893510333e-06,0.079411717993107,-1.9135071453136155e-05,0.079411717993107,-1.6291088533538165e-06,0.079411717993107,-1.3734033404326444e-05
0.0802058351730381,-5.97340005926724e-06,0.0802058351730381,-1.9756748869525305e-05,0.0802058351730381,-7.705424950268114e-07,0.0802058351730381,-1.3121760118534478e-05
0.0809999523529692,-6.881751277730432e-06,0.0809999523529692,-2.299508435864216e-05,0.0809999523529692,2.517585375917039e-06,0.0809999523529692,-1.3931465638865217e-05
0.0817940695329002,-4.828176344610383e-06,0.0817940695329002,-2.262029843669324e-05,0.0817940695329002,-2.467574289887715e-07,0.0817940695329002,-1.6182651218463207e-05
0.0825881867128313,-5.4796552483949246e-06,0.0825881867128313,-2.173144150485102e-05,0.0825881867128313,-1.4318484232606418e-06,0.0825881867128313,-1.3260620781110715e-05
0.0833823038927624,-7.039619871455286e-06,0.0833823038927624,-2.348889808818697e-05,0.0833823038927624,5.824475831783882e-07,0.0833823038927624,-9.843560656419887e-06
0.0841764210726934,-8.22461e-06,0.0841764210726934,-2.3627245504423732e-05,0.0841764210726934,-4.836635190637626e-07,0.0841764210726934,-1.4958094253781308e-05
0.0849705382526245,-8.22461e-06,0.0849705382526245,-2.3331e-05,0.0849705382526245,-1.7873436730951889e-06,0.0849705382526245,-1.521530049734451e-05
0.0857646554325556,-5.578943275795781e-06,0.0857646554325556,-2.384429144092213e-05,0.0857646554325556,-4.835864215613357e-07,0.0857646554325556,-1.333903488444452e-05
0.0865587726124866,-2.892998482712268e-06,0.0865587726124866,-2.491075080125536e-05,0.0865587726124866,-3.0902423202124823e-06,0.0865587726124866,-1.4859481856169983e-05
0.0873528897924177,-4.630642087280952e-06,0.0873528897924177,-2.441703979837181e-05,0.0873528897924177,-1.3132197075836476e-06,0.0873528897924177,-1.7722912087280954e-05
0.0881470069723488,-6.684098028936683e-06,0.0881470069723488,-2.441710654734687e-05,0.0881470069723488,6.219668017262337e-07,0.0881470069723488,-1.5807721971063316e-05
0.0889411241522799,-8.1162326094082e-06,0.0889411241522799,-2.410108244976957e-05,0.0889411241522799,-5.626627909084331e-07,0.0889411241522799,-1.6399630520992883e-05
0.0897352413322109,-6.249924666784937e-06,0.0897352413322109,-2.43381e-05,0.0897352413322109,-9.972632549979495e-07,0.0897352413322109,-1.82956e-05
0.090529358512142,-5.489776597387954e-06,0.090529358512142,-2.3103969810884728e-05,0.090529358512142,-4.2457684178900027e-07,0.090529358512142,-1.7229320684620244e-05
0.0913234756920731,-5.568623091638137e-06,0.0913234756920731,-2.3883836266346e-05,0.0913234756920731,-1.5402348548108997e-06,0.0913234756920731,-1.62222102903782e-05
0.0921175928720041,-5.854957644609889e-06,0.0921175928720041,-2.3943111581482028e-05,0.0921175928720041,-3.4570913886728385e-07,0.0921175928720041,-1.6241875289219775e-05
0.0929117100519352,-7.345861303226635e-06,0.0929117100519352,-2.43381e-05,0.0929117100519352,-7.602263125961964e-07,0.0929117100519352,-1.720948260645327e-05
0.0937058272318663,-8.89601e-06,0.0937058272318663,-2.1692168487912754e-05,0.0937058272318663,2.2013573875195703e-06,0.0937058272318663,-1.7081476474934514e-05
0.0944999444117974,-8.89601e-06,0.0944999444117974,-2.16525281164884e-05,0.0944999444117974,3.1892201747869847e-06,0.0944999444117974,-1.3596060565967916e-05
0.0952940615917284,-6.704189600214131e-06,0.0952940615917284,-2.267926697994704e-05,0.0952940615917284,2.7053082374111103e-06,0.0952940615917284,-1.1107709016785186e-05
0.0960881787716595,-3.712677772344456e-06,0.0960881787716595,-2.2679306709641965e-05,0.0960881787716595,1.5700220895978242e-06,0.0960881787716595,-1.0317576865603264e-05
0.0968822959515906,-2.8928845347990687e-06,0.0968822959515906,-2.4179834037538628e-05,0.0968822959515906,3.18914e-06,0.0968822959515906,-1.0989089069598135e-05
0.0976764131315216,-4.5712823375463705e-06,0.0976764131315216,-2.510850383376161e-05,0.0976764131315216,2.083419542411772e-06,0.0976764131315216,-1.1858030114397056e-05
0.0984705303114527,-4.828319900732912e-06,0.0984705303114527,-2.0941831532992238e-05,0.0984705303114527,1.17494e-06,0.0984705303114527,-1.2411022475183227e-05
0.0992646474913838,-5.656916873524499e-06,0.0992646474913838,-1.8255860062187485e-05,0.0992646474913838,1.4511920515605124e-06,0.0992646474913838,-1.2183522122644648e-05
0.1000587646713148,-9.488812107547036e-06,0.1000587646713148,-2.105870621697605e-05,0.1000587646713148,3.77210795631878e-06,0.1000587646713148,-1.6124204215094078e-05
0.1008528818512459,-9.56741e-06,0.1008528818512459,-2.20263979749216e-05,0.1008528818512459,4.097495430265496e-06,0.1008528818512459,-1.5629748145398245e-05
0.101646999031177,-9.113313280072838e-06,0.101646999031177,-2.947384469233644e-05,0.101646999031177,2.51774e-06,0.101646999031177,-1.3359006560145677e-05
0.1024411162111081,-8.89601e-06,0.1024411162111081,-3.690725771594794e-05,0.1024411162111081,3.682891922506464e-06,0.1024411162111081,-1.3537071535038783e-05
0.1032352333910391,-7.612889432349033e-06,0.1032352333910391,-3.436093495812157e-05,0.1032352333910391,3.781455642428868e-06,0.1032352333910391,-1.2845325642428866e-05
0.1040293505709702,-1.174599968823569e-06,0.1040293505709702,-2.7160465459014865e-05,0.1040293505709702,5.519359570480083e-06,0.1040293505709702,-1.269718068850164e-05
0.1048234677509013,-1.0376020587901224e-08,0.1048234677509013,-2.1378426167306517e-05,0.1048234677509013,4.353704094564986e-06,0.1048234677509013,-1.1424125905435011e-05
0.1056175849308323,-1.5802802789064347e-06,0.1056175849308323,-1.856220383451492e-05,0.1056175849308323,2.339175506941043e-06,0.1056175849308323,-1.2549415830710604e-05
0.1064117021107634,-5.638881505867843e-06,0.1064117021107634,-1.7673190344214445e-05,0.1064117021107634,2.9129305315410537e-06,0.1064117021107634,-1.5808625594485515e-05
0.1072058192906945,-8.89601e-06,0.1072058192906945,-1.506814023020585e-05,0.1072058192906945,4.058079401660879e-06,0.1072058192906945,-1.7564801196678243e-05
0.1079999364706256,-8.224701531377622e-06,0.1079999364706256,-1.393154109212136e-05,0.1079999364706256,3.692794414222029e-06,0.1079999364706256,-1.5610137297066434e-05
0.1087940536505566,-6.072452858099475e-06,0.1087940536505566,-1.0275869776767168e-05,0.1087940536505566,2.7936742838010497e-06,0.1087940536505566,-1.3280765003348165e-05
0.1095881708304877,-4.945969018030565e-06,0.1095881708304877,-3.1286225841285976e-06,0.1095881708304877,5.479351900819721e-06,0.1095881708304877,-9.351052087159903e-06
0.1103822880104188,-6.803435117859798e-06,0.1103822880104188,-1.0199211578024654e-05,0.1103822880104188,4.889791638923287e-06,0.1103822880104188,-8.067841403203692e-06
0.1111764051903498,-6.21042e-06,0.1111764051903498,-2.671158612002267e-05,0.1111764051903498,2.51774e-06,0.1111764051903498,-6.6056201665226265e-06
0.1119705223702809,-7.642015664917718e-06,0.1119705223702809,-3.874955702132229e-05,0.1119705223702809,1.1359789128019458e-06,0.1119705223702809,-8.441171358997568e-06
0.112764639550212,-6.980571521419463e-06,0.112764639550212,-3.958196643128967e-05,0.112764639550212,1.056425901130548e-06,0.112764639550212,-1.02388e-05
0.1135587567301431,-5.578365180535981e-06,0.1135587567301431,-2.6357308390300044e-05,0.1135587567301431,5.06565540343214e-06,0.1135587567301431,-1.1186896350380873e-05
0.1143528739100741,-8.086359737007505e-06,0.1143528739100741,-1.569151070175272e-05,0.1143528739100741,5.223091814846039e-06,0.1143528739100741,-1.2253e-05
0.1151469910900052,-7.533740565949748e-06,0.1151469910900052,-9.013786668137454e-06,0.1151469910900052,2.9328785921228416e-06,0.1151469910900052,-1.2016218026173092e-05
0.1159411082699363,-7.038382792813438e-06,0.1159411082699363,-2.1410345119258187e-06,0.1159411082699363,1.0868738006880774e-06,0.1159411082699363,-1.1265470421973371e-05
0.1167352254498673,-1.2133601572854675e-05,0.1167352254498673,2.2802932448591816e-06,0.1167352254498673,-2.901883457396309e-06,0.1167352254498673,-1.1709871739244088e-05
0.1175293426297984,-1.1857674401165856e-05,0.1175293426297984,-1.6109910041518822e-06,0.1175293426297984,-6.141252872886253e-06,0.1175293426297984,-1.2885045672303324e-05
0.1183234598097295,-6.88182e-06,0.1183234598097295,-1.1526908617412747e-05,0.1183234598097295,-3.4060259406560128e-06,0.1183234598097295,-1.49386e-05
0.1191175769896605,-7.178230097696905e-06,0.1191175769896605,-1.9124476247734817e-05,0.1191175769896605,-2.85344e-06,0.1191175769896605,-1.4642189902303094e-05
0.1199116941695916,-9.291189065513636e-06,0.1199116941695916,-2.2522388747026004e-05,0.1199116941695916,-3.0510295327568185e-06,0.1199116941695916,-1.5136189532756818e-05
0.1207058113495227,-9.379863451725095e-06,0.1207058113495227,-2.971483607043633e-05,0.1207058113495227,-1.4512664824767228e-06,0.1207058113495227,-1.5985093096549807e-05
0.1214999285294538,-1.2252613853534338e-05,0.1214999285294538,-3.440884574938448e-05,0.1214999285294538,-1.1748370284271316e-06,0.1214999285294538,-1.2924760404799406e-05
0.1222940457093848,-1.1167732972380616e-05,0.1222940457093848,-3.150537355837666e-05,0.1222940457093848,-2.715484324126872e-06,0.1222940457093848,-1.3299183513809693e-05
0.1230881628893159,-7.87027774604751e-06,0.1230881628893159,-2.83665e-05,0.1230881628893159,2.4617076347448266e-07,0.1230881628893159,-1.2294049089024684e-05
0.123882280069247,-4.453556583887215e-06,0.123882280069247,-2.83665e-05,0.123882280069247,2.447856770140981e-06,0.123882280069247,-8.38135683222557e-06
0.124676397249178,-5.241500563831344e-06,0.124676397249178,-2.7457280116741395e-05,0.124676397249178,2.6367517744674623e-06,0.124676397249178,-1.1776954674721369e-05
0.1254705144291091,-6.1118915863135e-06,0.1254705144291091,-2.416177599814336e-05,0.1254705144291091,2.6953256091243333e-06,0.1254705144291091,-1.2904928781751333e-05
0.1262646316090402,-5.15394565822362e-06,0.1262646316090402,-2.0112076916390737e-05,0.1262646316090402,2.1622484219296547e-06,0.1262646316090402,-1.2568908421929652e-05
0.1270587487889713,-5.53903e-06,0.1270587487889713,-1.7150670890547428e-05,0.1270587487889713,3.821183353607399e-06,0.1270587487889713,-1.48599055351197e-05
0.1278528659689023,-4.63064163767967e-06,0.1278528659689023,-2.1255681854584448e-05,0.1278528659689023,1.15526317256962e-06,0.1278528659689023,-1.5057094181160165e-05
0.1286469831488334,-6.88182e-06,0.1286469831488334,-2.4594876961586488e-05,0.1286469831488334,7.208614514041212e-07,0.1286469831488334,-1.470182949220051e-05
0.1294411003287645,-6.852472966560487e-06,0.1294411003287645,-2.228478467512669e-05,0.1294411003287645,1.2727634447983735e-06,0.1294411003287645,-1.35175412441613e-05
0.1302352175086955,-4.197056935595876e-06,0.1302352175086955,-2.4100632698798487e-05,0.1302352175086955,3.623274958867455e-06,0.1302352175086955,-1.2253e-05
0.1310293346886266,-1.1552545706776792e-06,0.1310293346886266,-2.368675407498248e-05,0.1310293346886266,2.62627575658817e-06,0.1310293346886266,-1.2608388605270537e-05
0.1318234518685577,-5.836014199260581e-06,0.1318234518685577,-2.818565730687052e-05,0.1318234518685577,1.412528774891187e-06,0.1318234518685577,-1.209549158116839e-05
0.1326175690484888,-7.513924364683188e-06,0.1326175690484888,-3.180222271432188e-05,0.1326175690484888,3.555146446949256e-06,0.1326175690484888,-1.29244e-05
0.1334116862284198,-7.3556362002568834e-06,0.1334116862284198,-3.3975362108675794e-05,0.1334116862284198,3.86053e-06,0.1334116862284198,-1.3882535198972465e-05
0.1342058034083509,-6.1410986809860885e-06,0.1342058034083509,-3.3620614410564486e-05,0.1342058034083509,4.808511614604834e-06,0.1342058034083509,-1.716999632744542e-05
0.134999920588282,-1.511126258739549e-06,0.134999920588282,-3.038105955606193e-05,0.134999920588282,6.5460055857779616e-06,0.134999920588282,-1.6281571621333057e-05
0.135794037768213,-3.168387679884399e-06,0.135794037768213,-2.346574995759953e-05,0.135794037768213,5.114821792268497e-06,0.135794037768213,-1.518578001057114e-05
0.1365881549481441,-5.341331539982768e-06,0.1365881549481441,-1.42672e-05,0.1365881549481441,4.136533079965535e-06,0.1365881549481441,-1.4129198460017232e-05
0.1373822721280752,-5.015889512478657e-06,0.1373822721280752,-1.6834132743994326e-05,0.1373822721280752,5.6788162919291135e-06,0.1373822721280752,-1.29244e-05
0.1381763893080062,-4.591441607944835e-06,0.1381763893080062,-2.493257280858773e-05,0.1381763893080062,2.815296266962545e-06,0.1381763893080062,-1.237202321588967e-05
0.1389705064879373,-9.584453187887218e-07,0.1389705064879373,-3.306281382660819e-05,0.1389705064879373,4.057569665239717e-06,0.1389705064879373,-1.106832011158676e-05
0.1397646236678684,-4.837324218899556e-07,0.1397646236678684,-3.806242047498491e-05,0.1397646236678684,3.307732659040024e-06,0.1397646236678684,-1.2667671384771314e-05
0.1405587408477994,-8.786043467365708e-07,0.1405587408477994,-4.0628397140445046e-05,0.1405587408477994,1.0366184376323484e-06,0.1405587408477994,-1.1660317396935134e-05
0.1413528580277305,-3.791234431109215e-06,0.1413528580277305,-3.79674329134672e-05,0.1413528580277305,4.492334044891646e-06,0.1413528580277305,-9.80440629841286e-06
0.1421469752076616,-5.637964484576439e-06,0.1421469752076616,-2.448446940463577e-05,0.1421469752076616,2.2421066539903903e-06,0.1421469752076616,-1.0396063119853845e-05
0.1429410923875927,-4.274465823783785e-06,0.1429410923875927,-1.1895215987482416e-05,0.1429410923875927,-5.622244017322457e-07,0.1429410923875927,-1.2272558955945946e-05
0.1437352095675237,-7.335274074104673e-06,0.1437352095675237,-1.927360102335641e-06,0.1437352095675237,-3.563500198382371e-06,0.1437352095675237,-1.3615133921182254e-05
0.1445293267474548,-7.079220070039115e-06,0.1445293267474548,8.39246e-07,0.1445293267474548,-5.065030070039116e-06,0.1445293267474548,-1.4514023521239632e-05
0.1453234439273859,-4.748847053976614e-06,0.1453234439273859,2.319044810487913e-06,0.1453234439273859,-3.129748526988307e-06,0.1453234439273859,-1.3753325580964922e-05
0.146117561107317,-5.678214329076363e-06,0.146117561107317,4.01795049469521e-06,0.146117561107317,-3.5944277499026187e-06,0.146117561107317,-1.29244e-05
0.146911678287248,-8.56031e-06,0.146911678287248,3.938980859120051e-06,0.146911678287248,-3.1488894184487957e-06,0.146911678287248,-1.5600374594596312e-05
0.1477057954671791,-9.330467501789316e-06,0.1477057954671791,-3.3216750049558545e-06,0.1477057954671791,-5.628763595030657e-07,0.1477057954671791,-1.505703595829536e-05
0.1484999126471102,-9.56741e-06,0.1484999126471102,-1.6279817956694135e-05,0.1484999126471102,-2.853188288711588e-06,0.1484999126471102,-1.49386e-05
0.1492940298270412,-9.390425194859168e-06,0.1492940298270412,-2.477425015294315e-05,0.1492940298270412,-3.090256371909143e-06,0.1492940298270412,-1.632044911572743e-05
0.1500881470069723,-3.6946697514512526e-06,0.1500881470069723,-2.9242649874521827e-05,0.1500881470069723,-4.86763e-06,0.1500881470069723,-1.6479104193030932e-05
0.1508822641869034,2.769666296491095e-06,0.1508822641869034,-3.483345971780456e-05,0.1508822641869034,-2.9932637898551272e-06,0.1508822641869034,-1.486024951594205e-05
0.1516763813668344,8.322242458308287e-06,0.1516763813668344,-3.688605515966954e-05,0.1516763813668344,-1.2973569305444896e-07,0.1516763813668344,-1.440525020033224e-05
0.1524704985467655,2.4010495089773456e-06,0.1524704985467655,-3.125230326023207e-05,0.1524704985467655,1.5300883354042917e-06,0.1524704985467655,-1.4899703329191415e-05
0.1532646157266966,-1.3920042370600455e-06,0.1532646157266966,-2.914665101479138e-05,0.1532646157266966,2.073510175789333e-06,0.1532646157266966,-1.1423668671879618e-05
0.1540587329066277,-5.401235010656662e-06,0.1540587329066277,-3.074649139709646e-05,0.1540587329066277,8.589307304140291e-07,0.1540587329066277,-1.1542229835505016e-05
0.1548528500865587,-7.316208705624876e-06,0.1548528500865587,-2.45979503891496e-05,0.1548528500865587,8.39246e-07,0.1548528500865587,-9.844051647394827e-06
0.1556469672664898,-1.0949042727233968e-05,0.1556469672664898,-1.663613304877016e-05,0.1556469672664898,1.4116875757446558e-06,0.1556469672664898,-9.38892298892852e-06
0.1564410844464209,-1.470066611466129e-05,0.1564410844464209,-1.2766711970277995e-05,0.1564410844464209,2.4786335541354844e-06,0.1564410844464209,-1.2253e-05
0.157235201626352,-1.7821016557506784e-05,0.157235201626352,-1.6911674820031538e-05,0.157235201626352,1.589737240415536e-06,0.157235201626352,-1.1226588961662144e-05
0.158029318806283,-2.0714614915974543e-05,0.158029318806283,-1.5322760683781752e-05,0.158029318806283,4.2455087202873794e-07,0.158029318806283,-1.031782066003202e-05
0.1588234359862141,-1.916331398159513e-05,0.1588234359862141,-1.0300543065921511e-05,0.1588234359862141,4.44162424600649e-07,0.1588234359862141,-1.09102e-05
0.1596175531661451,-1.5174442608065373e-05,0.1596175531661451,-9.191520307500756e-06,0.1596175531661451,4.6424101574573676e-07,0.1596175531661451,-1.1206592898655772e-05
0.1604116703460762,-1.3338782998852902e-05,0.1604116703460762,-1.310315718963852e-05,0.1604116703460762,1.570084667431398e-06,0.1604116703460762,-1.09102e-05
0.1612057875260073,-9.843795866564733e-06,0.1612057875260073,-2.512933843700046e-05,0.1612057875260073,1.6291141156121885e-06,0.1612057875260073,-9.18233411561219e-06
0.1619999047059384,-7.553494592087971e-06,0.1619999047059384,-3.742910559817696e-05,0.1619999047059384,2.0140870272001598e-06,0.1619999047059384,-8.896044324266614e-06
0.1627940218858694,-6.309309361104551e-06,0.1627940218858694,-4.12909e-05,0.1627940218858694,1.2348016769586682e-06,0.1627940218858694,-1.156077447226814e-05
0.1635881390658005,-8.302880221866111e-06,0.1635881390658005,-3.721595967575786e-05,0.1635881390658005,-6.621244040598198e-07,0.1635881390658005,-1.351752977813389e-05
0.1643822562457316,-8.06793313073991e-06,0.1643822562457316,-3.235557735675393e-05,0.1643822562457316,8.000767243449284e-07,0.1643822562457316,-1.1285069509015268e-05
0.1651763734256627,-7.710342625001385e-06,0.1651763734256627,-2.6548244792423996e-05,0.1651763734256627,7.797233052534677e-07,0.1651763734256627,-1.2410130851898932e-05
0.1659704906055937,-1.001135227546945e-05,0.1659704906055937,-2.0391336981670004e-05,0.1659704906055937,5.242198498466114e-06,0.1659704906055937,-1.4761031553008978e-05
0.1667646077855248,-8.698852975258229e-06,0.1667646077855248,-1.73279972022961e-05,0.1667646077855248,4.3938726920037625e-06,0.1667646077855248,-1.406955966009464e-05
0.1675587249654559,-4.2946834897461135e-06,0.1675587249654559,-1.853234917481451e-05,0.1675587249654559,1.2733940763059956e-06,0.1675587249654559,-1.829603100307922e-05
0.1683528421453869,-2.6560819905287184e-06,0.1683528421453869,-1.596615985968091e-05,0.1683528421453869,1.17494e-06,0.1683528421453869,-1.7545356901006452e-05
0.169146959325318,-8.19839008830378e-07,0.169146959325318,-1.442507689591806e-05,0.169146959325318,1.5892281920052382e-06,0.169146959325318,-1.502782943802974e-05
0.1699410765052491,-1.67849e-07,0.1699410765052491,-1.4662490637016391e-05,0.1699410765052491,2.400455526321052e-06,0.1699410765052491,-1.3872857530244353e-05
0.1707351936851801,-4.244452745092242e-07,0.1707351936851801,-1.6715271060616432e-05,0.1707351936851801,-5.228355693086339e-07,0.1707351936851801,-1.343759407774671e-05
0.1715293108651112,-1.8660629295371384e-06,0.1715293108651112,-2.133762908431985e-05,0.1715293108651112,-2.072946828193212e-07,0.1715293108651112,-1.4672006334055848e-05
0.1723234280450423,3.254086127684122e-07,0.1723234280450423,-2.546228403761845e-05,0.1723234280450423,1.41246012635794e-06,0.1723234280450423,-1.3239519810463089e-05
0.1731175452249733,-1.3927024337825863e-06,0.1731175452249733,-2.8404954952284503e-05,0.1731175452249733,3.703279833638753e-06,0.1731175452249733,-1.0544289064900564e-05
0.1739116624049044,-1.7082066007019987e-06,0.1739116624049044,-3.006462298781036e-05,0.1739116624049044,4.255663201403998e-06,0.1739116624049044,-8.974710197894005e-06
0.1747057795848355,-1.9450860357619003e-06,0.1747057795848355,-2.7735773166633657e-05,0.1747057795848355,6.072212071523801e-06,0.1747057795848355,-8.659056035761902e-06
0.1754998967647666,-2.853291261511378e-06,0.1754998967647666,-2.5681167098788816e-05,0.1754998967647666,7.888612525238106e-06,0.1754998967647666,-9.735074076889224e-06
0.1762940139446976,-5.281352381227115e-06,0.1762940139446976,-2.210592927787942e-05,0.1762940139446976,6.27030037647304e-06,0.1762940139446976,-9.528392336418108e-06
0.1770881311246287,-9.052511935303134e-06,0.1770881311246287,-2.107864138646797e-05,0.1770881311246287,4.1179769771750495e-06,0.1770881311246287,-8.36259434094165e-06
0.1778822483045598,-1.221383622399844e-05,0.1778822483045598,-2.246215904462288e-05,0.1778822483045598,2.86463489599376e-06,0.1778822483045598,-8.146283614627085e-06
0.1786763654844909,-1.0812615080312508e-05,0.1786763654844909,-2.2482364562643043e-05,0.1786763654844909,1.5955728482954656e-07,0.1786763654844909,-6.72470631023438e-06
0.1794704826644219,-1.135408036906203e-05,0.1794704826644219,-2.323270566301947e-05,0.1794704826644219,-9.973804473165998e-07,0.1794704826644219,-5.519599836767688e-06
0.180264599844353,-1.1107877016099972e-05,0.180264599844353,-1.8730005258194123e-05,0.180264599844353,1.411802667914008e-06,0.180264599844353,-5.420598666042996e-06
0.181058717024284,-8.935403096549817e-06,0.181058717024284,-1.7742536762836283e-05,0.181058717024284,2.18204e-06,0.181058717024284,-2.981466977056246e-06
0.1818528342042151,-8.461644226429983e-06,0.1818528342042151,-1.9854334289952236e-05,0.1818528342042151,3.4063164172322294e-06,0.1818528342042151,-3.7221650775872543e-06
0.1826469513841462,-5.736974238456494e-06,0.1826469513841462,-2.16526e-05,0.1826469513841462,3.3967777212238905e-06,0.1826469513841462,-3.722784238456494e-06
0.1834410685640773,-5.814349662976625e-06,0.1834410685640773,-2.0270552597850465e-05,0.1834410685640773,1.9049652707145229e-06,0.1834410685640773,-4.450271675523617e-06
0.1842351857440083,-8.322986311015868e-06,0.1842351857440083,-2.208636820516389e-05,0.1842351857440083,3.623206311015868e-06,0.1842351857440083,-1.074129034355377e-05
0.1850293029239394,-9.527936552010016e-06,0.1850293029239394,-2.2758171708799717e-05,0.1850293029239394,3.05088626251032e-06,0.1850293029239394,-1.1897565629040672e-05
0.1858234201038705,-8.816091592522974e-06,0.1858234201038705,-2.1732097277445615e-05,0.1858234201038705,1.5494700374125931e-06,0.1858234201038705,-1.2865025689121604e-05
0.1866175372838016,-6.88182e-06,0.1866175372838016,-2.382402215227973e-05,0.1866175372838016,-4.24911216629107e-07,0.1866175372838016,-1.1699555702114882e-05
0.1874116544637326,-6.88182e-06,0.1874116544637326,-2.50095e-05,0.1874116544637326,7.605263065268385e-07,0.1874116544637326,-1.144346086768828e-05
0.1882057716436637,-5.775982638577464e-06,0.1882057716436637,-2.321401714086789e-05,0.1882057716436637,1.4513811420677118e-06,0.1882057716436637,-1.1384119394503586e-05
0.1889998888235948,-5.53903e-06,0.1889998888235948,-2.1317115712215857e-05,0.1889998888235948,8.391659105217371e-07,0.1889998888235948,-9.5677303574359e-06
0.1897940060035258,-2.0650444980802627e-06,0.1897940060035258,-2.307558385832118e-05,0.1897940060035258,3.2281304647115467e-06,0.1897940060035258,-9.56741e-06
0.1905881231834569,2.1222972158558838e-06,0.1905881231834569,-2.5286747094297723e-05,0.1905881231834569,5.20333e-06,0.1905881231834569,-1.3830507471351477e-05
0.191382240363388,2.51774e-06,0.191382240363388,-2.3745792543414093e-05,0.191382240363388,1.9666716967342484e-06,0.191382240363388,-1.5828225871036384e-05
0.192176357543319,3.0700710184215054e-06,0.192176357543319,-2.368651140677552e-05,0.192176357543319,1.026105191781503e-06,0.192176357543319,-1.4110103472367742e-05
0.1929704747232501,1.2942592034815511e-06,0.1929704747232501,-2.416005572862516e-05,0.1929704747232501,2.51774e-06,0.1929704747232501,-1.616208502784417e-05
0.1937645919031812,-2.467972667511409e-07,0.1937645919031812,-2.4249243500478357e-05,0.1937645919031812,2.51774e-06,0.1937645919031812,-1.7130602996146203e-05
0.1945587090831123,-1.8755122259847218e-07,0.1945587090831123,-2.418967312182123e-05,0.1945587090831123,1.253749125154464e-06,0.1945587090831123,-1.66171e-05
0.1953528262630433,-3.5638822221024397e-06,0.1953528262630433,-2.714029762049446e-05,0.1953528262630433,1.4119856924573745e-06,0.1953528262630433,-1.8611431461313937e-05
0.1961469434429744,-8.243979766493646e-06,0.1961469434429744,-3.124980767406375e-05,0.1961469434429744,-1.67849e-07,0.1961469434429744,-1.9657769766493648e-05
0.1969410606229055,-8.343620522221049e-06,0.1969410606229055,-3.164435426768347e-05,0.1969410606229055,1.92448409556453e-06,0.1969410606229055,-2.023165590443547e-05
0.1977351778028366,-8.322969149053013e-06,0.1977351778028366,-2.8565332570886e-05,0.1977351778028366,3.5740107528762616e-06,0.1977351778028366,-1.7427486415292994e-05
0.1985292949827676,-1.09102e-05,0.1985292949827676,-2.1454068198847748e-05,0.1985292949827676,1.885831624763108e-06,0.1985292949827676,-1.8660897545455314e-05
0.1993234121626987,-9.73526e-06,0.1993234121626987,-1.7743479059511772e-05,0.1993234121626987,8.39246e-07,0.1993234121626987,-2.03098e-05
0.2001175293426297,-9.587072150192669e-06,0.2001175293426297,-2.4513626261635446e-05,0.2001175293426297,-3.462515013058469e-07,0.2001175293426297,-2.03098e-05
0.2009116465225608,-7.08903729798814e-06,0.2009116465225608,-3.215930086991159e-05,0.2009116465225608,-4.441374961122886e-07,0.2009116465225608,-2.092178973065085e-05
0.2017057637024919,-7.365621854601755e-06,0.2017057637024919,-3.014678564688741e-05,0.2017057637024919,-6.615192016331147e-07,0.2017057637024919,-1.958901800935829e-05
0.202499880882423,-7.888867097222902e-06,0.202499880882423,-2.2996532763641063e-05,0.202499880882423,-3.5244009492234774e-06,0.202499880882423,-2.03095854605528e-05
0.203293998062354,-6.88182e-06,0.203293998062354,-2.6197040446205586e-05,0.203293998062354,-2.379853120291353e-06,0.203293998062354,-2.0832825428390345e-05
0.2040881152422851,-5.460805485262451e-06,0.2040881152422851,-3.4764279165385607e-05,0.2040881152422851,-1.7083671250857467e-06,0.2040881152422851,-1.9343989875600227e-05
0.2048822324222162,-5.477395003530352e-06,0.2048822324222162,-3.0342163623677302e-05,0.2048822324222162,-3.0816031719364154e-08,0.2048822324222162,-1.5984852309974142e-05
0.2056763496021472,-8.934010716112015e-06,0.2056763496021472,-3.5162849523531024e-06,0.2056763496021472,1.1451716678635203e-06,0.2056763496021472,-1.62814e-05
0.2064704667820783,-6.290959014253825e-06,0.2064704667820783,3.2913435543133245e-05,0.2064704667820783,6.616957729396085e-07,0.2064704667820783,-1.466254823278935e-05
0.2072645839620094,-3.011323210844422e-06,0.2072645839620094,4.5941388448759466e-05,0.2072645839620094,1.3918440575582631e-06,0.2072645839620094,-1.3674742781215797e-05
0.2080587011419405,-4.472805957093083e-06,0.2080587011419405,2.3127476620188687e-05,0.2080587011419405,3.821114558467606e-06,0.2080587011419405,-1.4247491985697696e-05
0.2088528183218715,-5.53903e-06,0.2088528183218715,-6.003558213847127e-06,0.2088528183218715,1.2246595196870434e-06,0.2088528183218715,-1.3941410522807498e-05
0.2096469355018026,-5.657377330322852e-06,0.2096469355018026,-2.8604834388156105e-05,0.2096469355018026,-3.346192465227937e-06,0.2096469355018026,-1.2312157800435443e-05
0.2104410526817337,-7.848015727147175e-06,0.2104410526817337,-4.588362343298075e-05,0.2104410526817337,-4.760213981952166e-06,0.2104410526817337,-1.35958e-05
0.2112351698616647,-1.067283963022013e-05,0.2112351698616647,-4.809527644391394e-05,0.2112351698616647,-2.123260431409847e-06,0.2112351698616647,-1.1799740862819694e-05
0.2120292870415958,-8.303643720945478e-06,0.2120292870415958,-3.407159390718129e-05,0.2120292870415958,-1.540280586436121e-06,0.2120292870415958,-1.1127376277190918e-05
0.2128234042215269,-3.889178812681388e-06,0.2128234042215269,-2.957012907667692e-05,0.2128234042215269,-1.0848648420999355e-07,0.2128234042215269,-1.29244e-05
0.2136175214014579,-1.5303050166995223e-06,0.2136175214014579,-5.213352371595507e-05,0.2136175214014579,-1.610361088346773e-06,0.2136175214014579,-1.2628030033399043e-05
0.214411638581389,-2.065577527924975e-07,0.214411638581389,-9.061741085622752e-05,0.214411638581389,-2.065577527924975e-07,0.214411638581389,-1.3793349401660884e-05
0.2152057557613201,1.2558912958017642e-05,0.2152057557613201,-0.0001157192298358,0.2152057557613201,5.696971242619761e-06,0.2152057557613201,-1.2726942326558448e-05
0.2159998729412512,2.2322755871412632e-05,0.2159998729412512,-0.0001223615069435,0.2159998729412512,7.217428468622377e-06,0.2159998729412512,-1.2420754247944102e-05
0.2167939901211822,2.5672368848108843e-06,0.2167939901211822,-0.0001022100973135,0.2167939901211822,3.782610812507269e-06,0.2167939901211822,-1.29244e-05
0.2175881073011133,-2.318863317206407e-05,0.2175881073011133,-5.017026576672802e-05,0.2175881073011133,2.1429392871492126e-06,0.2175881073011133,-1.0891764290497376e-05
0.2183822244810444,-1.893967097250196e-05,0.2183822244810444,2.9169287588720983e-05,0.2183822244810444,1.84634e-06,0.2183822244810444,-7.849764589157418e-06
0.2191763416609755,-3.3134073906649694e-06,0.2191763416609755,9.699755019970498e-05,0.2191763416609755,2.122494067788565e-06,0.2191763416609755,-8.105519909361229e-06
0.2199704588409065,-8.379743159897033e-06,0.2199704588409065,0.0001337473897165,0.2199704588409065,2.18204e-06,0.2199704588409065,-1.0277586967770175e-05
0.2207645760208376,-1.2509762939495294e-05,0.2207645760208376,0.0001214347868346,0.2207645760208376,1.3527672898406413e-06,0.2207645760208376,-1.12459e-05
0.2215586932007686,-1.2884972505367932e-05,0.2215586932007686,8.282590640280891e-05,0.2215586932007686,-1.087080516733949e-07,0.2215586932007686,-1.02979412419481e-05
0.2223528103806997,-1.8018725501951168e-05,0.2223528103806997,5.100887515102478e-05,0.2223528103806997,-4.274961969679034e-06,0.2223528103806997,-9.350244312256103e-06
0.2231469275606308,-2.644897684205728e-05,0.2231469275606308,2.121656215636268e-05,0.2231469275606308,-3.8753836550291685e-07,0.2231469275606308,-7.316529754392362e-06
0.2239410447405619,-3.095447721068142e-05,0.2239410447405619,3.036701616264057e-07,0.2239410447405619,8.035346510407163e-06,0.2239410447405619,-9.801704112757264e-06
0.2247351619204929,-2.603813597162352e-05,0.2247351619204929,-1.2921654494108206e-05,0.2247351619204929,8.995511570002052e-06,0.2247351619204929,-1.410894831205792e-05
0.225529279100424,-2.399226626045568e-05,0.225529279100424,-1.888943687930984e-05,0.225529279100424,4.749201738064877e-06,0.225529279100424,-1.0140145138850924e-05
0.2263233962803551,-4.969554297490179e-05,0.2263233962803551,-3.757541283041314e-05,0.2263233962803551,3.69268e-06,0.2263233962803551,-8.402681446235267e-06
0.2271175134602862,-4.396064740614911e-05,0.2271175134602862,-6.872262611566502e-05,0.2271175134602862,3.840862116793625e-06,0.2271175134602862,-9.52807423358725e-06
0.2279116306402172,-6.126696845114193e-06,0.2279116306402172,-8.792622458548176e-05,0.2279116306402172,3.267904878588427e-06,0.2279116306402172,-8.56031e-06
0.2287057478201483,2.1741063062706547e-05,0.2287057478201483,-8.73351977916566e-05,0.2287057478201483,-7.601849755105171e-07,0.2287057478201483,-5.934018974131447e-06
0.2294998650000794,3.2058373371730794e-05,0.2294998650000794,-7.687709567217789e-05,0.2294998650000794,-3.1888482437338203e-06,0.2294998650000794,-4.532027252088727e-06
0.2302939821800104,2.5694534269647344e-05,0.2302939821800104,-6.041095313288453e-05,0.2302939821800104,-4.945521842961439e-06,0.2302939821800104,-5.756329013086547e-06
0.2310880993599415,1.057211342847805e-05,0.2310880993599415,-4.401275238296551e-05,0.2310880993599415,-7.96710011699683e-06,0.2310880993599415,-3.7823498830031696e-06
0.2318822165398726,-3.5579716932001503e-06,0.2318822165398726,-3.296847224125301e-05,0.2318822165398726,-7.670641365893145e-06,0.2318822165398726,-3.642252531840239e-06
0.2326763337198036,-1.1657485244729084e-05,0.2326763337198036,-2.723975610518823e-05,0.2326763337198036,-8.836458347077457e-06,0.2326763337198036,-6.4649602034967125e-06
0.2334704508997347,-1.3240720313128936e-05,0.2334704508997347,-2.112242453667252e-05,0.2334704508997347,-1.0011280763172497e-05,0.2334704508997347,-1.0721387250455454e-05
0.2342645680796658,-8.10670130455662e-06,0.2342645680796658,-2.298522431470525e-05,0.2342645680796658,-9.44949130455662e-06,0.2342645680796658,-1.15816e-05
0.2350586852595969,-4.907068960659445e-06,0.2350586852595969,-3.09811913040136e-05,0.2350586852595969,-3.0900725891291258e-06,0.2350586852595969,-1.1739543196904e-05
0.2358528024395279,-5.163976582044199e-06,0.2358528024395279,-2.497533030357587e-05,0.2358528024395279,-6.923003120052536e-08,0.2358528024395279,-1.1364440045269812e-05
0.236646919619459,-3.831556271097669e-06,0.236646919619459,-1.3674354349627984e-05,0.236646919619459,1.5299581693702918e-06,0.236646919619459,-1.02388e-05
0.2374410367993901,-1.1261434030241717e-06,0.2374410367993901,-1.2845782156406832e-05,0.2374410367993901,2.673890017363662e-06,0.2374410367993901,-1.237986945434244e-05
0.2382351539793211,3.057200311789372e-07,0.2382351539793211,-1.7030120825782642e-05,0.2382351539793211,6.229596098482167e-06,0.2382351539793211,-1.5333027737558775e-05
0.2390292711592522,1.480694517349362e-07,0.2390292711592522,-2.448657214128595e-05,0.2390292711592522,6.8620398633518405e-06,0.2390292711592522,-1.596548013664816e-05
0.2398233883391833,1.965042856067971e-06,0.2398233883391833,-2.420127533207842e-05,0.2398233883391833,8.411933197905149e-06,0.2398233883391833,-1.549129714393203e-05
0.2406175055191144,2.3695607497132208e-06,0.2406175055191144,-2.485009793917868e-05,0.2406175055191144,6.387456747418987e-06,0.2406175055191144,-1.4049524498279324e-05
0.2414116226990454,-4.078621394516697e-06,0.2414116226990454,-3.2080521273820784e-05,0.2414116226990454,8.90629172944162e-06,0.2414116226990454,-1.4158675871266913e-05
0.2422057398789765,-2.787176494725724e-05,0.2422057398789765,-4.14533054746498e-05,0.2422057398789765,1.0179633457869044e-05,0.2422057398789765,-1.4069765258613245e-05
0.2429998570589076,-5.253381381947897e-05,0.2429998570589076,-4.599028392850039e-05,0.2429998570589076,8.22491891839949e-06,0.2429998570589076,-1.1582217836798982e-05
0.2437939742388386,-2.605055247110408e-05,0.2437939742388386,-4.042937786592559e-05,0.2437939742388386,6.9418120899566215e-06,0.2437939742388386,-1.1502105335985822e-05
0.2445880914187697,2.1160289188570803e-05,0.2445880914187697,-2.95535899532793e-05,0.2445880914187697,7.373849945745891e-06,0.2445880914187697,-1.549042270349251e-05
0.2453822085987008,4.899453732959375e-05,0.2453822085987008,-2.8208191636807617e-05,0.2453822085987008,9.07516955626786e-06,0.2453822085987008,-1.42672e-05
0.2461763257786318,5.218483110997011e-05,0.2461763257786318,-3.1673646312180945e-05,0.2461763257786318,6.2320624676769575e-06,0.2461763257786318,-1.4819485252732709e-05
0.2469704429585629,3.3330966845573594e-05,0.2469704429585629,-2.635648473945483e-05,0.2469704429585629,5.913461202422248e-06,0.2469704429585629,-1.569874061898469e-05
0.247764560138494,1.6084618190092517e-05,0.247764560138494,-2.1060043378484075e-05,0.247764560138494,8.659233142752504e-06,0.247764560138494,-1.6597102476329994e-05
0.2485586773184251,1.1996200853373725e-05,0.2485586773184251,-2.607263939488271e-05,0.2485586773184251,5.677105318234917e-06,0.2485586773184251,-1.888809914662628e-05
0.2493527944983561,6.191563833367074e-06,0.2493527944983561,-3.2216758431977484e-05,0.2493527944983561,2.4490340275417763e-06,0.2493527944983561,-2.295546064330998e-05
0.2501469116782872,-8.801581554167596e-06,0.2501469116782872,-2.8366177539851025e-05,0.2501469116782872,7.402124935669147e-07,0.2501469116782872,-2.673628480091127e-05
0.2509410288582183,-2.7267616554282325e-05,0.2509410288582183,-1.6418553910819845e-05,0.2509410288582183,2.4884703622455818e-06,0.2509410288582183,-2.836853581306279e-05
0.2517351460381494,-3.1861368573422696e-05,0.2517351460381494,-1.3851308622441666e-05,0.2517351460381494,8.997881159185907e-08,0.2517351460381494,-2.3628398283145865e-05
0.2525292632180804,-2.951197536578981e-05,0.2525292632180804,-2.2285087782435093e-05,0.2525292632180804,-1.8265484219296549e-06,0.2525292632180804,-2.0349383156140694e-05
0.2533233803980115,-2.5482488634094095e-05,0.2533233803980115,-2.46738e-05,0.2533233803980115,-4.433612829291512e-06,0.2533233803980115,-1.8215880048739853e-05
0.2541174975779426,-2.2550814988184736e-05,0.2541174975779426,-1.4991984397677884e-05,0.2541174975779426,-5.24267723244015e-06,0.2541174975779426,-1.420693062708105e-05
0.2549116147578736,-2.0467406784281463e-05,0.2549116147578736,4.174881347886387e-07,0.2549116147578736,-5.677193681568585e-06,0.2549116147578736,-1.2529335594760489e-05
0.2557057319378047,-1.647898905744105e-05,0.2557057319378047,3.2707275821793577e-06,0.2557057319378047,-1.4121335587036298e-06,0.2557057319378047,-8.777719839034423e-06
0.2564998491177358,-1.124709562862006e-05,0.2564998491177358,-1.6726344046857038e-07,0.2564998491177358,1.680663860504839e-07,0.2564998491177358,-3.861508238360413e-06
0.2572939662976669,-1.0988025993758277e-05,0.2572939662976669,-2.064209615864862e-06,0.2572939662976669,3.056898996873813e-07,0.2572939662976669,5.81367172542814e-07
0.2580880834775979,-1.6948049028610132e-05,0.2580880834775979,-2.556657238649795e-06,0.2580880834775979,7.403715604974998e-07,0.2580880834775979,6.231447488166308e-07
0.258882200657529,-2.540079377919349e-05,0.258882200657529,-5.360639738043047e-06,0.258882200657529,2.237632613587956e-06,0.258882200657529,-2.770042828026374e-07
0.2596763178374601,-3.0299458339586773e-05,0.2596763178374601,-1.70936642523877e-05,0.2596763178374601,7.688545699487945e-06,0.2596763178374601,4.439850830847865e-07
0.2604704350173911,-2.8921759175840106e-05,0.2604704350173911,-2.9586294289186378e-05,0.2604704350173911,7.929287479245131e-06,0.2604704350173911,-2.0819416411102186e-06
0.2612645521973222,-2.431807959348545e-05,0.2612645521973222,-4.033245408341884e-05,0.2612645521973222,7.11857734420857e-06,0.2612645521973222,-2.7061864423500992e-06
0.2620586693772533,-2.7241014321857284e-05,0.2620586693772533,-5.462420563213566e-05,0.2620586693772533,1.0100683963255491e-05,0.2620586693772533,5.559026504001009e-06
0.2628527865571843,-2.714225151129723e-05,0.2628527865571843,-6.682765075964253e-05,0.2628527865571843,1.112734848870277e-05,0.2628527865571843,6.15173502743406e-06
0.2636469037371154,-2.4615948686136055e-05,0.2636469037371154,-7.504840238573913e-05,0.2636469037371154,8.937199888233836e-06,0.2636469037371154,3.27853579164224e-06
0.2644410209170465,-2.058697792353211e-05,0.2644410209170465,-5.083384633011639e-05,0.2644410209170465,3.82151586344973e-06,0.2644410209170465,3.0847510908768465e-07
0.2652351380969776,-1.96384e-05,0.2652351380969776,-8.572953364699968e-07,0.2652351380969776,3.18914e-06,0.2652351380969776,-4.905888308716789e-06
0.2660292552769086,-1.9006606038985188e-05,0.2660292552769086,2.9216133265090907e-05,0.2660292552769086,3.110165754873148e-06,0.2660292552769086,-7.987691969668305e-06
0.2668233724568397,-1.474024012049379e-05,0.2668233724568397,2.251044773925496e-05,0.2668233724568397,2.3990600267763977e-06,0.2668233724568397,-5.025310040164597e-06
0.2676174896367708,-9.437711999545923e-06,0.2676174896367708,5.423547238562728e-06,0.2676174896367708,2.142687034546126e-06,0.2676174896367708,-5.381618138184505e-06
0.2684116068167018,-8.976506079619185e-07,0.2684116068167018,-1.9854517370553007e-06,0.2684116068167018,3.386660585588488e-06,0.2684116068167018,-1.0476215872830848e-05
0.2692057239966329,6.387794975389771e-06,0.2692057239966329,-8.773559640763472e-06,0.2692057239966329,2.507969333669065e-06,0.2692057239966329,-1.1877717713997944e-05
0.269999841176564,1.3929898204299691e-05,0.269999841176564,-1.3930575427269307e-05,0.269999841176564,1.0073288250358485e-06,0.269999841176564,-1.3259871171555924e-05
0.270793958356495,1.9005894324357404e-05,0.270793958356495,-1.543215121334222e-05,0.270793958356495,-1.3516665263479122e-06,0.270793958356495,-1.3279511897839294e-05
0.2715880755364261,1.936251158030854e-05,0.2715880755364261,-1.5016413931238972e-05,0.2715880755364261,-2.241851580308538e-06,0.2715880755364261,-1.6653742098457312e-05
0.2723821927163572,1.7725158130566276e-05,0.2723821927163572,-1.62814e-05,0.2723821927163572,-1.3541464692688006e-06,0.2723821927163572,-2.094207635509438e-05
0.2731763098962882,1.4841175260223352e-05,0.2731763098962882,-1.8099163050399385e-05,0.2731763098962882,3.1457079457080096e-06,0.2731763098962882,-1.981710644516752e-05
0.2739704270762193,1.30825773186978e-05,0.2739704270762193,-2.642568205395471e-05,0.2739704270762193,7.236865362604402e-06,0.2739704270762193,-1.86119546373956e-05
0.2747645442561504,1.32601e-05,0.2747645442561504,-3.646245275814337e-05,0.2747645442561504,7.089127088830155e-06,0.2747645442561504,-1.626197444685305e-05
0.2755586614360815,1.2944136679370848e-05,0.2755586614360815,-4.309414375221564e-05,0.2755586614360815,8.165400549813562e-06,0.2755586614360815,-1.55803920413132e-05
0.2763527786160125,1.006160717853404e-05,0.2763527786160125,-5.450787582676965e-05,0.2763527786160125,7.810302689912123e-06,0.2763527786160125,-1.947989928982329e-05
0.2771468957959436,4.908882951042414e-06,0.2771468957959436,-6.388160919839253e-05,0.2771468957959436,4.630985618501976e-06,0.2771468957959436,-2.3823555335243084e-05
0.2779410129758747,-2.4550615994762017e-06,0.2779410129758747,-7.220486329231208e-05,0.2779410129758747,6.624125922311395e-06,0.2779410129758747,-2.70237e-05
0.2787351301558057,-1.047352254002736e-05,0.2787351301558057,-7.102103996180353e-05,0.2787351301558057,7.760642005685758e-06,0.2787351301558057,-2.70237e-05
0.2795292473357368,-1.3990943382744285e-05,0.2795292473357368,-6.94799973299578e-05,0.2795292473357368,4.709973099102014e-06,0.2795292473357368,-2.70237e-05
0.2803233645156679,-4.905073220100609e-06,0.2803233645156679,-8.07652152711939e-05,0.2803233645156679,1.9056742659006768e-06,0.2803233645156679,-2.4080475015782e-05
0.2811174816955989,6.212724470924671e-06,0.2811174816955989,-9.112307798446456e-05,0.2811174816955989,1.8856986984675668e-06,0.2811174816955989,-1.86498282862081e-05
0.2819115988755301,9.23171e-06,0.2819115988755301,-6.738050789744876e-05,0.2819115988755301,1.5894777902229106e-06,0.2819115988755301,-1.8611803682961817e-05
0.2827057160554611,6.72402208186896e-06,0.2827057160554611,-9.2575460549859e-07,0.2827057160554611,-1.4314452658353826e-06,0.2827057160554611,-2.141560017165225e-05
0.2834998332353922,8.409278833378894e-07,0.2834998332353922,5.89038818830012e-05,0.2834998332353922,-2.85344e-06,0.2834998332353922,-2.0981440269866247e-05
0.2842939504153233,-8.222864802365854e-06,0.2842939504153233,7.003103254814584e-05,0.2842939504153233,-3.6025871979355725e-06,0.2842939504153233,-1.983628191645577e-05
0.2850880675952543,-5.088628019145052e-06,0.2850880675952543,6.349820992223248e-05,0.2850880675952543,-9.879867613003488e-06,0.2850880675952543,-1.841524609267199e-05
0.2858821847751854,-1.7649052620333183e-06,0.2858821847751854,5.804750246139659e-05,0.2858821847751854,-1.465015434172532e-05,0.2858821847751854,-1.4188964176216217e-05
0.2866763019551165,-4.106868196349618e-06,0.2866763019551165,3.90843041350748e-05,0.2866763019551165,-1.7109776392699234e-05,0.2866763019551165,-1.4976427321165391e-05
0.2874704191350475,-1.3231996328012466e-05,0.2874704191350475,7.865654286550396e-06,0.2874704191350475,-1.9380035684729088e-05,0.2874704191350475,-1.5748849118226594e-05
0.2882645363149786,-5.626282767944038e-05,0.2882645363149786,-2.492795700563727e-05,0.2882645363149786,-2.4831616913898374e-05,0.2882645363149786,-1.4978732344406509e-05
0.2890586534949096,-7.540378482476915e-05,0.2890586534949096,-5.951286692935443e-05,0.2890586534949096,-2.2501581711461187e-05,0.2890586534949096,-1.1028654474307457e-05
0.2898527706748408,-2.328065686944066e-05,0.2898527706748408,-6.39413245597253e-05,0.2898527706748408,-1.7229903818597056e-05,0.2898527706748408,-1.1600921283781743e-05
0.2906468878547718,2.7309685134887628e-05,0.2906468878547718,-3.5435695773764384e-05,0.2906468878547718,-1.0833206031646592e-05,0.2906468878547718,-1.4503832915470567e-05
0.2914410050347029,5.099477124956621e-05,0.2914410050347029,-2.0803682597593836e-05,0.2914410050347029,-2.818719198398574e-06,0.2914410050347029,-1.3795028750433789e-05
0.292235122214634,4.884692560795144e-05,0.292235122214634,-2.060694231741205e-05,0.292235122214634,5.754580240519228e-06,0.292235122214634,-1.1325054447526554e-05
0.293029239394565,2.617659460550466e-05,0.293029239394565,1.0591963380850237e-06,0.293029239394565,9.665864637112563e-06,0.293029239394565,-1.3496982049707082e-05
0.2938233565744961,-2.504197489222421e-07,0.2938233565744961,2.655837565480974e-05,0.2938233565744961,1.3221042725947932e-05,0.2938233565744961,-1.3714457090379172e-05
0.2946174737544272,-2.0471667055562345e-05,0.2946174737544272,-4.092881641679348e-06,0.2946174737544272,1.46029e-05,0.2946174737544272,-1.367452886296251e-05
0.2954115909343582,-3.0084805025050444e-05,0.2954115909343582,-2.7745599291102782e-05,0.2954115909343582,1.1058126905854818e-05,0.2954115909343582,-1.2450515003578634e-05
0.2962057081142893,-3.310560471271465e-05,0.2962057081142893,1.9600671288638184e-05,0.2962057081142893,9.745330746766823e-06,0.2962057081142893,-1.3556183315915574e-05
0.2969998252942204,-3.4744674144355795e-05,0.2969998252942204,5.488144536181307e-05,0.2969998252942204,8.895884144355794e-06,0.2969998252942204,-1.628064486613476e-05
0.2977939424741515,-3.1686472211910214e-05,0.2977939424741515,1.864853395064861e-05,0.2977939424741515,1.4067474479331406e-05,0.2977939424741515,-1.7723146691241615e-05
0.2985880596540825,-2.1165687980277343e-05,0.2985880596540825,-1.9580680791640725e-05,0.2985880596540825,1.764246371909137e-05,0.2985880596540825,-1.4830534512363451e-05
0.2993821768340136,-1.0636415912945497e-05,0.2993821768340136,1.3893546736422095e-05,0.2993821768340136,2.3867219219808397e-05,0.2993821768340136,-1.5235187821121756e-05
0.3001762940139447,-8.836429743521962e-06,0.3001762940139447,5.390899910310579e-05,0.3001762940139447,3.486621361623305e-05,0.3001762940139447,-1.3281881538868231e-05
0.3009704111938757,-1.0435633719640036e-05,0.3009704111938757,4.3326723272869525e-05,0.3009704111938757,4.256429329878932e-05,0.3009704111938757,-9.57887098869377e-06
0.3017645283738068,-1.1166997263761928e-05,0.3017645283738068,1.4170192079302752e-06,0.3017645283738068,3.52504919779006e-05,0.3017645283738068,-7.21752e-06
0.3025586455537379,-1.3437814836813902e-05,0.3025586455537379,-7.011164943188883e-05,0.3025586455537379,2.1751353316085155e-05,0.3025586455537379,-8.165366152072875e-06
0.3033527627336689,-1.805846257932333e-05,0.3033527627336689,-0.0001340361158642,0.3033527627336689,1.3063691219308074e-05,0.3033527627336689,-7.55322e-06
0.3041468799136,-9.176931730137218e-06,0.3041468799136,-0.000146374272373,0.3041468799136,-3.871017989168672e-06,0.3041468799136,-9.142244012226223e-06
0.3049409970935311,6.697672833371812e-06,0.3049409970935311,-9.573857996680684e-05,0.3049409970935311,-3.378743010608838e-05,0.3049409970935311,-9.844630101238202e-06
0.3057351142734621,1.6911758485861163e-05,0.3057351142734621,-4.879773349546032e-05,0.3057351142734621,-5.036135680348468e-05,0.3057351142734621,-8.89601e-06
0.3065292314533932,1.1760140798370598e-05,0.3065292314533932,-4.102443583392718e-05,0.3065292314533932,-4.3533993920560646e-05,0.3065292314533932,-7.592889392056064e-06
0.3073233486333243,1.0535271544641874e-06,0.3073233486333243,-5.003979156757478e-05,0.3073233486333243,-1.9320160914601937e-05,0.3073233486333243,-5.084684351042996e-06
0.3081174658132554,-3.082432072793151e-05,0.3081174658132554,-6.107001391877208e-05,0.3081174658132554,-9.359135060934169e-06,0.3081174658132554,-4.828259835505016e-06
0.3089115829931864,-7.426078812827716e-05,0.3089115829931864,-3.483822190553561e-05,0.3089115829931864,-1.1028837082259625e-05,0.3089115829931864,-7.849806822143831e-06
0.3097057001731175,-9.716448705624876e-05,0.3097057001731175,-2.106569711506848e-05,0.3097057001731175,-1.6517619289998017e-05,0.3097057001731175,-1.4918387056248762e-05
0.3104998173530486,-7.755491823167681e-05,0.3104998173530486,-7.1991941890026e-05,0.3104998173530486,-2.2994247428351984e-05,0.3104998173530486,-1.795963684728934e-05
0.3112939345329796,2.2477904660767232e-06,0.3112939345329796,-0.0001248951237142,0.3112939345329796,-2.2758552424255345e-05,0.3112939345329796,-1.82160336775839e-05
0.3120880517129107,6.54041666266683e-05,0.3120880517129107,-0.0001046687236005,0.3120880517129107,-2.8540897118850884e-05,0.3120880517129107,-1.8682007908184248e-05
0.3128821688928418,7.297222803118559e-05,0.3128821688928418,3.645759979242786e-05,0.3128821688928418,-2.81938162037613e-05,0.3128821688928418,-1.545357421654194e-05
0.3136762860727728,4.2803212835958286e-05,0.3136762860727728,0.0001213684431196,0.3136762860727728,-2.1300927999311e-05,0.3136762860727728,-1.385298784066864e-05
0.314470403252704,5.334027939904166e-06,0.314470403252704,5.369292025707342e-05,0.314470403252704,-2.4118313353792653e-05,0.314470403252704,-1.3576488961662145e-05
0.315264520432635,-1.4670927429679746e-05,0.315264520432635,-1.4739269818596123e-05,0.315264520432635,-3.255114329501278e-05,0.315264520432635,-1.3911388062107951e-05
0.3160586376125661,-1.446473878411953e-05,0.3160586376125661,-2.1855207652944068e-05,0.3160586376125661,-4.153769958064461e-05,0.3160586376125661,-1.4306707756823903e-05
0.3168527547924971,1.062150693113552e-07,0.3168527547924971,4.98847934492828e-06,0.3168527547924971,-4.122241622101341e-05,0.3168527547924971,-1.029887645801357e-05
0.3176468719724282,1.1885494775706136e-05,0.3176468719724282,4.043144675535429e-05,0.3176468719724282,-3.0978255240471866e-05,0.3176468719724282,-9.60583642611876e-06
0.3184409891523593,1.7327468853535588e-05,0.3184409891523593,6.456365856633696e-05,0.3184409891523593,-1.3682668938201808e-05,0.3184409891523593,-1.4501013121213531e-05
0.3192351063322903,1.7446831777897544e-05,0.3192351063322903,8.051196043159091e-05,0.3192351063322903,1.4474975178266452e-06,0.3192351063322903,-2.086094111051228e-05
0.3200292235122214,1.3695043925906724e-05,0.3200292235122214,9.147731803555813e-05,0.3200292235122214,6.012802117860768e-06,0.3200292235122214,-2.647052803704664e-05
0.3208233406921525,7.907825392494123e-06,0.3208233406921525,6.322607172029602e-05,0.3208233406921525,1.4249578905486596e-05,0.3208233406921525,-2.6115031584930485e-05
0.3216174578720835,2.4970460071207104e-06,0.3216174578720835,1.551444100805117e-06,0.3216174578720835,2.969263839426336e-05,0.3216174578720835,-2.3231555385052277e-05
0.3224115750520147,-6.814661653062042e-07,0.3224115750520147,-5.6572097935548925e-05,0.3224115750520147,3.796385419006469e-05,0.3224115750520147,-1.82558752371412e-05
0.3232056922319457,-1.491262425301647e-06,0.3232056922319457,-9.161737597614848e-05,0.3232056922319457,4.54862811382106e-05,0.3232056922319457,-1.3990941321339291e-05
0.3239998094118768,2.3489975727489355e-06,0.3239998094118768,-0.0001126226851436,0.3239998094118768,5.4884503246936736e-05,0.3239998094118768,-1.2253274594132908e-05
0.3247939265918079,4.807497370923917e-06,0.3247939265918079,-0.0001216505810928,0.3247939265918079,5.4316187754979546e-05,0.3247939265918079,-8.641753834328768e-06
0.3255880437717389,6.201316805522757e-06,0.3255880437717389,-0.0001013373476937,0.3255880437717389,4.706932977767282e-05,0.3255880437717389,-9.017248001319968e-07
0.32638216095167,1.5498632051518188e-07,0.32638216095167,-5.688952558584857e-05,0.32638216095167,4.168388574298426e-05,0.32638216095167,9.794378334480428e-07
0.3271762781316011,-9.867350612187858e-06,0.3271762781316011,-1.9084563532886695e-05,0.3271762781316011,3.036782923331785e-05,0.3271762781316011,-5.03548e-07
0.3279703953115321,-1.805639798457825e-05,0.3279703953115321,-1.8192710002350994e-05,0.3279703953115321,2.4872524671216773e-05,0.3279703953115321,3.937733100209566e-06
0.3287645124914632,-2.0921607781588307e-05,0.3287645124914632,-3.0635713708120694e-05,0.3287645124914632,2.006384444951632e-05,0.3287645124914632,4.86763e-06
0.3295586296713942,-2.513772702307643e-05,0.3295586296713942,-4.352856901147034e-05,0.3295586296713942,1.8572021165722957e-05,0.3295586296713942,7.7110746743873e-06
0.3303527468513254,-2.6175261234560265e-05,0.3303527468513254,-4.226288967068064e-05,0.3303527468513254,3.309300245883922e-05,0.3303527468513254,1.05745e-05
0.3311468640312564,-1.958080667175276e-05,0.3311468640312564,-6.793851690008014e-05,0.3311468640312564,4.003920889567034e-05,0.3311468640312564,1.0357099258694138e-05
0.3319409812111875,-1.405293436870525e-05,0.3319409812111875,-9.645395544157206e-05,0.3319409812111875,2.8234717152313376e-05,0.3319409812111875,1.114850711147076e-05
0.3327350983911186,-1.0831028390340151e-05,0.3327350983911186,-8.086470756304009e-05,0.3327350983911186,1.5130101399704828e-05,0.3327350983911186,7.643454714045227e-06
0.3335292155710496,-1.5392499433491018e-05,0.3335292155710496,-5.316769424266918e-05,0.3335292155710496,5.105471164571447e-06,0.3335292155710496,3.5844153840075808e-06
0.3343233327509807,-1.3792708935549907e-05,0.3343233327509807,-4.211297576392562e-05,0.3343233327509807,-2.1037520637653844e-06,0.3343233327509807,-2.574137104059379e-07
0.3351174499309118,-1.0544529841229558e-05,0.3351174499309118,-4.5427527714092846e-05,0.3351174499309118,-6.645531389985389e-06,0.3351174499309118,-5.83629685627677e-06
0.3359115671108428,-8.422107804537529e-06,0.3359115671108428,-4.076664815212337e-05,0.3359115671108428,-7.948209725911384e-06,0.3359115671108428,-9.80458655313656e-06
0.3367056842907739,-1.3437126875169029e-05,0.3367056842907739,-2.4925424076115467e-05,0.3367056842907739,-1.132424963557161e-05,0.3367056842907739,-1.4148195156376772e-05
0.337499801470705,-1.460361508888769e-05,0.337499801470705,-2.1879469771447625e-06,0.337499801470705,-1.728706982222462e-05,0.337499801470705,-2.097919775111447e-05
0.338293918650636,-3.963381181130955e-06,0.338293918650636,6.446389553348269e-06,0.338293918650636,-1.93027e-05,0.338293918650636,-2.819672167252691e-05
0.3390880358305671,2.7753933656684933e-06,0.3390880358305671,-4.62906842244426e-06,0.3390880358305671,-2.253992109613436e-05,0.3390880358305671,-3.093236217910867e-05
0.3398821530104982,-6.164546183650967e-06,0.3398821530104982,1.8820967271940864e-06,0.3398821530104982,-1.9852080322606418e-05,0.3398821530104982,-3.2691505020162905e-05
0.3406762701904293,-8.701387573572897e-06,0.3406762701904293,3.42742469940368e-05,0.3406762701904293,-1.1102953693275385e-05,0.3406762701904293,-3.046218193027936e-05
0.3414703873703603,-5.261189179197584e-06,0.3414703873703603,4.9122815757534326e-05,0.3414703873703603,-4.624578291744677e-06,0.3414703873703603,-2.898003553351979e-05
0.3422645045502914,-1.256679705620103e-05,0.3422645045502914,2.5585648368783995e-05,0.3422645045502914,5.429030550648841e-06,0.3422645045502914,-2.333276873904875e-05
0.3430586217302225,-2.6490041587936964e-05,0.3430586217302225,-3.471794966105205e-06,0.3430586217302225,1.2055347144386297e-05,0.3430586217302225,-1.422798016659055e-05
0.3438527389101535,-4.767481304040688e-05,0.3438527389101535,-1.8884068709683472e-05,0.3438527389101535,1.547135636248208e-05,0.3438527389101535,-7.080636224443575e-06
0.3446468560900846,-6.44237741027218e-05,0.3446468560900846,-2.5562247773437472e-05,0.3446468560900846,1.61822870513609e-05,0.3446468560900846,-1.7088680115503308e-06
0.3454409732700157,-5.575707502962586e-05,0.3454409732700157,-2.9986028168606987e-05,0.3454409732700157,1.555158111777886e-05,0.3454409732700157,-2.3572960665930944e-06
0.3462350904499467,-2.9166298051605787e-05,0.3462350904499467,-4.080132773279322e-05,0.3462350904499467,1.511594533925806e-05,0.3462350904499467,-4.946807330370971e-06
0.3470292076298778,-3.999631084233403e-06,0.3470292076298778,-4.8468784955491446e-05,0.3470292076298778,2.246093627947805e-05,0.3470292076298778,-1.84634e-06
0.3478233248098089,-2.104377677568104e-05,0.3478233248098089,-4.331919717306502e-05,0.3478233248098089,2.929416036358376e-05,0.3478233248098089,-6.280347246061081e-06
0.34861744198974,-3.27493862718248e-05,0.34861744198974,-4.173491744106249e-05,0.34861744198974,2.3211023089505248e-05,0.34861744198974,-1.1957595946769876e-05
0.349411559169671,-2.7337772471412285e-06,0.349411559169671,-3.9286107862568056e-05,0.349411559169671,1.5135726855619187e-05,0.349411559169671,-1.557072071523801e-05
0.3502056763496021,2.392093087058588e-05,0.3502056763496021,-3.34224701327112e-05,0.3502056763496021,5.481126591715394e-06,0.3502056763496021,-2.1395157179657684e-05
0.3509997935295332,4.548174545871658e-05,0.3509997935295332,-4.1455461265139794e-05,0.3509997935295332,-7.549650290451305e-06,0.3509997935295332,-3.0042322707204808e-05
0.3517939107094642,5.22118084223215e-05,0.3517939107094642,-4.476508392250299e-05,0.3517939107094642,-6.253198829836722e-06,0.3517939107094642,-3.60274215068142e-05
0.3525880278893953,4.440744484599693e-05,0.3525880278893953,-3.081902803537506e-05,0.3525880278893953,7.20665716745172e-06,0.3525880278893953,-3.458874112941912e-05
0.3533821450693264,3.011740530028978e-05,0.3533821450693264,-3.0576435252238494e-05,0.3533821450693264,3.34664128856426e-05,0.3533821450693264,-3.0243893458168545e-05
0.3541762622492574,1.2332783732571544e-05,0.3541762622492574,-3.681691213496636e-05,0.3541762622492574,4.3040012557289845e-05,0.3541762622492574,-2.851551672574722e-05
0.3549703794291886,-1.5948946260035762e-05,0.3549703794291886,-2.320145280652188e-05,0.3549703794291886,2.38136836608036e-05,0.3549703794291886,-2.83665e-05
0.3557644966091196,-6.518510360151804e-05,0.3557644966091196,-4.098745762328861e-05,0.3557644966091196,7.318419981264185e-06,0.3557644966091196,-2.73997611728505e-05
0.3565586137890507,-9.694704464336788e-05,0.3565586137890507,-0.0001301244445721,0.3565586137890507,-8.192753531463379e-07,0.3565586137890507,-2.344962646471859e-05
0.3573527309689818,-8.727436409076175e-05,0.3573527309689818,-0.0002697367690842,0.3573527309689818,-2.5961817880343576e-06,0.3573527309689818,-2.056705821196564e-05
0.3581468481489128,-4.288882832830848e-05,0.3581468481489128,-0.0003308899698339,0.3581468481489128,-1.2208064671053212e-05,0.3581468481489128,-1.7269336621999715e-05
0.3589409653288439,4.307954768803527e-05,0.3589409653288439,-0.0001764009586823,0.3589409653288439,-2.936884287135307e-05,0.3589409653288439,-1.5493196633640094e-05
0.3597350825087749,8.268452873571834e-05,0.3597350825087749,0.000114814969124,0.3597350825087749,-3.346221525541047e-05,0.3597350825087749,-1.308276610216419e-05
0.360529199688706,6.689694032199893e-05,0.360529199688706,0.0002256666772057,0.360529199688706,-2.611601554723985e-05,0.360529199688706,-1.2203843960813852e-05
0.3613233168686371,3.1088320933055235e-05,0.3613233168686371,0.0001159588412349,0.3613233168686371,-2.173091824822322e-05,0.3613233168686371,-9.46841026264661e-06
0.3621174340485681,2.276231712127448e-06,0.3621174340485681,3.1899289424176615e-05,0.3621174340485681,-1.1263020510295257e-05,0.3621174340485681,-7.0393912127379484e-06
0.3629115512284993,-1.5373444801262924e-05,0.3629115512284993,0.000102962512013,0.3629115512284993,7.494479301035123e-06,0.3629115512284993,-3.9493110210165e-06
0.3637056684084303,-2.410106577357003e-05,0.3637056684084303,0.0002383932888971,0.3637056684084303,1.5749550302169418e-05,0.3637056684084303,-9.18648885506486e-07
0.3644997855883614,-1.9305016841985108e-05,0.3644997855883614,0.000222418930606,0.3644997855883614,-6.873479240022592e-06,0.3644997855883614,1.174631085281395e-06
0.3652939027682925,-3.967671318882521e-06,0.3652939027682925,7.103418068350112e-05,0.3652939027682925,-4.4325955966806536e-05,0.3652939027682925,-2.496314274825573e-06
0.3660880199482235,2.392597509417935e-05,0.3660880199482235,-2.79751588329742e-05,0.3660880199482235,-8.181305990958293e-05,0.3660880199482235,-7.709240364542777e-06
0.3668821371281546,4.871986919333554e-05,0.3668821371281546,-3.538086918924536e-05,0.3668821371281546,-0.0001012521184409,0.3668821371281546,-9.313368324476384e-06
0.3676762543080857,4.900722404046953e-05,0.3676762543080857,-5.803176410422933e-06,0.3676762543080857,-9.878792411350789e-05,0.3676762543080857,-5.03860353462645e-06
0.3684703714880167,3.1395990364966576e-05,0.3684703714880167,1.0729556110900626e-05,0.3684703714880167,-9.325672154572842e-05,0.3684703714880167,-7.313845789361519e-06
0.3692644886679478,1.4467297297843062e-05,0.3692644886679478,-1.7993111845442676e-05,0.3692644886679478,-7.888683073837252e-05,0.3692644886679478,-1.3752566645455858e-05
0.3700586058478789,2.873720821037468e-06,0.3700586058478789,-5.274418597050303e-05,0.3700586058478789,-2.655309688106436e-05,0.3700586058478789,-2.071421011309065e-05
0.3708527230278099,-1.59599365789852e-05,0.3708527230278099,-2.9859981119021597e-05,0.3708527230278099,4.806054240577885e-05,0.3708527230278099,-2.058714367487374e-05
0.371646840207741,-4.102052389895435e-05,0.371646840207741,5.23142738644097e-05,0.371646840207741,7.672965116485754e-05,0.371646840207741,-1.7011923412599878e-05
0.3724409573876721,-4.01840936638994e-05,0.3724409573876721,0.0001551039893551,0.3724409573876721,5.959620917976063e-05,0.3724409573876721,-1.8178831031722466e-05
0.3732350745676032,-2.037683851078419e-05,0.3732350745676032,0.00018429146538,0.3732350745676032,4.473999675954179e-05,0.3732350745676032,-1.2690242805104072e-05
0.3740291917475342,-5.934408356296097e-06,0.3740291917475342,0.0001118944867629,0.3740291917475342,4.354197760527522e-05,0.3740291917475342,-6.961397610851843e-06
0.3748233089274653,-1.1365390197536292e-05,0.3748233089274653,3.50005308761055e-05,0.3748233089274653,4.789678626733816e-05,0.3748233089274653,-3.663032889538519e-06
0.3756174261073964,-2.1209724009926152e-05,0.3756174261073964,5.968568427490108e-06,0.3756174261073964,5.007819237618476e-05,0.3756174261073964,-4.7100346817459765e-06
0.3764115432873274,-2.10205527715494e-05,0.3764115432873274,-4.8158607472142097e-05,0.3764115432873274,4.66324193945036e-05,0.3764115432873274,-5.53903e-06
0.3772056604672585,-1.328059959443686e-05,0.3772056604672585,-0.0001678563014881,0.3772056604672585,5.145026024333788e-05,0.3772056604672585,-5.736347142177848e-06
0.3779997776471896,-1.09102e-05,0.3779997776471896,-0.000359979614981,0.3779997776471896,4.4148564629966376e-05,0.3779997776471896,-8.559188745395712e-06
0.3787938948271206,-1.23305134640568e-05,0.3787938948271206,-0.0004651740915548,0.3787938948271206,6.34156215509259e-07,0.3787938948271206,-1.2646799840534308e-05
0.3795880120070517,-2.008539389439988e-05,0.3795880120070517,-0.0004020431881412,0.3795880120070517,-4.338714592074572e-05,0.3795880120070517,-1.42672e-05
0.3803821291869828,-2.9728844710740683e-05,0.3803821291869828,-0.0002095856821619,0.3803821291869828,-6.541954400239843e-05,0.3803821291869828,-1.2494545575312608e-05
0.3811762463669139,-3.084345784653886e-05,0.3811762463669139,-4.9583119113805146e-05,0.3811762463669139,-8.009537922361743e-05,0.3811762463669139,-5.3665305787671975e-06
0.3819703635468449,-3.308555383122682e-05,0.3819703635468449,8.803479181415467e-05,0.3819703635468449,-9.24999613966548e-05,0.3819703635468449,-4.273250038135887e-06
0.382764480726776,-3.13493842922566e-05,0.382764480726776,0.0002147698264699,0.382764480726776,-9.902093682394298e-05,0.382764480726776,-1.491633665140126e-05
0.3835585979067071,-2.4930973065246177e-05,0.3835585979067071,0.0002416007783802,0.3835585979067071,-9.70072603478438e-05,0.3835585979067071,-2.236321641383856e-05
0.3843527150866381,-1.8731846626308784e-05,0.3843527150866381,0.0002141876118323,0.3843527150866381,-8.682033616358457e-05,0.3843527150866381,-2.453508756631766e-05
0.3851468322665692,-7.537587560311309e-06,0.3851468322665692,0.0001560254724904,0.3851468322665692,-7.264394448729507e-05,0.3851468322665692,-2.7969910613114755e-05
0.3859409494465003,2.099263742974589e-06,0.3859409494465003,5.844017112433802e-05,0.3859409494465003,-5.970341368936062e-05,0.3859409494465003,-3.460365761699275e-05
0.3867350666264313,1.031449283810234e-05,0.3867350666264313,-7.49586418647159e-06,0.3867350666264313,-3.927604312101333e-05,0.3867350666264313,-4.007464956746164e-05
0.3875291838063624,1.689308202312273e-05,0.3875291838063624,2.8703042517719583e-05,0.3875291838063624,2.806886307835563e-06,0.3875291838063624,-3.961309898481859e-05
0.3883233009862935,1.7407077000423756e-05,0.3883233009862935,0.0001076419920875,0.3883233009862935,4.7542971009746425e-05,0.3883233009862935,-3.401330699618618e-05
0.3891174181662246,1.825619543742277e-05,0.3891174181662246,7.757346554586309e-05,0.3891174181662246,6.85540839858662e-05,0.3891174181662246,-2.1334306888979326e-05
0.3899115353461556,1.4444876402690348e-05,0.3899115353461556,-4.214080460596244e-05,0.3899115353461556,8.565258734967524e-05,0.3899115353461556,-6.634903604178226e-06
0.3907056525260867,4.523716099420984e-06,0.3907056525260867,-0.0001540048983167,0.3907056525260867,9.734227153771312e-05,0.3907056525260867,3.454950044126938e-06
0.3914997697060178,-7.717420200154426e-06,0.3914997697060178,-0.0002316124121434,0.3914997697060178,9.41655567080854e-05,0.3914997697060178,7.216773447201208e-06
0.3922938868859488,-1.5412026355324892e-05,0.3922938868859488,-0.0002491569744197,0.3922938868859488,8.118520193691183e-05,0.3922938868859488,4.652421630031319e-06
0.3930880040658799,-6.968412106132239e-06,0.3930880040658799,-0.0002238939151616,0.3930880040658799,7.06193628790419e-05,0.3930880040658799,1.018988842041501e-06
0.393882121245811,4.01681819112906e-06,0.393882121245811,-0.0001655052896597,0.393882121245811,6.431300539210383e-05,0.393882121245811,-4.64476068607511e-07
0.394676238425742,4.099011205823144e-06,0.394676238425742,-7.52580147505016e-05,0.394676238425742,5.4587246395479016e-05,0.394676238425742,9.364607477762484e-07
0.3954703556056732,2.23229081784186e-06,0.3954703556056732,7.870953999511639e-06,0.3954703556056732,4.274811538325631e-05,0.3954703556056732,3.9182618828129744e-06
0.3962644727856042,-1.4498960665622097e-06,0.3962644727856042,4.17945e-05,0.3962644727856042,2.9179668136723007e-05,0.3962644727856042,5.933341107100569e-06
0.3970585899655353,-7.691028413984176e-06,0.3970585899655353,2.9724736878961904e-05,0.3970585899655353,1.5985977253389872e-05,0.3970585899655353,9.744794966972584e-06
0.3978527071454664,-1.1778564634262903e-05,0.3978527071454664,-5.520958632916917e-06,0.3978527071454664,1.5905446951394356e-05,0.3978527071454664,1.475961158565726e-05
0.3986468243253974,-1.1512894043786436e-05,0.3986468243253974,-4.558255589350468e-05,0.3986468243253974,1.565182347011794e-05,0.3986468243253974,2.022975296812821e-05
0.3994409415053285,-1.0832400464645027e-05,0.3994409415053285,-8.863430388352582e-05,0.3994409415053285,9.786400407273936e-06,0.3994409415053285,1.7848249340232444e-05
0.4002350586852595,-6.232928053288661e-06,0.4002350586852595,-9.318129977888714e-05,0.4002350586852595,4.810927840073275e-06,0.4002350586852595,1.3405535202198248e-06
0.4010291758651906,-1.4224474056078014e-05,0.4010291758651906,-6.714958153527023e-05,0.4010291758651906,-4.5503998404510695e-06,0.4010291758651906,-1.8105586769700635e-05
0.4018232930451217,-3.308700392851753e-05,0.4018232930451217,-3.57638054149028e-05,0.4018232930451217,-1.150302779500762e-05,0.4018232930451217,-2.7260831118003046e-05
0.4026174102250527,-4.3296366157318e-05,0.4026174102250527,-5.231872758007078e-06,0.4026174102250527,-1.4859779408818154e-05,0.4026174102250527,-2.792210957351811e-05
0.4034115274049838,-2.925518979721321e-05,0.4034115274049838,-4.98714370865128e-06,0.4034115274049838,-8.16540399701822e-06,0.4034115274049838,-2.589812344212397e-05
0.4042056445849149,-1.973992642647864e-05,0.4042056445849149,-3.660892601509502e-05,0.4042056445849149,4.411191183378426e-06,0.4042056445849149,-2.7200382894346766e-05
0.404999761764846,1.408599942337163e-05,0.404999761764846,-2.5688450677301524e-05,0.404999761764846,2.064035136000768e-05,0.404999761764846,-3.3735812165336145e-05
0.4057938789447771,5.960775805846071e-05,0.4057938789447771,1.8557962603825157e-05,0.4057938789447771,2.754662591117262e-05,0.4057938789447771,-3.1844040442809944e-05
0.4065879961247081,8.010599184203947e-05,0.4065879961247081,3.499810808064264e-05,0.4065879961247081,2.1697373901733687e-05,0.4065879961247081,-2.6987631202913533e-05
0.4073821133046392,5.777284437611168e-05,0.4073821133046392,8.330264363924899e-06,0.4073821133046392,1.3540836852314636e-05,0.4073821133046392,-2.0707735796620247e-05
0.4081762304845703,1.327074621331168e-05,0.4081762304845703,-1.9323934701484975e-05,0.4081762304845703,9.47021231249749e-06,0.4081762304845703,-1.7941073936266387e-05
0.4089703476645013,-2.594140653555e-05,0.4089703476645013,-3.921722497516807e-05,0.4089703476645013,5.481332441283244e-06,0.4089703476645013,-1.776320357742634e-05
0.4097644648444324,-5.4131980028125954e-05,0.4097644648444324,-5.050197501162914e-05,0.4097644648444324,4.018243941098543e-06,0.4097644648444324,-1.118955369500902e-05
0.4105585820243635,-6.576676580125992e-05,0.4105585820243635,-5.283392931396831e-05,0.4105585820243635,5.163741980984216e-06,0.4105585820243635,7.79061578743811e-07
0.4113526992042945,-5.55021643611997e-05,0.4113526992042945,-4.772122422193288e-05,0.4113526992042945,2.005238487785472e-06,0.4113526992042945,5.104859148895977e-06
0.4121468163842256,-3.702388534171768e-05,0.4121468163842256,-4.51514e-05,0.4121468163842256,-1.1139647142557262e-06,0.4121468163842256,-2.44231281477143e-07
0.4129409335641567,-2.0786757043281427e-05,0.4129409335641567,-4.026416440820545e-05,0.4129409335641567,-5.441808521640713e-06,0.4129409335641567,-5.6168066034709966e-06
0.4137350507440878,-1.8008902896240756e-05,0.4137350507440878,-3.479567664046331e-05,0.4137350507440878,-3.347549508426848e-06,0.4137350507440878,-9.44674537958748e-06
0.4145291679240188,-2.2954746014523316e-05,0.4145291679240188,-3.2424557335707336e-05,0.4145291679240188,-4.827772249726397e-06,0.4145291679240188,-1.616182674917919e-05
0.4153232851039499,-2.836684617083811e-05,0.4153232851039499,-2.172121437465192e-05,0.4153232851039499,-3.840569413036935e-06,0.4153232851039499,-2.240322175377984e-05
0.416117402283881,-4.30121406836308e-05,0.416117402283881,-5.978565815630088e-06,0.416117402283881,-1.8857560286046112e-06,0.416117402283881,-2.1967916487392564e-05
0.416911519463812,-8.259125534656081e-05,0.416911519463812,4.216484288170084e-06,0.416911519463812,-3.120021703227639e-06,0.416911519463812,-1.379338549671554e-05
0.4177056366437431,-8.01101876366475e-05,0.4177056366437431,2.4640939397347577e-05,0.4177056366437431,-2.872536952183733e-06,0.4177056366437431,-6.66543736478593e-06
0.4184997538236742,-3.1404647441364e-05,0.4184997538236742,7.56829622740487e-05,0.4184997538236742,-6.880578610973903e-06,0.4184997538236742,-2.8543267049378538e-06
0.4192938710036052,1.6676572075756495e-05,0.4192938710036052,5.60634162943867e-05,0.4192938710036052,-7.060186319024366e-07,0.4192938710036052,1.054357821695172e-06
0.4200879881835363,4.989929669423738e-05,0.4200879881835363,-1.8880583917003924e-05,0.4200879881835363,1.90870785554081e-05,0.4200879881835363,1.1389342832326882e-06
0.4208821053634674,4.442400080255296e-05,0.4208821053634674,-8.001298974556574e-05,0.4208821053634674,5.178100210622148e-05,0.4208821053634674,-5.258233490436474e-06
0.4216762225433985,1.7383483694593404e-05,0.4216762225433985,-0.0001022974133878,0.4216762225433985,8.058086679912593e-05,0.4216762225433985,-1.1537420861804824e-05
0.4224703397233295,1.5654209124384873e-06,0.4224703397233295,-6.539738771528654e-05,0.4224703397233295,9.295513654872137e-05,0.4224703397233295,-2.1134903193079976e-05
0.4232644569032606,-1.3631732495792876e-05,0.4232644569032606,-4.8368725182245066e-05,0.4232644569032606,0.0001026905552576,0.4232644569032606,-2.633200499935275e-05
0.4240585740831917,-2.5364110017700692e-05,0.4240585740831917,-6.598732501514296e-05,0.4240585740831917,0.0001130207918086,0.4240585740831917,-2.862300102991352e-05
0.4248526912631227,-6.034225869440863e-05,0.4248526912631227,-9.921037323874564e-05,0.4248526912631227,9.312531772177588e-05,0.4248526912631227,-2.8712312793586418e-05
0.4256468084430538,-0.0001053027860687,0.4256468084430538,-8.921026333690771e-05,0.4256468084430538,4.607832763696831e-05,0.4256468084430538,-3.373390516917007e-05
0.4264409256229849,-6.499509510811858e-05,0.4264409256229849,-4.586286573887793e-05,0.4264409256229849,1.0365922561755007e-05,0.4264409256229849,-3.966366862405123e-05
0.4272350428029159,2.1639128276234392e-05,0.4272350428029159,-3.251385965726826e-05,0.4272350428029159,-4.516805554403269e-06,0.4272350428029159,-3.5714193237100506e-05
0.428029159982847,8.568462094071688e-05,0.428029159982847,-5.9447371463550974e-05,0.428029159982847,-2.24095511826163e-05,0.428029159982847,-3.31061806331181e-05
0.4288232771627781,9.054634544728528e-05,0.4288232771627781,-9.804793375593484e-05,0.4288232771627781,-4.369167790980725e-05,0.4288232771627781,-2.868227197152848e-05
0.4296173943427092,1.3959836628604888e-05,0.4296173943427092,-9.76467752794972e-05,0.4296173943427092,-7.442064956928841e-05,0.4296173943427092,-2.4357195854565056e-05
0.4304115115226402,-4.2800882525836776e-05,0.4304115115226402,-9.266283534721125e-05,0.4304115115226402,-9.838880284321877e-05,0.4304115115226402,-1.90066232655845e-05
0.4312056287025713,-3.141523491939811e-05,0.4312056287025713,-0.0001393509640124,0.4312056287025713,-9.290017734899088e-05,0.4312056287025713,-6.430093452818335e-06
0.4319997458825024,1.3245821159622516e-05,0.4319997458825024,-0.0002787458128834,0.4319997458825024,-0.0001035564097408,0.4319997458825024,5.535734882402548e-06
0.4327938630624334,4.667853244425822e-05,0.4327938630624334,-0.000285276906912,0.4327938630624334,-0.0001394476487927,0.4327938630624334,1.03764919572426e-05
0.4335879802423645,5.856142293159373e-05,0.4335879802423645,-8.772124803023723e-06,0.4335879802423645,-0.0001549335858566,0.4335879802423645,8.12871079765196e-06
0.4343820974222956,4.832807253294903e-05,0.4343820974222956,0.0003094435339849,0.4343820974222956,-0.00014480207445,0.4343820974222956,4.898788029405941e-06
0.4351762146022266,2.3508080487168917e-05,0.4351762146022266,0.0004134694932498,0.4351762146022266,-0.0001073717770717,0.4351762146022266,2.756288077845629e-06
0.4359703317821577,2.3256573173248783e-06,0.4359703317821577,0.0003456143405265,0.4359703317821577,-7.593188164453753e-05,0.4359703317821577,1.6496779016929613e-06
0.4367644489620888,1.068970613586324e-07,0.4367644489620888,0.0002867789285833,0.4367644489620888,-4.513595761308955e-05,0.4367644489620888,8.900394061096178e-08
0.4375585661420199,1.1086465471519034e-05,0.4375585661420199,0.0002692876233582,0.4375585661420199,-4.311650144036444e-05,0.4375585661420199,2.0434023202258213e-06
0.438352683321951,3.257678906968253e-05,0.438352683321951,0.0002516573869822,0.438352683321951,-6.680796767742946e-05,0.438352683321951,4.186140939286932e-06
0.439146800501882,4.8603700918767656e-05,0.439146800501882,0.0002146843414538,0.439146800501882,-8.953601321703642e-05,0.439146800501882,4.7684367891690215e-06
0.4399409176818131,5.0924664227375375e-05,0.4399409176818131,0.0001281900904622,0.4399409176818131,-9.433489411403956e-05,0.4399409176818131,5.125598681422398e-06
0.4407350348617442,3.3292912389294554e-05,0.4407350348617442,3.782457401937608e-05,0.4407350348617442,-6.188406528929103e-05,0.4407350348617442,3.0910897662790278e-06
0.4415291520416752,9.43297633398579e-06,0.4415291520416752,-3.784274379992972e-05,0.4415291520416752,-2.529061158291156e-05,0.4415291520416752,2.676081955729e-07
0.4423232692216063,-1.063460484242727e-05,0.4423232692216063,-0.0001026843518241,0.4423232692216063,2.874987438249232e-06,0.4423232692216063,-5.795982642806752e-06
0.4431173864015373,-3.3938246991784744e-05,0.4431173864015373,-0.0001073549518469,0.4431173864015373,4.525507714208684e-05,0.4431173864015373,-1.1226753722797377e-05
0.4439115035814684,-7.441517701197697e-05,0.4439115035814684,-3.691352886432196e-05,0.4439115035814684,5.0779889846735776e-05,0.4439115035814684,-1.6379967463850904e-05
0.4447056207613995,-9.602966762717276e-05,0.4447056207613995,-5.0201230637480925e-05,0.4447056207613995,2.8783578363780796e-05,0.4447056207613995,-1.6835148996097667e-05
0.4454997379413306,-8.409901300147186e-05,0.4454997379413306,-8.811191623496649e-05,0.4454997379413306,2.467304486613452e-05,0.4454997379413306,-1.3932066350399108e-05
0.4462938551212617,-4.310026061226021e-05,0.4462938551212617,-8.114171532845676e-05,0.4462938551212617,5.747165889652455e-05,0.4462938551212617,-1.684294135847315e-05
0.4470879723011927,7.16591692124687e-06,0.4470879723011927,-0.0001013874630479,0.4470879723011927,9.257464201668854e-05,0.4470879723011927,-1.1311984281179132e-05
0.4478820894811238,4.793875547770194e-05,0.4478820894811238,-0.000102655646904,0.4478820894811238,0.0001013541780297,0.4478820894811238,-5.180021762604802e-06
0.4486762066610549,4.287489368369473e-05,0.4486762066610549,-0.0001009962721583,0.4486762066610549,0.0001308465853698,0.4486762066610549,-9.485601263261054e-06
0.4494703238409859,8.53596979500355e-06,0.4494703238409859,-0.0001181982523473,0.4494703238409859,0.000149554,0.4494703238409859,-1.4984225783185114e-05
0.450264441020917,-1.019812611880783e-05,0.450264441020917,-0.0001479902191479,0.450264441020917,0.0001398028057475,0.450264441020917,-2.4256736934655185e-05
0.4510585582008481,-9.72589907824576e-06,0.4510585582008481,-0.000147060631274,0.4510585582008481,0.0001204099616031,0.4510585582008481,-3.026183274870601e-05
0.4518526753807791,3.580339798223426e-06,0.4518526753807791,-9.21366196276427e-05,0.4518526753807791,8.558421701396017e-05,0.4518526753807791,-2.97093e-05
0.4526467925607102,1.065466521456675e-05,0.4526467925607102,-7.054543685222406e-05,0.4526467925607102,4.528366463441914e-05,0.4526467925607102,-3.266948129256626e-05
0.4534409097406413,5.719304384362182e-06,0.4534409097406413,-0.0001338116187878,0.4534409097406413,2.892988580229181e-05,0.4534409097406413,-3.823778967641527e-05
0.4542350269205724,-4.6333750099265616e-06,0.4542350269205724,-0.0002122192826327,0.4542350269205724,4.169247665516333e-05,0.4542350269205724,-4.04517e-05
0.4550291441005034,-3.9061577794845766e-05,0.4550291441005034,-0.000247360093748,0.4550291441005034,1.9192063210182147e-05,0.4550291441005034,-3.526920531018348e-05
0.4558232612804345,-7.141597400606808e-05,0.4558232612804345,-0.0002110355408495,0.4558232612804345,-1.922451780024395e-05,0.4558232612804345,-3.500169896656347e-05
0.4566173784603656,-0.0001194462231608,0.4566173784603656,-7.42429581573343e-05,0.4566173784603656,-3.523926804060523e-05,0.4566173784603656,-3.865490031706274e-05
0.4574114956402966,-0.0001364525354509,0.4574114956402966,8.869880906933751e-05,0.4574114956402966,-2.4180865008669875e-05,0.4574114956402966,-3.750946137775748e-05
0.4582056128202277,-6.46899270483991e-05,0.4582056128202277,0.0002182419248123,0.4582056128202277,-1.4672074357525938e-05,0.4582056128202277,-3.60876e-05
0.4589997300001588,2.129035026668745e-05,0.4589997300001588,0.0002113373686614,0.4589997300001588,-1.5106010991645091e-05,0.4589997300001588,-3.306805053759708e-05
0.4597938471800898,6.391694812101424e-05,0.4597938471800898,0.0001341445294039,0.4597938471800898,-8.226995743905636e-06,0.4597938471800898,-2.7518777437030385e-05
0.4605879643600209,7.1479976837539e-05,0.4605879643600209,7.671110543410107e-05,0.4605879643600209,-1.2876140636931078e-05,0.4605879643600209,-2.5878736052346187e-05
0.461382081539952,5.441016308731647e-05,0.461382081539952,-1.609686852666128e-05,0.461382081539952,-3.127486074026355e-05,0.461382081539952,-2.268296456872876e-05
0.4621761987198831,3.347551167539384e-05,0.4621761987198831,-6.567704921011465e-05,0.4621761987198831,-4.821086399644808e-05,0.4621761987198831,-2.003374890501125e-05
0.4629703158998141,1.591210558171749e-05,0.4629703158998141,1.2464279303721955e-05,0.4629703158998141,-4.53312162965062e-05,0.4629703158998141,-2.2007432325204344e-05
0.4637644330797452,8.67100451268261e-06,0.4637644330797452,9.895897741047832e-05,0.4637644330797452,-7.0092440482602046e-06,0.4637644330797452,-1.5732184243431853e-05
0.4645585502596763,1.8865672960916263e-06,0.4645585502596763,8.832494791554173e-05,0.4645585502596763,6.46744564671527e-06,0.4645585502596763,-3.249777060303529e-06
0.4653526674396073,-4.23402096250236e-06,0.4653526674396073,3.051499822869184e-05,0.4653526674396073,-4.349493244585066e-05,0.4653526674396073,-7.988192018232516e-07
0.4661467846195384,-1.7193778127837077e-07,0.4661467846195384,-1.777793859511311e-05,0.4661467846195384,-0.0001040575295374,0.4661467846195384,-6.26750031251444e-06
0.4669409017994695,6.565541363617023e-06,0.4669409017994695,-8.99602398079235e-06,0.4669409017994695,-0.000133104,0.4669409017994695,-5.04378696336586e-06
0.4677350189794005,8.164168276253309e-06,0.4677350189794005,3.682046057735104e-06,0.4677350189794005,-0.0001269493027938,0.4677350189794005,8.022455153290937e-06
0.4685291361593316,1.2193076077523228e-05,0.4685291361593316,-2.1334317246429907e-05,0.4685291361593316,-0.0001051486327731,0.4685291361593316,1.19173e-05
0.4693232533392627,1.6577670879726312e-05,0.4693232533392627,-7.181032850831732e-05,0.4693232533392627,-6.904416687152913e-05,0.4693232533392627,1.19173e-05
0.4701173705191938,1.20346792131889e-05,0.4701173705191938,-0.000115513734969,0.4701173705191938,-1.619687256939361e-05,0.4701173705191938,1.013973376395667e-05
0.4709114876991248,-2.346674927216663e-05,0.4709114876991248,-0.0001493373332747,0.4709114876991248,2.929302680306507e-05,0.4709114876991248,2.1825542862498168e-06
0.4717056048790559,-5.711511764596975e-05,0.4717056048790559,-0.0002050048588446,0.4717056048790559,3.243866334996613e-05,0.4717056048790559,-6.821080009766869e-06
0.472499722058987,-6.529219865066877e-05,0.472499722058987,-0.0002640088422582,0.472499722058987,1.5279305562569436e-05,0.472499722058987,-1.3258097751114627e-05
0.473293839238918,-3.845691349160891e-05,0.473293839238918,-0.0002192113899527,0.473293839238918,2.286969898644273e-05,0.473293839238918,-1.446524244083961e-05
0.4740879564188491,3.739534132279901e-06,0.4740879564188491,-5.591928671628451e-05,0.4740879564188491,4.007652215501504e-05,0.4740879564188491,-1.406039214509155e-05
0.4748820735987802,2.8952064745500743e-05,0.4748820735987802,0.0001253809150237,0.4748820735987802,5.446127895358571e-05,0.4748820735987802,-1.4095425836815882e-05
0.4756761907787112,2.8433183263002782e-05,0.4756761907787112,0.0001942206309894,0.4756761907787112,6.433131754480546e-05,0.4756761907787112,-1.7721281497110495e-05
0.4764703079586423,2.0192250115705964e-06,0.4764703079586423,0.0001230333601759,0.4764703079586423,6.345904989812464e-05,0.4764703079586423,-1.6144723639396093e-05
0.4772644251385734,-1.4167985100981316e-05,0.4772644251385734,4.968458860890725e-05,0.4772644251385734,5.315247592613702e-05,0.4772644251385734,-1.42672e-05
0.4780585423185045,-1.5254477325423546e-05,0.4780585423185045,-5.502148735052384e-06,0.4780585423185045,4.371086619003971e-05,0.4780585423185045,-1.5530709301694184e-05
0.4788526594984356,-1.9577710844351408e-05,0.4788526594984356,-4.7831962218924754e-05,0.4788526594984356,4.3473e-05,0.4788526594984356,-1.4968912248845969e-05
0.4796467766783666,-2.6140188202700884e-05,0.4796467766783666,-3.911236242843197e-05,0.4796467766783666,3.925032945793573e-05,0.4796467766783666,-1.030001395773186e-05
0.4804408938582977,-3.7524613904957206e-05,0.4804408938582977,4.2230772605950114e-07,0.4804408938582977,3.766052331918027e-05,0.4804408938582977,-5.938602328278954e-06
0.4812350110382288,-4.307682731259015e-05,0.4812350110382288,3.0112601237699485e-05,0.4812350110382288,4.799130554055195e-05,0.4812350110382288,2.3363190186048994e-06
0.4820291282181598,-3.843953169910631e-05,0.4820291282181598,3.470549314640157e-05,0.4820291282181598,4.687091152566015e-05,0.4820291282181598,7.76002161262017e-06
0.4828232453980909,-3.107187003730104e-05,0.4828232453980909,3.2810334691772634e-05,0.4828232453980909,3.249337635032855e-05,0.4828232453980909,8.975047421716495e-06
0.483617362578022,-2.77144022430582e-05,0.483617362578022,2.912246631922562e-07,0.483617362578022,1.3693151422847737e-05,0.483617362578022,1.579836842938491e-05
0.484411479757953,-2.1376069482773515e-05,0.484411479757953,-6.146322967610695e-05,0.484411479757953,1.5332860086348372e-05,0.484411479757953,2.1119465258613244e-05
0.4852055969378841,-3.941949438796812e-05,0.4852055969378841,-9.839704348628762e-05,0.4852055969378841,2.5580226823146795e-05,0.4852055969378841,1.600651570619323e-05
0.4859997141178152,-5.119317621760135e-05,0.4859997141178152,-0.0001042336303912,0.4859997141178152,3.742545730560814e-05,0.4859997141178152,5.543560784788111e-06
0.4867938312977463,-2.194769552109796e-05,0.4867938312977463,-0.000101429800771,0.4867938312977463,5.487922743676873e-05,0.4867938312977463,-7.113533687790805e-06
0.4875879484776773,3.692003649221702e-06,0.4875879484776773,-8.750101844585529e-05,0.4875879484776773,5.083543187262733e-05,0.4875879484776773,-1.0496642555120811e-05
0.4883820656576084,1.8100301207057244e-05,0.4883820656576084,-7.047226023602263e-05,0.4883820656576084,1.4989553762589198e-05,0.4883820656576084,-8.599341916686326e-06
0.4891761828375395,3.820686891412949e-05,0.4891761828375395,-6.053448652716005e-05,0.4891761828375395,-1.3178625111790103e-05,0.4891761828375395,-1.0552239698591606e-05
0.4899703000174705,2.6557896162631804e-06,0.4899703000174705,-9.607794701512396e-05,0.4899703000174705,-1.111176918646374e-05,0.4899703000174705,-1.738431149924597e-05
0.4907644171974016,-5.6168271755391886e-05,0.4907644171974016,-0.0002155400104233,0.4907644171974016,-3.546651147882134e-06,0.4907644171974016,-1.8613705598325458e-05
0.4915585343773327,-4.724767948842533e-05,0.4915585343773327,-0.0002959229860638,0.4915585343773327,3.2968046121622e-06,0.4915585343773327,-1.0536226113852106e-05
0.4923526515572637,-6.502364360932884e-06,0.4923526515572637,-0.0002394828911793,0.4923526515572637,2.288843568977069e-05,0.4923526515572637,-1.2290661302167658e-05
0.4931467687371948,5.164554072697472e-05,0.4931467687371948,-0.000126743549081,0.4931467687371948,3.640859074940646e-05,0.4931467687371948,-1.8333582775178062e-05
0.4939408859171259,8.880597237469526e-05,0.4939408859171259,-1.1231849009822931e-05,0.4939408859171259,1.2328428384849467e-05,0.4939408859171259,-2.0387439590358428e-05
0.494735003097057,8.885706207576179e-05,0.494735003097057,5.292639416085239e-05,0.494735003097057,-1.003428221238847e-05,0.494735003097057,-2.2293711156760147e-05
0.495529120276988,6.081777768427885e-05,0.495529120276988,0.000130630651741,0.495529120276988,-2.251967031279129e-05,0.495529120276988,-2.3883502844336822e-05
0.4963232374569191,2.8267682638045343e-05,0.4963232374569191,0.0001521159907961,0.4963232374569191,-2.228440483324589e-05,0.4963232374569191,-2.6707756407138524e-05
0.4971173546368502,-3.94165849369657e-06,0.4971173546368502,7.183349952328522e-05,0.4971173546368502,-1.748575213343431e-05,0.4971173546368502,-2.9551498293252552e-05
0.4979114718167812,-8.975831594768119e-06,0.4979114718167812,-6.039629642242394e-05,0.4979114718167812,1.5470168168337049e-06,0.4979114718167812,-3.0499016033492117e-05
0.4987055889967123,1.7300860345133772e-05,0.4987055889967123,-0.0001443335478058,0.4987055889967123,8.042033714096591e-05,0.4987055889967123,-2.9631707122237465e-05
0.4994997061766434,4.581348674537944e-05,0.4994997061766434,-4.252044420168202e-05,0.4994997061766434,0.0001267192269302,0.4994997061766434,-1.9978544929473423e-05
0.5002938233565745,5.239916537289439e-05,0.5002938233565745,0.0001357033329217,0.5002938233565745,5.910917630520792e-05,0.5002938233565745,-1.122912686447194e-05
0.5010879405365055,3.257664264849456e-05,0.5010879405365055,0.0002417480277381,0.5010879405365055,-2.591108035092473e-05,0.5010879405365055,-7.397533614571993e-06
0.5018820577164366,-4.211396900847081e-06,0.5018820577164366,0.0001985894538889,0.5018820577164366,-6.76432e-05,0.5018820577164366,-4.930147876823602e-06
0.5026761748963677,-4.3377153772827386e-05,0.5026761748963677,0.0001084803225047,0.5026761748963677,-6.515897683067315e-05,0.5026761748963677,1.4250695139856583e-06
0.5034702920762988,-0.0001035811366081,0.5034702920762988,2.0103919013682812e-05,0.5034702920762988,-6.998552201875669e-05,0.5034702920762988,8.478638292446432e-06
0.5042644092562298,-0.0001029252257522,0.5042644092562298,2.1712524014148338e-07,0.5042644092562298,-9.157122469271876e-05,0.5042644092562298,8.20709466324578e-06
0.5050585264361609,-4.686931193104672e-05,0.5050585264361609,5.2396850580118455e-05,0.5050585264361609,-9.732353898422709e-05,0.5050585264361609,-1.862030501626234e-07
0.505852643616092,1.113288771621784e-05,0.505852643616092,9.228820766353691e-05,0.505852643616092,-7.983265057740695e-05,0.505852643616092,-7.668941780388304e-06
0.506646760796023,3.612554837709578e-05,0.506646760796023,6.957532647926169e-05,0.506646760796023,-5.29177869952952e-05,0.506646760796023,-1.58843978361277e-05
0.507440877975954,2.9998451690903782e-05,0.507440877975954,1.3148174773884748e-05,0.507440877975954,2.1442975745133416e-05,0.507440877975954,-1.5022045860514072e-05
0.5082349951558852,6.755199608211686e-06,0.5082349951558852,-8.27328278074446e-05,0.5082349951558852,3.8805037402306186e-05,0.5082349951558852,-8.34567506780374e-06
0.5090291123358163,-1.793539160852699e-05,0.5090291123358163,-0.0001720816948869,0.5090291123358163,-3.328415150864492e-05,0.5090291123358163,-8.144579437649998e-06
0.5098232295157473,-3.5396336386735176e-05,0.5098232295157473,-0.0001718892085591,0.5098232295157473,-0.0001114610215599,0.5098232295157473,-1.5629651317675322e-05
0.5106173466956784,-5.676442840717184e-05,0.5106173466956784,-7.875991877186037e-05,0.5106173466956784,-0.0001685929986438,0.5106173466956784,-2.9098063920584725e-05
0.5114114638756094,-7.961851066766338e-05,0.5114114638756094,3.731102350612395e-05,0.5114114638756094,-0.0001712180798541,0.5114114638756094,-3.9582072405749055e-05
0.5122055810555405,-8.249603766035799e-05,0.5122055810555405,9.270343886587376e-05,0.5122055810555405,-0.0001340617223388,0.5122055810555405,-3.934825121245408e-05
0.5129996982354716,-6.194618235122596e-05,0.5129996982354716,0.0001012126098574,0.5129996982354716,-0.0001029011299958,0.5129996982354716,-2.837084774043658e-05
0.5137938154154027,-3.54290885739964e-05,0.5137938154154027,0.0001682004911776,0.5137938154154027,-9.154340680867888e-05,0.5137938154154027,-2.85041231610782e-05
0.5145879325953338,-2.7646284374376063e-05,0.5145879325953338,0.0002242603384677,0.5145879325953338,-7.920144375041595e-05,0.5145879325953338,-2.2252720748793134e-05
0.5153820497752648,-4.486250666682024e-05,0.5153820497752648,0.0001642387560546,0.5153820497752648,-7.221448657329607e-05,0.5153820497752648,-9.38035473494693e-06
0.5161761669551959,-3.7385351223906406e-05,0.5161761669551959,4.3513676418572936e-05,0.5161761669551959,-4.7224790805117794e-05,0.5161761669551959,3.2191559997741794e-06
0.5169702841351269,3.71472091454037e-06,0.5169702841351269,-4.7846071604078375e-05,0.5169702841351269,1.338221047206846e-05,0.5169702841351269,1.57030910326302e-05
0.5177644013150581,4.524472387399878e-05,0.5177644013150581,-0.0001107756028096,0.5177644013150581,8.82339441368384e-05,0.5177644013150581,2.2104988571928054e-05
0.5185585184949891,5.226061962085256e-05,0.5185585184949891,-0.0001726750785342,0.5185585184949891,0.0001575616413237,0.5185585184949891,2.704279799286805e-05
0.5193526356749202,4.142425693244655e-05,0.5193526356749202,-0.0001918230254201,0.5193526356749202,0.0001788578205115,0.5193526356749202,2.013631517821609e-05
0.5201467528548512,2.1325789334589983e-05,0.5201467528548512,-0.0001377764147276,0.5201467528548512,0.0001627332677831,0.5201467528548512,7.694870088603823e-06
0.5209408700347823,3.775394636175943e-06,0.5209408700347823,-5.192682916386981e-05,0.5209408700347823,0.0001805030286101,0.5209408700347823,2.2655615453919807e-06
0.5217349872147133,-1.625375137233005e-05,0.5217349872147133,-0.0001092810855083,0.5217349872147133,0.0003162263636271,0.5217349872147133,-8.770413553544134e-06
0.5225291043946444,-1.5948023455373627e-05,0.5225291043946444,-0.0002781736612622,0.5225291043946444,0.0004061379345813,0.5225291043946444,-2.2835189729773207e-05
0.5233232215745756,-1.5900654544401485e-06,0.5233232215745756,-0.0003176384183601,0.5233232215745756,0.0003890068961533,0.5233232215745756,-2.7932025172403647e-05
0.5241173387545066,2.657126954853741e-05,0.5241173387545066,-0.0002238951275832,0.5241173387545066,0.0002626949631867,0.5241173387545066,-3.259275728742908e-05
0.5249114559344377,4.927719729325866e-05,0.5249114559344377,-0.000193056565372,0.5249114559344377,0.0001009507928362,0.5249114559344377,-3.648243508469127e-05
0.5257055731143687,5.09803785874552e-05,0.5257055731143687,-0.0001914356656947,0.5257055731143687,-2.301409493265472e-05,0.5257055731143687,-3.612750906778329e-05
0.5264996902942998,2.267432504391444e-05,0.5264996902942998,-9.37086784090868e-05,0.5264996902942998,-9.850095031269953e-05,0.5264996902942998,-3.6422630676801146e-05
0.5272938074742308,-2.9127385071905583e-05,0.5272938074742308,3.518560434508037e-05,0.5272938074742308,-0.0001675952680349,0.5272938074742308,-4.127737017030419e-05
0.528087924654162,-0.0001159745390628,0.528087924654162,0.0001036989907598,0.528087924654162,-0.0002273423000533,0.528087924654162,-4.406653521130935e-05
0.528882041834093,-0.0002341321448805,0.528882041834093,6.973297695156668e-05,0.528882041834093,-0.0002745331774116,0.528882041834093,-4.187252943529051e-05
0.5296761590140241,-0.0002310315435889,0.5296761590140241,3.69757666189644e-05,0.5296761590140241,-0.0003137250950743,0.5296761590140241,-4.191385501713351e-05
0.5304702761939551,-0.0001040429924737,0.5304702761939551,5.789297151136253e-05,0.5304702761939551,-0.0003216522435423,0.5304702761939551,-3.461090417092199e-05
0.5312643933738862,5.492502968136677e-05,0.5312643933738862,8.356651042207851e-05,0.5312643933738862,-0.0002748033509891,0.5312643933738862,-2.994882322190944e-05
0.5320585105538173,0.0001346970808522,0.5320585105538173,0.0001452569119772,0.5320585105538173,-0.0001575921701171,0.5320585105538173,-1.640293365302996e-05
0.5328526277337483,0.0001314669263316,0.5328526277337483,0.0002079852809502,0.5328526277337483,-6.894700817510204e-05,0.5328526277337483,-3.446767322969416e-06
0.5336467449136795,0.0001301255484597,0.5336467449136795,0.000219814891427,0.5336467449136795,-2.5510123852903287e-05,0.5336467449136795,-1.2759164592795825e-05
0.5344408620936105,0.000120964015739,0.5344408620936105,0.000197027764674,0.5344408620936105,5.03548e-07,0.5344408620936105,-2.2129978791308933e-05
0.5352349792735416,0.0001157877333987,0.5352349792735416,0.000177838360255,0.5352349792735416,-5.651049467238823e-06,0.5352349792735416,-1.4094590986200748e-05
0.5360290964534726,0.0001149965199135,0.5360290964534726,0.000186529962254,0.5360290964534726,-1.3200072619636023e-06,0.5360290964534726,-8.028114702406946e-07
0.5368232136334037,0.0001067028698955,0.5368232136334037,0.0001170213590632,0.5368232136334037,3.885100028681861e-05,0.5368232136334037,5.005867213805138e-06
0.5376173308133347,8.482196377521954e-05,0.5376173308133347,-5.795841533129005e-05,0.5376173308133347,8.032267795585135e-05,0.5376173308133347,5.460094748543915e-06
0.5384114479932659,5.821661569707067e-05,0.5384114479932659,-0.000197031977641,0.5384114479932659,0.000100127011846,0.5384114479932659,3.624041405946492e-06
0.539205565173197,3.454316053094858e-05,0.539205565173197,-0.0002531850564202,0.539205565173197,8.374533719412632e-05,0.539205565173197,1.7171918441552545e-06
0.539999682353128,9.913511660123207e-06,0.539999682353128,-0.0002495943624603,0.539999682353128,4.684568909447672e-05,0.539999682353128,7.046924072303994e-06
0.5407937995330591,-1.595161389015537e-05,0.5407937995330591,-0.0002918711338236,0.5407937995330591,8.185491363587309e-06,0.5407937995330591,8.956506591405747e-06
0.5415879167129901,-3.83460749793613e-05,0.5415879167129901,-0.0002763472640373,0.5415879167129901,-1.759281588021815e-05,0.5415879167129901,2.8390888816816373e-06
0.5423820338929212,-5.10687257848404e-05,0.5423820338929212,-0.0001532786234937,0.5423820338929212,-1.7095694018729464e-05,0.5423820338929212,-6.662587799432285e-06
0.5431761510728523,-5.743053416577711e-05,0.5431761510728523,2.3662026220987727e-05,0.5431761510728523,6.01379056076483e-05,0.5431761510728523,-2.1383870588237455e-05
0.5439702682527834,-5.905427519875927e-05,0.5439702682527834,0.0001253176569087,0.5439702682527834,0.0001413934894124,0.5439702682527834,-3.475855707452461e-05
0.5447643854327144,-5.58355011828086e-05,0.5447643854327144,7.825171290823984e-05,0.5447643854327144,0.0001413927592914,0.5447643854327144,-4.206867368799056e-05
0.5455585026126455,-5.265590803786985e-05,0.5455585026126455,-4.345613319616068e-06,0.5455585026126455,9.198116867356596e-05,0.5455585026126455,-5.273176784852062e-05
0.5463526197925765,-5.063114637241634e-05,0.5463526197925765,-4.076086703226889e-05,0.5463526197925765,5.625785398332968e-05,0.5463526197925765,-6.011891238165971e-05
0.5471467369725076,-5.247536024379863e-05,0.5471467369725076,-5.218905486726874e-05,0.5471467369725076,4.942579368851833e-05,0.5471467369725076,-5.463603432955376e-05
0.5479408541524387,-5.7469243586416826e-05,0.5479408541524387,-8.511414903876863e-05,0.5479408541524387,8.862596021136318e-05,0.5479408541524387,-3.924716133533805e-05
0.5487349713323698,-6.408580544858795e-05,0.5487349713323698,-0.0001245952968708,0.5487349713323698,0.0001297101117509,0.5487349713323698,-2.580447991484405e-05
0.5495290885123009,-5.931344782762615e-05,0.5495290885123009,-0.0001081470172047,0.5495290885123009,0.0001759461393704,0.5495290885123009,-1.770437315743518e-05
0.5503232056922319,-4.297990223866744e-05,0.5503232056922319,-0.0001107520181,0.5503232056922319,0.0001596476641625,0.5503232056922319,-1.2312584137211788e-05
0.551117322872163,-2.285634923240383e-05,0.551117322872163,-0.0001344381485746,0.551117322872163,7.545994845946222e-05,0.551117322872163,-4.630434594454177e-06
0.551911440052094,-2.577949440003049e-06,0.551911440052094,-0.0001217800545793,0.551911440052094,1.3552209093401188e-05,0.551911440052094,-6.959903307592495e-06
0.5527055572320251,-1.4299482242288054e-05,0.5527055572320251,-0.0001238191396958,0.5527055572320251,-1.8727309837659356e-05,0.5527055572320251,-8.938498582581753e-06
0.5534996744119562,-3.507393262365662e-05,0.5534996744119562,-0.0001867825152458,0.5534996744119562,-2.6517737198936892e-05,0.5534996744119562,9.55779352656126e-06
0.5542937915918873,-2.900481237004008e-05,0.5542937915918873,-0.0002086351975218,0.5542937915918873,-5.997744324522077e-05,0.5542937915918873,2.8240009537449895e-05
0.5550879087718184,-2.3193176183442103e-05,0.5550879087718184,-0.00010269147412,0.5550879087718184,-9.86622343768506e-05,0.5550879087718184,3.740578579869477e-05
0.5558820259517494,-2.29953e-05,0.5558820259517494,4.228028220855279e-05,0.5558820259517494,-0.0001281256853616,0.5558820259517494,4.461242740092934e-05
0.5566761431316805,-2.534143503487157e-05,0.5566761431316805,0.0001581213354827,0.5566761431316805,-0.0001486432517155,0.5566761431316805,5.1484832600132e-05
0.5574702603116115,-3.347571559230893e-05,0.5574702603116115,0.0002106676490666,0.5574702603116115,-0.0001606454898443,0.5574702603116115,5.563452037095231e-05
0.5582643774915427,-3.973925234181775e-05,0.5582643774915427,0.0002079116076253,0.5582643774915427,-0.0001629847125177,0.5582643774915427,6.012940875714596e-05
0.5590584946714737,-4.621620689790364e-05,0.5590584946714737,0.0001318792296129,0.5590584946714737,-0.0001453520325424,0.5590584946714737,5.552025608987941e-05
0.5598526118514048,-5.00885552751975e-05,0.5598526118514048,3.3362303667954955e-05,0.5598526118514048,-0.0001197425022301,0.5598526118514048,3.9786904326067455e-05
0.5606467290313358,-4.395051184354902e-05,0.5606467290313358,2.51774e-06,0.5606467290313358,-0.000102073726304,0.5606467290313358,1.4082926082487815e-05
0.5614408462112669,-3.396333165201511e-05,0.5614408462112669,3.280367333676752e-05,0.5614408462112669,-6.585013260631989e-05,0.5614408462112669,-7.940843495745895e-06
0.5622349633911979,-2.2072315898468677e-05,0.5622349633911979,8.593650415045779e-05,0.5622349633911979,8.04656885771075e-06,0.5622349633911979,-1.9395822765027945e-05
0.563029080571129,-1.3291463208490536e-05,0.563029080571129,0.0001088787453338,0.563029080571129,8.480424452055885e-05,0.563029080571129,-3.223184694211139e-05
0.5638231977510602,-6.54658330135204e-06,0.5638231977510602,4.200621958404018e-05,0.5638231977510602,0.0001361251393408,0.5638231977510602,-5.944663021905092e-05
0.5646173149309912,6.595920589064521e-06,0.5646173149309912,-3.863347557531517e-05,0.5646173149309912,0.0001502643580523,0.5646173149309912,-8.966177353948384e-05
0.5654114321109223,2.8383056989403853e-05,0.5654114321109223,-0.0001347973301482,0.5654114321109223,0.0001792863119189,0.5654114321109223,-9.81918e-05
0.5662055492908533,5.71513911345763e-05,0.5662055492908533,-0.0001815614291137,0.5662055492908533,0.0002417897125824,0.5662055492908533,-9.41260831028983e-05
0.5669996664707844,7.082939666245834e-05,0.5669996664707844,-0.0001452139459838,0.5669996664707844,0.000246077091048,0.5669996664707844,-8.275546640521708e-05
0.5677937836507154,6.610789076384403e-05,0.5677937836507154,-5.198112474808102e-05,0.5677937836507154,0.0001732010916666,0.5677937836507154,-6.672428833354886e-05
0.5685879008306466,4.844279880672363e-05,0.5685879008306466,9.544116865790344e-05,0.5685879008306466,0.0001261779149873,0.5685879008306466,-4.7971153879262406e-05
0.5693820180105776,1.026413468293184e-05,0.5693820180105776,0.0001798034079519,0.5693820180105776,7.939754333361749e-05,0.5693820180105776,-2.364459846563119e-05
0.5701761351905087,-6.799659083314488e-06,0.5701761351905087,9.518016088670208e-05,0.5701761351905087,3.31050965625451e-06,0.5701761351905087,-4.151957020242272e-06
0.5709702523704397,-8.693964990440663e-06,0.5709702523704397,-8.842249046190197e-05,0.5709702523704397,-6.766165036339304e-05,0.5709702523704397,1.473100631101221e-05
0.5717643695503708,3.0179751711418725e-06,0.5717643695503708,-0.0002082255713538,0.5717643695503708,-0.0001407950324293,0.5717643695503708,2.862001315225654e-05
0.5725584867303019,3.955591196514146e-05,0.5725584867303019,-0.0001464603479408,0.5725584867303019,-0.0001790420105513,0.5725584867303019,3.620480913760326e-05
0.573352603910233,5.06616334824498e-05,0.573352603910233,-6.386264887358195e-05,0.573352603910233,-0.0001464531381544,0.573352603910233,3.36800669648996e-05
0.5741467210901641,3.373344772867265e-05,0.5741467210901641,-0.0001222652457576,0.5741467210901641,-7.726143320168347e-05,0.5741467210901641,2.9179851162182755e-05
0.5749408382700951,-1.2916251433080116e-06,0.5749408382700951,-0.0001537416912319,0.5749408382700951,2.7637228792640176e-06,0.5749408382700951,2.1949549000985283e-05
