X [s],L DELTOID POSTERIOR: EMG 5 [V],L DELTOID POSTERIOR: EMG 5->filter (FilterSlidingRMS45) [V]
0.000000e+000,0.000000e+000,0.000000e+000
7.941176e-004,0.000000e+000,0.000000e+000
1.588235e-003,0.000000e+000,0.000000e+000
2.382353e-003,0.000000e+000,0.000000e+000
3.176471e-003,0.000000e+000,0.000000e+000
3.970588e-003,0.000000e+000,0.000000e+000
4.764706e-003,0.000000e+000,0.000000e+000
5.558824e-003,0.000000e+000,0.000000e+000
6.352941e-003,0.000000e+000,0.000000e+000
7.147059e-003,0.000000e+000,0.000000e+000
7.941176e-003,0.000000e+000,0.000000e+000
8.735294e-003,0.000000e+000,0.000000e+000
9.529412e-003,0.000000e+000,0.000000e+000
1.032353e-002,0.000000e+000,0.000000e+000
1.111765e-002,0.000000e+000,0.000000e+000
1.191176e-002,0.000000e+000,0.000000e+000
1.270588e-002,0.000000e+000,0.000000e+000
1.350000e-002,0.000000e+000,0.000000e+000
1.429412e-002,0.000000e+000,0.000000e+000
1.508824e-002,0.000000e+000,0.000000e+000
1.588235e-002,0.000000e+000,0.000000e+000
1.667647e-002,0.000000e+000,0.000000e+000
1.747059e-002,0.000000e+000,0.000000e+000
1.826471e-002,0.000000e+000,0.000000e+000
1.905882e-002,0.000000e+000,0.000000e+000
1.985294e-002,0.000000e+000,0.000000e+000
2.064706e-002,0.000000e+000,0.000000e+000
2.144118e-002,0.000000e+000,0.000000e+000
2.223529e-002,0.000000e+000,0.000000e+000
2.302941e-002,0.000000e+000,0.000000e+000
2.382353e-002,0.000000e+000,0.000000e+000
2.461765e-002,0.000000e+000,0.000000e+000
2.541176e-002,0.000000e+000,0.000000e+000
2.620588e-002,0.000000e+000,0.000000e+000
2.700000e-002,0.000000e+000,0.000000e+000
2.779412e-002,0.000000e+000,0.000000e+000
2.858824e-002,0.000000e+000,0.000000e+000
2.938235e-002,0.000000e+000,0.000000e+000
3.017647e-002,0.000000e+000,0.000000e+000
3.097059e-002,0.000000e+000,0.000000e+000
3.176471e-002,0.000000e+000,0.000000e+000
3.255882e-002,0.000000e+000,0.000000e+000
3.335294e-002,0.000000e+000,0.000000e+000
3.414706e-002,0.000000e+000,0.000000e+000
3.494118e-002,0.000000e+000,0.000000e+000
3.573529e-002,0.000000e+000,0.000000e+000
3.652941e-002,0.000000e+000,0.000000e+000
3.732353e-002,0.000000e+000,0.000000e+000
3.811765e-002,0.000000e+000,0.000000e+000
3.891176e-002,0.000000e+000,0.000000e+000
3.970588e-002,0.000000e+000,0.000000e+000
4.050000e-002,0.000000e+000,0.000000e+000
4.129412e-002,0.000000e+000,0.000000e+000
4.208824e-002,0.000000e+000,0.000000e+000
4.288235e-002,0.000000e+000,0.000000e+000
4.367647e-002,0.000000e+000,0.000000e+000
4.447059e-002,0.000000e+000,0.000000e+000
4.526471e-002,0.000000e+000,0.000000e+000
4.605882e-002,0.000000e+000,0.000000e+000
4.685294e-002,0.000000e+000,0.000000e+000
4.764706e-002,0.000000e+000,0.000000e+000
4.844118e-002,0.000000e+000,0.000000e+000
4.923529e-002,0.000000e+000,0.000000e+000
5.002941e-002,0.000000e+000,0.000000e+000
5.082353e-002,0.000000e+000,0.000000e+000
5.161765e-002,0.000000e+000,0.000000e+000
5.241176e-002,0.000000e+000,0.000000e+000
5.320588e-002,0.000000e+000,0.000000e+000
5.400000e-002,0.000000e+000,0.000000e+000
5.479412e-002,0.000000e+000,0.000000e+000
5.558824e-002,0.000000e+000,0.000000e+000
5.638235e-002,0.000000e+000,0.000000e+000
5.717647e-002,0.000000e+000,0.000000e+000
5.797059e-002,0.000000e+000,0.000000e+000
5.876471e-002,0.000000e+000,0.000000e+000
5.955882e-002,0.000000e+000,0.000000e+000
6.035294e-002,0.000000e+000,0.000000e+000
6.114706e-002,0.000000e+000,0.000000e+000
6.194118e-002,0.000000e+000,0.000000e+000
6.273529e-002,0.000000e+000,0.000000e+000
6.352941e-002,0.000000e+000,0.000000e+000
6.432353e-002,0.000000e+000,0.000000e+000
6.511765e-002,0.000000e+000,0.000000e+000
6.591176e-002,0.000000e+000,0.000000e+000
6.670588e-002,0.000000e+000,0.000000e+000
6.750000e-002,0.000000e+000,0.000000e+000
6.829412e-002,0.000000e+000,0.000000e+000
6.908824e-002,0.000000e+000,0.000000e+000
6.988235e-002,0.000000e+000,0.000000e+000
7.067647e-002,0.000000e+000,0.000000e+000
7.147059e-002,0.000000e+000,0.000000e+000
7.226471e-002,0.000000e+000,0.000000e+000
7.305882e-002,0.000000e+000,0.000000e+000
7.385294e-002,0.000000e+000,0.000000e+000
7.464706e-002,0.000000e+000,0.000000e+000
7.544118e-002,0.000000e+000,0.000000e+000
7.623529e-002,0.000000e+000,0.000000e+000
7.702941e-002,0.000000e+000,0.000000e+000
7.782353e-002,0.000000e+000,0.000000e+000
7.861765e-002,0.000000e+000,0.000000e+000
7.941176e-002,0.000000e+000,0.000000e+000
8.020588e-002,0.000000e+000,0.000000e+000
8.100000e-002,0.000000e+000,0.000000e+000
8.179412e-002,0.000000e+000,0.000000e+000
8.258824e-002,0.000000e+000,0.000000e+000
8.338235e-002,0.000000e+000,0.000000e+000
8.417647e-002,0.000000e+000,0.000000e+000
8.497059e-002,0.000000e+000,0.000000e+000
8.576471e-002,0.000000e+000,0.000000e+000
8.655882e-002,0.000000e+000,0.000000e+000
8.735294e-002,0.000000e+000,0.000000e+000
8.814706e-002,0.000000e+000,0.000000e+000
8.894118e-002,0.000000e+000,0.000000e+000
8.973529e-002,0.000000e+000,0.000000e+000
9.052941e-002,0.000000e+000,0.000000e+000
9.132353e-002,0.000000e+000,0.000000e+000
9.211765e-002,0.000000e+000,0.000000e+000
9.291176e-002,0.000000e+000,0.000000e+000
9.370588e-002,0.000000e+000,0.000000e+000
9.450000e-002,-1.896696e-005,0.000000e+000
9.529412e-002,-1.359579e-005,0.000000e+000
9.608824e-002,-1.326009e-005,0.000000e+000
9.688235e-002,-1.242084e-005,0.000000e+000
9.767647e-002,-1.309224e-005,0.000000e+000
9.847059e-002,-1.292439e-005,0.000000e+000
9.926471e-002,-1.460288e-005,0.000000e+000
1.000588e-001,-1.359579e-005,0.000000e+000
1.008529e-001,-1.225299e-005,0.000000e+000
1.016471e-001,-1.527428e-005,0.000000e+000
1.024412e-001,-1.493858e-005,0.000000e+000
1.032353e-001,-1.560998e-005,0.000000e+000
1.040294e-001,-1.359579e-005,0.000000e+000
1.048235e-001,-1.292439e-005,0.000000e+000
1.056176e-001,-1.124590e-005,0.000000e+000
1.064118e-001,-1.359579e-005,0.000000e+000
1.072059e-001,-1.560998e-005,0.000000e+000
1.080000e-001,-1.527428e-005,0.000000e+000
1.087941e-001,-1.460288e-005,0.000000e+000
1.095882e-001,-1.460288e-005,0.000000e+000
1.103824e-001,-1.393149e-005,0.000000e+000
1.111765e-001,-1.493858e-005,0.000000e+000
1.119706e-001,-1.460288e-005,0.000000e+000
1.127647e-001,-1.158160e-005,0.000000e+000
1.135588e-001,-1.359579e-005,0.000000e+000
1.143529e-001,-1.443504e-005,0.000000e+000
1.151471e-001,-1.292439e-005,0.000000e+000
1.159412e-001,-1.460288e-005,0.000000e+000
1.167353e-001,-1.493858e-005,0.000000e+000
1.175294e-001,-1.393149e-005,0.000000e+000
1.183235e-001,-1.661708e-005,0.000000e+000
1.191176e-001,-1.493858e-005,0.000000e+000
1.199118e-001,-1.393149e-005,0.000000e+000
1.207059e-001,-1.292439e-005,0.000000e+000
1.215000e-001,-1.225299e-005,0.000000e+000
1.222941e-001,-1.292439e-005,0.000000e+000
1.230882e-001,-1.359579e-005,0.000000e+000
1.238824e-001,-1.359579e-005,0.000000e+000
1.246765e-001,-1.393149e-005,0.000000e+000
1.254706e-001,-1.560998e-005,0.000000e+000
1.262647e-001,-1.376364e-005,0.000000e+000
1.270588e-001,-1.359579e-005,0.000000e+000
1.278529e-001,-1.460288e-005,0.000000e+000
1.286471e-001,-1.426719e-005,0.000000e+000
1.294412e-001,-1.493858e-005,0.000000e+000
1.302353e-001,-1.493858e-005,0.000000e+000
1.310294e-001,-1.493858e-005,0.000000e+000
1.318235e-001,-1.326009e-005,0.000000e+000
1.326176e-001,-1.426719e-005,0.000000e+000
1.334118e-001,-1.393149e-005,0.000000e+000
1.342059e-001,-1.443504e-005,0.000000e+000
1.350000e-001,-1.393149e-005,0.000000e+000
1.357941e-001,-1.493858e-005,0.000000e+000
1.365882e-001,-1.493858e-005,0.000000e+000
1.373824e-001,-1.359579e-005,0.000000e+000
1.381765e-001,-1.292439e-005,0.000000e+000
1.389706e-001,-1.493858e-005,0.000000e+000
1.397647e-001,-1.225299e-005,0.000000e+000
1.405588e-001,-1.326009e-005,0.000000e+000
1.413529e-001,-1.493858e-005,0.000000e+000
1.421471e-001,-1.661708e-005,0.000000e+000
1.429412e-001,-1.493858e-005,0.000000e+000
1.437353e-001,-1.460288e-005,0.000000e+000
1.445294e-001,-1.628138e-005,0.000000e+000
1.453235e-001,-1.628138e-005,0.000000e+000
1.461176e-001,-1.426719e-005,0.000000e+000
1.469118e-001,-1.225299e-005,0.000000e+000
1.477059e-001,-1.292439e-005,0.000000e+000
1.485000e-001,-1.292439e-005,0.000000e+000
1.492941e-001,-1.359579e-005,0.000000e+000
1.500882e-001,-1.275654e-005,0.000000e+000
1.508824e-001,-1.124590e-005,0.000000e+000
1.516765e-001,-1.326009e-005,0.000000e+000
1.524706e-001,-1.393149e-005,0.000000e+000
1.532647e-001,-1.426719e-005,0.000000e+000
1.540588e-001,-1.628138e-005,0.000000e+000
1.548529e-001,-1.460288e-005,0.000000e+000
1.556471e-001,-1.393149e-005,0.000000e+000
1.564412e-001,-1.326009e-005,0.000000e+000
1.572353e-001,-1.242084e-005,0.000000e+000
1.580294e-001,-1.560998e-005,0.000000e+000
1.588235e-001,-1.393149e-005,0.000000e+000
1.596176e-001,-1.376364e-005,0.000000e+000
1.604118e-001,-1.326009e-005,0.000000e+000
1.612059e-001,-1.594568e-005,0.000000e+000
1.620000e-001,-1.493858e-005,0.000000e+000
1.627941e-001,-1.359579e-005,0.000000e+000
1.635882e-001,-1.359579e-005,0.000000e+000
1.643824e-001,-1.762417e-005,0.000000e+000
1.651765e-001,-1.460288e-005,0.000000e+000
1.659706e-001,-1.527428e-005,0.000000e+000
1.667647e-001,-1.527428e-005,0.000000e+000
1.675588e-001,-1.661708e-005,0.000000e+000
1.683529e-001,-1.426719e-005,0.000000e+000
1.691471e-001,-1.443504e-005,0.000000e+000
1.699412e-001,-1.292439e-005,0.000000e+000
1.707353e-001,-1.359579e-005,0.000000e+000
1.715294e-001,-1.292439e-005,0.000000e+000
1.723235e-001,-1.493858e-005,0.000000e+000
1.731176e-001,-1.393149e-005,0.000000e+000
1.739118e-001,-1.594568e-005,0.000000e+000
1.747059e-001,-1.493858e-005,0.000000e+000
1.755000e-001,-1.292439e-005,0.000000e+000
1.762941e-001,-1.309224e-005,0.000000e+000
1.770882e-001,-1.560998e-005,0.000000e+000
1.778824e-001,-1.292439e-005,0.000000e+000
1.786765e-001,-1.326009e-005,0.000000e+000
1.794706e-001,-1.359579e-005,0.000000e+000
1.802647e-001,-1.258869e-005,0.000000e+000
1.810588e-001,-1.242084e-005,0.000000e+000
1.818529e-001,-1.225299e-005,0.000000e+000
1.826471e-001,-1.460288e-005,0.000000e+000
1.834412e-001,-1.292439e-005,0.000000e+000
1.842353e-001,-1.309224e-005,0.000000e+000
1.850294e-001,-1.527428e-005,0.000000e+000
1.858235e-001,-1.560998e-005,0.000000e+000
1.866176e-001,-1.359579e-005,0.000000e+000
1.874118e-001,-1.309224e-005,0.000000e+000
1.882059e-001,-1.628138e-005,0.000000e+000
1.890000e-001,-1.527428e-005,0.000000e+000
1.897941e-001,-1.326009e-005,0.000000e+000
1.905882e-001,-1.107805e-005,0.000000e+000
1.913824e-001,-1.107805e-005,0.000000e+000
1.921765e-001,-1.460288e-005,0.000000e+000
1.929706e-001,-1.426719e-005,0.000000e+000
1.937647e-001,-1.493858e-005,0.000000e+000
1.945588e-001,-1.628138e-005,0.000000e+000
1.953529e-001,-1.661708e-005,0.000000e+000
1.961471e-001,-1.594568e-005,0.000000e+000
1.969412e-001,-1.493858e-005,0.000000e+000
1.977353e-001,-1.174945e-005,0.000000e+000
1.985294e-001,-1.493858e-005,0.000000e+000
1.993235e-001,-1.628138e-005,0.000000e+000
2.001176e-001,-1.426719e-005,0.000000e+000
2.009118e-001,-1.124590e-005,0.000000e+000
2.017059e-001,-1.225299e-005,0.000000e+000
2.025000e-001,-1.309224e-005,0.000000e+000
2.032941e-001,-1.426719e-005,0.000000e+000
2.040882e-001,-1.359579e-005,0.000000e+000
2.048824e-001,-1.493858e-005,0.000000e+000
2.056765e-001,-1.359579e-005,0.000000e+000
2.064706e-001,-1.158160e-005,0.000000e+000
2.072647e-001,-1.292439e-005,0.000000e+000
2.080588e-001,-1.359579e-005,0.000000e+000
2.088529e-001,-1.359579e-005,0.000000e+000
2.096471e-001,-1.376364e-005,0.000000e+000
2.104412e-001,-1.493858e-005,0.000000e+000
2.112353e-001,-1.527428e-005,0.000000e+000
2.120294e-001,-1.560998e-005,0.000000e+000
2.128235e-001,-1.359579e-005,0.000000e+000
2.136176e-001,-1.460288e-005,0.000000e+000
2.144118e-001,-1.594568e-005,0.000000e+000
2.152059e-001,-1.225299e-005,0.000000e+000
2.160000e-001,-1.292439e-005,0.000000e+000
2.167941e-001,-1.393149e-005,0.000000e+000
2.175882e-001,-1.258869e-005,0.000000e+000
2.183824e-001,-1.292439e-005,0.000000e+000
2.191765e-001,-1.309224e-005,0.000000e+000
2.199706e-001,-1.225299e-005,0.000000e+000
2.207647e-001,-1.292439e-005,0.000000e+000
2.215588e-001,-1.292439e-005,0.000000e+000
2.223529e-001,-1.628138e-005,0.000000e+000
2.231471e-001,-1.577783e-005,0.000000e+000
2.239412e-001,-1.493858e-005,0.000000e+000
2.247353e-001,-1.107805e-005,0.000000e+000
2.255294e-001,-1.426719e-005,0.000000e+000
2.263235e-001,-1.510643e-005,0.000000e+000
2.271176e-001,-1.292439e-005,0.000000e+000
2.279118e-001,-1.258869e-005,0.000000e+000
2.287059e-001,-1.409934e-005,0.000000e+000
2.295000e-001,-1.460288e-005,0.000000e+000
2.302941e-001,-1.359579e-005,0.000000e+000
2.310882e-001,-1.292439e-005,0.000000e+000
2.318824e-001,-1.460288e-005,0.000000e+000
2.326765e-001,-1.527428e-005,0.000000e+000
2.334706e-001,-1.426719e-005,0.000000e+000
2.342647e-001,-1.225299e-005,0.000000e+000
2.350588e-001,-1.225299e-005,0.000000e+000
2.358529e-001,-1.225299e-005,0.000000e+000
2.366471e-001,-1.292439e-005,0.000000e+000
2.374412e-001,-1.426719e-005,0.000000e+000
2.382353e-001,-1.493858e-005,0.000000e+000
2.390294e-001,-1.158160e-005,0.000000e+000
2.398235e-001,-1.225299e-005,0.000000e+000
2.406176e-001,-1.258869e-005,0.000000e+000
2.414118e-001,-1.225299e-005,0.000000e+000
2.422059e-001,-1.560998e-005,0.000000e+000
2.430000e-001,-1.493858e-005,0.000000e+000
2.437941e-001,-1.359579e-005,0.000000e+000
2.445882e-001,-1.258869e-005,0.000000e+000
2.453824e-001,-1.258869e-005,0.000000e+000
2.461765e-001,-1.359579e-005,0.000000e+000
2.469706e-001,-1.460288e-005,0.000000e+000
2.477647e-001,-1.493858e-005,0.000000e+000
2.485588e-001,-1.560998e-005,0.000000e+000
2.493529e-001,-1.493858e-005,1.107523e-005
2.501471e-001,-1.292439e-005,1.110727e-005
2.509412e-001,-1.225299e-005,1.113119e-005
2.517353e-001,-1.258869e-005,1.115265e-005
2.525294e-001,-1.359579e-005,1.117525e-005
2.533235e-001,-1.091020e-005,1.120156e-005
2.541176e-001,-1.292439e-005,1.121847e-005
2.549118e-001,-1.628138e-005,1.124215e-005
2.557059e-001,-1.661708e-005,1.127964e-005
2.565000e-001,-1.527428e-005,1.131855e-005
2.572941e-001,-1.493858e-005,1.135133e-005
2.580882e-001,-1.426719e-005,1.138259e-005
2.588824e-001,-1.258869e-005,1.141103e-005
2.596765e-001,-1.359579e-005,1.143312e-005
2.604706e-001,-1.493858e-005,1.145884e-005
2.612647e-001,-1.393149e-005,1.148981e-005
2.620588e-001,-1.292439e-005,1.151667e-005
2.628529e-001,-1.191730e-005,1.153975e-005
2.636471e-001,-1.292439e-005,1.155933e-005
2.644412e-001,-1.292439e-005,1.158231e-005
2.652353e-001,-1.393149e-005,1.160526e-005
2.660294e-001,-1.309224e-005,1.163186e-005
2.668235e-001,-1.225299e-005,1.165530e-005
2.676176e-001,-1.359579e-005,1.167579e-005
2.684118e-001,-1.560998e-005,1.170097e-005
2.692059e-001,-1.359579e-005,1.173409e-005
2.700000e-001,-1.124590e-005,1.175914e-005
2.707941e-001,-1.242084e-005,1.177626e-005
2.715882e-001,-1.376364e-005,1.179710e-005
2.723824e-001,-1.493858e-005,1.182264e-005
2.731765e-001,-1.628138e-005,1.185266e-005
2.739706e-001,-1.594568e-005,1.188822e-005
2.747647e-001,-1.560998e-005,1.192223e-005
2.755588e-001,-1.560998e-005,1.195473e-005
2.763529e-001,-1.426719e-005,1.198714e-005
2.771471e-001,-1.460288e-005,1.201415e-005
2.779412e-001,-1.174945e-005,1.204238e-005
2.787353e-001,-1.493858e-005,1.206062e-005
2.795294e-001,-1.376364e-005,1.209005e-005
2.803235e-001,-1.426719e-005,1.211498e-005
2.811176e-001,-1.493858e-005,1.214170e-005
2.819118e-001,-1.359579e-005,1.217093e-005
2.827059e-001,-1.493858e-005,1.219509e-005
2.835000e-001,-1.292439e-005,1.222420e-005
2.842941e-001,-1.359579e-005,1.224594e-005
2.850882e-001,-1.393149e-005,1.226995e-005
2.858824e-001,-1.309224e-005,1.229511e-005
2.866765e-001,-1.493858e-005,1.231729e-005
2.874706e-001,-1.493858e-005,1.234610e-005
2.882647e-001,-1.493858e-005,1.237485e-005
2.890588e-001,-1.493858e-005,1.240354e-005
2.898529e-001,-1.359579e-005,1.243215e-005
2.906471e-001,-1.493858e-005,1.245580e-005
2.914412e-001,-1.359579e-005,1.248430e-005
2.922353e-001,-1.309224e-005,1.250786e-005
2.930294e-001,-1.493858e-005,1.252966e-005
2.938235e-001,-1.560998e-005,1.255799e-005
2.946176e-001,-1.393149e-005,1.258885e-005
2.954118e-001,-1.426719e-005,1.261337e-005
2.962059e-001,-1.527428e-005,1.263904e-005
2.970000e-001,-1.426719e-005,1.266840e-005
2.977941e-001,-1.393149e-005,1.269396e-005
2.985882e-001,-1.393149e-005,1.271829e-005
2.993824e-001,-1.426719e-005,1.274256e-005
3.001765e-001,-1.292439e-005,1.276797e-005
3.009706e-001,-1.493858e-005,1.278879e-005
3.017647e-001,-1.493858e-005,1.281654e-005
3.025588e-001,-1.594568e-005,1.284424e-005
3.033529e-001,-1.326009e-005,1.287572e-005
3.041471e-001,-1.493858e-005,1.289745e-005
3.049412e-001,-1.309224e-005,1.292497e-005
3.057353e-001,-1.242084e-005,1.294607e-005
3.065294e-001,-1.258869e-005,1.296504e-005
3.073235e-001,-1.359579e-005,1.298449e-005
3.081176e-001,-1.493858e-005,1.300713e-005
3.089118e-001,-1.560998e-005,1.303443e-005
3.097059e-001,-1.292439e-005,1.306416e-005
3.105000e-001,-1.225299e-005,1.308450e-005
3.112941e-001,-1.225299e-005,1.310276e-005
3.120882e-001,-1.158160e-005,1.312100e-005
3.128824e-001,-1.292439e-005,1.313726e-005
3.136765e-001,-1.359579e-005,1.315749e-005
3.144706e-001,-1.359579e-005,1.317985e-005
3.152647e-001,-1.409934e-005,1.320216e-005
3.160588e-001,-1.426719e-005,1.322611e-005
3.168529e-001,-1.426719e-005,1.325060e-005
3.176471e-001,-1.242084e-005,1.327504e-005
3.184412e-001,-1.124590e-005,1.329353e-005
3.192353e-001,-1.225299e-005,1.330867e-005
3.200294e-001,-1.426719e-005,1.332662e-005
3.208235e-001,-1.527428e-005,1.335092e-005
3.216176e-001,-1.409934e-005,1.337872e-005
3.224118e-001,-1.359579e-005,1.340236e-005
3.232059e-001,-1.628138e-005,1.342430e-005
3.240000e-001,-1.577783e-005,1.345571e-005
3.247941e-001,-1.628138e-005,1.348514e-005
3.255882e-001,-1.426719e-005,1.351641e-005
3.263824e-001,-1.376364e-005,1.354037e-005
3.271765e-001,-1.426719e-005,1.356263e-005
3.279706e-001,-1.426719e-005,1.358650e-005
3.287647e-001,-1.258869e-005,1.361034e-005
3.295588e-001,-1.292439e-005,1.362887e-005
3.303529e-001,-1.359579e-005,1.364837e-005
3.311471e-001,-1.426719e-005,1.366992e-005
3.319412e-001,-1.292439e-005,1.369361e-005
3.327353e-001,-1.560998e-005,1.371302e-005
3.335294e-001,-1.628138e-005,1.374129e-005
3.343235e-001,-1.493858e-005,1.377197e-005
3.351176e-001,-1.493858e-005,1.379775e-005
3.359118e-001,-1.426719e-005,1.382348e-005
3.367059e-001,-1.426719e-005,1.384691e-005
3.375000e-001,-1.661708e-005,1.387029e-005
3.382941e-001,-1.393149e-005,1.390196e-005
3.390882e-001,-1.225299e-005,1.392417e-005
3.398824e-001,-1.258869e-005,1.394133e-005
3.406765e-001,-1.460288e-005,1.395942e-005
3.414706e-001,-1.560998e-005,1.398372e-005
3.422647e-001,-1.426719e-005,1.401144e-005
3.430588e-001,-1.628138e-005,1.403456e-005
3.438529e-001,-1.493858e-005,1.406460e-005
3.446471e-001,-1.225299e-005,1.404913e-005
3.454412e-001,-1.158160e-005,1.404519e-005
3.462353e-001,-1.258869e-005,1.404046e-005
3.470294e-001,-1.258869e-005,1.404094e-005
3.478235e-001,-1.493858e-005,1.403947e-005
3.486176e-001,-1.359579e-005,1.404584e-005
3.494118e-001,-1.426719e-005,1.404262e-005
3.502059e-001,-1.426719e-005,1.404474e-005
3.510000e-001,-1.393149e-005,1.405079e-005
3.517941e-001,-1.359579e-005,1.404635e-005
3.525882e-001,-1.426719e-005,1.404200e-005
3.533824e-001,-1.628138e-005,1.403745e-005
3.541765e-001,-1.527428e-005,1.404655e-005
3.549706e-001,-1.426719e-005,1.405406e-005
3.557647e-001,-1.426719e-005,1.406279e-005
3.565588e-001,-1.309224e-005,1.406491e-005
3.573529e-001,-1.460288e-005,1.405673e-005
3.581471e-001,-1.493858e-005,1.405446e-005
3.589412e-001,-1.493858e-005,1.405558e-005
3.597353e-001,-1.359579e-005,1.405670e-005
3.605294e-001,-1.359579e-005,1.405566e-005
3.613235e-001,-1.493858e-005,1.405131e-005
3.621176e-001,-1.527428e-005,1.405244e-005
3.629118e-001,-1.359579e-005,1.406367e-005
3.637059e-001,-1.493858e-005,1.406367e-005
3.645000e-001,-1.225299e-005,1.406535e-005
3.652941e-001,-1.091020e-005,1.406343e-005
3.660882e-001,-1.560998e-005,1.405276e-005
3.668824e-001,-1.493858e-005,1.405509e-005
3.676765e-001,-1.426719e-005,1.405838e-005
3.684706e-001,-1.560998e-005,1.405016e-005
3.692647e-001,-1.493858e-005,1.405248e-005
3.700588e-001,-1.225299e-005,1.405578e-005
3.708529e-001,-1.493858e-005,1.405386e-005
3.716471e-001,-1.560998e-005,1.406213e-005
3.724412e-001,-1.560998e-005,1.407081e-005
3.732353e-001,-1.426719e-005,1.407746e-005
3.740294e-001,-1.493858e-005,1.407958e-005
3.748235e-001,-1.628138e-005,1.408287e-005
3.756176e-001,-1.359579e-005,1.408529e-005
3.764118e-001,-1.527428e-005,1.408477e-005
3.772059e-001,-1.493858e-005,1.409025e-005
3.780000e-001,-1.426719e-005,1.409137e-005
3.787941e-001,-1.258869e-005,1.409137e-005
3.795882e-001,-1.359579e-005,1.408406e-005
3.803824e-001,-1.560998e-005,1.407972e-005
3.811765e-001,-1.628138e-005,1.408204e-005
3.819706e-001,-1.426719e-005,1.409213e-005
3.827647e-001,-1.174945e-005,1.409213e-005
3.835588e-001,-1.326009e-005,1.408580e-005
3.843529e-001,-1.577783e-005,1.408212e-005
3.851471e-001,-1.326009e-005,1.408832e-005
3.859412e-001,-1.258869e-005,1.408297e-005
3.867353e-001,-1.292439e-005,1.407565e-005
3.875294e-001,-1.393149e-005,1.407364e-005
3.883235e-001,-1.359579e-005,1.407670e-005
3.891176e-001,-1.225299e-005,1.407236e-005
3.899118e-001,-1.225299e-005,1.407236e-005
3.907059e-001,-1.359579e-005,1.406946e-005
3.915000e-001,-1.326009e-005,1.406512e-005
3.922941e-001,-1.426719e-005,1.405376e-005
3.930882e-001,-1.426719e-005,1.405154e-005
3.938824e-001,-1.493858e-005,1.405044e-005
3.946765e-001,-1.426719e-005,1.404569e-005
3.954706e-001,-1.309224e-005,1.403871e-005
3.962647e-001,-1.124590e-005,1.403506e-005
3.970588e-001,-1.426719e-005,1.403238e-005
3.978529e-001,-1.493858e-005,1.403652e-005
3.986471e-001,-1.258869e-005,1.404289e-005
3.994412e-001,-1.393149e-005,1.403990e-005
4.002353e-001,-1.695277e-005,1.404345e-005
4.010294e-001,-1.594568e-005,1.406169e-005
4.018235e-001,-1.326009e-005,1.407057e-005
4.026176e-001,-1.359579e-005,1.406850e-005
4.034118e-001,-1.426719e-005,1.406638e-005
4.042059e-001,-1.124590e-005,1.405941e-005
4.050000e-001,-1.359579e-005,1.404958e-005
4.057941e-001,-1.527428e-005,1.404854e-005
4.065882e-001,-1.359579e-005,1.405505e-005
4.073824e-001,-1.628138e-005,1.405851e-005
4.081765e-001,-1.644922e-005,1.406094e-005
4.089706e-001,-1.393149e-005,1.406960e-005
4.097647e-001,-1.460288e-005,1.407012e-005
4.105588e-001,-1.292439e-005,1.407436e-005
4.113529e-001,-1.460288e-005,1.406448e-005
4.121471e-001,-1.393149e-005,1.406336e-005
4.129412e-001,-1.292439e-005,1.406441e-005
4.137353e-001,-1.426719e-005,1.406239e-005
4.145294e-001,-1.527428e-005,1.405026e-005
4.153235e-001,-1.326009e-005,1.405254e-005
4.161176e-001,-1.359579e-005,1.404602e-005
4.169118e-001,-1.527428e-005,1.404053e-005
4.177059e-001,-1.359579e-005,1.403567e-005
4.185000e-001,-1.292439e-005,1.403355e-005
4.192941e-001,-1.292439e-005,1.402886e-005
4.200882e-001,-1.225299e-005,1.402886e-005
4.208824e-001,-1.426719e-005,1.402492e-005
4.216765e-001,-1.359579e-005,1.402906e-005
4.224706e-001,-1.359579e-005,1.402471e-005
4.232647e-001,-1.225299e-005,1.402366e-005
4.240588e-001,-1.426719e-005,1.401183e-005
4.248529e-001,-1.628138e-005,1.400960e-005
4.256471e-001,-1.628138e-005,1.402074e-005
4.264412e-001,-1.393149e-005,1.403138e-005
4.272353e-001,-1.460288e-005,1.402575e-005
4.280294e-001,-1.493858e-005,1.403099e-005
4.288235e-001,-1.292439e-005,1.403637e-005
4.296176e-001,-1.359579e-005,1.403435e-005
4.304118e-001,-1.493858e-005,1.403734e-005
4.312059e-001,-1.695277e-005,1.404515e-005
4.320000e-001,-1.359579e-005,1.406070e-005
4.327941e-001,-1.493858e-005,1.405749e-005
4.335882e-001,-1.510643e-005,1.406384e-005
4.343824e-001,-1.493858e-005,1.407027e-005
4.351765e-001,-1.409934e-005,1.406912e-005
4.359706e-001,-1.493858e-005,1.406404e-005
4.367647e-001,-1.359579e-005,1.406838e-005
4.375588e-001,-1.460288e-005,1.406990e-005
4.383529e-001,-1.443504e-005,1.406403e-005
4.391471e-001,-1.460288e-005,1.406121e-005
4.399412e-001,-1.258869e-005,1.406545e-005
4.407353e-001,-1.258869e-005,1.406949e-005
4.415294e-001,-1.258869e-005,1.407354e-005
4.423235e-001,-1.527428e-005,1.406734e-005
4.431176e-001,-1.359579e-005,1.407071e-005
4.439118e-001,-1.376364e-005,1.406637e-005
4.447059e-001,-1.460288e-005,1.405781e-005
4.455000e-001,-1.493858e-005,1.405068e-005
4.462941e-001,-1.393149e-005,1.404716e-005
4.470882e-001,-1.426719e-005,1.404386e-005
4.478824e-001,-1.359579e-005,1.405129e-005
4.486765e-001,-1.292439e-005,1.404694e-005
4.494706e-001,-1.393149e-005,1.403582e-005
4.502647e-001,-1.695277e-005,1.403475e-005
4.510588e-001,-1.594568e-005,1.405300e-005
4.518529e-001,-1.493858e-005,1.406479e-005
4.526471e-001,-1.359579e-005,1.407065e-005
4.534412e-001,-1.359579e-005,1.406853e-005
4.542353e-001,-1.527428e-005,1.406853e-005
4.550294e-001,-1.393149e-005,1.406968e-005
4.558235e-001,-1.443504e-005,1.407073e-005
4.566176e-001,-1.292439e-005,1.407912e-005
4.574118e-001,-1.359579e-005,1.407913e-005
4.582059e-001,-1.292439e-005,1.407913e-005
4.590000e-001,-1.560998e-005,1.407711e-005
4.597941e-001,-1.762417e-005,1.408324e-005
4.605882e-001,-1.460288e-005,1.409313e-005
4.613824e-001,-1.493858e-005,1.409086e-005
4.621765e-001,-1.628138e-005,1.408854e-005
4.629706e-001,-1.628138e-005,1.409761e-005
4.637647e-001,-1.426719e-005,1.410346e-005
4.645588e-001,-1.359579e-005,1.409774e-005
4.653529e-001,-1.158160e-005,1.410166e-005
4.661471e-001,-1.124590e-005,1.409794e-005
4.669412e-001,-1.258869e-005,1.409030e-005
4.677353e-001,-1.309224e-005,1.409030e-005
4.685294e-001,-1.359579e-005,1.409080e-005
4.693235e-001,-1.359579e-005,1.409231e-005
4.701176e-001,-1.258869e-005,1.409624e-005
4.709118e-001,-1.443504e-005,1.409527e-005
4.717059e-001,-1.460288e-005,1.409994e-005
4.725000e-001,-1.359579e-005,1.409408e-005
4.732941e-001,-1.326009e-005,1.408684e-005
4.740882e-001,-1.426719e-005,1.408149e-005
4.748824e-001,-1.527428e-005,1.409062e-005
4.756765e-001,-1.393149e-005,1.409399e-005
4.764706e-001,-1.359579e-005,1.409013e-005
4.772647e-001,-1.493858e-005,1.409214e-005
4.780588e-001,-1.359579e-005,1.409945e-005
4.788529e-001,-1.560998e-005,1.409788e-005
4.796471e-001,-1.628138e-005,1.410131e-005
4.804412e-001,-1.493858e-005,1.411037e-005
4.812353e-001,-1.560998e-005,1.411670e-005
4.820294e-001,-1.292439e-005,1.412013e-005
4.828235e-001,-1.426719e-005,1.411266e-005
4.836176e-001,-1.426719e-005,1.411266e-005
4.844118e-001,-1.510643e-005,1.411868e-005
4.852059e-001,-1.661708e-005,1.412749e-005
4.860000e-001,-1.493858e-005,1.414168e-005
4.867941e-001,-1.292439e-005,1.414799e-005
4.875882e-001,-1.359579e-005,1.414388e-005
4.883824e-001,-1.359579e-005,1.413957e-005
4.891765e-001,-1.326009e-005,1.414528e-005
4.899706e-001,-1.493858e-005,1.414817e-005
4.907647e-001,-1.326009e-005,1.415545e-005
4.915588e-001,-1.292439e-005,1.415834e-005
4.923529e-001,-1.057450e-005,1.414972e-005
4.931471e-001,-1.225299e-005,1.413718e-005
4.939412e-001,-1.091020e-005,1.413327e-005
4.947353e-001,-1.040665e-005,1.412883e-005
4.955294e-001,-1.292439e-005,1.412317e-005
4.963235e-001,-1.326009e-005,1.412116e-005
4.971176e-001,-1.225299e-005,1.411695e-005
4.979118e-001,-1.393149e-005,1.410871e-005
4.987059e-001,-1.510643e-005,1.410311e-005
4.995000e-001,-1.359579e-005,1.410368e-005
5.002941e-001,-1.560998e-005,1.410569e-005
5.010882e-001,-1.527428e-005,1.411624e-005
5.018824e-001,-1.426719e-005,1.412468e-005
5.026765e-001,-1.493858e-005,1.412679e-005
5.034706e-001,-1.258869e-005,1.413852e-005
5.042647e-001,-1.393149e-005,1.413756e-005
5.050588e-001,-1.258869e-005,1.412956e-005
5.058529e-001,-1.292439e-005,1.411630e-005
5.066471e-001,-1.225299e-005,1.410882e-005
5.074412e-001,-1.225299e-005,1.410057e-005
5.082353e-001,-1.661708e-005,1.409454e-005
5.090294e-001,-1.695277e-005,1.410783e-005
5.098235e-001,-1.309224e-005,1.411940e-005
5.106176e-001,-1.359579e-005,1.411356e-005
5.114118e-001,-1.393149e-005,1.411252e-005
5.122059e-001,-1.493858e-005,1.411557e-005
5.130000e-001,-1.460288e-005,1.412472e-005
5.137941e-001,-1.560998e-005,1.412992e-005
5.145882e-001,-1.493858e-005,1.413856e-005
5.153824e-001,-1.460288e-005,1.414183e-005
5.161765e-001,-1.258869e-005,1.414654e-005
5.169706e-001,-1.225299e-005,1.414748e-005
5.177647e-001,-1.493858e-005,1.414357e-005
5.185588e-001,-1.577783e-005,1.414126e-005
5.193529e-001,-1.393149e-005,1.414848e-005
5.201471e-001,-1.493858e-005,1.415609e-005
5.209412e-001,-1.426719e-005,1.416383e-005
5.217353e-001,-1.393149e-005,1.416542e-005
5.225294e-001,-1.309224e-005,1.416215e-005
5.233235e-001,-1.359579e-005,1.415161e-005
5.241176e-001,-1.393149e-005,1.414380e-005
5.249118e-001,-1.426719e-005,1.413822e-005
5.257059e-001,-1.560998e-005,1.413370e-005
5.265000e-001,-1.661708e-005,1.413822e-005
5.272941e-001,-1.527428e-005,1.414530e-005
5.280882e-001,-1.225299e-005,1.415602e-005
5.288824e-001,-1.158160e-005,1.414780e-005
5.296765e-001,-1.225299e-005,1.414157e-005
5.304706e-001,-1.426719e-005,1.413556e-005
5.312647e-001,-1.560998e-005,1.413335e-005
5.320588e-001,-1.393149e-005,1.413998e-005
5.328529e-001,-1.493858e-005,1.413670e-005
5.336471e-001,-1.443504e-005,1.414302e-005
5.344412e-001,-1.426719e-005,1.414567e-005
5.352353e-001,-1.460288e-005,1.414674e-005
5.360294e-001,-1.359579e-005,1.415144e-005
5.368235e-001,-1.527428e-005,1.414713e-005
5.376176e-001,-1.393149e-005,1.414827e-005
5.384118e-001,-1.426719e-005,1.414500e-005
5.392059e-001,-1.359579e-005,1.414279e-005
5.400000e-001,-1.728847e-005,1.414279e-005
5.407941e-001,-1.628138e-005,1.415132e-005
5.415882e-001,-1.326009e-005,1.416034e-005
5.423824e-001,-1.560998e-005,1.416084e-005
5.431765e-001,-1.493858e-005,1.416315e-005
5.439706e-001,-1.393149e-005,1.416084e-005
5.447647e-001,-1.560998e-005,1.416084e-005
5.455588e-001,-1.359579e-005,1.416535e-005
5.463529e-001,-1.376364e-005,1.415990e-005
5.471471e-001,-1.326009e-005,1.415831e-005
5.479412e-001,-1.191730e-005,1.415626e-005
5.487353e-001,-1.309224e-005,1.415040e-005
5.495294e-001,-1.426719e-005,1.414679e-005
5.503235e-001,-1.359579e-005,1.415090e-005
5.511176e-001,-1.225299e-005,1.414658e-005
5.519118e-001,-1.527428e-005,1.413836e-005
5.527059e-001,-1.493858e-005,1.413600e-005
5.535000e-001,-1.158160e-005,1.414133e-005
5.542941e-001,-1.225299e-005,1.413130e-005
5.550882e-001,-1.393149e-005,1.412891e-005
5.558824e-001,-1.426719e-005,1.413339e-005
5.566765e-001,-1.124590e-005,1.413847e-005
5.574706e-001,-1.493858e-005,1.413189e-005
5.582647e-001,-1.460288e-005,1.413189e-005
5.590588e-001,-1.225299e-005,1.412846e-005
5.598529e-001,-1.426719e-005,1.412656e-005
5.606471e-001,-1.443504e-005,1.413258e-005
5.614412e-001,-1.426719e-005,1.413914e-005
5.622353e-001,-1.426719e-005,1.414695e-005
5.630294e-001,-1.527428e-005,1.415106e-005
5.638235e-001,-1.560998e-005,1.415652e-005
5.646176e-001,-1.460288e-005,1.416313e-005
5.654118e-001,-1.426719e-005,1.416476e-005
5.662059e-001,-1.527428e-005,1.416476e-005
5.670000e-001,-1.292439e-005,1.416810e-005
5.677941e-001,-1.493858e-005,1.416953e-005
5.685882e-001,-1.359579e-005,1.418040e-005
5.693824e-001,-1.258869e-005,1.418429e-005
5.701765e-001,-1.426719e-005,1.417923e-005
5.709706e-001,-1.359579e-005,1.417589e-005
5.717647e-001,-1.359579e-005,1.417432e-005
5.725588e-001,-1.493858e-005,1.417432e-005
5.733529e-001,-1.426719e-005,1.416961e-005
5.741471e-001,-1.258869e-005,1.416451e-005
5.749412e-001,-1.493858e-005,1.415252e-005
5.757353e-001,-1.359579e-005,1.415473e-005
5.765294e-001,-1.225299e-005,1.415421e-005
5.773235e-001,-1.393149e-005,1.414820e-005
5.781176e-001,-1.393149e-005,1.414714e-005
5.789118e-001,-1.258869e-005,1.415114e-005
5.797059e-001,-1.460288e-005,1.415018e-005
5.805000e-001,-1.242084e-005,1.415338e-005
5.812941e-001,-1.292439e-005,1.414783e-005
5.820882e-001,-1.359579e-005,1.414783e-005
5.828824e-001,-1.292439e-005,1.414121e-005
5.836765e-001,-1.225299e-005,1.413016e-005
5.844706e-001,-1.493858e-005,1.412193e-005
5.852647e-001,-1.560998e-005,1.412193e-005
5.860588e-001,-1.762417e-005,1.412646e-005
5.868529e-001,-1.728847e-005,1.413852e-005
5.876471e-001,-1.628138e-005,1.414108e-005
5.884412e-001,-1.510643e-005,1.414907e-005
5.892353e-001,-1.493858e-005,1.415786e-005
5.900294e-001,-1.527428e-005,1.416513e-005
5.908235e-001,-1.460288e-005,1.416739e-005
5.916176e-001,-1.426719e-005,1.416396e-005
5.924118e-001,-1.493858e-005,1.416397e-005
5.932059e-001,-1.628138e-005,1.415925e-005
5.940000e-001,-1.628138e-005,1.416397e-005
5.947941e-001,-1.326009e-005,1.417688e-005
5.955882e-001,-1.510643e-005,1.418156e-005
5.963824e-001,-1.309224e-005,1.418939e-005
5.971765e-001,-1.493858e-005,1.419084e-005
5.979706e-001,-1.493858e-005,1.419084e-005
5.987647e-001,-1.225299e-005,1.419514e-005
5.995588e-001,-1.426719e-005,1.418915e-005
6.003529e-001,-1.258869e-005,1.418915e-005
6.011471e-001,-1.225299e-005,1.418515e-005
6.019412e-001,-1.225299e-005,1.418125e-005
6.027353e-001,-1.258869e-005,1.417525e-005
6.035294e-001,-1.460288e-005,1.416327e-005
6.043235e-001,-1.443504e-005,1.416102e-005
6.051176e-001,-1.393149e-005,1.416156e-005
6.059118e-001,-1.292439e-005,1.416050e-005
6.067059e-001,-1.493858e-005,1.416000e-005
6.075000e-001,-1.376364e-005,1.416112e-005
6.082941e-001,-1.426719e-005,1.415733e-005
6.090882e-001,-1.493858e-005,1.415512e-005
6.098824e-001,-1.158160e-005,1.415943e-005
6.106765e-001,-1.292439e-005,1.415373e-005
6.114706e-001,-1.493858e-005,1.414741e-005
6.122647e-001,-1.577783e-005,1.414627e-005
6.130588e-001,-1.393149e-005,1.415348e-005
6.138529e-001,-1.426719e-005,1.415021e-005
6.146471e-001,-1.560998e-005,1.415622e-005
6.154412e-001,-1.292439e-005,1.417023e-005
6.162353e-001,-1.426719e-005,1.416162e-005
6.170294e-001,-1.762417e-005,1.415941e-005
6.178235e-001,-1.359579e-005,1.417145e-005
6.186176e-001,-1.359579e-005,1.416484e-005
6.194118e-001,-1.292439e-005,1.416053e-005
6.202059e-001,-1.493858e-005,1.416243e-005
6.210000e-001,-1.225299e-005,1.416243e-005
6.217941e-001,-1.359579e-005,1.415191e-005
6.225882e-001,-1.560998e-005,1.414529e-005
6.233824e-001,-1.393149e-005,1.414980e-005
6.241765e-001,-1.527428e-005,1.414653e-005
6.249706e-001,-1.393149e-005,1.414295e-005
6.257647e-001,-1.493858e-005,1.414399e-005
6.265588e-001,-1.544213e-005,1.414285e-005
6.273529e-001,-1.493858e-005,1.414458e-005
6.281471e-001,-1.393149e-005,1.414678e-005
6.289412e-001,-1.326009e-005,1.415079e-005
6.297353e-001,-1.040665e-005,1.414978e-005
6.305294e-001,-1.158160e-005,1.413453e-005
6.313235e-001,-1.426719e-005,1.411977e-005
6.321176e-001,-1.493858e-005,1.411977e-005
6.329118e-001,-1.376364e-005,1.412937e-005
6.337059e-001,-1.393149e-005,1.413090e-005
6.345000e-001,-1.091020e-005,1.412472e-005
6.352941e-001,-1.292439e-005,1.411831e-005
6.360882e-001,-1.560998e-005,1.411928e-005
6.368824e-001,-1.359579e-005,1.412792e-005
6.376765e-001,-1.326009e-005,1.412688e-005
6.384706e-001,-1.376364e-005,1.412586e-005
6.392647e-001,-1.258869e-005,1.413029e-005
6.400588e-001,-1.258869e-005,1.413123e-005
6.408529e-001,-1.091020e-005,1.412826e-005
6.416471e-001,-1.258869e-005,1.412186e-005
6.424412e-001,-1.292439e-005,1.411677e-005
6.432353e-001,-1.242084e-005,1.411265e-005
6.440294e-001,-1.292439e-005,1.410488e-005
6.448235e-001,-1.292439e-005,1.410075e-005
6.456176e-001,-1.493858e-005,1.410026e-005
6.464118e-001,-1.560998e-005,1.411118e-005
6.472059e-001,-1.493858e-005,1.411570e-005
6.480000e-001,-1.292439e-005,1.411571e-005
6.487941e-001,-1.292439e-005,1.411667e-005
6.495882e-001,-1.292439e-005,1.411362e-005
6.503824e-001,-1.493858e-005,1.410004e-005
6.511765e-001,-1.510643e-005,1.409652e-005
6.519706e-001,-1.359579e-005,1.410244e-005
6.527647e-001,-1.242084e-005,1.410244e-005
6.535588e-001,-1.292439e-005,1.409687e-005
6.543529e-001,-1.359579e-005,1.410146e-005
6.551471e-001,-1.493858e-005,1.410146e-005
6.559412e-001,-1.426719e-005,1.410031e-005
6.567353e-001,-1.544213e-005,1.410242e-005
6.575294e-001,-1.644922e-005,1.409942e-005
6.583235e-001,-1.695277e-005,1.409942e-005
6.591176e-001,-1.594568e-005,1.410995e-005
6.599118e-001,-1.560998e-005,1.411458e-005
6.607059e-001,-1.527428e-005,1.412322e-005
6.615000e-001,-1.628138e-005,1.412548e-005
6.622941e-001,-1.644922e-005,1.413348e-005
6.630882e-001,-1.695277e-005,1.414514e-005
6.638824e-001,-1.695277e-005,1.415458e-005
6.646765e-001,-1.560998e-005,1.416066e-005
6.654706e-001,-1.560998e-005,1.416829e-005
6.662647e-001,-1.628138e-005,1.417490e-005
6.670588e-001,-1.762417e-005,1.417847e-005
6.678529e-001,-1.695277e-005,1.419259e-005
6.686471e-001,-1.628138e-005,1.420609e-005
6.694412e-001,-1.712062e-005,1.421707e-005
6.702353e-001,-1.695277e-005,1.423308e-005
6.710294e-001,-1.560998e-005,1.424245e-005
6.718235e-001,-1.594568e-005,1.424903e-005
6.726176e-001,-1.661708e-005,1.425678e-005
6.734118e-001,-1.628138e-005,1.427085e-005
6.742059e-001,-1.661708e-005,1.427771e-005
6.750000e-001,-1.628138e-005,1.427895e-005
6.757941e-001,-1.359579e-005,1.427895e-005
6.765882e-001,-1.443504e-005,1.427792e-005
6.773824e-001,-1.443504e-005,1.427737e-005
6.781765e-001,-1.359579e-005,1.427572e-005
6.789706e-001,-1.359579e-005,1.427771e-005
6.797647e-001,-1.426719e-005,1.427771e-005
6.805588e-001,-1.292439e-005,1.427552e-005
6.813529e-001,-1.510643e-005,1.426209e-005
6.821471e-001,-1.359579e-005,1.426693e-005
6.829412e-001,-1.107805e-005,1.426265e-005
6.837353e-001,-1.225299e-005,1.425087e-005
6.845294e-001,-1.124590e-005,1.424271e-005
6.853235e-001,-1.158160e-005,1.423462e-005
6.861176e-001,-1.426719e-005,1.422466e-005
6.869118e-001,-1.393149e-005,1.422675e-005
6.877059e-001,-1.225299e-005,1.422461e-005
6.885000e-001,-1.376364e-005,1.421809e-005
6.892941e-001,-1.326009e-005,1.421542e-005
6.900882e-001,-1.292439e-005,1.421736e-005
6.908824e-001,-1.426719e-005,1.421832e-005
6.916765e-001,-1.258869e-005,1.422337e-005
6.924706e-001,-1.191730e-005,1.421499e-005
6.932647e-001,-1.158160e-005,1.421019e-005
6.940588e-001,-1.426719e-005,1.420399e-005
6.948529e-001,-1.393149e-005,1.420291e-005
6.956471e-001,-1.057450e-005,1.419965e-005
6.964412e-001,-9.231709e-006,1.419042e-005
6.972353e-001,-9.903105e-006,1.417714e-005
6.980294e-001,-1.376364e-005,1.416739e-005
6.988235e-001,-1.426719e-005,1.416990e-005
6.996176e-001,-1.426719e-005,1.417097e-005
7.004118e-001,-1.359579e-005,1.416154e-005
7.012059e-001,-1.393149e-005,1.415373e-005
7.020000e-001,-1.242084e-005,1.415046e-005
7.027941e-001,-1.124590e-005,1.414702e-005
7.035882e-001,-1.393149e-005,1.414045e-005
7.043824e-001,-1.359579e-005,1.413603e-005
7.051765e-001,-1.426719e-005,1.413499e-005
7.059706e-001,-1.594568e-005,1.413445e-005
7.067647e-001,-1.426719e-005,1.414427e-005
7.075588e-001,-1.560998e-005,1.414638e-005
7.083529e-001,-1.309224e-005,1.415500e-005
7.091471e-001,-1.426719e-005,1.414687e-005
7.099412e-001,-1.393149e-005,1.413482e-005
7.107353e-001,-1.426719e-005,1.413266e-005
7.115294e-001,-1.292439e-005,1.413045e-005
7.123235e-001,-1.527428e-005,1.411940e-005
7.131176e-001,-1.628138e-005,1.411581e-005
7.139118e-001,-1.426719e-005,1.412275e-005
7.147059e-001,-1.493858e-005,1.412486e-005
7.155000e-001,-1.762417e-005,1.413489e-005
7.162941e-001,-1.594568e-005,1.415562e-005
7.170882e-001,-1.493858e-005,1.416639e-005
7.178824e-001,-1.560998e-005,1.417221e-005
7.186765e-001,-1.393149e-005,1.417882e-005
7.194706e-001,-1.258869e-005,1.417985e-005
7.202647e-001,-1.460288e-005,1.417986e-005
7.210588e-001,-1.560998e-005,1.418040e-005
7.218529e-001,-1.426719e-005,1.418382e-005
7.226471e-001,-1.493858e-005,1.418592e-005
7.234412e-001,-1.493858e-005,1.419123e-005
7.242353e-001,-1.393149e-005,1.419343e-005
7.250294e-001,-1.426719e-005,1.418903e-005
7.258235e-001,-1.577783e-005,1.419009e-005
7.266176e-001,-1.594568e-005,1.419728e-005
7.274118e-001,-1.393149e-005,1.420077e-005
7.282059e-001,-1.258869e-005,1.420181e-005
7.290000e-001,-1.359579e-005,1.419225e-005
7.297941e-001,-1.393149e-005,1.418325e-005
7.305882e-001,-1.560998e-005,1.417998e-005
7.313824e-001,-1.577783e-005,1.417998e-005
7.321765e-001,-1.376364e-005,1.418918e-005
7.329706e-001,-1.359579e-005,1.418759e-005
7.337647e-001,-1.393149e-005,1.418549e-005
7.345588e-001,-1.393149e-005,1.418166e-005
7.353529e-001,-1.359579e-005,1.417245e-005
7.361471e-001,-1.326009e-005,1.416814e-005
7.369412e-001,-1.326009e-005,1.416913e-005
7.377353e-001,-1.292439e-005,1.416812e-005
7.385294e-001,-1.527428e-005,1.416611e-005
7.393235e-001,-1.326009e-005,1.417257e-005
7.401176e-001,-1.359579e-005,1.416726e-005
7.409118e-001,-1.393149e-005,1.416827e-005
7.417059e-001,-1.577783e-005,1.417131e-005
7.425000e-001,-1.493858e-005,1.418671e-005
7.432941e-001,-1.426719e-005,1.419490e-005
7.440882e-001,-1.560998e-005,1.420438e-005
7.448824e-001,-1.359579e-005,1.421955e-005
7.456765e-001,-1.460288e-005,1.422154e-005
7.464706e-001,-1.695277e-005,1.422573e-005
7.472647e-001,-1.594568e-005,1.424109e-005
7.480588e-001,-1.628138e-005,1.424781e-005
7.488529e-001,-1.527428e-005,1.425193e-005
7.496471e-001,-1.359579e-005,1.425735e-005
7.504412e-001,-1.359579e-005,1.425078e-005
7.512353e-001,-1.443504e-005,1.424536e-005
7.520294e-001,-1.443504e-005,1.424590e-005
7.528235e-001,-1.560998e-005,1.424424e-005
7.536176e-001,-1.695277e-005,1.425376e-005
7.544118e-001,-1.628138e-005,1.426418e-005
7.552059e-001,-1.359579e-005,1.427608e-005
7.560000e-001,-1.426719e-005,1.427807e-005
7.567941e-001,-1.577783e-005,1.428402e-005
7.575882e-001,-1.393149e-005,1.429503e-005
7.583824e-001,-1.594568e-005,1.428589e-005
7.591765e-001,-1.359579e-005,1.428220e-005
7.599706e-001,-1.124590e-005,1.428370e-005
7.607647e-001,-1.191730e-005,1.427719e-005
7.615588e-001,-1.510643e-005,1.427138e-005
7.623529e-001,-1.124590e-005,1.427194e-005
7.631471e-001,-1.225299e-005,1.426226e-005
7.639412e-001,-1.393149e-005,1.425181e-005
7.647353e-001,-1.359579e-005,1.424856e-005
7.655294e-001,-1.594568e-005,1.424539e-005
7.663235e-001,-1.359579e-005,1.425609e-005
7.671176e-001,-1.527428e-005,1.425997e-005
7.679118e-001,-1.594568e-005,1.426110e-005
7.687059e-001,-1.560998e-005,1.426169e-005
7.695000e-001,-1.762417e-005,1.426723e-005
7.702941e-001,-1.527428e-005,1.427698e-005
7.710882e-001,-1.426719e-005,1.428030e-005
7.718824e-001,-1.292439e-005,1.428136e-005
7.726765e-001,-1.292439e-005,1.428087e-005
7.734706e-001,-1.359579e-005,1.427889e-005
7.742647e-001,-1.527428e-005,1.427786e-005
7.750588e-001,-1.510643e-005,1.428117e-005
7.758529e-001,-1.493858e-005,1.427945e-005
7.766471e-001,-1.493858e-005,1.427354e-005
7.774412e-001,-1.292439e-005,1.427241e-005
7.782353e-001,-1.091020e-005,1.427429e-005
7.790294e-001,-1.359579e-005,1.427261e-005
7.798235e-001,-1.560998e-005,1.427648e-005
7.806176e-001,-1.393149e-005,1.428096e-005
7.814118e-001,-1.158160e-005,1.427543e-005
7.822059e-001,-1.359579e-005,1.426874e-005
7.830000e-001,-1.158160e-005,1.426446e-005
7.837941e-001,-1.359579e-005,1.425617e-005
7.845882e-001,-1.359579e-005,1.425408e-005
7.853824e-001,-1.426719e-005,1.425091e-005
7.861765e-001,-1.426719e-005,1.425300e-005
7.869706e-001,-1.560998e-005,1.424967e-005
7.877647e-001,-1.762417e-005,1.425521e-005
7.885588e-001,-1.695277e-005,1.426717e-005
7.893529e-001,-1.443504e-005,1.427861e-005
7.901471e-001,-1.493858e-005,1.426851e-005
7.909412e-001,-1.359579e-005,1.426383e-005
7.917353e-001,-1.359579e-005,1.426484e-005
7.925294e-001,-1.426719e-005,1.425827e-005
7.933235e-001,-1.225299e-005,1.425608e-005
7.941176e-001,-1.158160e-005,1.425117e-005
7.949118e-001,-1.359579e-005,1.423893e-005
7.957059e-001,-1.493858e-005,1.423893e-005
7.965000e-001,-1.359579e-005,1.424270e-005
7.972941e-001,-1.426719e-005,1.424370e-005
7.980882e-001,-1.493858e-005,1.425058e-005
7.988824e-001,-1.594568e-005,1.425636e-005
7.996765e-001,-1.426719e-005,1.426203e-005
8.004706e-001,-1.628138e-005,1.426411e-005
8.012647e-001,-1.527428e-005,1.427694e-005
8.020588e-001,-1.326009e-005,1.427694e-005
8.028529e-001,-1.560998e-005,1.427166e-005
8.036471e-001,-1.426719e-005,1.428388e-005
8.044412e-001,-1.158160e-005,1.428983e-005
8.052353e-001,-1.510643e-005,1.428315e-005
8.060294e-001,-1.762417e-005,1.428590e-005
8.068235e-001,-1.326009e-005,1.430641e-005
8.076176e-001,-1.242084e-005,1.430114e-005
8.084118e-001,-1.393149e-005,1.429457e-005
8.092059e-001,-1.493858e-005,1.429947e-005
8.100000e-001,-1.460288e-005,1.430165e-005
8.107941e-001,-1.376364e-005,1.430219e-005
8.115882e-001,-1.443504e-005,1.430062e-005
8.123824e-001,-1.560998e-005,1.430116e-005
8.131765e-001,-1.493858e-005,1.430231e-005
8.139706e-001,-1.560998e-005,1.430003e-005
8.147647e-001,-1.460288e-005,1.430341e-005
8.155588e-001,-1.359579e-005,1.430449e-005
8.163529e-001,-1.326009e-005,1.429910e-005
8.171471e-001,-1.023880e-005,1.430008e-005
8.179412e-001,-1.493858e-005,1.428689e-005
8.187353e-001,-1.527428e-005,1.429116e-005
8.195294e-001,-1.493858e-005,1.429950e-005
8.203235e-001,-1.393149e-005,1.430168e-005
8.211176e-001,-1.426719e-005,1.430271e-005
8.219118e-001,-1.426719e-005,1.430479e-005
8.227059e-001,-1.376364e-005,1.430261e-005
8.235000e-001,-1.527428e-005,1.430104e-005
8.242941e-001,-1.393149e-005,1.430937e-005
8.250882e-001,-1.493858e-005,1.430613e-005
8.258824e-001,-1.292439e-005,1.431040e-005
8.266765e-001,-1.359579e-005,1.431228e-005
8.274706e-001,-1.493858e-005,1.431125e-005
8.282647e-001,-1.359579e-005,1.431448e-005
8.290588e-001,-1.393149e-005,1.431742e-005
8.298529e-001,-1.393149e-005,1.431529e-005
8.306471e-001,-1.560998e-005,1.431971e-005
8.314412e-001,-1.493858e-005,1.432823e-005
8.322353e-001,-1.762417e-005,1.433249e-005
8.330294e-001,-1.493858e-005,1.434843e-005
8.338235e-001,-1.359579e-005,1.435653e-005
8.346176e-001,-1.493858e-005,1.435228e-005
8.354118e-001,-1.560998e-005,1.435001e-005
8.362059e-001,-1.493858e-005,1.434258e-005
8.370000e-001,-1.393149e-005,1.433417e-005
8.377941e-001,-1.443504e-005,1.432628e-005
8.385882e-001,-1.292439e-005,1.432407e-005
8.393824e-001,-1.527428e-005,1.431783e-005
8.401765e-001,-1.359579e-005,1.431783e-005
8.409706e-001,-1.242084e-005,1.431467e-005
8.417647e-001,-1.443504e-005,1.430919e-005
8.425588e-001,-1.493858e-005,1.430755e-005
8.433529e-001,-1.527428e-005,1.430288e-005
8.441471e-001,-1.359579e-005,1.429934e-005
8.449412e-001,-1.225299e-005,1.430034e-005
8.457353e-001,-1.527428e-005,1.429165e-005
8.465294e-001,-1.426719e-005,1.429854e-005
8.473235e-001,-1.493858e-005,1.429636e-005
8.481176e-001,-1.493858e-005,1.429636e-005
8.489118e-001,-1.359579e-005,1.430449e-005
8.497059e-001,-1.527428e-005,1.430241e-005
8.505000e-001,-1.493858e-005,1.431074e-005
8.512941e-001,-1.493858e-005,1.431886e-005
8.520882e-001,-1.493858e-005,1.432698e-005
8.528824e-001,-1.359579e-005,1.433416e-005
8.536765e-001,-1.225299e-005,1.433101e-005
8.544706e-001,-1.376364e-005,1.432454e-005
8.552647e-001,-1.359579e-005,1.432402e-005
8.560588e-001,-1.510643e-005,1.432600e-005
8.568529e-001,-1.560998e-005,1.432656e-005
8.576471e-001,-1.292439e-005,1.433259e-005
8.584412e-001,-1.258869e-005,1.432853e-005
8.592353e-001,-1.292439e-005,1.432134e-005
8.600294e-001,-1.493858e-005,1.432500e-005
8.608235e-001,-1.560998e-005,1.433124e-005
8.616176e-001,-1.359579e-005,1.433351e-005
8.624118e-001,-1.258869e-005,1.432639e-005
8.632059e-001,-1.426719e-005,1.432243e-005
8.640000e-001,-1.426719e-005,1.432243e-005
8.647941e-001,-1.493858e-005,1.431797e-005
8.655882e-001,-1.393149e-005,1.432421e-005
8.663824e-001,-1.292439e-005,1.432316e-005
8.671765e-001,-1.359579e-005,1.430719e-005
8.679706e-001,-1.292439e-005,1.430719e-005
8.687647e-001,-1.359579e-005,1.430521e-005
8.695588e-001,-1.326009e-005,1.430719e-005
8.703529e-001,-1.326009e-005,1.430192e-005
8.711471e-001,-1.258869e-005,1.430478e-005
8.719412e-001,-1.225299e-005,1.430185e-005
8.727353e-001,-1.493858e-005,1.429143e-005
8.735294e-001,-1.493858e-005,1.429467e-005
8.743235e-001,-1.426719e-005,1.429354e-005
8.751176e-001,-1.493858e-005,1.429459e-005
8.759118e-001,-1.460288e-005,1.429459e-005
8.767059e-001,-1.359579e-005,1.429178e-005
8.775000e-001,-1.594568e-005,1.428751e-005
8.782941e-001,-1.795987e-005,1.429422e-005
8.790882e-001,-1.628138e-005,1.431055e-005
8.798824e-001,-1.510643e-005,1.432799e-005
8.806765e-001,-1.359579e-005,1.433844e-005
8.814706e-001,-1.258869e-005,1.433636e-005
8.822647e-001,-1.225299e-005,1.432918e-005
8.830588e-001,-1.527428e-005,1.432481e-005
8.838529e-001,-1.728847e-005,1.432917e-005
8.846471e-001,-1.393149e-005,1.434914e-005
8.854412e-001,-1.426719e-005,1.435214e-005
8.862353e-001,-1.158160e-005,1.434769e-005
8.870294e-001,-1.493858e-005,1.434206e-005
8.878235e-001,-1.493858e-005,1.434731e-005
8.886176e-001,-1.326009e-005,1.435106e-005
8.894118e-001,-1.376364e-005,1.435298e-005
8.902059e-001,-1.493858e-005,1.435641e-005
8.910000e-001,-1.527428e-005,1.436796e-005
8.917941e-001,-1.628138e-005,1.437625e-005
8.925882e-001,-1.426719e-005,1.438711e-005
8.933824e-001,-1.426719e-005,1.439256e-005
8.941765e-001,-1.359579e-005,1.439660e-005
8.949706e-001,-1.225299e-005,1.439857e-005
8.957647e-001,-1.258869e-005,1.439049e-005
8.965588e-001,-1.359579e-005,1.438106e-005
8.973529e-001,-1.560998e-005,1.437682e-005
8.981471e-001,-1.225299e-005,1.438530e-005
8.989412e-001,-1.158160e-005,1.438343e-005
8.997353e-001,-1.191730e-005,1.437979e-005
9.005294e-001,-1.309224e-005,1.437080e-005
9.013235e-001,-1.661708e-005,1.436450e-005
9.021176e-001,-1.560998e-005,1.437462e-005
9.029118e-001,-1.326009e-005,1.438452e-005
9.037059e-001,-1.359579e-005,1.438549e-005
9.045000e-001,-1.426719e-005,1.438549e-005
9.052941e-001,-1.393149e-005,1.438332e-005
9.060882e-001,-1.393149e-005,1.438227e-005
9.068824e-001,-1.292439e-005,1.437736e-005
9.076765e-001,-1.426719e-005,1.436589e-005
9.084706e-001,-1.695277e-005,1.435659e-005
9.092647e-001,-1.712062e-005,1.436027e-005
9.100588e-001,-1.661708e-005,1.436575e-005
9.108529e-001,-1.661708e-005,1.437049e-005
9.116471e-001,-1.628138e-005,1.437172e-005
9.124412e-001,-1.493858e-005,1.437111e-005
9.132353e-001,-1.393149e-005,1.436399e-005
9.140294e-001,-1.493858e-005,1.435364e-005
9.148235e-001,-1.292439e-005,1.435137e-005
9.156176e-001,-1.258869e-005,1.434286e-005
9.164118e-001,-1.443504e-005,1.433102e-005
9.172059e-001,-1.443504e-005,1.431965e-005
9.180000e-001,-1.493858e-005,1.431086e-005
9.187941e-001,-1.359579e-005,1.430620e-005
9.195882e-001,-1.493858e-005,1.429414e-005
9.203824e-001,-1.359579e-005,1.428698e-005
9.211765e-001,-1.091020e-005,1.428043e-005
9.219706e-001,-1.359579e-005,1.426534e-005
9.227647e-001,-1.393149e-005,1.425515e-005
9.235588e-001,-1.594568e-005,1.424721e-005
9.243529e-001,-1.661708e-005,1.424477e-005
9.251471e-001,-1.393149e-005,1.424600e-005
9.259412e-001,-1.258869e-005,1.424704e-005
9.267353e-001,-1.527428e-005,1.424146e-005
9.275294e-001,-1.594568e-005,1.424425e-005
9.283235e-001,-1.426719e-005,1.425201e-005
9.291176e-001,-1.443504e-005,1.425410e-005
9.299118e-001,-1.795987e-005,1.425464e-005
9.307059e-001,-1.762417e-005,1.427200e-005
9.315000e-001,-1.695277e-005,1.428119e-005
9.322941e-001,-1.359579e-005,1.429262e-005
9.330882e-001,-1.426719e-005,1.429954e-005
9.338824e-001,-1.359579e-005,1.430548e-005
9.346765e-001,-1.460288e-005,1.431198e-005
9.354706e-001,-1.359579e-005,1.432078e-005
9.362647e-001,-1.309224e-005,1.431870e-005
9.370588e-001,-1.493858e-005,1.431618e-005
9.378529e-001,-1.426719e-005,1.432430e-005
9.386471e-001,-1.493858e-005,1.432587e-005
9.394412e-001,-1.594568e-005,1.433113e-005
9.402353e-001,-1.493858e-005,1.434081e-005
9.410294e-001,-1.359579e-005,1.434299e-005
9.418235e-001,-1.225299e-005,1.434592e-005
9.426176e-001,-1.426719e-005,1.434682e-005
9.434118e-001,-1.560998e-005,1.435452e-005
9.442059e-001,-1.359579e-005,1.435897e-005
9.450000e-001,-1.560998e-005,1.435795e-005
9.457941e-001,-1.409934e-005,1.437256e-005
9.465882e-001,-1.376364e-005,1.438514e-005
9.473824e-001,-1.426719e-005,1.439525e-005
9.481765e-001,-1.225299e-005,1.439681e-005
9.489706e-001,-1.292439e-005,1.439090e-005
9.497647e-001,-1.426719e-005,1.438686e-005
9.505588e-001,-1.359579e-005,1.438893e-005
9.513529e-001,-1.091020e-005,1.438791e-005
9.521471e-001,-1.023880e-005,1.438401e-005
9.529412e-001,-1.158160e-005,1.438161e-005
9.537353e-001,-1.225299e-005,1.437497e-005
9.545294e-001,-1.560998e-005,1.437113e-005
9.553235e-001,-1.493858e-005,1.437557e-005
9.561176e-001,-1.443504e-005,1.437212e-005
9.569118e-001,-1.560998e-005,1.437266e-005
9.577059e-001,-1.376364e-005,1.437266e-005
9.585000e-001,-1.560998e-005,1.437466e-005
9.592941e-001,-1.493858e-005,1.437910e-005
9.600882e-001,-1.225299e-005,1.438232e-005
9.608824e-001,-1.493858e-005,1.437640e-005
9.616765e-001,-1.493858e-005,1.438262e-005
9.624706e-001,-1.493858e-005,1.438150e-005
9.632647e-001,-1.393149e-005,1.437685e-005
9.640588e-001,-1.091020e-005,1.437580e-005
9.648529e-001,-1.309224e-005,1.436427e-005
9.656471e-001,-1.628138e-005,1.434883e-005
9.664412e-001,-1.628138e-005,1.435003e-005
9.672353e-001,-1.628138e-005,1.435468e-005
9.680294e-001,-1.359579e-005,1.435705e-005
9.688235e-001,-1.258869e-005,1.435603e-005
9.696176e-001,-1.393149e-005,1.435603e-005
9.704118e-001,-1.258869e-005,1.435390e-005
9.712059e-001,-1.091020e-005,1.434445e-005
9.720000e-001,-1.393149e-005,1.433507e-005
9.727941e-001,-1.628138e-005,1.433184e-005
9.735882e-001,-1.426719e-005,1.433649e-005
9.743824e-001,-1.292439e-005,1.433754e-005
9.751765e-001,-1.225299e-005,1.433349e-005
9.759706e-001,-1.292439e-005,1.432251e-005
9.767647e-001,-1.493858e-005,1.431281e-005
9.775588e-001,-1.460288e-005,1.431604e-005
9.783529e-001,-1.493858e-005,1.432213e-005
9.791471e-001,-1.426719e-005,1.432639e-005
9.799412e-001,-1.393149e-005,1.432744e-005
9.807353e-001,-1.359579e-005,1.432193e-005
9.815294e-001,-1.393149e-005,1.431480e-005
9.823235e-001,-1.359579e-005,1.431532e-005
9.831176e-001,-1.359579e-005,1.431532e-005
9.839118e-001,-1.359579e-005,1.431429e-005
9.847059e-001,-1.292439e-005,1.431326e-005
9.855000e-001,-1.359579e-005,1.431128e-005
9.862941e-001,-1.309224e-005,1.431229e-005
9.870882e-001,-1.426719e-005,1.431179e-005
9.878824e-001,-1.426719e-005,1.431585e-005
9.886765e-001,-1.460288e-005,1.431255e-005
9.894706e-001,-1.661708e-005,1.431671e-005
9.902647e-001,-1.493858e-005,1.432686e-005
9.910588e-001,-1.426719e-005,1.433009e-005
9.918529e-001,-1.460288e-005,1.432504e-005
9.926471e-001,-1.594568e-005,1.432394e-005
9.934412e-001,-1.628138e-005,1.432958e-005
9.942353e-001,-1.560998e-005,1.433196e-005
9.950294e-001,-1.426719e-005,1.433849e-005
9.958235e-001,-1.292439e-005,1.433741e-005
9.966176e-001,-1.091020e-005,1.432404e-005
9.974118e-001,-1.376364e-005,1.430900e-005
9.982059e-001,-1.493858e-005,1.430058e-005
9.990000e-001,-1.258869e-005,1.429945e-005
9.997941e-001,-1.460288e-005,1.429651e-005
1.000588e+000,-1.309224e-005,1.429968e-005
1.001382e+000,-1.225299e-005,1.429556e-005
1.002176e+000,-1.158160e-005,1.428907e-005
1.002971e+000,-1.225299e-005,1.427686e-005
1.003765e+000,-1.359579e-005,1.426154e-005
1.004559e+000,-1.460288e-005,1.425258e-005
1.005353e+000,-1.493858e-005,1.425575e-005
1.006147e+000,-1.426719e-005,1.425794e-005
1.006941e+000,-1.359579e-005,1.425287e-005
1.007735e+000,-1.426719e-005,1.425184e-005
1.008529e+000,-1.695277e-005,1.424617e-005
1.009324e+000,-1.762417e-005,1.425763e-005
1.010118e+000,-1.762417e-005,1.427818e-005
1.010912e+000,-1.510643e-005,1.429697e-005
1.011706e+000,-1.527428e-005,1.429697e-005
1.012500e+000,-1.393149e-005,1.430887e-005
1.013294e+000,-1.426719e-005,1.431376e-005
1.014088e+000,-1.359579e-005,1.431481e-005
1.014882e+000,-1.393149e-005,1.431481e-005
1.015676e+000,-1.393149e-005,1.430811e-005
1.016471e+000,-1.359579e-005,1.430914e-005
1.017265e+000,-1.124590e-005,1.430375e-005
1.018059e+000,-1.191730e-005,1.428952e-005
1.018853e+000,-1.326009e-005,1.427818e-005
1.019647e+000,-1.695277e-005,1.426314e-005
1.020441e+000,-1.527428e-005,1.426918e-005
1.021235e+000,-1.225299e-005,1.427250e-005
1.022029e+000,-1.510643e-005,1.427062e-005
1.022824e+000,-1.695277e-005,1.427744e-005
1.023618e+000,-1.426719e-005,1.428887e-005
1.024412e+000,-1.191730e-005,1.428556e-005
1.025206e+000,-1.393149e-005,1.427595e-005
1.026000e+000,-1.560998e-005,1.427270e-005
1.026794e+000,-1.426719e-005,1.427499e-005
1.027588e+000,-1.326009e-005,1.427906e-005
1.028382e+000,-1.493858e-005,1.428540e-005
1.029176e+000,-1.493858e-005,1.428967e-005
1.029971e+000,-1.292439e-005,1.428738e-005
1.030765e+000,-1.258869e-005,1.428437e-005
1.031559e+000,-1.393149e-005,1.428708e-005
1.032353e+000,-1.493858e-005,1.428811e-005
1.033147e+000,-1.628138e-005,1.429803e-005
1.033941e+000,-1.628138e-005,1.430696e-005
1.034735e+000,-1.292439e-005,1.431589e-005
1.035529e+000,-1.493858e-005,1.431183e-005
1.036324e+000,-1.443504e-005,1.431401e-005
1.037118e+000,-1.292439e-005,1.431008e-005
1.037912e+000,-1.258869e-005,1.429410e-005
1.038706e+000,-1.326009e-005,1.427973e-005
1.039500e+000,-1.560998e-005,1.427610e-005
1.040294e+000,-1.493858e-005,1.427839e-005
1.041088e+000,-1.493858e-005,1.428266e-005
1.041882e+000,-1.527428e-005,1.428693e-005
1.042676e+000,-1.628138e-005,1.429024e-005
1.043471e+000,-1.426719e-005,1.430305e-005
1.044265e+000,-1.493858e-005,1.431077e-005
1.045059e+000,-1.023880e-005,1.431504e-005
1.045853e+000,-1.292439e-005,1.430187e-005
1.046647e+000,-1.460288e-005,1.429988e-005
1.047441e+000,-1.560998e-005,1.430096e-005
1.048235e+000,-1.544213e-005,1.430325e-005
1.049029e+000,-1.359579e-005,1.430149e-005
1.049824e+000,-1.359579e-005,1.429940e-005
1.050618e+000,-1.292439e-005,1.429047e-005
1.051412e+000,-1.225299e-005,1.428308e-005
1.052206e+000,-1.326009e-005,1.428022e-005
1.053000e+000,-1.359579e-005,1.427265e-005
1.053794e+000,-1.426719e-005,1.427056e-005
1.054588e+000,-1.359579e-005,1.427831e-005
1.055382e+000,-1.426719e-005,1.427347e-005
1.056176e+000,-1.443504e-005,1.426152e-005
1.056971e+000,-1.527428e-005,1.426515e-005
1.057765e+000,-1.695277e-005,1.427397e-005
1.058559e+000,-1.628138e-005,1.428438e-005
1.059353e+000,-1.359579e-005,1.428905e-005
1.060147e+000,-1.510643e-005,1.428589e-005
1.060941e+000,-1.493858e-005,1.429021e-005
1.061735e+000,-1.292439e-005,1.429185e-005
1.062529e+000,-1.493858e-005,1.428331e-005
1.063324e+000,-1.560998e-005,1.428331e-005
1.064118e+000,-1.493858e-005,1.428331e-005
1.064912e+000,-1.359579e-005,1.428442e-005
1.065706e+000,-1.393149e-005,1.428442e-005
1.066500e+000,-1.258869e-005,1.428645e-005
1.067294e+000,-1.292439e-005,1.429243e-005
1.068088e+000,-1.359579e-005,1.428618e-005
1.068882e+000,-1.359579e-005,1.428078e-005
1.069676e+000,-1.225299e-005,1.427650e-005
1.070471e+000,-1.258869e-005,1.427160e-005
1.071265e+000,-1.359579e-005,1.426657e-005
1.072059e+000,-1.359579e-005,1.426448e-005
1.072853e+000,-1.309224e-005,1.426397e-005
1.073647e+000,-1.426719e-005,1.425706e-005
1.074441e+000,-1.577783e-005,1.425812e-005
1.075235e+000,-1.628138e-005,1.426099e-005
1.076029e+000,-1.493858e-005,1.427194e-005
1.076824e+000,-1.426719e-005,1.427621e-005
1.077618e+000,-1.560998e-005,1.427402e-005
1.078412e+000,-1.292439e-005,1.428058e-005
1.079206e+000,-1.493858e-005,1.427757e-005
1.080000e+000,-1.309224e-005,1.428081e-005
1.080794e+000,-1.359579e-005,1.427275e-005
1.081588e+000,-1.393149e-005,1.426848e-005
1.082382e+000,-1.560998e-005,1.425547e-005
1.083176e+000,-1.426719e-005,1.425776e-005
1.083971e+000,-1.359579e-005,1.425985e-005
1.084765e+000,-1.426719e-005,1.425557e-005
1.085559e+000,-1.124590e-005,1.425109e-005
1.086353e+000,-1.225299e-005,1.424028e-005
1.087147e+000,-1.577783e-005,1.423536e-005
1.087941e+000,-1.560998e-005,1.423990e-005
1.088735e+000,-1.628138e-005,1.424847e-005
1.089529e+000,-1.560998e-005,1.425202e-005
1.090324e+000,-1.191730e-005,1.425859e-005
1.091118e+000,-1.174945e-005,1.425722e-005
1.091912e+000,-1.376364e-005,1.424937e-005
1.092706e+000,-1.426719e-005,1.424560e-005
1.093500e+000,-1.326009e-005,1.424227e-005
1.094294e+000,-1.493858e-005,1.424126e-005
1.095088e+000,-1.376364e-005,1.424942e-005
1.095882e+000,-1.359579e-005,1.424452e-005
1.096676e+000,-1.426719e-005,1.424243e-005
1.097471e+000,-1.695277e-005,1.424024e-005
1.098265e+000,-1.661708e-005,1.424742e-005
1.099059e+000,-1.560998e-005,1.425762e-005
1.099853e+000,-1.426719e-005,1.425877e-005
1.100647e+000,-1.359579e-005,1.425658e-005
1.101441e+000,-1.560998e-005,1.425230e-005
1.102235e+000,-1.560998e-005,1.425460e-005
1.103029e+000,-1.426719e-005,1.426117e-005
1.103824e+000,-1.594568e-005,1.426713e-005
1.104618e+000,-1.628138e-005,1.427436e-005
1.105412e+000,-1.326009e-005,1.428331e-005
1.106206e+000,-1.292439e-005,1.427747e-005
1.107000e+000,-1.493858e-005,1.426892e-005
1.107794e+000,-1.359579e-005,1.427518e-005
1.108588e+000,-1.527428e-005,1.427812e-005
1.109382e+000,-1.460288e-005,1.428551e-005
1.110176e+000,-1.158160e-005,1.428441e-005
1.110971e+000,-1.359579e-005,1.427219e-005
1.111765e+000,-1.460288e-005,1.427219e-005
1.112559e+000,-1.326009e-005,1.427830e-005
1.113353e+000,-1.359579e-005,1.427521e-005
1.114147e+000,-1.359579e-005,1.427312e-005
1.114941e+000,-1.460288e-005,1.426884e-005
1.115735e+000,-1.376364e-005,1.427098e-005
1.116529e+000,-1.493858e-005,1.427348e-005
1.117324e+000,-1.225299e-005,1.427776e-005
1.118118e+000,-1.174945e-005,1.427587e-005
1.118912e+000,-1.527428e-005,1.427065e-005
1.119706e+000,-1.393149e-005,1.427706e-005
1.120500e+000,-1.309224e-005,1.427910e-005
1.121294e+000,-1.460288e-005,1.428054e-005
1.122088e+000,-1.225299e-005,1.428757e-005
1.122882e+000,-1.426719e-005,1.427943e-005
1.123676e+000,-1.225299e-005,1.427725e-005
1.124471e+000,-1.493858e-005,1.427129e-005
1.125265e+000,-1.493858e-005,1.427129e-005
1.126059e+000,-1.359579e-005,1.427239e-005
1.126853e+000,-1.493858e-005,1.427239e-005
1.127647e+000,-1.359579e-005,1.426892e-005
1.128441e+000,-1.359579e-005,1.425355e-005
1.129235e+000,-1.393149e-005,1.424458e-005
1.130029e+000,-1.644922e-005,1.424076e-005
1.130824e+000,-1.393149e-005,1.425035e-005
1.131618e+000,-1.292439e-005,1.425433e-005
1.132412e+000,-1.493858e-005,1.425621e-005
1.133206e+000,-1.560998e-005,1.425508e-005
1.134000e+000,-1.493858e-005,1.424891e-005
1.134794e+000,-1.426719e-005,1.425216e-005
1.135588e+000,-1.359579e-005,1.425216e-005
1.136382e+000,-1.292439e-005,1.425783e-005
1.137176e+000,-1.359579e-005,1.425156e-005
1.137971e+000,-1.493858e-005,1.424728e-005
1.138765e+000,-1.359579e-005,1.425257e-005
1.139559e+000,-1.393149e-005,1.425205e-005
1.140353e+000,-1.493858e-005,1.424880e-005
1.141147e+000,-1.460288e-005,1.424767e-005
1.141941e+000,-1.376364e-005,1.424188e-005
1.142735e+000,-1.225299e-005,1.424030e-005
1.143529e+000,-1.359579e-005,1.423432e-005
1.144324e+000,-1.393149e-005,1.423432e-005
1.145118e+000,-1.326009e-005,1.423924e-005
1.145912e+000,-1.359579e-005,1.424118e-005
1.146706e+000,-1.376364e-005,1.424118e-005
1.147500e+000,-1.527428e-005,1.423511e-005
1.148294e+000,-1.443504e-005,1.424441e-005
1.149088e+000,-1.560998e-005,1.425271e-005
1.149882e+000,-1.594568e-005,1.426406e-005
1.150676e+000,-1.426719e-005,1.427331e-005
1.151471e+000,-1.460288e-005,1.426521e-005
1.152265e+000,-1.628138e-005,1.426181e-005
1.153059e+000,-1.292439e-005,1.427177e-005
1.153853e+000,-1.560998e-005,1.426979e-005
1.154647e+000,-1.460288e-005,1.427426e-005
1.155441e+000,-1.493858e-005,1.427640e-005
1.156235e+000,-1.359579e-005,1.427964e-005
1.157029e+000,-1.560998e-005,1.428163e-005
1.157824e+000,-1.309224e-005,1.428610e-005
1.158618e+000,-1.359579e-005,1.427317e-005
1.159412e+000,-1.426719e-005,1.426108e-005
1.160206e+000,-1.292439e-005,1.425298e-005
1.161000e+000,-1.359579e-005,1.424078e-005
1.161794e+000,-1.225299e-005,1.423181e-005
1.162588e+000,-1.292439e-005,1.422364e-005
1.163382e+000,-1.560998e-005,1.422061e-005
1.164176e+000,-1.628138e-005,1.422291e-005
1.164971e+000,-1.560998e-005,1.423388e-005
1.165765e+000,-1.527428e-005,1.424341e-005
1.166559e+000,-1.577783e-005,1.424619e-005
1.167353e+000,-1.560998e-005,1.425073e-005
1.168147e+000,-1.628138e-005,1.425302e-005
1.168941e+000,-1.426719e-005,1.426198e-005
1.169735e+000,-1.376364e-005,1.425979e-005
1.170529e+000,-1.292439e-005,1.426030e-005
1.171324e+000,-1.023880e-005,1.426566e-005
1.172118e+000,-1.225299e-005,1.425673e-005
1.172912e+000,-1.493858e-005,1.425182e-005
1.173706e+000,-1.426719e-005,1.424834e-005
1.174500e+000,-1.393149e-005,1.424023e-005
1.175294e+000,-1.292439e-005,1.424023e-005
1.176088e+000,-1.510643e-005,1.424119e-005
1.176882e+000,-1.527428e-005,1.424062e-005
1.177676e+000,-1.292439e-005,1.423827e-005
1.178471e+000,-1.460288e-005,1.423419e-005
1.179265e+000,-1.560998e-005,1.423473e-005
1.180059e+000,-1.124590e-005,1.422591e-005
1.180853e+000,-1.443504e-005,1.420528e-005
1.181647e+000,-1.443504e-005,1.419642e-005
1.182441e+000,-1.242084e-005,1.419906e-005
1.183235e+000,-1.292439e-005,1.419353e-005
1.184029e+000,-1.292439e-005,1.419153e-005
1.184824e+000,-1.493858e-005,1.418635e-005
1.185618e+000,-1.460288e-005,1.419065e-005
1.186412e+000,-1.359579e-005,1.419534e-005
1.187206e+000,-1.376364e-005,1.419104e-005
1.188000e+000,-1.393149e-005,1.418946e-005
1.188794e+000,-1.174945e-005,1.418619e-005
1.189588e+000,-1.242084e-005,1.417314e-005
1.190382e+000,-1.359579e-005,1.416540e-005
1.191176e+000,-1.359579e-005,1.416540e-005
1.191971e+000,-1.359579e-005,1.416930e-005
1.192765e+000,-1.527428e-005,1.416720e-005
1.193559e+000,-1.493858e-005,1.416604e-005
1.194353e+000,-1.493858e-005,1.417034e-005
1.195147e+000,-1.594568e-005,1.416804e-005
1.195941e+000,-1.359579e-005,1.417427e-005
1.196735e+000,-1.359579e-005,1.417375e-005
1.197529e+000,-1.560998e-005,1.417165e-005
1.198324e+000,-1.393149e-005,1.418216e-005
1.199118e+000,-1.359579e-005,1.418519e-005
1.199912e+000,-1.594568e-005,1.418309e-005
1.200706e+000,-1.628138e-005,1.419088e-005
1.201500e+000,-1.493858e-005,1.420726e-005
1.202294e+000,-1.510643e-005,1.422052e-005
1.203088e+000,-1.493858e-005,1.423105e-005
1.203882e+000,-1.359579e-005,1.423922e-005
1.204676e+000,-1.493858e-005,1.423264e-005
1.205471e+000,-1.527428e-005,1.423264e-005
1.206265e+000,-1.326009e-005,1.423543e-005
1.207059e+000,-1.258869e-005,1.422784e-005
1.207853e+000,-1.309224e-005,1.422437e-005
1.208647e+000,-1.225299e-005,1.421628e-005
1.209441e+000,-1.225299e-005,1.420810e-005
1.210235e+000,-1.326009e-005,1.420810e-005
1.211029e+000,-1.493858e-005,1.420279e-005
1.211824e+000,-1.493858e-005,1.420279e-005
1.212618e+000,-1.309224e-005,1.420279e-005
1.213412e+000,-1.426719e-005,1.420025e-005
1.214206e+000,-1.695277e-005,1.420972e-005
1.215000e+000,-1.493858e-005,1.422272e-005
1.215794e+000,-1.258869e-005,1.421802e-005
1.216588e+000,-1.292439e-005,1.420608e-005
1.217382e+000,-1.124590e-005,1.419508e-005
1.218176e+000,-1.359579e-005,1.418853e-005
1.218971e+000,-1.594568e-005,1.419149e-005
1.219765e+000,-1.426719e-005,1.419824e-005
1.220559e+000,-1.560998e-005,1.420330e-005
1.221353e+000,-1.493858e-005,1.421726e-005
1.222147e+000,-1.426719e-005,1.422052e-005
1.222941e+000,-1.376364e-005,1.421363e-005
1.223735e+000,-1.359579e-005,1.421205e-005
1.224529e+000,-1.326009e-005,1.421404e-005
1.225324e+000,-1.359579e-005,1.421692e-005
1.226118e+000,-1.292439e-005,1.421891e-005
1.226912e+000,-1.493858e-005,1.421263e-005
1.227706e+000,-1.326009e-005,1.421374e-005
1.228500e+000,-1.493858e-005,1.420843e-005
1.229294e+000,-1.560998e-005,1.421063e-005
1.230088e+000,-1.258869e-005,1.421619e-005
1.230882e+000,-1.124590e-005,1.421323e-005
1.231676e+000,-1.292439e-005,1.420566e-005
1.232471e+000,-1.326009e-005,1.420366e-005
1.233265e+000,-1.426719e-005,1.420265e-005
1.234059e+000,-1.359579e-005,1.420475e-005
1.234853e+000,-1.359579e-005,1.420674e-005
1.235647e+000,-1.225299e-005,1.420674e-005
1.236441e+000,-1.309224e-005,1.420436e-005
1.237235e+000,-1.493858e-005,1.420075e-005
1.238029e+000,-1.426719e-005,1.420295e-005
1.238824e+000,-1.493858e-005,1.420187e-005
1.239618e+000,-1.359579e-005,1.419593e-005
1.240412e+000,-1.292439e-005,1.419163e-005
1.241206e+000,-1.426719e-005,1.418753e-005
1.242000e+000,-1.527428e-005,1.418644e-005
1.242794e+000,-1.292439e-005,1.418409e-005
1.243588e+000,-1.493858e-005,1.417308e-005
1.244382e+000,-1.292439e-005,1.417078e-005
1.245176e+000,-1.258869e-005,1.416667e-005
1.245971e+000,-1.510643e-005,1.416571e-005
1.246765e+000,-1.426719e-005,1.417797e-005
1.247559e+000,-1.359579e-005,1.417956e-005
1.248353e+000,-1.426719e-005,1.417526e-005
1.249147e+000,-1.376364e-005,1.418032e-005
1.249941e+000,-1.493858e-005,1.417765e-005
1.250735e+000,-1.359579e-005,1.418346e-005
1.251529e+000,-1.225299e-005,1.418735e-005
1.252324e+000,-1.393149e-005,1.418915e-005
1.253118e+000,-1.443504e-005,1.419408e-005
1.253912e+000,-1.292439e-005,1.419672e-005
1.254706e+000,-1.712062e-005,1.419154e-005
1.255500e+000,-1.493858e-005,1.419938e-005
1.256294e+000,-1.292439e-005,1.420158e-005
1.257088e+000,-1.275654e-005,1.419959e-005
1.257882e+000,-1.493858e-005,1.419501e-005
1.258676e+000,-1.628138e-005,1.418780e-005
1.259471e+000,-1.393149e-005,1.418269e-005
1.260265e+000,-1.443504e-005,1.416960e-005
1.261059e+000,-1.560998e-005,1.416737e-005
1.261853e+000,-1.426719e-005,1.416854e-005
1.262647e+000,-1.393149e-005,1.416960e-005
1.263441e+000,-1.258869e-005,1.416854e-005
1.264235e+000,-1.292439e-005,1.416557e-005
1.265029e+000,-1.225299e-005,1.416253e-005
1.265824e+000,-1.510643e-005,1.415759e-005
1.266618e+000,-1.426719e-005,1.416247e-005
1.267412e+000,-1.560998e-005,1.417113e-005
1.268206e+000,-1.493858e-005,1.418255e-005
1.269000e+000,-1.359579e-005,1.418786e-005
1.269794e+000,-1.393149e-005,1.417635e-005
1.270588e+000,-1.258869e-005,1.417194e-005
1.271382e+000,-1.057450e-005,1.417288e-005
1.272176e+000,-1.359579e-005,1.415980e-005
1.272971e+000,-1.560998e-005,1.414826e-005
1.273765e+000,-1.628138e-005,1.415277e-005
1.274559e+000,-1.661708e-005,1.416661e-005
1.275353e+000,-1.628138e-005,1.417583e-005
1.276147e+000,-1.376364e-005,1.417823e-005
1.276941e+000,-1.107805e-005,1.417665e-005
1.277735e+000,-1.510643e-005,1.417068e-005
1.278529e+000,-1.560998e-005,1.417125e-005
1.279324e+000,-1.359579e-005,1.417355e-005
1.280118e+000,-1.258869e-005,1.417556e-005
1.280912e+000,-1.191730e-005,1.417556e-005
1.281706e+000,-1.359579e-005,1.416971e-005
1.282500e+000,-1.359579e-005,1.416540e-005
1.283294e+000,-1.460288e-005,1.415638e-005
1.284088e+000,-1.560998e-005,1.415055e-005
1.284882e+000,-1.225299e-005,1.415917e-005
1.285676e+000,-1.426719e-005,1.415095e-005
1.286471e+000,-1.493858e-005,1.415041e-005
1.287265e+000,-1.628138e-005,1.415672e-005
1.288059e+000,-1.527428e-005,1.416871e-005
1.288853e+000,-1.292439e-005,1.417517e-005
1.289647e+000,-1.426719e-005,1.416656e-005
1.290441e+000,-1.426719e-005,1.416435e-005
1.291235e+000,-1.359579e-005,1.416215e-005
1.292029e+000,-1.628138e-005,1.415670e-005
1.292824e+000,-1.493858e-005,1.415670e-005
1.293618e+000,-1.460288e-005,1.415890e-005
1.294412e+000,-1.326009e-005,1.415779e-005
1.295206e+000,-1.426719e-005,1.416577e-005
1.296000e+000,-1.426719e-005,1.416987e-005
1.296794e+000,-1.393149e-005,1.416879e-005
1.297588e+000,-1.292439e-005,1.416321e-005
1.298382e+000,-1.426719e-005,1.415518e-005
1.299176e+000,-1.426719e-005,1.415728e-005
1.299971e+000,-1.426719e-005,1.415939e-005
1.300765e+000,-1.527428e-005,1.416349e-005
1.301559e+000,-1.493858e-005,1.417284e-005
1.302353e+000,-1.493858e-005,1.417816e-005
1.303147e+000,-1.628138e-005,1.418246e-005
1.303941e+000,-1.225299e-005,1.418937e-005
1.304735e+000,-1.258869e-005,1.418547e-005
1.305529e+000,-1.443504e-005,1.418041e-005
1.306324e+000,-1.258869e-005,1.418041e-005
1.307118e+000,-1.091020e-005,1.417201e-005
1.307912e+000,-1.493858e-005,1.415308e-005
1.308706e+000,-1.460288e-005,1.414836e-005
1.309500e+000,-1.594568e-005,1.415155e-005
1.310294e+000,-1.292439e-005,1.415449e-005
1.311088e+000,-1.023880e-005,1.414817e-005
1.311882e+000,-1.292439e-005,1.414117e-005
1.312676e+000,-1.560998e-005,1.413485e-005
1.313471e+000,-1.460288e-005,1.413485e-005
1.314265e+000,-1.292439e-005,1.413373e-005
1.315059e+000,-1.359579e-005,1.413173e-005
1.315853e+000,-1.661708e-005,1.413068e-005
1.316647e+000,-1.292439e-005,1.414394e-005
1.317441e+000,-1.292439e-005,1.414394e-005
1.318235e+000,-1.493858e-005,1.414193e-005
1.319029e+000,-1.594568e-005,1.414624e-005
1.319824e+000,-1.359579e-005,1.415796e-005
1.320618e+000,-1.292439e-005,1.416093e-005
1.321412e+000,-1.426719e-005,1.415892e-005
1.322206e+000,-1.527428e-005,1.416103e-005
1.323000e+000,-1.426719e-005,1.416798e-005
1.323794e+000,-1.560998e-005,1.416798e-005
1.324588e+000,-1.393149e-005,1.416739e-005
1.325382e+000,-1.191730e-005,1.415941e-005
1.326176e+000,-1.393149e-005,1.415028e-005
1.326971e+000,-1.460288e-005,1.414922e-005
1.327765e+000,-1.393149e-005,1.414579e-005
1.328559e+000,-1.158160e-005,1.414884e-005
1.329353e+000,-1.258869e-005,1.413881e-005
1.330147e+000,-1.393149e-005,1.413736e-005
1.330941e+000,-1.158160e-005,1.413840e-005
1.331735e+000,-1.359579e-005,1.413165e-005
1.332529e+000,-1.426719e-005,1.412501e-005
1.333324e+000,-1.359579e-005,1.412501e-005
1.334118e+000,-1.644922e-005,1.412501e-005
1.334912e+000,-1.493858e-005,1.413257e-005
1.335706e+000,-1.628138e-005,1.414346e-005
1.336500e+000,-1.292439e-005,1.415639e-005
1.337294e+000,-1.560998e-005,1.414718e-005
1.338088e+000,-1.426719e-005,1.414718e-005
1.338882e+000,-1.359579e-005,1.414025e-005
1.339676e+000,-1.695277e-005,1.413362e-005
1.340471e+000,-1.577783e-005,1.414999e-005
1.341265e+000,-1.762417e-005,1.416247e-005
1.342059e+000,-1.628138e-005,1.417609e-005
1.342853e+000,-1.510643e-005,1.418300e-005
1.343647e+000,-1.594568e-005,1.418887e-005
1.344441e+000,-1.376364e-005,1.419236e-005
1.345235e+000,-1.292439e-005,1.419236e-005
1.346029e+000,-1.359579e-005,1.419037e-005
1.346824e+000,-1.292439e-005,1.418827e-005
1.347618e+000,-1.309224e-005,1.417475e-005
1.348412e+000,-1.359579e-005,1.416298e-005
1.349206e+000,-1.426719e-005,1.415637e-005
1.350000e+000,-1.359579e-005,1.415637e-005
1.350794e+000,-1.191730e-005,1.415637e-005
1.351588e+000,-1.292439e-005,1.414493e-005
1.352382e+000,-1.426719e-005,1.413630e-005
1.353176e+000,-1.359579e-005,1.413630e-005
1.353971e+000,-1.258869e-005,1.412848e-005
1.354765e+000,-1.158160e-005,1.411646e-005
1.355559e+000,-1.225299e-005,1.411175e-005
1.356353e+000,-1.292439e-005,1.410985e-005
1.357147e+000,-1.426719e-005,1.410351e-005
1.357941e+000,-1.292439e-005,1.410562e-005
1.358735e+000,-1.393149e-005,1.409814e-005
1.359529e+000,-1.258869e-005,1.409598e-005
1.360324e+000,-1.225299e-005,1.409873e-005
1.361118e+000,-1.292439e-005,1.409481e-005
1.361912e+000,-1.292439e-005,1.408959e-005
1.362706e+000,-1.258869e-005,1.408859e-005
1.363500e+000,-1.242084e-005,1.408561e-005
1.364294e+000,-1.393149e-005,1.408215e-005
1.365088e+000,-1.091020e-005,1.407999e-005
1.365882e+000,-1.091020e-005,1.407202e-005
1.366676e+000,-1.460288e-005,1.406024e-005
1.367471e+000,-1.779202e-005,1.406738e-005
1.368265e+000,-1.426719e-005,1.408757e-005
1.369059e+000,-1.560998e-005,1.408421e-005
1.369853e+000,-1.829557e-005,1.408982e-005
1.370647e+000,-1.695277e-005,1.410826e-005
1.371441e+000,-1.628138e-005,1.411663e-005
1.372235e+000,-1.560998e-005,1.412959e-005
1.373029e+000,-1.493858e-005,1.413411e-005
1.373824e+000,-1.426719e-005,1.414233e-005
1.374618e+000,-1.560998e-005,1.414012e-005
1.375412e+000,-1.628138e-005,1.414243e-005
1.376206e+000,-1.628138e-005,1.415146e-005
1.377000e+000,-1.661708e-005,1.415618e-005
1.377794e+000,-1.460288e-005,1.416644e-005
1.378588e+000,-1.510643e-005,1.416964e-005
1.379382e+000,-1.628138e-005,1.417347e-005
1.380176e+000,-1.560998e-005,1.417285e-005
1.380971e+000,-1.628138e-005,1.417842e-005
1.381765e+000,-1.795987e-005,1.418943e-005
1.382559e+000,-1.930266e-005,1.420058e-005
1.383353e+000,-1.829557e-005,1.421503e-005
1.384147e+000,-1.779202e-005,1.422752e-005
1.384941e+000,-1.762417e-005,1.424016e-005
1.385735e+000,-1.695277e-005,1.425422e-005
1.386529e+000,-1.930266e-005,1.426766e-005
1.387324e+000,-1.930266e-005,1.428860e-005
1.388118e+000,-1.728847e-005,1.430524e-005
1.388912e+000,-1.762417e-005,1.431793e-005
1.389706e+000,-1.695277e-005,1.433088e-005
1.390500e+000,-1.594568e-005,1.433802e-005
1.391294e+000,-1.527428e-005,1.434257e-005
1.392088e+000,-1.527428e-005,1.434744e-005
1.392882e+000,-1.560998e-005,1.435667e-005
1.393676e+000,-1.393149e-005,1.436319e-005
1.394471e+000,-1.359579e-005,1.436319e-005
1.395265e+000,-1.258869e-005,1.436419e-005
1.396059e+000,-1.091020e-005,1.436127e-005
1.396853e+000,-1.158160e-005,1.435346e-005
1.397647e+000,-1.107805e-005,1.434245e-005
1.398441e+000,-1.225299e-005,1.433294e-005
1.399235e+000,-1.258869e-005,1.432255e-005
1.400029e+000,-1.359579e-005,1.431189e-005
1.400824e+000,-1.225299e-005,1.430981e-005
1.401618e+000,-1.091020e-005,1.430279e-005
1.402412e+000,-1.191730e-005,1.428652e-005
1.403206e+000,-1.158160e-005,1.428373e-005
1.404000e+000,-1.158160e-005,1.427151e-005
1.404794e+000,-1.359579e-005,1.426268e-005
1.405588e+000,-1.359579e-005,1.425840e-005
1.406382e+000,-1.393149e-005,1.425840e-005
1.407176e+000,-1.124590e-005,1.425287e-005
1.407971e+000,-1.158160e-005,1.424785e-005
1.408765e+000,-1.057450e-005,1.424218e-005
1.409559e+000,-9.567407e-006,1.423192e-005
1.410353e+000,-9.735256e-006,1.422347e-005
1.411147e+000,-1.091020e-005,1.421338e-005
1.411941e+000,-1.174945e-005,1.420990e-005
1.412735e+000,-1.393149e-005,1.420665e-005
1.413529e+000,-1.359579e-005,1.420109e-005
1.414324e+000,-1.158160e-005,1.419209e-005
1.415118e+000,-1.158160e-005,1.417979e-005
1.415912e+000,-1.258869e-005,1.416865e-005
1.416706e+000,-1.359579e-005,1.415848e-005
1.417500e+000,-1.493858e-005,1.415186e-005
1.418294e+000,-1.326009e-005,1.414715e-005
1.419088e+000,-1.376364e-005,1.414403e-005
1.419882e+000,-1.661708e-005,1.414403e-005
1.420676e+000,-1.493858e-005,1.415630e-005
1.421471e+000,-1.359579e-005,1.416960e-005
1.422265e+000,-1.493858e-005,1.417350e-005
1.423059e+000,-1.594568e-005,1.417350e-005
1.423853e+000,-1.393149e-005,1.417920e-005
1.424647e+000,-1.560998e-005,1.417920e-005
1.425441e+000,-1.493858e-005,1.418780e-005
1.426235e+000,-1.695277e-005,1.418724e-005
1.427029e+000,-1.628138e-005,1.419331e-005
1.427824e+000,-1.460288e-005,1.420430e-005
1.428618e+000,-1.560998e-005,1.420430e-005
1.429412e+000,-1.493858e-005,1.420430e-005
1.430206e+000,-1.594568e-005,1.421514e-005
1.431000e+000,-1.493858e-005,1.422028e-005
1.431794e+000,-1.426719e-005,1.422194e-005
1.432588e+000,-1.426719e-005,1.422745e-005
1.433382e+000,-1.359579e-005,1.423154e-005
1.434176e+000,-1.527428e-005,1.423353e-005
1.434971e+000,-1.829557e-005,1.423466e-005
1.435765e+000,-1.695277e-005,1.424825e-005
1.436559e+000,-1.628138e-005,1.425970e-005
1.437353e+000,-1.661708e-005,1.426815e-005
1.438147e+000,-1.426719e-005,1.427730e-005
1.438941e+000,-1.426719e-005,1.428460e-005
1.439735e+000,-1.628138e-005,1.429010e-005
1.440529e+000,-1.560998e-005,1.429903e-005
1.441324e+000,-1.628138e-005,1.430558e-005
1.442118e+000,-1.527428e-005,1.431451e-005
1.442912e+000,-1.628138e-005,1.431451e-005
1.443706e+000,-1.527428e-005,1.431917e-005
1.444500e+000,-1.158160e-005,1.432030e-005
1.445294e+000,-1.258869e-005,1.430694e-005
1.446088e+000,-1.258869e-005,1.430400e-005
1.446882e+000,-1.376364e-005,1.430106e-005
1.447676e+000,-1.594568e-005,1.429502e-005
1.448471e+000,-1.493858e-005,1.430173e-005
1.449265e+000,-1.292439e-005,1.430599e-005
1.450059e+000,-1.527428e-005,1.429628e-005
1.450853e+000,-1.560998e-005,1.429274e-005
1.451647e+000,-1.493858e-005,1.429502e-005
1.452441e+000,-1.493858e-005,1.429446e-005
1.453235e+000,-1.460288e-005,1.429446e-005
1.454029e+000,-1.326009e-005,1.429763e-005
1.454824e+000,-1.258869e-005,1.429235e-005
1.455618e+000,-1.460288e-005,1.428401e-005
1.456412e+000,-1.359579e-005,1.428818e-005
1.457206e+000,-1.292439e-005,1.429112e-005
1.458000e+000,-1.393149e-005,1.429064e-005
1.458794e+000,-1.225299e-005,1.429553e-005
1.459588e+000,-1.359579e-005,1.429553e-005
1.460382e+000,-1.426719e-005,1.429654e-005
1.461176e+000,-1.560998e-005,1.429435e-005
1.461971e+000,-1.493858e-005,1.429664e-005
1.462765e+000,-1.393149e-005,1.430240e-005
1.463559e+000,-1.493858e-005,1.430135e-005
1.464353e+000,-1.292439e-005,1.429419e-005
1.465147e+000,-1.292439e-005,1.428794e-005
1.465941e+000,-1.376364e-005,1.428889e-005
1.466735e+000,-1.426719e-005,1.429139e-005
1.467529e+000,-1.426719e-005,1.429998e-005
1.468324e+000,-1.292439e-005,1.430206e-005
1.469118e+000,-1.393149e-005,1.429234e-005
1.469912e+000,-1.426719e-005,1.429129e-005
1.470706e+000,-1.426719e-005,1.428682e-005
1.471500e+000,-1.661708e-005,1.428463e-005
1.472294e+000,-1.560998e-005,1.429272e-005
1.473088e+000,-1.393149e-005,1.429876e-005
1.473882e+000,-1.393149e-005,1.429979e-005
1.474676e+000,-1.292439e-005,1.430182e-005
1.475471e+000,-1.359579e-005,1.429984e-005
1.476265e+000,-1.493858e-005,1.430182e-005
1.477059e+000,-1.493858e-005,1.430182e-005
1.477853e+000,-1.594568e-005,1.430709e-005
1.478647e+000,-1.762417e-005,1.431055e-005
1.479441e+000,-1.460288e-005,1.431800e-005
1.480235e+000,-1.292439e-005,1.432409e-005
1.481029e+000,-1.242084e-005,1.432860e-005
1.481824e+000,-1.493858e-005,1.432718e-005
1.482618e+000,-1.527428e-005,1.433244e-005
1.483412e+000,-1.426719e-005,1.433574e-005
1.484206e+000,-1.292439e-005,1.433782e-005
1.485000e+000,-1.023880e-005,1.433584e-005
1.485794e+000,-1.393149e-005,1.433081e-005
1.486588e+000,-1.493858e-005,1.433333e-005
1.487382e+000,-1.493858e-005,1.433333e-005
1.488176e+000,-1.376364e-005,1.433551e-005
1.488971e+000,-1.426719e-005,1.433176e-005
1.489765e+000,-1.359579e-005,1.433384e-005
1.490559e+000,-1.359579e-005,1.433582e-005
1.491353e+000,-1.460288e-005,1.433374e-005
1.492147e+000,-1.628138e-005,1.433151e-005
1.492941e+000,-1.560998e-005,1.434240e-005
1.493735e+000,-1.359579e-005,1.434468e-005
1.494529e+000,-1.292439e-005,1.434666e-005
1.495324e+000,-1.359579e-005,1.434761e-005
1.496118e+000,-1.393149e-005,1.434279e-005
1.496912e+000,-1.628138e-005,1.434174e-005
1.497706e+000,-1.527428e-005,1.435065e-005
1.498500e+000,-1.409934e-005,1.435395e-005
1.499294e+000,-1.493858e-005,1.435499e-005
1.500088e+000,-1.493858e-005,1.435499e-005
1.500882e+000,-1.359579e-005,1.435924e-005
1.501676e+000,-1.225299e-005,1.436309e-005
1.502471e+000,-1.493858e-005,1.435821e-005
1.503265e+000,-1.393149e-005,1.435985e-005
1.504059e+000,-1.628138e-005,1.436285e-005
1.504853e+000,-1.460288e-005,1.435974e-005
1.505647e+000,-1.493858e-005,1.435864e-005
1.506441e+000,-1.393149e-005,1.436487e-005
1.507235e+000,-1.460288e-005,1.436834e-005
1.508029e+000,-1.426719e-005,1.436724e-005
1.508824e+000,-1.258869e-005,1.436042e-005
1.509618e+000,-1.225299e-005,1.435647e-005
1.510412e+000,-1.393149e-005,1.435001e-005
1.511206e+000,-1.443504e-005,1.434451e-005
1.512000e+000,-1.493858e-005,1.434504e-005
1.512794e+000,-1.443504e-005,1.434827e-005
1.513588e+000,-1.426719e-005,1.435380e-005
1.514382e+000,-1.393149e-005,1.435785e-005
1.515176e+000,-1.225299e-005,1.436273e-005
1.515971e+000,-1.225299e-005,1.435407e-005
1.516765e+000,-1.426719e-005,1.434814e-005
1.517559e+000,-1.359579e-005,1.434369e-005
1.518353e+000,-1.527428e-005,1.433944e-005
1.519147e+000,-1.359579e-005,1.434482e-005
1.519941e+000,-1.242084e-005,1.434379e-005
1.520735e+000,-1.292439e-005,1.434332e-005
1.521529e+000,-1.225299e-005,1.434945e-005
1.522324e+000,-1.560998e-005,1.434560e-005
1.523118e+000,-1.628138e-005,1.434560e-005
1.523912e+000,-1.426719e-005,1.434560e-005
1.524706e+000,-1.393149e-005,1.433754e-005
1.525500e+000,-1.359579e-005,1.432966e-005
1.526294e+000,-1.426719e-005,1.432915e-005
1.527088e+000,-1.359579e-005,1.433812e-005
1.527882e+000,-1.493858e-005,1.433331e-005
1.528676e+000,-1.493858e-005,1.433103e-005
1.529471e+000,-1.527428e-005,1.433529e-005
1.530265e+000,-1.426719e-005,1.434360e-005
1.531059e+000,-1.493858e-005,1.435042e-005
1.531853e+000,-1.426719e-005,1.435468e-005
1.532647e+000,-1.292439e-005,1.435675e-005
1.533441e+000,-1.309224e-005,1.435163e-005
1.534235e+000,-1.359579e-005,1.434360e-005
1.535029e+000,-1.326009e-005,1.434746e-005
1.535824e+000,-1.225299e-005,1.434438e-005
1.536618e+000,-1.225299e-005,1.433627e-005
1.537412e+000,-1.258869e-005,1.432350e-005
1.538206e+000,-1.443504e-005,1.431518e-005
1.539000e+000,-1.359579e-005,1.431977e-005
1.539794e+000,-1.426719e-005,1.431769e-005
1.540588e+000,-1.359579e-005,1.431769e-005
1.541382e+000,-1.292439e-005,1.431769e-005
1.542176e+000,-1.426719e-005,1.430679e-005
1.542971e+000,-1.359579e-005,1.430460e-005
1.543765e+000,-1.158160e-005,1.430144e-005
1.544559e+000,-1.493858e-005,1.429680e-005
1.545353e+000,-1.460288e-005,1.429898e-005
1.546147e+000,-1.628138e-005,1.430006e-005
1.546941e+000,-1.359579e-005,1.430797e-005
1.547735e+000,-1.493858e-005,1.430995e-005
1.548529e+000,-1.779202e-005,1.431213e-005
1.549324e+000,-1.762417e-005,1.432470e-005
1.550118e+000,-1.695277e-005,1.433659e-005
1.550912e+000,-1.493858e-005,1.434260e-005
1.551706e+000,-1.628138e-005,1.434260e-005
1.552500e+000,-1.460288e-005,1.434725e-005
1.553294e+000,-1.191730e-005,1.434150e-005
1.554088e+000,-1.225299e-005,1.434060e-005
1.554882e+000,-1.460288e-005,1.433967e-005
1.555676e+000,-1.628138e-005,1.434021e-005
1.556471e+000,-1.359579e-005,1.435204e-005
1.557265e+000,-1.258869e-005,1.435935e-005
1.558059e+000,-1.225299e-005,1.435217e-005
1.558853e+000,-1.560998e-005,1.434517e-005
1.559647e+000,-1.292439e-005,1.434399e-005
1.560441e+000,-1.426719e-005,1.434399e-005
1.561235e+000,-1.426719e-005,1.435495e-005
1.562029e+000,-1.460288e-005,1.435900e-005
1.562824e+000,-1.393149e-005,1.435562e-005
1.563618e+000,-1.158160e-005,1.435350e-005
1.564412e+000,-1.225299e-005,1.434984e-005
1.565206e+000,-1.493858e-005,1.434599e-005
1.566000e+000,-1.594568e-005,1.434011e-005
1.566794e+000,-1.527428e-005,1.434979e-005
1.567588e+000,-1.560998e-005,1.435715e-005
1.568382e+000,-1.661708e-005,1.435942e-005
1.569176e+000,-1.393149e-005,1.436185e-005
1.569971e+000,-1.158160e-005,1.436287e-005
1.570765e+000,-1.225299e-005,1.435922e-005
1.571559e+000,-1.359579e-005,1.435330e-005
1.572353e+000,-1.359579e-005,1.434792e-005
1.573147e+000,-1.393149e-005,1.434584e-005
1.573941e+000,-1.426719e-005,1.434034e-005
1.574735e+000,-1.493858e-005,1.434139e-005
1.575529e+000,-1.460288e-005,1.435040e-005
1.576324e+000,-1.393149e-005,1.435252e-005
1.577118e+000,-1.460288e-005,1.435040e-005
1.577912e+000,-1.258869e-005,1.435252e-005
1.578706e+000,-1.326009e-005,1.435522e-005
1.579500e+000,-1.359579e-005,1.435715e-005
1.580294e+000,-1.225299e-005,1.435612e-005
1.581088e+000,-1.326009e-005,1.435790e-005
1.581882e+000,-1.376364e-005,1.435690e-005
1.582676e+000,-1.359579e-005,1.435533e-005
1.583471e+000,-1.460288e-005,1.435533e-005
1.584265e+000,-1.493858e-005,1.434897e-005
1.585059e+000,-1.493858e-005,1.434897e-005
1.585853e+000,-1.359579e-005,1.434432e-005
1.586647e+000,-1.359579e-005,1.434629e-005
1.587441e+000,-1.359579e-005,1.433976e-005
1.588235e+000,-1.426719e-005,1.433768e-005
1.589029e+000,-1.326009e-005,1.433976e-005
1.589824e+000,-1.225299e-005,1.432737e-005
1.590618e+000,-1.326009e-005,1.431638e-005
1.591412e+000,-1.023880e-005,1.430138e-005
1.592206e+000,-1.191730e-005,1.428353e-005
1.593000e+000,-1.359579e-005,1.427392e-005
1.593794e+000,-1.393149e-005,1.426617e-005
1.594588e+000,-1.309224e-005,1.426669e-005
1.595382e+000,-1.359579e-005,1.426718e-005
1.596176e+000,-1.560998e-005,1.426718e-005
1.596971e+000,-1.594568e-005,1.427573e-005
1.597765e+000,-1.359579e-005,1.428497e-005
1.598559e+000,-1.225299e-005,1.428497e-005
1.599353e+000,-1.292439e-005,1.427901e-005
1.600147e+000,-1.493858e-005,1.427703e-005
1.600941e+000,-1.493858e-005,1.428607e-005
1.601735e+000,-1.359579e-005,1.429233e-005
1.602529e+000,-1.493858e-005,1.429024e-005
1.603324e+000,-1.460288e-005,1.429451e-005
1.604118e+000,-1.426719e-005,1.430061e-005
1.604912e+000,-1.493858e-005,1.430834e-005
1.605706e+000,-1.460288e-005,1.431646e-005
1.606500e+000,-1.493858e-005,1.432160e-005
1.607294e+000,-1.493858e-005,1.432378e-005
1.608088e+000,-1.661708e-005,1.433002e-005
1.608882e+000,-1.493858e-005,1.433913e-005
1.609676e+000,-1.460288e-005,1.434631e-005
1.610471e+000,-1.493858e-005,1.435332e-005
1.611265e+000,-1.493858e-005,1.435954e-005
1.612059e+000,-1.225299e-005,1.436577e-005
1.612853e+000,-1.510643e-005,1.436484e-005
1.613647e+000,-1.560998e-005,1.437303e-005
1.614441e+000,-1.426719e-005,1.437852e-005
1.615235e+000,-1.158160e-005,1.438788e-005
1.616029e+000,-1.359579e-005,1.438955e-005
1.616824e+000,-1.359579e-005,1.438641e-005
1.617618e+000,-1.426719e-005,1.437182e-005
1.618412e+000,-1.426719e-005,1.437182e-005
1.619206e+000,-1.426719e-005,1.436738e-005
1.620000e+000,-1.560998e-005,1.435283e-005
1.620794e+000,-1.644922e-005,1.434798e-005
1.621588e+000,-1.292439e-005,1.434859e-005
1.622382e+000,-1.091020e-005,1.434008e-005
1.623176e+000,-1.393149e-005,1.432852e-005
1.623971e+000,-1.393149e-005,1.432746e-005
1.624765e+000,-1.124590e-005,1.432195e-005
1.625559e+000,-1.493858e-005,1.430653e-005
1.626353e+000,-1.426719e-005,1.430187e-005
1.627147e+000,-1.359579e-005,1.429378e-005
1.627941e+000,-1.426719e-005,1.429062e-005
1.628735e+000,-1.527428e-005,1.428787e-005
1.629529e+000,-1.460288e-005,1.428433e-005
1.630324e+000,-1.493858e-005,1.428094e-005
1.631118e+000,-1.661708e-005,1.427626e-005
1.631912e+000,-1.510643e-005,1.427108e-005
1.632706e+000,-1.628138e-005,1.425496e-005
1.633500e+000,-1.560998e-005,1.424718e-005
1.634294e+000,-1.527428e-005,1.423903e-005
1.635088e+000,-1.493858e-005,1.423038e-005
1.635882e+000,-1.309224e-005,1.422319e-005
1.636676e+000,-1.225299e-005,1.420065e-005
1.637471e+000,-1.359579e-005,1.417569e-005
1.638265e+000,-1.560998e-005,1.416287e-005
1.639059e+000,-1.628138e-005,1.415534e-005
1.639853e+000,-1.426719e-005,1.415283e-005
1.640647e+000,-1.393149e-005,1.414712e-005
1.641441e+000,-1.493858e-005,1.414271e-005
1.642235e+000,-1.426719e-005,1.414157e-005
1.643029e+000,-1.560998e-005,1.413705e-005
1.643824e+000,-1.460288e-005,1.414263e-005
1.644618e+000,-1.174945e-005,1.414583e-005
1.645412e+000,-1.158160e-005,1.414353e-005
1.646206e+000,-1.426719e-005,1.414523e-005
1.647000e+000,-1.493858e-005,1.415304e-005
1.647794e+000,-1.460288e-005,1.416434e-005
1.648588e+000,-1.393149e-005,1.417143e-005
1.649382e+000,-1.577783e-005,1.417543e-005
1.650176e+000,-1.560998e-005,1.418263e-005
1.650971e+000,-1.158160e-005,1.419313e-005
1.651765e+000,-1.023880e-005,1.419482e-005
1.652559e+000,-1.158160e-005,1.419065e-005
1.653353e+000,-1.443504e-005,1.419065e-005
1.654147e+000,-1.527428e-005,1.419898e-005
1.654941e+000,-1.493858e-005,1.420441e-005
1.655735e+000,-1.158160e-005,1.420871e-005
1.656529e+000,-1.242084e-005,1.420199e-005
1.657324e+000,-1.393149e-005,1.420510e-005
1.658118e+000,-1.560998e-005,1.421182e-005
1.658912e+000,-1.493858e-005,1.422659e-005
1.659706e+000,-1.393149e-005,1.424131e-005
1.660500e+000,-1.426719e-005,1.425241e-005
1.661294e+000,-1.493858e-005,1.426185e-005
1.662088e+000,-1.493858e-005,1.427135e-005
1.662882e+000,-1.258869e-005,1.427460e-005
1.663676e+000,-1.258869e-005,1.427165e-005
1.664471e+000,-1.426719e-005,1.427437e-005
1.665265e+000,-1.426719e-005,1.428211e-005
1.666059e+000,-1.292439e-005,1.428714e-005
1.666853e+000,-1.493858e-005,1.428515e-005
1.667647e+000,-1.527428e-005,1.428515e-005
1.668441e+000,-1.460288e-005,1.429156e-005
1.669235e+000,-1.292439e-005,1.429421e-005
1.670029e+000,-1.527428e-005,1.428205e-005
1.670824e+000,-1.560998e-005,1.428318e-005
1.671618e+000,-1.493858e-005,1.428974e-005
1.672412e+000,-1.527428e-005,1.428974e-005
1.673206e+000,-1.376364e-005,1.428740e-005
1.674000e+000,-1.426719e-005,1.428688e-005
1.674794e+000,-1.376364e-005,1.428241e-005
1.675588e+000,-1.359579e-005,1.427865e-005
1.676382e+000,-1.493858e-005,1.426721e-005
1.677176e+000,-1.292439e-005,1.426253e-005
1.677971e+000,-1.258869e-005,1.425737e-005
1.678765e+000,-1.359579e-005,1.424785e-005
1.679559e+000,-1.779202e-005,1.424357e-005
1.680353e+000,-1.426719e-005,1.425053e-005
1.681147e+000,-1.493858e-005,1.424834e-005
1.681941e+000,-1.527428e-005,1.425053e-005
1.682735e+000,-1.393149e-005,1.425386e-005
1.683529e+000,-1.695277e-005,1.425489e-005
1.684324e+000,-1.695277e-005,1.426093e-005
1.685118e+000,-1.426719e-005,1.425565e-005
1.685912e+000,-1.762417e-005,1.424628e-005
1.686706e+000,-1.930266e-005,1.425137e-005
1.687500e+000,-1.695277e-005,1.426214e-005
1.688294e+000,-1.426719e-005,1.427150e-005
1.689088e+000,-1.426719e-005,1.427150e-005
1.689882e+000,-1.023880e-005,1.426463e-005
1.690676e+000,-8.560311e-006,1.424912e-005
1.691471e+000,-1.023880e-005,1.422767e-005
1.692265e+000,-1.023880e-005,1.421329e-005
1.693059e+000,-1.225299e-005,1.419532e-005
1.693853e+000,-1.359579e-005,1.418599e-005
1.694647e+000,-1.393149e-005,1.419168e-005
1.695441e+000,-1.292439e-005,1.419568e-005
1.696235e+000,-1.124590e-005,1.419664e-005
1.697029e+000,-1.091020e-005,1.418957e-005
1.697824e+000,-1.258869e-005,1.417439e-005
1.698618e+000,-1.527428e-005,1.416712e-005
1.699412e+000,-1.393149e-005,1.417457e-005
1.700206e+000,-1.292439e-005,1.417016e-005
1.701000e+000,-1.225299e-005,1.416155e-005
1.701794e+000,-1.326009e-005,1.415333e-005
1.702588e+000,-1.258869e-005,1.414801e-005
1.703382e+000,-1.091020e-005,1.414184e-005
1.704176e+000,-1.158160e-005,1.413544e-005
1.704971e+000,-1.258869e-005,1.413270e-005
1.705765e+000,-1.225299e-005,1.412653e-005
1.706559e+000,-1.426719e-005,1.412262e-005
1.707353e+000,-1.762417e-005,1.412673e-005
1.708147e+000,-1.762417e-005,1.413986e-005
1.708941e+000,-1.460288e-005,1.415792e-005
1.709735e+000,-1.795987e-005,1.416111e-005
1.710529e+000,-1.644922e-005,1.417449e-005
1.711324e+000,-1.661708e-005,1.417751e-005
1.712118e+000,-1.762417e-005,1.418346e-005
1.712912e+000,-1.409934e-005,1.419654e-005
1.713706e+000,-1.695277e-005,1.419380e-005
1.714500e+000,-1.628138e-005,1.420730e-005
1.715294e+000,-1.644922e-005,1.421828e-005
1.716088e+000,-1.695277e-005,1.422737e-005
1.716882e+000,-1.594568e-005,1.423675e-005
1.717676e+000,-1.443504e-005,1.424242e-005
1.718471e+000,-1.359579e-005,1.424704e-005
1.719265e+000,-1.292439e-005,1.424600e-005
1.720059e+000,-1.359579e-005,1.424192e-005
1.720853e+000,-1.426719e-005,1.423983e-005
1.721647e+000,-1.426719e-005,1.423171e-005
1.722441e+000,-1.393149e-005,1.422722e-005
1.723235e+000,-1.326009e-005,1.422722e-005
1.724029e+000,-1.359579e-005,1.422518e-005
1.724824e+000,-1.292439e-005,1.422717e-005
1.725618e+000,-1.359579e-005,1.422518e-005
1.726412e+000,-1.493858e-005,1.422089e-005
1.727206e+000,-1.493858e-005,1.422089e-005
1.728000e+000,-1.258869e-005,1.421741e-005
1.728794e+000,-1.242084e-005,1.420036e-005
1.729588e+000,-1.359579e-005,1.419375e-005
1.730382e+000,-1.359579e-005,1.419574e-005
1.731176e+000,-1.409934e-005,1.419917e-005
1.731971e+000,-1.628138e-005,1.419644e-005
1.732765e+000,-1.443504e-005,1.420000e-005
1.733559e+000,-1.493858e-005,1.420054e-005
1.734353e+000,-1.493858e-005,1.420683e-005
1.735147e+000,-1.493858e-005,1.422009e-005
1.735941e+000,-1.292439e-005,1.422335e-005
1.736735e+000,-1.258869e-005,1.421706e-005
1.737529e+000,-1.359579e-005,1.420981e-005
1.738324e+000,-1.292439e-005,1.420930e-005
1.739118e+000,-1.225299e-005,1.420521e-005
1.739912e+000,-1.527428e-005,1.420132e-005
1.740706e+000,-1.426719e-005,1.420675e-005
1.741500e+000,-1.191730e-005,1.420566e-005
1.742294e+000,-1.258869e-005,1.419186e-005
1.743088e+000,-1.426719e-005,1.418230e-005
1.743882e+000,-1.225299e-005,1.418440e-005
1.744676e+000,-1.426719e-005,1.418250e-005
1.745471e+000,-1.023880e-005,1.418460e-005
1.746265e+000,-9.231709e-006,1.417458e-005
1.747059e+000,-9.567407e-006,1.415436e-005
1.747853e+000,-1.225299e-005,1.413840e-005
1.748647e+000,-1.225299e-005,1.413292e-005
1.749441e+000,-1.594568e-005,1.412469e-005
1.750235e+000,-1.863127e-005,1.412820e-005
1.751029e+000,-2.165255e-005,1.414647e-005
1.751824e+000,-2.299535e-005,1.418230e-005
1.752618e+000,-1.896696e-005,1.421658e-005
1.753412e+000,-2.165255e-005,1.423512e-005
1.754206e+000,-2.299535e-005,1.425789e-005
1.755000e+000,-2.249180e-005,1.429309e-005
1.755794e+000,-2.299535e-005,1.432455e-005
1.756588e+000,-1.779202e-005,1.436171e-005
1.757382e+000,-1.628138e-005,1.437316e-005
1.758176e+000,-1.795987e-005,1.437998e-005
1.758971e+000,-1.896696e-005,1.439813e-005
1.759765e+000,-1.712062e-005,1.442130e-005
1.760559e+000,-1.258869e-005,1.443223e-005
1.761353e+000,-1.023880e-005,1.442672e-005
1.762147e+000,-8.896010e-006,1.441365e-005
1.762941e+000,-7.721065e-006,1.439937e-005
1.763735e+000,-8.896010e-006,1.438344e-005
1.764529e+000,-1.091020e-005,1.437071e-005
1.765324e+000,-1.493858e-005,1.436727e-005
1.766118e+000,-1.409934e-005,1.437536e-005
1.766912e+000,-1.460288e-005,1.437483e-005
1.767706e+000,-1.225299e-005,1.437798e-005
1.768500e+000,-6.881819e-006,1.436876e-005
1.769294e+000,-6.210422e-006,1.435352e-005
1.770088e+000,-8.224612e-006,1.434068e-005
1.770882e+000,-8.896010e-006,1.432964e-005
1.771676e+000,-9.903105e-006,1.432174e-005
1.772471e+000,-1.023880e-005,1.430555e-005
1.773265e+000,-8.224612e-006,1.428770e-005
1.774059e+000,-9.903105e-006,1.427254e-005
1.774853e+000,-1.326009e-005,1.426183e-005
1.775647e+000,-1.493858e-005,1.426082e-005
1.776441e+000,-9.903105e-006,1.426301e-005
1.777235e+000,-1.158160e-005,1.425332e-005
1.778029e+000,-1.493858e-005,1.424337e-005
1.778824e+000,-1.493858e-005,1.424337e-005
1.779618e+000,-1.896696e-005,1.424224e-005
1.780412e+000,-2.098116e-005,1.425969e-005
1.781206e+000,-2.098116e-005,1.428391e-005
1.782000e+000,-1.896696e-005,1.431026e-005
1.782794e+000,-1.762417e-005,1.433169e-005
1.783588e+000,-1.728847e-005,1.434715e-005
1.784382e+000,-1.628138e-005,1.435980e-005
1.785176e+000,-1.762417e-005,1.436969e-005
1.785971e+000,-1.762417e-005,1.438747e-005
1.786765e+000,-1.560998e-005,1.440522e-005
1.787559e+000,-1.359579e-005,1.441463e-005
1.788353e+000,-1.493858e-005,1.441203e-005
1.789147e+000,-1.359579e-005,1.441626e-005
1.789941e+000,-1.292439e-005,1.441420e-005
1.790735e+000,-1.225299e-005,1.441223e-005
1.791529e+000,-1.493858e-005,1.441036e-005
1.792324e+000,-1.225299e-005,1.441253e-005
1.793118e+000,-1.443504e-005,1.440869e-005
1.793912e+000,-1.460288e-005,1.441690e-005
1.794706e+000,-1.225299e-005,1.441580e-005
1.795500e+000,-1.023880e-005,1.440883e-005
1.796294e+000,-1.124590e-005,1.439111e-005
1.797088e+000,-1.326009e-005,1.438465e-005
1.797882e+000,-1.158160e-005,1.437941e-005
1.798676e+000,-1.057450e-005,1.435919e-005
1.799471e+000,-1.292439e-005,1.433713e-005
1.800265e+000,-1.359579e-005,1.432375e-005
1.801059e+000,-1.107805e-005,1.431949e-005
1.801853e+000,-8.560311e-006,1.430366e-005
1.802647e+000,-8.224612e-006,1.428807e-005
1.803441e+000,-1.225299e-005,1.427977e-005
1.804235e+000,-1.628138e-005,1.427977e-005
1.805029e+000,-1.560998e-005,1.428555e-005
1.805824e+000,-1.762417e-005,1.428317e-005
1.806618e+000,-1.930266e-005,1.429718e-005
1.807412e+000,-2.265965e-005,1.432101e-005
1.808206e+000,-2.232395e-005,1.436135e-005
1.809000e+000,-2.383459e-005,1.438956e-005
1.809794e+000,-2.198825e-005,1.443387e-005
1.810588e+000,-1.628138e-005,1.446472e-005
1.811382e+000,-1.359579e-005,1.447149e-005
1.812176e+000,-1.560998e-005,1.446837e-005
1.812971e+000,-1.661708e-005,1.447383e-005
1.813765e+000,-1.628138e-005,1.448944e-005
1.814559e+000,-1.712062e-005,1.450206e-005
1.815353e+000,-1.829557e-005,1.450974e-005
1.816147e+000,-1.258869e-005,1.451857e-005
1.816941e+000,-1.292439e-005,1.451036e-005
1.817735e+000,-1.762417e-005,1.450195e-005
1.818529e+000,-1.846342e-005,1.450574e-005
1.819324e+000,-1.225299e-005,1.452184e-005
1.820118e+000,-8.560311e-006,1.452360e-005
1.820912e+000,-1.057450e-005,1.451517e-005
1.821706e+000,-1.225299e-005,1.450716e-005
1.822500e+000,-6.881819e-006,1.450334e-005
1.823294e+000,-5.035477e-006,1.448723e-005
1.824088e+000,-3.524834e-006,1.446763e-005
1.824882e+000,-1.678492e-007,1.444441e-005
1.825676e+000,-1.510643e-006,1.442089e-005
1.826471e+000,-4.196231e-006,1.439969e-005
1.827265e+000,-4.196231e-006,1.437804e-005
1.828059e+000,-8.224612e-006,1.436244e-005
1.828853e+000,-8.896010e-006,1.435044e-005
1.829647e+000,-1.158160e-005,1.433870e-005
1.830441e+000,-1.493858e-005,1.433692e-005
1.831235e+000,-1.628138e-005,1.434218e-005
1.832029e+000,-1.779202e-005,1.435058e-005
1.832824e+000,-2.098116e-005,1.436518e-005
1.833618e+000,-1.930266e-005,1.439032e-005
1.834412e+000,-1.913481e-005,1.440685e-005
1.835206e+000,-2.467384e-005,1.442264e-005
1.836000e+000,-3.038071e-005,1.446937e-005
1.836794e+000,-3.239490e-005,1.455038e-005
1.837588e+000,-2.903792e-005,1.464469e-005
1.838382e+000,-2.786297e-005,1.471408e-005
1.839176e+000,-2.702373e-005,1.477892e-005
1.839971e+000,-2.299535e-005,1.484130e-005
1.840765e+000,-1.712062e-005,1.487912e-005
1.841559e+000,-1.393149e-005,1.489925e-005
1.842353e+000,-1.091020e-005,1.490482e-005
1.843147e+000,-7.721065e-006,1.489779e-005
1.843941e+000,-8.896010e-006,1.488341e-005
1.844735e+000,-3.189136e-006,1.487353e-005
1.845529e+000,5.035477e-007,1.485482e-005
1.846324e+000,-8.392462e-007,1.482870e-005
1.847118e+000,-3.356985e-007,1.480145e-005
1.847912e+000,-4.867628e-006,1.478156e-005
1.848706e+000,-4.196231e-006,1.476793e-005
1.849500e+000,-6.210422e-006,1.475181e-005
1.850294e+000,-8.224612e-006,1.473187e-005
1.851088e+000,-8.896010e-006,1.471505e-005
1.851882e+000,-9.567407e-006,1.470361e-005
1.852676e+000,-1.258869e-005,1.468935e-005
1.853471e+000,-1.376364e-005,1.468341e-005
1.854265e+000,-1.560998e-005,1.468188e-005
1.855059e+000,-1.695277e-005,1.468410e-005
1.855853e+000,-1.493858e-005,1.469214e-005
1.856647e+000,-1.359579e-005,1.469214e-005
1.857441e+000,-1.493858e-005,1.468799e-005
1.858235e+000,-1.493858e-005,1.468225e-005
1.859029e+000,-1.158160e-005,1.468225e-005
1.859824e+000,-1.023880e-005,1.467367e-005
1.860618e+000,-1.359579e-005,1.466082e-005
1.861412e+000,-1.896696e-005,1.465666e-005
1.862206e+000,-2.098116e-005,1.467941e-005
1.863000e+000,-2.500954e-005,1.470239e-005
1.863794e+000,-2.517739e-005,1.474369e-005
1.864588e+000,-2.433814e-005,1.479009e-005
1.865382e+000,-2.299535e-005,1.483934e-005
1.866176e+000,-2.618448e-005,1.487620e-005
1.866971e+000,-3.038071e-005,1.492971e-005
1.867765e+000,-2.702373e-005,1.500625e-005
1.868559e+000,-2.500954e-005,1.506204e-005
1.869353e+000,-2.366674e-005,1.510658e-005
1.870147e+000,-1.695277e-005,1.513990e-005
1.870941e+000,-1.191730e-005,1.514167e-005
1.871735e+000,-1.091020e-005,1.513903e-005
1.872529e+000,-1.326009e-005,1.513903e-005
1.873324e+000,-1.309224e-005,1.513711e-005
1.874118e+000,-8.560311e-006,1.513473e-005
1.874912e+000,-4.867628e-006,1.512913e-005
1.875706e+000,4.364080e-006,1.510812e-005
1.876500e+000,7.217518e-006,1.508866e-005
1.877294e+000,6.210422e-006,1.507465e-005
1.878088e+000,7.049668e-006,1.505721e-005
1.878882e+000,6.546120e-006,1.503778e-005
1.879676e+000,1.174945e-006,1.501973e-005
1.880471e+000,-3.524834e-006,1.499619e-005
1.881265e+000,-2.517739e-006,1.496817e-005
1.882059e+000,-2.517739e-006,1.494455e-005
1.882853e+000,-4.196231e-006,1.491695e-005
1.883647e+000,-4.867628e-006,1.489280e-005
1.884441e+000,-7.888914e-006,1.487037e-005
1.885235e+000,-1.359579e-005,1.485313e-005
1.886029e+000,-2.098116e-005,1.485457e-005
1.886824e+000,-2.299535e-005,1.488563e-005
1.887618e+000,-2.500954e-005,1.492238e-005
1.888412e+000,-2.702373e-005,1.496306e-005
1.889206e+000,-2.652018e-005,1.501249e-005
1.890000e+000,-2.568093e-005,1.506540e-005
1.890794e+000,-2.635233e-005,1.511452e-005
1.891588e+000,-2.870222e-005,1.516409e-005
1.892382e+000,-3.105211e-005,1.522908e-005
1.893176e+000,-3.172351e-005,1.530424e-005
1.893971e+000,-2.870222e-005,1.538654e-005
1.894765e+000,-2.433814e-005,1.545735e-005
1.895559e+000,-2.568093e-005,1.550448e-005
1.896353e+000,-2.568093e-005,1.555124e-005
1.897147e+000,-2.366674e-005,1.559585e-005
1.897941e+000,-2.098116e-005,1.563123e-005
1.898735e+000,-2.299535e-005,1.565628e-005
1.899529e+000,-2.500954e-005,1.568472e-005
1.900324e+000,-2.098116e-005,1.572343e-005
1.901118e+000,-1.795987e-005,1.575440e-005
1.901912e+000,-1.644922e-005,1.577639e-005
1.902706e+000,-1.393149e-005,1.579015e-005
1.903500e+000,-1.359579e-005,1.578872e-005
1.904294e+000,-1.443504e-005,1.578383e-005
1.905088e+000,-1.560998e-005,1.578233e-005
1.905882e+000,-1.795987e-005,1.579338e-005
1.906676e+000,-1.795987e-005,1.581034e-005
1.907471e+000,-1.963836e-005,1.582327e-005
1.908265e+000,-1.560998e-005,1.583756e-005
1.909059e+000,-1.158160e-005,1.583962e-005
1.909853e+000,-8.560311e-006,1.583359e-005
1.910647e+000,-1.225299e-005,1.582048e-005
1.911441e+000,-1.896696e-005,1.581313e-005
1.912235e+000,-2.316319e-005,1.582688e-005
1.913029e+000,-1.963836e-005,1.586487e-005
1.913824e+000,-1.107805e-005,1.588766e-005
1.914618e+000,-2.853437e-006,1.587956e-005
1.915412e+000,-1.510643e-006,1.585995e-005
1.916206e+000,-4.531929e-006,1.584340e-005
1.917000e+000,-7.553216e-006,1.582302e-005
1.917794e+000,4.867628e-006,1.580527e-005
1.918588e+000,2.182040e-005,1.578616e-005
1.919382e+000,3.205920e-005,1.581731e-005
1.920176e+000,2.702373e-005,1.589709e-005
1.920971e+000,1.628138e-005,1.594576e-005
1.921765e+000,7.721065e-006,1.594995e-005
1.922559e+000,-8.392462e-007,1.593260e-005
1.923353e+000,-7.553216e-006,1.591372e-005
1.924147e+000,-1.829557e-005,1.589906e-005
1.924941e+000,-2.786297e-005,1.591360e-005
1.925735e+000,-3.071641e-005,1.597268e-005
1.926529e+000,-3.038071e-005,1.604433e-005
1.927324e+000,-2.903792e-005,1.611918e-005
1.928118e+000,-2.970932e-005,1.618668e-005
1.928912e+000,-2.433814e-005,1.625518e-005
1.929706e+000,-1.963836e-005,1.628217e-005
1.930500e+000,-1.359579e-005,1.629997e-005
1.931294e+000,-5.203327e-006,1.629623e-005
1.932088e+000,-1.007095e-005,1.627607e-005
1.932882e+000,-1.460288e-005,1.626700e-005
1.933676e+000,-1.695277e-005,1.625974e-005
1.934471e+000,-1.795987e-005,1.625974e-005
1.935265e+000,-1.762417e-005,1.627139e-005
1.936059e+000,-1.393149e-005,1.627139e-005
1.936853e+000,-1.426719e-005,1.625391e-005
1.937647e+000,-1.795987e-005,1.624569e-005
1.938441e+000,-1.393149e-005,1.625736e-005
1.939235e+000,-1.359579e-005,1.625643e-005
1.940029e+000,-1.393149e-005,1.626426e-005
1.940824e+000,-1.091020e-005,1.627609e-005
1.941618e+000,-1.359579e-005,1.627748e-005
1.942412e+000,-1.896696e-005,1.628530e-005
1.943206e+000,-4.011597e-005,1.630578e-005
1.944000e+000,-4.716563e-005,1.644430e-005
1.944794e+000,-4.095522e-005,1.663976e-005
1.945588e+000,-3.642328e-005,1.678367e-005
1.946382e+000,-2.970932e-005,1.689715e-005
1.947176e+000,-1.963836e-005,1.696896e-005
1.947971e+000,-2.299535e-005,1.699027e-005
1.948765e+000,-2.769513e-005,1.701794e-005
1.949559e+000,-1.963836e-005,1.707146e-005
1.950353e+000,-1.527428e-005,1.709184e-005
1.951147e+000,-2.030976e-005,1.709959e-005
1.951941e+000,-2.299535e-005,1.712161e-005
1.952735e+000,-5.874723e-006,1.715602e-005
1.953529e+000,2.517739e-006,1.714817e-005
1.954324e+000,-5.539025e-006,1.713630e-005
1.955118e+000,-1.628138e-005,1.712442e-005
1.955912e+000,-2.836652e-005,1.713511e-005
1.956706e+000,-3.440909e-005,1.719088e-005
1.957500e+000,-2.366674e-005,1.727159e-005
1.958294e+000,-1.040665e-005,1.729457e-005
1.959088e+000,2.349889e-006,1.728491e-005
1.959882e+000,6.546120e-006,1.725568e-005
1.960676e+000,4.364080e-006,1.723465e-005
1.961471e+000,-3.189136e-006,1.721088e-005
1.962265e+000,-3.189136e-006,1.718306e-005
1.963059e+000,7.888914e-006,1.716557e-005
1.963853e+000,1.762417e-005,1.714467e-005
1.964647e+000,1.846342e-005,1.714890e-005
1.965441e+000,2.568093e-005,1.715543e-005
1.966235e+000,3.054856e-005,1.718993e-005
1.967029e+000,2.635233e-005,1.725271e-005
1.967824e+000,1.577783e-005,1.729752e-005
1.968618e+000,3.356985e-007,1.730342e-005
1.969412e+000,-1.242084e-005,1.728805e-005
1.970206e+000,-1.258869e-005,1.728523e-005
1.971000e+000,-1.527428e-005,1.728108e-005
1.971794e+000,-2.249180e-005,1.728382e-005
1.972588e+000,-3.038071e-005,1.731252e-005
1.973382e+000,-3.642328e-005,1.738111e-005
1.974176e+000,-4.112306e-005,1.748540e-005
1.974971e+000,-4.515145e-005,1.762365e-005
1.975765e+000,-4.045167e-005,1.779036e-005
1.976559e+000,-3.340200e-005,1.791640e-005
1.977353e+000,-2.903792e-005,1.799555e-005
1.978147e+000,-2.165255e-005,1.805604e-005
1.978941e+000,-1.795987e-005,1.808376e-005
1.979735e+000,-1.426719e-005,1.809588e-005
1.980529e+000,-1.493858e-005,1.809752e-005
1.981324e+000,-2.030976e-005,1.809967e-005
1.982118e+000,-2.064546e-005,1.811263e-005
1.982912e+000,-1.896696e-005,1.813178e-005
1.983706e+000,-1.661708e-005,1.814377e-005
1.984500e+000,-1.896696e-005,1.814842e-005
1.985294e+000,-2.299535e-005,1.816040e-005
1.986088e+000,-2.836652e-005,1.819209e-005
1.986882e+000,-2.903792e-005,1.824856e-005
1.987676e+000,-2.635233e-005,1.830592e-005
1.988471e+000,-2.970932e-005,1.835173e-005
1.989265e+000,-4.649424e-005,1.841518e-005
1.990059e+000,-4.951553e-005,1.858119e-005
1.990853e+000,-4.246586e-005,1.877287e-005
1.991647e+000,-3.373770e-005,1.891326e-005
1.992441e+000,-2.383459e-005,1.899557e-005
1.993235e+000,-1.712062e-005,1.902610e-005
1.994029e+000,-1.460288e-005,1.903806e-005
1.994824e+000,-1.661708e-005,1.903887e-005
1.995618e+000,-2.165255e-005,1.905320e-005
1.996412e+000,-1.426719e-005,1.908523e-005
1.997206e+000,-8.896010e-006,1.909457e-005
1.998000e+000,1.846342e-006,1.908865e-005
1.998794e+000,2.098116e-005,1.907641e-005
1.999588e+000,3.205920e-005,1.909192e-005
2.000382e+000,2.534523e-005,1.914861e-005
2.001176e+000,1.158160e-005,1.916304e-005
2.001971e+000,1.174945e-006,1.913021e-005
2.002765e+000,3.860533e-006,1.910036e-005
2.003559e+000,1.795987e-005,1.906248e-005
2.004353e+000,2.836652e-005,1.904525e-005
2.005147e+000,3.877317e-005,1.907021e-005
2.005941e+000,3.474479e-005,1.915141e-005
2.006735e+000,1.963836e-005,1.922532e-005
2.007529e+000,7.217518e-006,1.923531e-005
2.008324e+000,5.035477e-007,1.921291e-005
2.009118e+000,-6.210422e-006,1.918309e-005
2.009912e+000,-1.225299e-005,1.916195e-005
2.010706e+000,-2.165255e-005,1.916125e-005
2.011500e+000,-2.970932e-005,1.919148e-005
2.012294e+000,-2.702373e-005,1.925803e-005
2.013088e+000,-2.903792e-005,1.931341e-005
2.013882e+000,-3.910887e-005,1.937630e-005
2.014676e+000,-4.481575e-005,1.949187e-005
2.015471e+000,-4.213016e-005,1.963717e-005
2.016265e+000,-3.105211e-005,1.976457e-005
2.017059e+000,-2.333104e-005,1.982498e-005
2.017853e+000,-1.980621e-005,1.985662e-005
2.018647e+000,-1.695277e-005,1.988426e-005
2.019441e+000,-1.762417e-005,1.990418e-005
2.020235e+000,-2.366674e-005,1.992360e-005
2.021029e+000,-2.366674e-005,1.996201e-005
2.021824e+000,-2.333104e-005,1.999883e-005
2.022618e+000,-2.232395e-005,2.003379e-005
2.023412e+000,-3.373770e-005,2.006800e-005
2.024206e+000,-3.978027e-005,2.015037e-005
2.025000e+000,-3.776608e-005,2.026122e-005
2.025794e+000,-3.172351e-005,2.035555e-005
2.026588e+000,-1.963836e-005,2.042649e-005
2.027382e+000,-9.903105e-006,2.044608e-005
2.028176e+000,-6.881819e-006,2.043634e-005
2.028971e+000,7.888914e-006,2.042264e-005
2.029765e+000,3.054856e-005,2.039943e-005
2.030559e+000,4.078737e-005,2.043787e-005
2.031353e+000,4.481575e-005,2.053297e-005
2.032147e+000,3.474479e-005,2.066043e-005
2.032941e+000,1.661708e-005,2.072942e-005
2.033735e+000,3.524834e-006,2.072767e-005
2.034529e+000,-1.158160e-005,2.070825e-005
2.035324e+000,-2.903792e-005,2.069468e-005
2.036118e+000,-4.917983e-005,2.073562e-005
2.036912e+000,-4.464790e-005,2.090198e-005
2.037706e+000,-3.306630e-005,2.103931e-005
2.038500e+000,-1.326009e-005,2.110507e-005
2.039294e+000,-4.196231e-006,2.110439e-005
2.040088e+000,-5.539025e-006,2.109311e-005
2.040882e+000,-1.091020e-005,2.108409e-005
2.041676e+000,-1.527428e-005,2.107622e-005
2.042471e+000,-2.198825e-005,2.108251e-005
2.043265e+000,-2.836652e-005,2.110327e-005
2.044059e+000,-3.675899e-005,2.114785e-005
2.044853e+000,-3.978027e-005,2.123810e-005
2.045647e+000,-3.843748e-005,2.134860e-005
2.046441e+000,-3.944457e-005,2.144913e-005
2.047235e+000,-3.642328e-005,2.155134e-005
2.048029e+000,-3.105211e-005,2.163927e-005
2.048824e+000,-2.635233e-005,2.170190e-005
2.049618e+000,-2.030976e-005,2.174057e-005
2.050412e+000,-2.265965e-005,2.175723e-005
2.051206e+000,-2.500954e-005,2.178581e-005
2.052000e+000,-2.299535e-005,2.182614e-005
2.052794e+000,-1.762417e-005,2.185975e-005
2.053588e+000,-8.896010e-006,2.187144e-005
2.054382e+000,-1.091020e-005,2.185790e-005
2.055176e+000,-1.930266e-005,2.184881e-005
2.055971e+000,-4.246586e-005,2.185333e-005
2.056765e+000,-7.486076e-005,2.195734e-005
2.057559e+000,-9.214923e-005,2.232346e-005
2.058353e+000,-9.416342e-005,2.288652e-005
2.059147e+000,-8.107119e-005,2.345681e-005
2.059941e+000,-5.186542e-005,2.386658e-005
2.060735e+000,-3.709468e-005,2.402782e-005
2.061529e+000,-2.970932e-005,2.410663e-005
2.062324e+000,-6.378271e-006,2.414881e-005
2.063118e+000,1.728847e-005,2.413327e-005
2.063912e+000,3.407340e-005,2.413550e-005
2.064706e+000,5.757229e-005,2.419270e-005
2.065500e+000,7.939269e-005,2.438804e-005
2.066294e+000,1.018845e-004,2.478600e-005
2.067088e+000,1.119554e-004,2.543369e-005
2.067882e+000,9.550622e-005,2.618779e-005
2.068676e+000,6.428626e-005,2.671636e-005
2.069471e+000,4.464790e-005,2.695269e-005
2.070265e+000,3.474479e-005,2.706589e-005
2.071059e+000,2.030976e-005,2.713026e-005
2.071853e+000,1.040665e-005,2.714566e-005
2.072647e+000,-1.846342e-006,2.714923e-005
2.073441e+000,-3.021286e-006,2.714794e-005
2.074235e+000,-1.460288e-005,2.714775e-005
2.075029e+000,-2.433814e-005,2.716025e-005
2.075824e+000,-3.323415e-005,2.719482e-005
2.076618e+000,-4.817273e-005,2.725839e-005
2.077412e+000,-6.059357e-005,2.739260e-005
2.078206e+000,-6.395056e-005,2.760130e-005
2.079000e+000,-6.092927e-005,2.783171e-005
2.079794e+000,-6.294347e-005,2.803569e-005
2.080588e+000,-6.193637e-005,2.824724e-005
2.081382e+000,-5.992218e-005,2.844784e-005
2.082176e+000,-4.817273e-005,2.863051e-005
2.082971e+000,-3.508049e-005,2.873491e-005
2.083765e+000,-3.239490e-005,2.878242e-005
2.084559e+000,-3.138781e-005,2.882020e-005
2.085353e+000,-3.172351e-005,2.884098e-005
2.086147e+000,-2.970932e-005,2.884559e-005
2.086941e+000,-2.500954e-005,2.883638e-005
2.087735e+000,-1.963836e-005,2.882436e-005
2.088529e+000,-1.762417e-005,2.880277e-005
2.089324e+000,-1.695277e-005,2.877955e-005
2.090118e+000,-1.057450e-005,2.876620e-005
2.090912e+000,-1.023880e-005,2.875616e-005
2.091706e+000,-2.030976e-005,2.875122e-005
2.092500e+000,-2.568093e-005,2.876746e-005
2.093294e+000,-2.030976e-005,2.880065e-005
2.094088e+000,-1.326009e-005,2.881907e-005
2.094882e+000,-6.210422e-006,2.882823e-005
2.095676e+000,-6.546120e-006,2.883034e-005
2.096471e+000,-5.539025e-006,2.883267e-005
2.097265e+000,5.035477e-007,2.883436e-005
2.098059e+000,-1.510643e-006,2.883307e-005
2.098853e+000,-9.567407e-006,2.883222e-005
2.099647e+000,-1.359579e-005,2.883514e-005
2.100441e+000,-1.292439e-005,2.884162e-005
2.101235e+000,-1.762417e-005,2.884647e-005
2.102029e+000,-1.896696e-005,2.885856e-005
2.102824e+000,-1.829557e-005,2.886966e-005
2.103618e+000,-1.359579e-005,2.887768e-005
2.104412e+000,-1.292439e-005,2.887443e-005
2.105206e+000,-1.292439e-005,2.886779e-005
2.106000e+000,-1.594568e-005,2.886470e-005
2.106794e+000,-1.728847e-005,2.886853e-005
2.107588e+000,-1.795987e-005,2.887270e-005
2.108382e+000,-1.997406e-005,2.887819e-005
2.109176e+000,-2.299535e-005,2.889279e-005
2.109971e+000,-2.484169e-005,2.891614e-005
2.110765e+000,-2.450599e-005,2.893994e-005
2.111559e+000,-2.333104e-005,2.895318e-005
2.112353e+000,-1.980621e-005,2.895891e-005
2.113147e+000,-1.695277e-005,2.894608e-005
2.113941e+000,-1.359579e-005,2.892702e-005
2.114735e+000,-6.881819e-006,2.890457e-005
2.115529e+000,-4.196231e-006,2.887804e-005
2.116324e+000,-8.560311e-006,2.884118e-005
2.117118e+000,-1.795987e-005,2.879423e-005
2.117912e+000,-2.652018e-005,2.877167e-005
2.118706e+000,-2.165255e-005,2.877598e-005
2.119500e+000,-2.064546e-005,2.877093e-005
2.120294e+000,-1.829557e-005,2.877861e-005
2.121088e+000,-1.493858e-005,2.878927e-005
2.121882e+000,-9.231709e-006,2.879503e-005
2.122676e+000,1.174945e-006,2.879002e-005
2.123471e+000,9.231709e-006,2.878061e-005
2.124265e+000,4.867628e-006,2.878127e-005
2.125059e+000,3.189136e-006,2.878127e-005
2.125853e+000,-1.510643e-006,2.878078e-005
2.126647e+000,-4.531929e-006,2.877803e-005
2.127441e+000,-5.539025e-006,2.877703e-005
2.128235e+000,-8.224612e-006,2.877598e-005
2.129029e+000,-9.567407e-006,2.877735e-005
2.129824e+000,-1.023880e-005,2.878234e-005
2.130618e+000,-3.860533e-006,2.878745e-005
2.131412e+000,5.035477e-007,2.878792e-005
2.132206e+000,-1.007095e-006,2.878759e-005
2.133000e+000,-8.560311e-006,2.878667e-005
2.133794e+000,-1.628138e-005,2.878941e-005
2.134588e+000,-1.963836e-005,2.880063e-005
2.135382e+000,-2.114900e-005,2.881173e-005
2.136176e+000,-2.433814e-005,2.881212e-005
2.136971e+000,-2.601663e-005,2.881563e-005
2.137765e+000,-2.635233e-005,2.881847e-005
2.138559e+000,-2.702373e-005,2.881649e-005
2.139353e+000,-2.400244e-005,2.881798e-005
2.140147e+000,-2.098116e-005,2.881337e-005
2.140941e+000,-2.064546e-005,2.879932e-005
2.141735e+000,-2.366674e-005,2.877733e-005
2.142529e+000,-2.198825e-005,2.875496e-005
2.143324e+000,-2.265965e-005,2.872599e-005
2.144118e+000,-2.299535e-005,2.870878e-005
2.144912e+000,-1.594568e-005,2.870525e-005
2.145706e+000,-9.231709e-006,2.868276e-005
2.146500e+000,-9.231709e-006,2.865086e-005
2.147294e+000,-1.359579e-005,2.862446e-005
2.148088e+000,-1.661708e-005,2.861025e-005
2.148882e+000,-1.963836e-005,2.859618e-005
2.149676e+000,-2.265965e-005,2.858282e-005
2.150471e+000,-1.762417e-005,2.858690e-005
2.151265e+000,-1.091020e-005,2.858624e-005
2.152059e+000,-3.524834e-006,2.857780e-005
2.152853e+000,5.035477e-007,2.856767e-005
2.153647e+000,3.860533e-006,2.855738e-005
2.154441e+000,-2.853437e-006,2.854659e-005
2.155235e+000,-1.644922e-005,2.853345e-005
2.156029e+000,-1.527428e-005,2.853055e-005
2.156824e+000,-6.881819e-006,2.852557e-005
2.157618e+000,-7.553216e-006,2.850668e-005
2.158412e+000,-1.040665e-005,2.849625e-005
2.159206e+000,-9.567407e-006,2.849481e-005
2.160000e+000,-1.124590e-005,2.849583e-005
2.160794e+000,-1.158160e-005,2.849450e-005
2.161588e+000,-1.510643e-005,2.848189e-005
2.162382e+000,-2.098116e-005,2.846465e-005
2.163176e+000,-2.232395e-005,2.846770e-005
2.163971e+000,-1.829557e-005,2.848870e-005
2.164765e+000,-2.030976e-005,2.850695e-005
2.165559e+000,-1.896696e-005,2.852986e-005
2.166353e+000,-1.292439e-005,2.854879e-005
