X [s],L BICEPS BRACHII: EMG 4 [V],L BICEPS BRACHII: EMG 4->filter (FilterSlidingRMS33) [V]
0.000000e+000,0.000000e+000,0.000000e+000
7.941176e-004,0.000000e+000,0.000000e+000
1.588235e-003,0.000000e+000,0.000000e+000
2.382353e-003,0.000000e+000,0.000000e+000
3.176471e-003,0.000000e+000,0.000000e+000
3.970588e-003,0.000000e+000,0.000000e+000
4.764706e-003,0.000000e+000,0.000000e+000
5.558824e-003,0.000000e+000,0.000000e+000
6.352941e-003,0.000000e+000,0.000000e+000
7.147059e-003,0.000000e+000,0.000000e+000
7.941176e-003,0.000000e+000,0.000000e+000
8.735294e-003,0.000000e+000,0.000000e+000
9.529412e-003,0.000000e+000,0.000000e+000
1.032353e-002,0.000000e+000,0.000000e+000
1.111765e-002,0.000000e+000,0.000000e+000
1.191176e-002,0.000000e+000,0.000000e+000
1.270588e-002,0.000000e+000,0.000000e+000
1.350000e-002,0.000000e+000,0.000000e+000
1.429412e-002,0.000000e+000,0.000000e+000
1.508824e-002,0.000000e+000,0.000000e+000
1.588235e-002,0.000000e+000,0.000000e+000
1.667647e-002,0.000000e+000,0.000000e+000
1.747059e-002,0.000000e+000,0.000000e+000
1.826471e-002,0.000000e+000,0.000000e+000
1.905882e-002,0.000000e+000,0.000000e+000
1.985294e-002,0.000000e+000,0.000000e+000
2.064706e-002,0.000000e+000,0.000000e+000
2.144118e-002,0.000000e+000,0.000000e+000
2.223529e-002,0.000000e+000,0.000000e+000
2.302941e-002,0.000000e+000,0.000000e+000
2.382353e-002,0.000000e+000,0.000000e+000
2.461765e-002,0.000000e+000,0.000000e+000
2.541176e-002,0.000000e+000,0.000000e+000
2.620588e-002,0.000000e+000,0.000000e+000
2.700000e-002,0.000000e+000,0.000000e+000
2.779412e-002,0.000000e+000,0.000000e+000
2.858824e-002,0.000000e+000,0.000000e+000
2.938235e-002,0.000000e+000,0.000000e+000
3.017647e-002,0.000000e+000,0.000000e+000
3.097059e-002,0.000000e+000,0.000000e+000
3.176471e-002,0.000000e+000,0.000000e+000
3.255882e-002,0.000000e+000,0.000000e+000
3.335294e-002,0.000000e+000,0.000000e+000
3.414706e-002,0.000000e+000,0.000000e+000
3.494118e-002,0.000000e+000,0.000000e+000
3.573529e-002,0.000000e+000,0.000000e+000
3.652941e-002,0.000000e+000,0.000000e+000
3.732353e-002,0.000000e+000,0.000000e+000
3.811765e-002,0.000000e+000,0.000000e+000
3.891176e-002,0.000000e+000,0.000000e+000
3.970588e-002,0.000000e+000,0.000000e+000
4.050000e-002,0.000000e+000,0.000000e+000
4.129412e-002,0.000000e+000,0.000000e+000
4.208824e-002,0.000000e+000,0.000000e+000
4.288235e-002,0.000000e+000,0.000000e+000
4.367647e-002,0.000000e+000,0.000000e+000
4.447059e-002,0.000000e+000,0.000000e+000
4.526471e-002,0.000000e+000,0.000000e+000
4.605882e-002,0.000000e+000,0.000000e+000
4.685294e-002,0.000000e+000,0.000000e+000
4.764706e-002,0.000000e+000,0.000000e+000
4.844118e-002,0.000000e+000,0.000000e+000
4.923529e-002,0.000000e+000,0.000000e+000
5.002941e-002,0.000000e+000,0.000000e+000
5.082353e-002,0.000000e+000,0.000000e+000
5.161765e-002,0.000000e+000,0.000000e+000
5.241176e-002,0.000000e+000,0.000000e+000
5.320588e-002,0.000000e+000,0.000000e+000
5.400000e-002,0.000000e+000,0.000000e+000
5.479412e-002,0.000000e+000,0.000000e+000
5.558824e-002,0.000000e+000,0.000000e+000
5.638235e-002,0.000000e+000,0.000000e+000
5.717647e-002,0.000000e+000,0.000000e+000
5.797059e-002,0.000000e+000,0.000000e+000
5.876471e-002,0.000000e+000,0.000000e+000
5.955882e-002,0.000000e+000,0.000000e+000
6.035294e-002,0.000000e+000,0.000000e+000
6.114706e-002,0.000000e+000,0.000000e+000
6.194118e-002,0.000000e+000,0.000000e+000
6.273529e-002,0.000000e+000,0.000000e+000
6.352941e-002,0.000000e+000,0.000000e+000
6.432353e-002,0.000000e+000,0.000000e+000
6.511765e-002,0.000000e+000,0.000000e+000
6.591176e-002,0.000000e+000,0.000000e+000
6.670588e-002,0.000000e+000,0.000000e+000
6.750000e-002,0.000000e+000,0.000000e+000
6.829412e-002,0.000000e+000,0.000000e+000
6.908824e-002,0.000000e+000,0.000000e+000
6.988235e-002,0.000000e+000,0.000000e+000
7.067647e-002,0.000000e+000,0.000000e+000
7.147059e-002,0.000000e+000,0.000000e+000
7.226471e-002,0.000000e+000,0.000000e+000
7.305882e-002,0.000000e+000,0.000000e+000
7.385294e-002,0.000000e+000,0.000000e+000
7.464706e-002,0.000000e+000,0.000000e+000
7.544118e-002,0.000000e+000,0.000000e+000
7.623529e-002,0.000000e+000,0.000000e+000
7.702941e-002,0.000000e+000,0.000000e+000
7.782353e-002,0.000000e+000,0.000000e+000
7.861765e-002,0.000000e+000,0.000000e+000
7.941176e-002,0.000000e+000,0.000000e+000
8.020588e-002,0.000000e+000,0.000000e+000
8.100000e-002,0.000000e+000,0.000000e+000
8.179412e-002,0.000000e+000,0.000000e+000
8.258824e-002,0.000000e+000,0.000000e+000
8.338235e-002,0.000000e+000,0.000000e+000
8.417647e-002,0.000000e+000,0.000000e+000
8.497059e-002,0.000000e+000,0.000000e+000
8.576471e-002,0.000000e+000,0.000000e+000
8.655882e-002,0.000000e+000,0.000000e+000
8.735294e-002,0.000000e+000,0.000000e+000
8.814706e-002,0.000000e+000,0.000000e+000
8.894118e-002,0.000000e+000,0.000000e+000
8.973529e-002,0.000000e+000,0.000000e+000
9.052941e-002,0.000000e+000,0.000000e+000
9.132353e-002,0.000000e+000,0.000000e+000
9.211765e-002,0.000000e+000,0.000000e+000
9.291176e-002,0.000000e+000,0.000000e+000
9.370588e-002,0.000000e+000,0.000000e+000
9.450000e-002,-1.628138e-005,0.000000e+000
9.529412e-002,-1.023880e-005,0.000000e+000
9.608824e-002,-1.091020e-005,0.000000e+000
9.688235e-002,-1.124590e-005,0.000000e+000
9.767647e-002,-1.023880e-005,0.000000e+000
9.847059e-002,-9.399558e-006,0.000000e+000
9.926471e-002,-1.426719e-005,0.000000e+000
1.000588e-001,-2.098116e-005,0.000000e+000
1.008529e-001,-1.393149e-005,0.000000e+000
1.016471e-001,-5.539025e-006,0.000000e+000
1.024412e-001,-1.007095e-006,0.000000e+000
1.032353e-001,-4.196231e-006,0.000000e+000
1.040294e-001,-7.217518e-006,0.000000e+000
1.048235e-001,-9.903105e-006,0.000000e+000
1.056176e-001,-9.567407e-006,0.000000e+000
1.064118e-001,-1.124590e-005,0.000000e+000
1.072059e-001,-1.426719e-005,0.000000e+000
1.080000e-001,-1.527428e-005,0.000000e+000
1.087941e-001,-1.242084e-005,0.000000e+000
1.095882e-001,-1.023880e-005,0.000000e+000
1.103824e-001,-9.567407e-006,0.000000e+000
1.111765e-001,-1.292439e-005,0.000000e+000
1.119706e-001,-1.628138e-005,0.000000e+000
1.127647e-001,-1.762417e-005,0.000000e+000
1.135588e-001,-1.527428e-005,0.000000e+000
1.143529e-001,-1.359579e-005,0.000000e+000
1.151471e-001,-1.560998e-005,0.000000e+000
1.159412e-001,-1.560998e-005,0.000000e+000
1.167353e-001,-1.242084e-005,0.000000e+000
1.175294e-001,-1.326009e-005,0.000000e+000
1.183235e-001,-1.359579e-005,0.000000e+000
1.191176e-001,-1.023880e-005,0.000000e+000
1.199118e-001,-1.258869e-005,0.000000e+000
1.207059e-001,-1.158160e-005,0.000000e+000
1.215000e-001,-1.376364e-005,0.000000e+000
1.222941e-001,-1.560998e-005,0.000000e+000
1.230882e-001,-1.158160e-005,0.000000e+000
1.238824e-001,-1.174945e-005,0.000000e+000
1.246765e-001,-1.225299e-005,0.000000e+000
1.254706e-001,-1.292439e-005,0.000000e+000
1.262647e-001,-1.258869e-005,0.000000e+000
1.270588e-001,-1.628138e-005,0.000000e+000
1.278529e-001,-1.695277e-005,0.000000e+000
1.286471e-001,-1.695277e-005,0.000000e+000
1.294412e-001,-1.460288e-005,0.000000e+000
1.302353e-001,-1.091020e-005,0.000000e+000
1.310294e-001,-1.225299e-005,0.000000e+000
1.318235e-001,-1.158160e-005,0.000000e+000
1.326176e-001,-9.903105e-006,0.000000e+000
1.334118e-001,-1.158160e-005,0.000000e+000
1.342059e-001,-9.903105e-006,0.000000e+000
1.350000e-001,-4.867628e-006,0.000000e+000
1.357941e-001,-3.524834e-006,0.000000e+000
1.365882e-001,-5.874723e-006,0.000000e+000
1.373824e-001,-8.224612e-006,0.000000e+000
1.381765e-001,-1.191730e-005,0.000000e+000
1.389706e-001,-1.393149e-005,0.000000e+000
1.397647e-001,-1.393149e-005,0.000000e+000
1.405588e-001,-1.493858e-005,0.000000e+000
1.413529e-001,-1.527428e-005,0.000000e+000
1.421471e-001,-1.493858e-005,0.000000e+000
1.429412e-001,-1.359579e-005,0.000000e+000
1.437353e-001,-1.527428e-005,0.000000e+000
1.445294e-001,-1.124590e-005,0.000000e+000
1.453235e-001,-9.903105e-006,0.000000e+000
1.461176e-001,-8.896010e-006,0.000000e+000
1.469118e-001,-7.721065e-006,0.000000e+000
1.477059e-001,-9.231709e-006,0.000000e+000
1.485000e-001,-1.393149e-005,0.000000e+000
1.492941e-001,-1.426719e-005,0.000000e+000
1.500882e-001,-1.460288e-005,0.000000e+000
1.508824e-001,-1.560998e-005,0.000000e+000
1.516765e-001,-1.594568e-005,0.000000e+000
1.524706e-001,-1.527428e-005,0.000000e+000
1.532647e-001,-1.527428e-005,0.000000e+000
1.540588e-001,-1.393149e-005,0.000000e+000
1.548529e-001,-2.030976e-005,0.000000e+000
1.556471e-001,-2.702373e-005,0.000000e+000
1.564412e-001,-1.728847e-005,0.000000e+000
1.572353e-001,-4.531929e-006,0.000000e+000
1.580294e-001,6.546120e-006,0.000000e+000
1.588235e-001,6.546120e-006,0.000000e+000
1.596176e-001,-8.392462e-007,0.000000e+000
1.604118e-001,-9.231709e-006,0.000000e+000
1.612059e-001,-8.896010e-006,0.000000e+000
1.620000e-001,-1.359579e-005,0.000000e+000
1.627941e-001,-1.493858e-005,0.000000e+000
1.635882e-001,-1.695277e-005,0.000000e+000
1.643824e-001,-1.896696e-005,0.000000e+000
1.651765e-001,-1.695277e-005,0.000000e+000
1.659706e-001,-1.292439e-005,0.000000e+000
1.667647e-001,-1.762417e-005,0.000000e+000
1.675588e-001,-1.628138e-005,0.000000e+000
1.683529e-001,-1.091020e-005,0.000000e+000
1.691471e-001,-6.881819e-006,0.000000e+000
1.699412e-001,-7.553216e-006,0.000000e+000
1.707353e-001,-1.091020e-005,0.000000e+000
1.715294e-001,-1.091020e-005,0.000000e+000
1.723235e-001,-9.567407e-006,0.000000e+000
1.731176e-001,-1.057450e-005,0.000000e+000
1.739118e-001,-1.158160e-005,0.000000e+000
1.747059e-001,-1.225299e-005,0.000000e+000
1.755000e-001,-1.057450e-005,0.000000e+000
1.762941e-001,-1.158160e-005,0.000000e+000
1.770882e-001,-1.091020e-005,0.000000e+000
1.778824e-001,-1.091020e-005,0.000000e+000
1.786765e-001,-1.292439e-005,0.000000e+000
1.794706e-001,-1.191730e-005,0.000000e+000
1.802647e-001,-1.124590e-005,0.000000e+000
1.810588e-001,-9.567407e-006,0.000000e+000
1.818529e-001,-1.124590e-005,0.000000e+000
1.826471e-001,-6.210422e-006,0.000000e+000
1.834412e-001,-8.896010e-006,0.000000e+000
1.842353e-001,-1.695277e-005,0.000000e+000
1.850294e-001,-2.198825e-005,0.000000e+000
1.858235e-001,-1.560998e-005,0.000000e+000
1.866176e-001,-1.359579e-005,0.000000e+000
1.874118e-001,-1.091020e-005,0.000000e+000
1.882059e-001,-1.191730e-005,0.000000e+000
1.890000e-001,-1.158160e-005,0.000000e+000
1.897941e-001,-1.225299e-005,0.000000e+000
1.905882e-001,-1.091020e-005,0.000000e+000
1.913824e-001,-1.309224e-005,0.000000e+000
1.921765e-001,-1.292439e-005,0.000000e+000
1.929706e-001,-1.292439e-005,0.000000e+000
1.937647e-001,-1.359579e-005,0.000000e+000
1.945588e-001,-1.493858e-005,0.000000e+000
1.953529e-001,-1.258869e-005,0.000000e+000
1.961471e-001,-8.224612e-006,0.000000e+000
1.969412e-001,-8.896010e-006,0.000000e+000
1.977353e-001,-1.023880e-005,0.000000e+000
1.985294e-001,-1.225299e-005,0.000000e+000
1.993235e-001,-1.023880e-005,0.000000e+000
2.001176e-001,-8.560311e-006,0.000000e+000
2.009118e-001,-9.567407e-006,0.000000e+000
2.017059e-001,-7.553216e-006,0.000000e+000
2.025000e-001,-1.158160e-005,0.000000e+000
2.032941e-001,-1.309224e-005,0.000000e+000
2.040882e-001,-1.225299e-005,0.000000e+000
2.048824e-001,-1.040665e-005,0.000000e+000
2.056765e-001,-1.326009e-005,0.000000e+000
2.064706e-001,-1.258869e-005,0.000000e+000
2.072647e-001,-1.091020e-005,0.000000e+000
2.080588e-001,-1.359579e-005,0.000000e+000
2.088529e-001,-1.225299e-005,0.000000e+000
2.096471e-001,-1.023880e-005,0.000000e+000
2.104412e-001,-1.023880e-005,0.000000e+000
2.112353e-001,-8.896010e-006,0.000000e+000
2.120294e-001,-1.124590e-005,0.000000e+000
2.128235e-001,-1.359579e-005,0.000000e+000
2.136176e-001,-1.628138e-005,0.000000e+000
2.144118e-001,-1.628138e-005,0.000000e+000
2.152059e-001,-1.426719e-005,0.000000e+000
2.160000e-001,-1.359579e-005,0.000000e+000
2.167941e-001,-1.359579e-005,0.000000e+000
2.175882e-001,-1.376364e-005,0.000000e+000
2.183824e-001,-1.158160e-005,0.000000e+000
2.191765e-001,-1.124590e-005,0.000000e+000
2.199706e-001,-1.091020e-005,0.000000e+000
2.207647e-001,-1.023880e-005,0.000000e+000
2.215588e-001,-1.560998e-005,0.000000e+000
2.223529e-001,-1.292439e-005,0.000000e+000
2.231471e-001,-8.224612e-006,0.000000e+000
2.239412e-001,-1.158160e-005,0.000000e+000
2.247353e-001,-1.426719e-005,0.000000e+000
2.255294e-001,-1.292439e-005,0.000000e+000
2.263235e-001,-1.174945e-005,0.000000e+000
2.271176e-001,-1.460288e-005,0.000000e+000
2.279118e-001,-1.628138e-005,0.000000e+000
2.287059e-001,-1.426719e-005,0.000000e+000
2.295000e-001,-1.628138e-005,0.000000e+000
2.302941e-001,-1.628138e-005,0.000000e+000
2.310882e-001,-1.510643e-005,0.000000e+000
2.318824e-001,-1.292439e-005,0.000000e+000
2.326765e-001,-1.292439e-005,0.000000e+000
2.334706e-001,-1.376364e-005,0.000000e+000
2.342647e-001,-1.057450e-005,0.000000e+000
2.350588e-001,-9.567407e-006,0.000000e+000
2.358529e-001,-8.896010e-006,0.000000e+000
2.366471e-001,-9.567407e-006,0.000000e+000
2.374412e-001,-6.210422e-006,0.000000e+000
2.382353e-001,-1.661708e-005,0.000000e+000
2.390294e-001,-1.326009e-005,0.000000e+000
2.398235e-001,-1.678492e-007,0.000000e+000
2.406176e-001,1.678492e-006,0.000000e+000
2.414118e-001,-4.196231e-006,0.000000e+000
2.422059e-001,-7.217518e-006,0.000000e+000
2.430000e-001,-1.124590e-005,0.000000e+000
2.437941e-001,-1.628138e-005,0.000000e+000
2.445882e-001,-1.930266e-005,0.000000e+000
2.453824e-001,-1.460288e-005,0.000000e+000
2.461765e-001,-1.493858e-005,0.000000e+000
2.469706e-001,-1.426719e-005,0.000000e+000
2.477647e-001,-1.326009e-005,0.000000e+000
2.485588e-001,-1.560998e-005,0.000000e+000
2.493529e-001,-1.493858e-005,1.003277e-005
2.501471e-001,-1.594568e-005,1.006813e-005
2.509412e-001,-1.896696e-005,1.010826e-005
2.517353e-001,-1.661708e-005,1.016477e-005
2.525294e-001,-1.124590e-005,1.020794e-005
2.533235e-001,-9.567407e-006,1.022765e-005
2.541176e-001,-1.174945e-005,1.024189e-005
2.549118e-001,-1.225299e-005,1.026333e-005
2.557059e-001,-1.225299e-005,1.028660e-005
2.565000e-001,-1.124590e-005,1.030981e-005
2.572941e-001,-1.174945e-005,1.032932e-005
2.580882e-001,-1.292439e-005,1.035058e-005
2.588824e-001,-1.527428e-005,1.037625e-005
2.596765e-001,-1.560998e-005,1.041199e-005
2.604706e-001,-1.292439e-005,1.044919e-005
2.612647e-001,-1.158160e-005,1.047462e-005
2.620588e-001,-1.091020e-005,1.049499e-005
2.628529e-001,-1.023880e-005,1.051303e-005
2.636471e-001,-7.049668e-006,1.052890e-005
2.644412e-001,-7.049668e-006,1.053641e-005
2.652353e-001,-1.023880e-005,1.054392e-005
2.660294e-001,-1.158160e-005,1.055974e-005
2.668235e-001,-9.567407e-006,1.057995e-005
2.676176e-001,-9.903105e-006,1.059372e-005
2.684118e-001,-1.124590e-005,1.060845e-005
2.692059e-001,-1.091020e-005,1.062741e-005
2.700000e-001,-9.567407e-006,1.064523e-005
2.707941e-001,-9.567407e-006,1.065892e-005
2.715882e-001,-1.124590e-005,1.067258e-005
2.723824e-001,-8.896010e-006,1.069143e-005
2.731765e-001,-8.224612e-006,1.070322e-005
2.739706e-001,-9.903105e-006,1.071327e-005
2.747647e-001,-1.158160e-005,1.072784e-005
2.755588e-001,-1.225299e-005,1.074773e-005
2.763529e-001,-1.359579e-005,1.076995e-005
2.771471e-001,-1.225299e-005,1.079725e-005
2.779412e-001,-8.896010e-006,1.081937e-005
2.787353e-001,-1.023880e-005,1.083101e-005
2.795294e-001,-1.426719e-005,1.084641e-005
2.803235e-001,-1.258869e-005,1.087625e-005
2.811176e-001,-1.292439e-005,1.089943e-005
2.819118e-001,-1.426719e-005,1.092381e-005
2.827059e-001,-1.594568e-005,1.095344e-005
2.835000e-001,-1.560998e-005,1.099034e-005
2.842941e-001,-1.426719e-005,1.102559e-005
2.850882e-001,-1.292439e-005,1.105495e-005
2.858824e-001,-1.359579e-005,1.107898e-005
2.866765e-001,-1.326009e-005,1.110552e-005
2.874706e-001,-9.567407e-006,1.113070e-005
2.882647e-001,-1.225299e-005,1.114379e-005
2.890588e-001,-1.460288e-005,1.116522e-005
2.898529e-001,-1.292439e-005,1.119559e-005
2.906471e-001,-1.158160e-005,1.121932e-005
2.914412e-001,-1.141375e-005,1.123834e-005
2.922353e-001,-1.141375e-005,1.125679e-005
2.930294e-001,-1.091020e-005,1.127520e-005
2.938235e-001,-1.376364e-005,1.129200e-005
2.946176e-001,-1.292439e-005,1.131868e-005
2.954118e-001,-1.493858e-005,1.134216e-005
2.962059e-001,-1.963836e-005,1.137344e-005
2.970000e-001,-1.762417e-005,1.142731e-005
2.977941e-001,-1.242084e-005,1.147051e-005
2.985882e-001,-1.091020e-005,1.149191e-005
2.993824e-001,-8.224612e-006,1.150839e-005
3.001765e-001,-8.392462e-006,1.151775e-005
3.009706e-001,-7.217518e-006,1.152748e-005
3.017647e-001,-6.210422e-006,1.153467e-005
3.025588e-001,-5.539025e-006,1.154000e-005
3.033529e-001,-7.721065e-006,1.154423e-005
3.041471e-001,-1.393149e-005,1.155245e-005
3.049412e-001,-1.326009e-005,1.157917e-005
3.057353e-001,-1.158160e-005,1.160333e-005
3.065294e-001,-1.158160e-005,1.162172e-005
3.073235e-001,-1.292439e-005,1.164008e-005
3.081176e-001,-1.393149e-005,1.166291e-005
3.089118e-001,-1.225299e-005,1.168938e-005
3.097059e-001,-1.225299e-005,1.170982e-005
3.105000e-001,-1.594568e-005,1.173021e-005
3.112941e-001,-1.661708e-005,1.176468e-005
3.120882e-001,-1.443504e-005,1.180199e-005
3.128824e-001,-1.292439e-005,1.183007e-005
3.136765e-001,-1.292439e-005,1.185254e-005
3.144706e-001,-1.527428e-005,1.187496e-005
3.152647e-001,-1.812772e-005,1.190620e-005
3.160588e-001,-1.560998e-005,1.195007e-005
3.168529e-001,-1.124590e-005,1.198250e-005
3.176471e-001,-6.210422e-006,1.199929e-005
3.184412e-001,-4.867628e-006,1.200441e-005
3.192353e-001,-8.392462e-006,1.200755e-005
3.200294e-001,-8.896010e-006,1.201689e-005
3.208235e-001,-8.224612e-006,1.202737e-005
3.216176e-001,-8.224612e-006,1.203632e-005
3.224118e-001,-1.896696e-005,1.204527e-005
3.232059e-001,-2.366674e-005,1.209273e-005
3.240000e-001,-1.359579e-005,1.216626e-005
3.247941e-001,-3.524834e-006,1.219043e-005
3.255882e-001,1.846342e-006,1.219205e-005
3.263824e-001,3.356985e-007,1.219250e-005
3.271765e-001,-8.392462e-007,1.219251e-005
3.279706e-001,-6.210422e-006,1.219261e-005
3.287647e-001,-9.567407e-006,1.219764e-005
3.295588e-001,-1.359579e-005,1.220959e-005
3.303529e-001,-1.795987e-005,1.223367e-005
3.311471e-001,-1.863127e-005,1.227558e-005
3.319412e-001,-2.198825e-005,1.232053e-005
3.327353e-001,-1.896696e-005,1.238286e-005
3.335294e-001,-1.762417e-005,1.242903e-005
3.343235e-001,-1.762417e-005,1.246876e-005
3.351176e-001,-1.963836e-005,1.250837e-005
3.359118e-001,-2.064546e-005,1.255737e-005
3.367059e-001,-2.047761e-005,1.261130e-005
3.375000e-001,-1.493858e-005,1.266414e-005
3.382941e-001,-1.628138e-005,1.269217e-005
3.390882e-001,-1.326009e-005,1.272538e-005
3.398824e-001,-9.063859e-006,1.274736e-005
3.406765e-001,-9.567407e-006,1.275762e-005
3.414706e-001,-1.158160e-005,1.276904e-005
3.422647e-001,-1.023880e-005,1.278576e-005
3.430588e-001,-9.903105e-006,1.279881e-005
3.438529e-001,-1.007095e-005,1.281100e-005
3.446471e-001,-9.735256e-006,1.279064e-005
3.454412e-001,-8.224612e-006,1.278939e-005
3.462353e-001,-5.539025e-006,1.278299e-005
3.470294e-001,-6.546120e-006,1.277105e-005
3.478235e-001,-8.224612e-006,1.276332e-005
3.486176e-001,-8.224612e-006,1.276074e-005
3.494118e-001,-1.158160e-005,1.274377e-005
3.502059e-001,-1.292439e-005,1.270547e-005
3.510000e-001,-1.359579e-005,1.270208e-005
3.517941e-001,-1.057450e-005,1.272139e-005
3.525882e-001,-1.091020e-005,1.273525e-005
3.533824e-001,-1.091020e-005,1.274793e-005
3.541765e-001,-1.258869e-005,1.275628e-005
3.549706e-001,-1.023880e-005,1.276382e-005
3.557647e-001,-1.225299e-005,1.276548e-005
3.565588e-001,-1.292439e-005,1.276843e-005
3.573529e-001,-1.376364e-005,1.276388e-005
3.581471e-001,-1.359579e-005,1.275840e-005
3.589412e-001,-1.242084e-005,1.276222e-005
3.597353e-001,-1.091020e-005,1.276839e-005
3.605294e-001,-1.292439e-005,1.277182e-005
3.613235e-001,-9.567407e-006,1.277182e-005
3.621176e-001,-8.896010e-006,1.275016e-005
3.629118e-001,-1.493858e-005,1.272122e-005
3.637059e-001,-1.258869e-005,1.271995e-005
3.645000e-001,-7.553216e-006,1.271665e-005
3.652941e-001,-9.903105e-006,1.269326e-005
3.660882e-001,-1.124590e-005,1.267498e-005
3.668824e-001,-1.023880e-005,1.267148e-005
3.676765e-001,-1.258869e-005,1.266256e-005
3.684706e-001,-9.903105e-006,1.265924e-005
3.692647e-001,-7.217518e-006,1.265839e-005
3.700588e-001,-1.023880e-005,1.264500e-005
3.708529e-001,-1.091020e-005,1.264131e-005
3.716471e-001,-1.158160e-005,1.263244e-005
3.724412e-001,-1.527428e-005,1.261863e-005
3.732353e-001,-1.426719e-005,1.263113e-005
3.740294e-001,-1.292439e-005,1.263939e-005
3.748235e-001,-1.242084e-005,1.264152e-005
3.756176e-001,-1.292439e-005,1.263991e-005
3.764118e-001,-1.426719e-005,1.264099e-005
3.772059e-001,-1.762417e-005,1.263324e-005
3.780000e-001,-1.896696e-005,1.263616e-005
3.787941e-001,-1.695277e-005,1.264528e-005
3.795882e-001,-1.393149e-005,1.265461e-005
3.803824e-001,-1.426719e-005,1.266405e-005
3.811765e-001,-1.577783e-005,1.267077e-005
3.819706e-001,-1.359579e-005,1.268519e-005
3.827647e-001,-1.225299e-005,1.269607e-005
3.835588e-001,-1.091020e-005,1.269808e-005
3.843529e-001,-1.023880e-005,1.270071e-005
3.851471e-001,-8.224612e-006,1.271088e-005
3.859412e-001,-1.023880e-005,1.271779e-005
3.867353e-001,-1.225299e-005,1.272659e-005
3.875294e-001,-8.896010e-006,1.273691e-005
3.883235e-001,-1.107805e-005,1.272905e-005
3.891176e-001,-1.023880e-005,1.272012e-005
3.899118e-001,-1.225299e-005,1.270894e-005
3.907059e-001,-1.393149e-005,1.269979e-005
3.915000e-001,-1.225299e-005,1.269487e-005
3.922941e-001,-1.493858e-005,1.268570e-005
3.930882e-001,-7.888914e-006,1.269051e-005
3.938824e-001,-6.881819e-006,1.266903e-005
3.946765e-001,-6.881819e-006,1.265908e-005
3.954706e-001,-2.098116e-005,1.265270e-005
3.962647e-001,-2.635233e-005,1.269806e-005
3.970588e-001,-1.275654e-005,1.277742e-005
3.978529e-001,3.524834e-006,1.278708e-005
3.986471e-001,7.049668e-006,1.276444e-005
3.994412e-001,3.189136e-006,1.274523e-005
4.002353e-001,-4.867628e-006,1.271983e-005
4.010294e-001,-8.224612e-006,1.269226e-005
4.018235e-001,-1.158160e-005,1.266883e-005
4.026176e-001,-1.359579e-005,1.265636e-005
4.034118e-001,-1.560998e-005,1.265026e-005
4.042059e-001,-1.628138e-005,1.265650e-005
4.050000e-001,-1.628138e-005,1.263794e-005
4.057941e-001,-1.309224e-005,1.257919e-005
4.065882e-001,-1.393149e-005,1.256304e-005
4.073824e-001,-1.896696e-005,1.258502e-005
4.081765e-001,-1.896696e-005,1.262505e-005
4.089706e-001,-1.527428e-005,1.266496e-005
4.097647e-001,-1.359579e-005,1.269417e-005
4.105588e-001,-1.292439e-005,1.270666e-005
4.113529e-001,-1.493858e-005,1.271767e-005
4.121471e-001,-1.426719e-005,1.272247e-005
4.129412e-001,-1.661708e-005,1.272001e-005
4.137353e-001,-1.594568e-005,1.271860e-005
4.145294e-001,-1.225299e-005,1.270539e-005
4.153235e-001,-1.191730e-005,1.268817e-005
4.161176e-001,-1.158160e-005,1.268503e-005
4.169118e-001,-7.721065e-006,1.266286e-005
4.177059e-001,-8.224612e-006,1.263700e-005
4.185000e-001,-7.721065e-006,1.263052e-005
4.192941e-001,-1.040665e-005,1.263207e-005
4.200882e-001,-8.224612e-006,1.263852e-005
4.208824e-001,-8.224612e-006,1.263205e-005
4.216765e-001,-1.158160e-005,1.262557e-005
4.224706e-001,-1.292439e-005,1.263094e-005
4.232647e-001,-1.292439e-005,1.263790e-005
4.240588e-001,-9.231709e-006,1.264205e-005
4.248529e-001,-9.567407e-006,1.263387e-005
4.256471e-001,-8.896010e-006,1.263131e-005
4.264412e-001,-9.567407e-006,1.262437e-005
4.272353e-001,-1.225299e-005,1.262091e-005
4.280294e-001,-1.292439e-005,1.262483e-005
4.288235e-001,-1.359579e-005,1.262483e-005
4.296176e-001,-1.426719e-005,1.263023e-005
4.304118e-001,-1.846342e-005,1.263994e-005
4.312059e-001,-2.030976e-005,1.267132e-005
4.320000e-001,-1.762417e-005,1.270721e-005
4.327941e-001,-1.628138e-005,1.274125e-005
4.335882e-001,-1.930266e-005,1.276447e-005
4.343824e-001,-2.568093e-005,1.277510e-005
4.351765e-001,-2.333104e-005,1.279702e-005
4.359706e-001,-1.628138e-005,1.283438e-005
4.367647e-001,-1.292439e-005,1.284433e-005
4.375588e-001,-6.546120e-006,1.285028e-005
4.383529e-001,-6.881819e-006,1.283798e-005
4.391471e-001,-7.553216e-006,1.282722e-005
4.399412e-001,-9.567407e-006,1.281566e-005
4.407353e-001,-8.896010e-006,1.281224e-005
4.415294e-001,-9.063859e-006,1.280077e-005
4.423235e-001,-9.567407e-006,1.279020e-005
4.431176e-001,-8.224612e-006,1.278080e-005
4.439118e-001,-8.392462e-006,1.276619e-005
4.447059e-001,-5.874723e-006,1.274712e-005
4.455000e-001,-3.021286e-006,1.273163e-005
4.462941e-001,-4.531929e-006,1.272431e-005
4.470882e-001,-6.881819e-006,1.271697e-005
4.478824e-001,-8.224612e-006,1.270977e-005
4.486765e-001,-8.896010e-006,1.269943e-005
4.494706e-001,-1.326009e-005,1.269621e-005
4.502647e-001,-1.393149e-005,1.270907e-005
4.510588e-001,-1.359579e-005,1.272191e-005
4.518529e-001,-1.225299e-005,1.273790e-005
4.526471e-001,-1.225299e-005,1.273990e-005
4.534412e-001,-1.158160e-005,1.273724e-005
4.542353e-001,-1.191730e-005,1.273524e-005
4.550294e-001,-1.527428e-005,1.273945e-005
4.558235e-001,-1.040665e-005,1.274663e-005
4.566176e-001,-9.063859e-006,1.274036e-005
4.574118e-001,-1.158160e-005,1.273575e-005
4.582059e-001,-1.527428e-005,1.272941e-005
4.590000e-001,-1.493858e-005,1.273981e-005
4.597941e-001,-1.661708e-005,1.275459e-005
4.605882e-001,-1.426719e-005,1.277596e-005
4.613824e-001,-1.158160e-005,1.279146e-005
4.621765e-001,-1.527428e-005,1.279241e-005
4.629706e-001,-1.326009e-005,1.279844e-005
4.637647e-001,-2.098116e-005,1.278733e-005
4.645588e-001,-1.930266e-005,1.280912e-005
4.653529e-001,-9.903105e-006,1.283012e-005
4.661471e-001,-8.224612e-006,1.281934e-005
4.669412e-001,-6.210422e-006,1.280478e-005
4.677353e-001,-9.567407e-006,1.278600e-005
4.685294e-001,-1.158160e-005,1.278070e-005
4.693235e-001,-1.359579e-005,1.278165e-005
4.701176e-001,-1.242084e-005,1.278985e-005
4.709118e-001,-1.661708e-005,1.279600e-005
4.717059e-001,-1.712062e-005,1.280004e-005
4.725000e-001,-1.124590e-005,1.281572e-005
4.732941e-001,-8.224612e-006,1.282302e-005
4.740882e-001,-6.546120e-006,1.281476e-005
4.748824e-001,-8.896010e-006,1.279478e-005
4.756765e-001,-9.567407e-006,1.278383e-005
4.764706e-001,-7.721065e-006,1.277804e-005
4.772647e-001,-1.158160e-005,1.275888e-005
4.780588e-001,-1.628138e-005,1.274253e-005
4.788529e-001,-1.225299e-005,1.275021e-005
4.796471e-001,-6.881819e-006,1.273585e-005
4.804412e-001,-8.224612e-006,1.270860e-005
4.812353e-001,-1.023880e-005,1.268847e-005
4.820294e-001,-1.292439e-005,1.268066e-005
4.828235e-001,-1.393149e-005,1.268066e-005
4.836176e-001,-1.258869e-005,1.268124e-005
4.844118e-001,-1.091020e-005,1.268710e-005
4.852059e-001,-1.258869e-005,1.269055e-005
4.860000e-001,-1.695277e-005,1.270050e-005
4.867941e-001,-1.426719e-005,1.272503e-005
4.875882e-001,-1.292439e-005,1.274566e-005
4.883824e-001,-1.124590e-005,1.273202e-005
4.891765e-001,-1.124590e-005,1.272585e-005
4.899706e-001,-1.309224e-005,1.274166e-005
4.907647e-001,-1.292439e-005,1.276271e-005
4.915588e-001,-1.040665e-005,1.278134e-005
4.923529e-001,-1.023880e-005,1.278834e-005
4.931471e-001,-8.392462e-006,1.278565e-005
4.939412e-001,-1.225299e-005,1.276138e-005
4.947353e-001,-1.275654e-005,1.273360e-005
4.955294e-001,-1.023880e-005,1.272728e-005
4.963235e-001,-1.359579e-005,1.271246e-005
4.971176e-001,-1.409934e-005,1.271012e-005
4.979118e-001,-1.393149e-005,1.271300e-005
4.987059e-001,-1.426719e-005,1.270678e-005
4.995000e-001,-1.426719e-005,1.270433e-005
5.002941e-001,-1.493858e-005,1.269797e-005
5.010882e-001,-1.695277e-005,1.268083e-005
5.018824e-001,-1.493858e-005,1.268224e-005
5.026765e-001,-1.292439e-005,1.269438e-005
5.034706e-001,-1.359579e-005,1.270385e-005
5.042647e-001,-1.225299e-005,1.270971e-005
5.050588e-001,-1.359579e-005,1.270971e-005
5.058529e-001,-1.091020e-005,1.271406e-005
5.066471e-001,-8.560311e-006,1.271313e-005
5.074412e-001,-7.888914e-006,1.270501e-005
5.082353e-001,-9.567407e-006,1.269187e-005
5.090294e-001,-1.091020e-005,1.267407e-005
5.098235e-001,-1.091020e-005,1.265840e-005
5.106176e-001,-1.091020e-005,1.265236e-005
5.114118e-001,-6.210422e-006,1.265046e-005
5.122059e-001,-7.553216e-006,1.264033e-005
5.130000e-001,-8.896010e-006,1.263431e-005
5.137941e-001,-8.392462e-006,1.263802e-005
5.145882e-001,-1.225299e-005,1.264063e-005
5.153824e-001,-1.326009e-005,1.264633e-005
5.161765e-001,-9.903105e-006,1.265158e-005
5.169706e-001,-9.231709e-006,1.265241e-005
5.177647e-001,-1.091020e-005,1.265079e-005
5.185588e-001,-1.023880e-005,1.264985e-005
5.193529e-001,-1.225299e-005,1.264807e-005
5.201471e-001,-1.023880e-005,1.265544e-005
5.209412e-001,-1.242084e-005,1.265711e-005
5.217353e-001,-1.225299e-005,1.266061e-005
5.225294e-001,-1.091020e-005,1.266954e-005
5.233235e-001,-8.224612e-006,1.267600e-005
5.241176e-001,-7.217518e-006,1.267217e-005
5.249118e-001,-1.174945e-005,1.266186e-005
5.257059e-001,-1.258869e-005,1.266034e-005
5.265000e-001,-1.443504e-005,1.265702e-005
5.272941e-001,-1.359579e-005,1.266435e-005
5.280882e-001,-1.124590e-005,1.267763e-005
5.288824e-001,-1.091020e-005,1.268035e-005
5.296765e-001,-1.326009e-005,1.266973e-005
5.304706e-001,-1.242084e-005,1.267191e-005
5.312647e-001,-7.553216e-006,1.267031e-005
5.320588e-001,-9.567407e-006,1.265188e-005
5.328529e-001,-1.628138e-005,1.263138e-005
5.336471e-001,-1.728847e-005,1.263408e-005
5.344412e-001,-2.299535e-005,1.264609e-005
5.352353e-001,-1.695277e-005,1.269156e-005
5.360294e-001,-1.225299e-005,1.270442e-005
5.368235e-001,-1.359579e-005,1.270120e-005
5.376176e-001,-1.258869e-005,1.271290e-005
5.384118e-001,-1.057450e-005,1.271394e-005
5.392059e-001,-1.376364e-005,1.270123e-005
5.400000e-001,-1.695277e-005,1.270404e-005
5.407941e-001,-2.064546e-005,1.272323e-005
5.415882e-001,-2.265965e-005,1.276022e-005
5.423824e-001,-1.762417e-005,1.280795e-005
5.431765e-001,-1.628138e-005,1.283175e-005
5.439706e-001,-1.930266e-005,1.284113e-005
5.447647e-001,-2.400244e-005,1.286659e-005
5.455588e-001,-1.762417e-005,1.291020e-005
5.463529e-001,-8.224612e-006,1.290094e-005
5.471471e-001,-1.510643e-006,1.287092e-005
5.479412e-001,1.510643e-006,1.285210e-005
5.487353e-001,-6.210422e-006,1.283762e-005
5.495294e-001,-8.224612e-006,1.283402e-005
5.503235e-001,-5.539025e-006,1.283367e-005
5.511176e-001,-6.378271e-006,1.283101e-005
5.519118e-001,-1.023880e-005,1.283128e-005
5.527059e-001,-1.158160e-005,1.284048e-005
5.535000e-001,-9.735256e-006,1.284971e-005
5.542941e-001,-7.553216e-006,1.283740e-005
5.550882e-001,-5.539025e-006,1.282266e-005
5.558824e-001,-5.035477e-006,1.280981e-005
5.566765e-001,-8.560311e-006,1.279628e-005
5.574706e-001,-1.225299e-005,1.278460e-005
5.582647e-001,-8.896010e-006,1.277913e-005
5.590588e-001,-9.903105e-006,1.277028e-005
5.598529e-001,-1.158160e-005,1.276378e-005
5.606471e-001,-1.292439e-005,1.274879e-005
5.614412e-001,-1.594568e-005,1.273516e-005
5.622353e-001,-1.426719e-005,1.274089e-005
5.630294e-001,-1.493858e-005,1.274546e-005
5.638235e-001,-1.393149e-005,1.275247e-005
5.646176e-001,-1.393149e-005,1.274757e-005
5.654118e-001,-1.829557e-005,1.273075e-005
5.662059e-001,-1.963836e-005,1.274214e-005
5.670000e-001,-1.493858e-005,1.277449e-005
5.677941e-001,-8.560311e-006,1.279748e-005
5.685882e-001,-5.539025e-006,1.280364e-005
5.693824e-001,-5.539025e-006,1.279870e-005
5.701765e-001,-8.392462e-006,1.279267e-005
5.709706e-001,-1.091020e-005,1.279302e-005
5.717647e-001,-1.091020e-005,1.279941e-005
5.725588e-001,-1.242084e-005,1.276943e-005
5.733529e-001,-1.443504e-005,1.271872e-005
5.741471e-001,-1.493858e-005,1.272166e-005
5.749412e-001,-1.359579e-005,1.274801e-005
5.757353e-001,-1.460288e-005,1.277066e-005
5.765294e-001,-1.762417e-005,1.279721e-005
5.773235e-001,-1.426719e-005,1.283571e-005
5.781176e-001,-1.292439e-005,1.285616e-005
5.789118e-001,-1.460288e-005,1.286551e-005
5.797059e-001,-1.426719e-005,1.286902e-005
5.805000e-001,-1.393149e-005,1.285429e-005
5.812941e-001,-1.426719e-005,1.283532e-005
5.820882e-001,-1.493858e-005,1.280054e-005
5.828824e-001,-1.158160e-005,1.278354e-005
5.836765e-001,-1.091020e-005,1.276154e-005
5.844706e-001,-1.527428e-005,1.273761e-005
5.852647e-001,-1.292439e-005,1.271855e-005
5.860588e-001,-1.359579e-005,1.268606e-005
5.868529e-001,-1.426719e-005,1.265659e-005
5.876471e-001,-1.258869e-005,1.265412e-005
5.884412e-001,-9.063859e-006,1.264070e-005
5.892353e-001,-8.392462e-006,1.262890e-005
5.900294e-001,-6.881819e-006,1.262742e-005
5.908235e-001,-4.867628e-006,1.262185e-005
5.916176e-001,-4.867628e-006,1.260790e-005
5.924118e-001,-9.063859e-006,1.259765e-005
5.932059e-001,-6.881819e-006,1.259564e-005
5.940000e-001,-7.721065e-006,1.258880e-005
5.947941e-001,-1.124590e-005,1.258436e-005
5.955882e-001,-1.359579e-005,1.259180e-005
5.963824e-001,-1.443504e-005,1.261128e-005
5.971765e-001,-1.191730e-005,1.263216e-005
5.979706e-001,-1.191730e-005,1.264153e-005
5.987647e-001,-1.124590e-005,1.265090e-005
5.995588e-001,-1.091020e-005,1.264993e-005
6.003529e-001,-1.091020e-005,1.264389e-005
6.011471e-001,-1.124590e-005,1.263560e-005
6.019412e-001,-1.258869e-005,1.263744e-005
6.027353e-001,-1.191730e-005,1.264241e-005
6.035294e-001,-1.225299e-005,1.264531e-005
6.043235e-001,-1.242084e-005,1.264426e-005
6.051176e-001,-1.594568e-005,1.265048e-005
6.059118e-001,-1.695277e-005,1.266358e-005
6.067059e-001,-1.560998e-005,1.267871e-005
6.075000e-001,-1.712062e-005,1.268552e-005
6.082941e-001,-1.493858e-005,1.269910e-005
6.090882e-001,-1.359579e-005,1.270773e-005
6.098824e-001,-8.896010e-006,1.271598e-005
6.106765e-001,-1.158160e-005,1.270497e-005
6.114706e-001,-1.426719e-005,1.271030e-005
6.122647e-001,-1.292439e-005,1.272588e-005
6.130588e-001,-1.460288e-005,1.271886e-005
6.138529e-001,-1.292439e-005,1.272571e-005
6.146471e-001,-1.023880e-005,1.273947e-005
6.154412e-001,-1.191730e-005,1.274031e-005
6.162353e-001,-1.057450e-005,1.274225e-005
6.170294e-001,-1.426719e-005,1.274313e-005
6.178235e-001,-1.560998e-005,1.274876e-005
6.186176e-001,-1.242084e-005,1.276693e-005
6.194118e-001,-9.567407e-006,1.277967e-005
6.202059e-001,-1.023880e-005,1.277801e-005
6.210000e-001,-9.735256e-006,1.277625e-005
6.217941e-001,-1.141375e-005,1.277134e-005
6.225882e-001,-1.158160e-005,1.275849e-005
6.233824e-001,-1.091020e-005,1.274982e-005
6.241765e-001,-8.896010e-006,1.274382e-005
6.249706e-001,-9.231709e-006,1.273443e-005
6.257647e-001,-1.258869e-005,1.272420e-005
6.265588e-001,-9.903105e-006,1.271855e-005
6.273529e-001,-1.091020e-005,1.269192e-005
6.281471e-001,-1.292439e-005,1.266168e-005
6.289412e-001,-1.426719e-005,1.264653e-005
6.297353e-001,-1.493858e-005,1.264773e-005
6.305294e-001,-1.359579e-005,1.265019e-005
6.313235e-001,-1.158160e-005,1.264212e-005
6.321176e-001,-8.560311e-006,1.263573e-005
6.329118e-001,-9.231709e-006,1.262605e-005
6.337059e-001,-2.316319e-005,1.262178e-005
6.345000e-001,-2.232395e-005,1.267613e-005
6.352941e-001,-6.210422e-006,1.273012e-005
6.360882e-001,-3.356985e-007,1.272183e-005
6.368824e-001,1.174945e-006,1.270303e-005
6.376765e-001,-2.182040e-006,1.269328e-005
6.384706e-001,-8.392462e-006,1.267848e-005
6.392647e-001,-1.779202e-005,1.267416e-005
6.400588e-001,-2.165255e-005,1.269505e-005
6.408529e-001,-1.292439e-005,1.272946e-005
6.416471e-001,-9.903105e-006,1.273158e-005
6.424412e-001,-9.735256e-006,1.271592e-005
6.432353e-001,-8.896010e-006,1.272000e-005
6.440294e-001,-4.196231e-006,1.272397e-005
6.448235e-001,-5.539025e-006,1.272025e-005
6.456176e-001,-1.091020e-005,1.266888e-005
6.464118e-001,-1.762417e-005,1.259635e-005
6.472059e-001,-1.762417e-005,1.261503e-005
6.480000e-001,-1.762417e-005,1.265261e-005
6.487941e-001,-1.829557e-005,1.268541e-005
6.495882e-001,-2.098116e-005,1.272608e-005
6.503824e-001,-1.930266e-005,1.277809e-005
6.511765e-001,-1.829557e-005,1.281604e-005
6.519706e-001,-1.393149e-005,1.284094e-005
6.527647e-001,-1.225299e-005,1.284208e-005
6.535588e-001,-1.292439e-005,1.283048e-005
6.543529e-001,-1.158160e-005,1.281831e-005
6.551471e-001,-1.091020e-005,1.280203e-005
6.559412e-001,-8.560311e-006,1.279551e-005
6.567353e-001,-1.023880e-005,1.278047e-005
6.575294e-001,-8.896010e-006,1.274867e-005
6.583235e-001,-1.359579e-005,1.271357e-005
6.591176e-001,-1.359579e-005,1.270750e-005
6.599118e-001,-1.091020e-005,1.270750e-005
6.607059e-001,-8.224612e-006,1.270148e-005
6.615000e-001,-1.057450e-005,1.268197e-005
6.622941e-001,-8.224612e-006,1.267045e-005
6.630882e-001,-9.567407e-006,1.264422e-005
6.638824e-001,-1.191730e-005,1.262371e-005
6.646765e-001,-1.057450e-005,1.262269e-005
6.654706e-001,-1.023880e-005,1.261888e-005
6.662647e-001,-1.158160e-005,1.261518e-005
6.670588e-001,-1.393149e-005,1.262458e-005
6.678529e-001,-1.493858e-005,1.264052e-005
6.686471e-001,-1.930266e-005,1.266110e-005
6.694412e-001,-1.930266e-005,1.269430e-005
6.702353e-001,-1.594568e-005,1.273250e-005
6.710294e-001,-1.376364e-005,1.275581e-005
6.718235e-001,-1.309224e-005,1.276272e-005
6.726176e-001,-1.712062e-005,1.276326e-005
6.734118e-001,-1.661708e-005,1.277898e-005
6.742059e-001,-1.258869e-005,1.280275e-005
6.750000e-001,-1.023880e-005,1.281107e-005
6.757941e-001,-7.049668e-006,1.281426e-005
6.765882e-001,-6.378271e-006,1.280906e-005
6.773824e-001,-8.224612e-006,1.279545e-005
6.781765e-001,-9.063859e-006,1.278307e-005
6.789706e-001,-7.553216e-006,1.277027e-005
6.797647e-001,-4.867628e-006,1.275199e-005
6.805588e-001,-6.881819e-006,1.271232e-005
6.813529e-001,-7.553216e-006,1.266650e-005
6.821471e-001,-2.182040e-006,1.263459e-005
6.829412e-001,-4.196231e-006,1.260173e-005
6.837353e-001,-1.091020e-005,1.255680e-005
6.845294e-001,-9.231709e-006,1.248807e-005
6.853235e-001,-1.091020e-005,1.242939e-005
6.861176e-001,-1.292439e-005,1.241067e-005
6.869118e-001,-1.359579e-005,1.241067e-005
6.877059e-001,-1.443504e-005,1.242887e-005
6.885000e-001,-1.527428e-005,1.244948e-005
6.892941e-001,-1.292439e-005,1.247201e-005
6.900882e-001,-1.258869e-005,1.248164e-005
6.908824e-001,-1.225299e-005,1.249176e-005
6.916765e-001,-1.460288e-005,1.250042e-005
6.924706e-001,-1.560998e-005,1.251592e-005
6.932647e-001,-1.091020e-005,1.253829e-005
6.940588e-001,-1.359579e-005,1.254446e-005
6.948529e-001,-1.695277e-005,1.256353e-005
6.956471e-001,-1.493858e-005,1.259875e-005
6.964412e-001,-1.292439e-005,1.262434e-005
6.972353e-001,-1.829557e-005,1.263942e-005
6.980294e-001,-1.963836e-005,1.267303e-005
6.988235e-001,-1.644922e-005,1.271148e-005
6.996176e-001,-1.225299e-005,1.272335e-005
7.004118e-001,-7.721065e-006,1.271784e-005
7.012059e-001,-6.881819e-006,1.270215e-005
7.020000e-001,-6.210422e-006,1.268926e-005
7.027941e-001,-6.546120e-006,1.267525e-005
7.035882e-001,-7.553216e-006,1.266378e-005
7.043824e-001,-4.867628e-006,1.265309e-005
7.051765e-001,-7.049668e-006,1.262669e-005
7.059706e-001,-8.224612e-006,1.261930e-005
7.067647e-001,-8.224612e-006,1.261746e-005
7.075588e-001,-1.124590e-005,1.260907e-005
7.083529e-001,-1.292439e-005,1.259557e-005
7.091471e-001,-1.292439e-005,1.258847e-005
7.099412e-001,-1.242084e-005,1.257467e-005
7.107353e-001,-1.225299e-005,1.256843e-005
7.115294e-001,-1.560998e-005,1.257045e-005
7.123235e-001,-2.601663e-005,1.257177e-005
7.131176e-001,-2.165255e-005,1.263507e-005
7.139118e-001,-1.091020e-005,1.263868e-005
7.147059e-001,-4.867628e-006,1.260669e-005
7.155000e-001,-7.217518e-006,1.259729e-005
7.162941e-001,-9.903105e-006,1.259532e-005
7.170882e-001,-1.158160e-005,1.260285e-005
7.178824e-001,-1.695277e-005,1.260823e-005
7.186765e-001,-1.695277e-005,1.262757e-005
7.194706e-001,-1.728847e-005,1.264049e-005
7.202647e-001,-1.158160e-005,1.265870e-005
7.210588e-001,-9.063859e-006,1.264082e-005
7.218529e-001,-8.224612e-006,1.261422e-005
7.226471e-001,-7.217518e-006,1.260679e-005
7.234412e-001,-1.023880e-005,1.260483e-005
7.242353e-001,-1.158160e-005,1.261266e-005
7.250294e-001,-1.577783e-005,1.261960e-005
7.258235e-001,-1.728847e-005,1.263944e-005
7.266176e-001,-1.242084e-005,1.266955e-005
7.274118e-001,-1.057450e-005,1.267208e-005
7.282059e-001,-1.057450e-005,1.265281e-005
7.290000e-001,-1.191730e-005,1.264799e-005
7.297941e-001,-1.393149e-005,1.265990e-005
7.305882e-001,-1.225299e-005,1.267579e-005
7.313824e-001,-9.567407e-006,1.268148e-005
7.321765e-001,-1.091020e-005,1.267200e-005
7.329706e-001,-1.258869e-005,1.266256e-005
7.337647e-001,-1.359579e-005,1.266256e-005
7.345588e-001,-1.493858e-005,1.267084e-005
7.353529e-001,-1.426719e-005,1.267896e-005
7.361471e-001,-9.063859e-006,1.266843e-005
7.369412e-001,-6.881819e-006,1.265316e-005
7.377353e-001,-3.860533e-006,1.263809e-005
7.385294e-001,-6.210422e-006,1.262402e-005
7.393235e-001,-1.359579e-005,1.261293e-005
7.401176e-001,-1.661708e-005,1.261463e-005
7.409118e-001,-1.829557e-005,1.262839e-005
7.417059e-001,-1.628138e-005,1.265691e-005
7.425000e-001,-1.493858e-005,1.267706e-005
7.432941e-001,-1.728847e-005,1.269622e-005
7.440882e-001,-1.930266e-005,1.271487e-005
7.448824e-001,-1.762417e-005,1.274112e-005
7.456765e-001,-1.695277e-005,1.276682e-005
7.464706e-001,-1.695277e-005,1.277960e-005
7.472647e-001,-1.292439e-005,1.279064e-005
7.480588e-001,-1.091020e-005,1.278727e-005
7.488529e-001,-9.735256e-006,1.277674e-005
7.496471e-001,-9.903105e-006,1.276317e-005
7.504412e-001,-9.567407e-006,1.274756e-005
7.512353e-001,-7.049668e-006,1.272307e-005
7.520294e-001,-1.124590e-005,1.270134e-005
7.528235e-001,-1.393149e-005,1.269625e-005
7.536176e-001,-9.903105e-006,1.269741e-005
7.544118e-001,-6.881819e-006,1.269088e-005
7.552059e-001,-9.567407e-006,1.267362e-005
7.560000e-001,-1.023880e-005,1.267016e-005
7.567941e-001,-1.091020e-005,1.267413e-005
7.575882e-001,-1.393149e-005,1.268126e-005
7.583824e-001,-1.393149e-005,1.269413e-005
7.591765e-001,-1.527428e-005,1.270354e-005
7.599706e-001,-1.493858e-005,1.271786e-005
7.607647e-001,-1.023880e-005,1.273089e-005
7.615588e-001,-8.392462e-006,1.273918e-005
7.623529e-001,-9.735256e-006,1.274085e-005
7.631471e-001,-8.392462e-006,1.274280e-005
7.639412e-001,-8.224612e-006,1.274280e-005
7.647353e-001,-9.567407e-006,1.273249e-005
7.655294e-001,-1.091020e-005,1.272194e-005
7.663235e-001,-1.292439e-005,1.272457e-005
7.671176e-001,-1.577783e-005,1.273480e-005
7.679118e-001,-1.493858e-005,1.275103e-005
7.687059e-001,-1.225299e-005,1.276580e-005
7.695000e-001,-1.091020e-005,1.276580e-005
7.702941e-001,-1.426719e-005,1.276757e-005
7.710882e-001,-1.225299e-005,1.277372e-005
7.718824e-001,-1.225299e-005,1.277372e-005
7.726765e-001,-1.292439e-005,1.277760e-005
7.734706e-001,-1.292439e-005,1.278998e-005
7.742647e-001,-1.225299e-005,1.280428e-005
7.750588e-001,-9.231709e-006,1.280578e-005
7.758529e-001,-1.258869e-005,1.279667e-005
7.766471e-001,-1.023880e-005,1.279046e-005
7.774412e-001,-9.567407e-006,1.278050e-005
7.782353e-001,-1.762417e-005,1.277614e-005
7.790294e-001,-2.635233e-005,1.280000e-005
7.798235e-001,-2.769513e-005,1.286435e-005
7.806176e-001,-1.292439e-005,1.293998e-005
7.814118e-001,3.524834e-006,1.295350e-005
7.822059e-001,5.874723e-006,1.294378e-005
7.830000e-001,-3.356985e-007,1.291538e-005
7.837941e-001,-8.560311e-006,1.287849e-005
7.845882e-001,-1.174945e-005,1.282205e-005
7.853824e-001,-1.258869e-005,1.280349e-005
7.861765e-001,-1.258869e-005,1.280452e-005
7.869706e-001,-1.359579e-005,1.280124e-005
7.877647e-001,-1.628138e-005,1.280452e-005
7.885588e-001,-1.560998e-005,1.282357e-005
7.893529e-001,-1.292439e-005,1.283030e-005
7.901471e-001,-1.023880e-005,1.281536e-005
7.909412e-001,-1.174945e-005,1.277536e-005
7.917353e-001,-1.628138e-005,1.272848e-005
7.925294e-001,-1.695277e-005,1.272278e-005
7.933235e-001,-1.980621e-005,1.272557e-005
7.941176e-001,-1.896696e-005,1.272804e-005
7.949118e-001,-1.225299e-005,1.270094e-005
7.957059e-001,-9.903105e-006,1.268080e-005
7.965000e-001,-4.867628e-006,1.268462e-005
7.972941e-001,-7.888914e-006,1.268731e-005
7.980882e-001,-5.874723e-006,1.269484e-005
7.988824e-001,-5.874723e-006,1.269433e-005
7.996765e-001,-9.567407e-006,1.269017e-005
8.004706e-001,-7.721065e-006,1.269780e-005
8.012647e-001,-7.721065e-006,1.270018e-005
8.020588e-001,-1.225299e-005,1.269451e-005
8.028529e-001,-1.158160e-005,1.269651e-005
8.036471e-001,-1.091020e-005,1.270145e-005
8.044412e-001,-1.309224e-005,1.270922e-005
8.052353e-001,-1.057450e-005,1.272684e-005
8.060294e-001,-8.896010e-006,1.273765e-005
8.068235e-001,-9.903105e-006,1.273838e-005
8.076176e-001,-1.174945e-005,1.273187e-005
8.084118e-001,-1.326009e-005,1.273924e-005
8.092059e-001,-1.258869e-005,1.274895e-005
8.100000e-001,-1.023880e-005,1.275199e-005
8.107941e-001,-1.191730e-005,1.274422e-005
8.115882e-001,-1.443504e-005,1.273019e-005
8.123824e-001,-1.393149e-005,1.273079e-005
8.131765e-001,-1.275654e-005,1.272716e-005
8.139706e-001,-1.326009e-005,1.272323e-005
8.147647e-001,-1.326009e-005,1.272095e-005
8.155588e-001,-1.493858e-005,1.270104e-005
8.163529e-001,-1.426719e-005,1.268065e-005
8.171471e-001,-1.359579e-005,1.267819e-005
8.179412e-001,-1.376364e-005,1.269219e-005
8.187353e-001,-1.661708e-005,1.271210e-005
8.195294e-001,-1.426719e-005,1.274280e-005
8.203235e-001,-1.091020e-005,1.275943e-005
8.211176e-001,-9.567407e-006,1.275943e-005
8.219118e-001,-6.210422e-006,1.275600e-005
8.227059e-001,-7.553216e-006,1.274154e-005
8.235000e-001,-1.023880e-005,1.272262e-005
8.242941e-001,-1.158160e-005,1.270780e-005
8.250882e-001,-1.292439e-005,1.270144e-005
8.258824e-001,-1.493858e-005,1.269565e-005
8.266765e-001,-1.292439e-005,1.268468e-005
8.274706e-001,-1.393149e-005,1.268009e-005
8.282647e-001,-1.527428e-005,1.268349e-005
8.290588e-001,-1.628138e-005,1.268601e-005
8.298529e-001,-2.030976e-005,1.269373e-005
8.306471e-001,-1.997406e-005,1.272110e-005
8.314412e-001,-1.359579e-005,1.274553e-005
8.322353e-001,-1.326009e-005,1.274074e-005
8.330294e-001,-1.426719e-005,1.274595e-005
8.338235e-001,-1.292439e-005,1.275651e-005
8.346176e-001,-1.493858e-005,1.274823e-005
8.354118e-001,-1.275654e-005,1.275524e-005
8.362059e-001,-1.091020e-005,1.275248e-005
8.370000e-001,-1.023880e-005,1.274192e-005
8.377941e-001,-6.378271e-006,1.273522e-005
8.385882e-001,-2.853437e-006,1.273003e-005
8.393824e-001,-2.853437e-006,1.272224e-005
8.401765e-001,-7.553216e-006,1.271733e-005
8.409706e-001,-9.567407e-006,1.272150e-005
8.417647e-001,-1.023880e-005,1.272999e-005
8.425588e-001,-1.376364e-005,1.273283e-005
8.433529e-001,-1.728847e-005,1.275059e-005
8.441471e-001,-1.359579e-005,1.278043e-005
8.449412e-001,-1.225299e-005,1.278770e-005
8.457353e-001,-1.225299e-005,1.278338e-005
8.465294e-001,-1.309224e-005,1.277612e-005
8.473235e-001,-1.443504e-005,1.277979e-005
8.481176e-001,-1.426719e-005,1.278805e-005
8.489118e-001,-8.896010e-006,1.279764e-005
8.497059e-001,-6.210422e-006,1.279268e-005
8.505000e-001,-9.903105e-006,1.278266e-005
8.512941e-001,-1.023880e-005,1.277912e-005
8.520882e-001,-1.023880e-005,1.277244e-005
8.528824e-001,-1.393149e-005,1.276780e-005
8.536765e-001,-1.242084e-005,1.277328e-005
8.544706e-001,-1.174945e-005,1.277328e-005
8.552647e-001,-1.309224e-005,1.275878e-005
8.560588e-001,-1.527428e-005,1.274430e-005
8.568529e-001,-1.242084e-005,1.274300e-005
8.576471e-001,-1.158160e-005,1.272564e-005
8.584412e-001,-1.191730e-005,1.271450e-005
8.592353e-001,-1.091020e-005,1.270913e-005
8.600294e-001,-8.224612e-006,1.271413e-005
8.608235e-001,-8.224612e-006,1.270580e-005
8.616176e-001,-1.023880e-005,1.268876e-005
8.624118e-001,-1.040665e-005,1.268095e-005
8.632059e-001,-1.292439e-005,1.266776e-005
8.640000e-001,-1.829557e-005,1.266776e-005
8.647941e-001,-2.652018e-005,1.269663e-005
8.655882e-001,-2.131685e-005,1.276683e-005
8.663824e-001,-1.191730e-005,1.280949e-005
8.671765e-001,-1.007095e-006,1.280184e-005
8.679706e-001,-2.182040e-006,1.277162e-005
8.687647e-001,-7.553216e-006,1.275296e-005
8.695588e-001,-1.225299e-005,1.274866e-005
8.703529e-001,-1.158160e-005,1.275431e-005
8.711471e-001,-1.560998e-005,1.275923e-005
8.719412e-001,-1.762417e-005,1.277337e-005
8.727353e-001,-1.460288e-005,1.279535e-005
8.735294e-001,-1.091020e-005,1.280707e-005
8.743235e-001,-8.224612e-006,1.281203e-005
8.751176e-001,-9.903105e-006,1.280984e-005
8.759118e-001,-1.326009e-005,1.280233e-005
8.767059e-001,-1.191730e-005,1.281200e-005
8.775000e-001,-1.258869e-005,1.281486e-005
8.782941e-001,-1.443504e-005,1.281379e-005
8.790882e-001,-1.158160e-005,1.281439e-005
8.798824e-001,-1.091020e-005,1.280333e-005
8.806765e-001,-1.225299e-005,1.279514e-005
8.814706e-001,-1.091020e-005,1.279713e-005
8.822647e-001,-1.023880e-005,1.280282e-005
8.830588e-001,-1.225299e-005,1.280526e-005
8.838529e-001,-1.107805e-005,1.275712e-005
8.846471e-001,-1.091020e-005,1.271015e-005
8.854412e-001,-1.225299e-005,1.272022e-005
8.862353e-001,-1.057450e-005,1.273899e-005
8.870294e-001,-9.903105e-006,1.275279e-005
8.878235e-001,-1.359579e-005,1.276443e-005
8.886176e-001,-1.426719e-005,1.277870e-005
8.894118e-001,-1.158160e-005,1.276461e-005
8.902059e-001,-1.174945e-005,1.272279e-005
8.910000e-001,-1.124590e-005,1.271916e-005
8.917941e-001,-1.057450e-005,1.272271e-005
8.925882e-001,-1.040665e-005,1.272484e-005
8.933824e-001,-1.225299e-005,1.272849e-005
8.941765e-001,-1.292439e-005,1.274506e-005
8.949706e-001,-1.326009e-005,1.276209e-005
8.957647e-001,-1.225299e-005,1.276917e-005
8.965588e-001,-1.225299e-005,1.274914e-005
8.973529e-001,-1.359579e-005,1.272909e-005
8.981471e-001,-1.158160e-005,1.271334e-005
8.989412e-001,-1.091020e-005,1.268819e-005
8.997353e-001,-1.174945e-005,1.264782e-005
9.005294e-001,-1.393149e-005,1.261826e-005
9.013235e-001,-1.225299e-005,1.260050e-005
9.021176e-001,-1.225299e-005,1.259494e-005
9.029118e-001,-1.762417e-005,1.259494e-005
9.037059e-001,-2.232395e-005,1.261308e-005
9.045000e-001,-2.098116e-005,1.265898e-005
9.052941e-001,-1.426719e-005,1.269932e-005
9.060882e-001,-1.023880e-005,1.271564e-005
9.068824e-001,-4.531929e-006,1.271564e-005
9.076765e-001,-4.364080e-006,1.270830e-005
9.084706e-001,-3.524834e-006,1.268751e-005
9.092647e-001,-8.224612e-006,1.266585e-005
9.100588e-001,-1.158160e-005,1.265939e-005
9.108529e-001,-1.057450e-005,1.266775e-005
9.116471e-001,-9.567407e-006,1.266775e-005
9.124412e-001,-1.057450e-005,1.267075e-005
9.132353e-001,-1.124590e-005,1.267330e-005
9.140294e-001,-1.158160e-005,1.267135e-005
9.148235e-001,-1.393149e-005,1.267415e-005
9.156176e-001,-1.493858e-005,1.268536e-005
9.164118e-001,-1.493858e-005,1.269653e-005
9.172059e-001,-1.326009e-005,1.270017e-005
9.180000e-001,-1.393149e-005,1.269424e-005
9.187941e-001,-1.661708e-005,1.267183e-005
9.195882e-001,-1.426719e-005,1.265970e-005
9.203824e-001,-1.326009e-005,1.265332e-005
9.211765e-001,-1.225299e-005,1.265161e-005
9.219706e-001,-1.191730e-005,1.264893e-005
9.227647e-001,-1.493858e-005,1.262989e-005
9.235588e-001,-1.258869e-005,1.262321e-005
9.243529e-001,-8.224612e-006,1.262321e-005
9.251471e-001,-6.378271e-006,1.261852e-005
9.259412e-001,-8.560311e-006,1.261738e-005
9.267353e-001,-1.158160e-005,1.262150e-005
9.275294e-001,-9.567407e-006,1.262988e-005
9.283235e-001,-1.107805e-005,1.263107e-005
9.291176e-001,-9.567407e-006,1.263934e-005
9.299118e-001,-8.896010e-006,1.264789e-005
9.307059e-001,-9.567407e-006,1.265189e-005
9.315000e-001,-9.567407e-006,1.265623e-005
9.322941e-001,-8.896010e-006,1.266714e-005
9.330882e-001,-1.359579e-005,1.267487e-005
9.338824e-001,-1.661708e-005,1.268314e-005
9.346765e-001,-1.661708e-005,1.270708e-005
9.354706e-001,-2.232395e-005,1.272675e-005
9.362647e-001,-2.568093e-005,1.276814e-005
9.370588e-001,-1.795987e-005,1.282720e-005
9.378529e-001,-7.217518e-006,1.284137e-005
9.386471e-001,-4.867628e-006,1.281888e-005
9.394412e-001,-2.517739e-006,1.280106e-005
9.402353e-001,-5.539025e-006,1.278212e-005
9.410294e-001,-1.359579e-005,1.276723e-005
9.418235e-001,-1.393149e-005,1.276369e-005
9.426176e-001,-1.292439e-005,1.275750e-005
9.434118e-001,-1.091020e-005,1.276349e-005
9.442059e-001,-9.567407e-006,1.275528e-005
9.450000e-001,-9.567407e-006,1.273080e-005
9.457941e-001,-1.158160e-005,1.271433e-005
9.465882e-001,-9.567407e-006,1.271021e-005
9.473824e-001,-9.567407e-006,1.267970e-005
9.481765e-001,-1.258869e-005,1.264271e-005
9.489706e-001,-1.376364e-005,1.262859e-005
9.497647e-001,-1.158160e-005,1.263354e-005
9.505588e-001,-1.091020e-005,1.264293e-005
9.513529e-001,-1.359579e-005,1.265195e-005
9.521471e-001,-1.393149e-005,1.267035e-005
9.529412e-001,-1.225299e-005,1.268934e-005
9.537353e-001,-1.493858e-005,1.270102e-005
9.545294e-001,-1.594568e-005,1.272600e-005
9.553235e-001,-1.560998e-005,1.275157e-005
9.561176e-001,-1.292439e-005,1.277353e-005
9.569118e-001,-1.258869e-005,1.278592e-005
9.577059e-001,-1.292439e-005,1.278990e-005
9.585000e-001,-1.292439e-005,1.278990e-005
9.592941e-001,-1.023880e-005,1.278990e-005
9.600882e-001,-1.309224e-005,1.278375e-005
9.608824e-001,-1.225299e-005,1.278640e-005
9.616765e-001,-1.124590e-005,1.277474e-005
9.624706e-001,-9.567407e-006,1.270595e-005
9.632647e-001,-8.896010e-006,1.265858e-005
9.640588e-001,-6.881819e-006,1.265356e-005
9.648529e-001,-8.896010e-006,1.265654e-005
9.656471e-001,-9.735256e-006,1.265994e-005
9.664412e-001,-1.359579e-005,1.265952e-005
9.672353e-001,-1.359579e-005,1.266590e-005
9.680294e-001,-1.225299e-005,1.265300e-005
9.688235e-001,-1.359579e-005,1.263572e-005
9.696176e-001,-1.493858e-005,1.262134e-005
9.704118e-001,-1.359579e-005,1.263256e-005
9.712059e-001,-1.258869e-005,1.264550e-005
9.720000e-001,-1.158160e-005,1.265693e-005
9.727941e-001,-1.158160e-005,1.266725e-005
9.735882e-001,-1.326009e-005,1.267093e-005
9.743824e-001,-1.225299e-005,1.267617e-005
9.751765e-001,-1.292439e-005,1.266375e-005
9.759706e-001,-1.158160e-005,1.264716e-005
9.767647e-001,-9.231709e-006,1.264463e-005
9.775588e-001,-1.158160e-005,1.264128e-005
9.783529e-001,-1.091020e-005,1.264409e-005
9.791471e-001,-1.040665e-005,1.264119e-005
9.799412e-001,-9.567407e-006,1.263038e-005
9.807353e-001,-9.903105e-006,1.262299e-005
9.815294e-001,-8.896010e-006,1.262382e-005
9.823235e-001,-4.531929e-006,1.261878e-005
9.831176e-001,-8.896010e-006,1.260136e-005
9.839118e-001,-1.225299e-005,1.258800e-005
9.847059e-001,-1.057450e-005,1.257876e-005
9.855000e-001,-1.124590e-005,1.256714e-005
9.862941e-001,-1.359579e-005,1.257276e-005
9.870882e-001,-1.023880e-005,1.259016e-005
9.878824e-001,-1.258869e-005,1.260152e-005
9.886765e-001,-1.560998e-005,1.261667e-005
9.894706e-001,-1.326009e-005,1.262409e-005
9.902647e-001,-1.326009e-005,1.261143e-005
9.910588e-001,-1.191730e-005,1.259135e-005
9.918529e-001,-1.326009e-005,1.257578e-005
9.926471e-001,-1.292439e-005,1.256979e-005
9.934412e-001,-1.023880e-005,1.255307e-005
9.942353e-001,-1.225299e-005,1.251906e-005
9.950294e-001,-1.527428e-005,1.249863e-005
9.958235e-001,-1.560998e-005,1.249174e-005
9.966176e-001,-1.762417e-005,1.248616e-005
9.974118e-001,-1.628138e-005,1.250446e-005
9.982059e-001,-1.493858e-005,1.252304e-005
9.990000e-001,-1.628138e-005,1.253936e-005
9.997941e-001,-1.560998e-005,1.256055e-005
1.000588e+000,-1.443504e-005,1.257982e-005
1.001382e+000,-1.174945e-005,1.259989e-005
1.002176e+000,-7.888914e-006,1.260135e-005
1.002971e+000,-1.174945e-005,1.258468e-005
1.003765e+000,-8.392462e-006,1.258974e-005
1.004559e+000,-8.224612e-006,1.259266e-005
1.005353e+000,-8.224612e-006,1.258963e-005
1.006147e+000,-6.546120e-006,1.258493e-005
1.006941e+000,-8.896010e-006,1.257529e-005
1.007735e+000,-1.158160e-005,1.256072e-005
1.008529e+000,-1.258869e-005,1.255312e-005
1.009324e+000,-1.225299e-005,1.254363e-005
1.010118e+000,-9.567407e-006,1.253435e-005
1.010912e+000,-7.217518e-006,1.253266e-005
1.011706e+000,-1.191730e-005,1.253033e-005
1.012500e+000,-1.493858e-005,1.253633e-005
1.013294e+000,-1.359579e-005,1.255572e-005
1.014088e+000,-1.762417e-005,1.257057e-005
1.014882e+000,-2.198825e-005,1.259830e-005
1.015676e+000,-1.493858e-005,1.264428e-005
1.016471e+000,-9.567407e-006,1.265134e-005
1.017265e+000,-6.210422e-006,1.263151e-005
1.018059e+000,-5.539025e-006,1.260822e-005
1.018853e+000,-7.888914e-006,1.259313e-005
1.019647e+000,-9.567407e-006,1.258594e-005
1.020441e+000,-1.225299e-005,1.257176e-005
1.021235e+000,-1.258869e-005,1.257176e-005
1.022029e+000,-1.460288e-005,1.257282e-005
1.022824e+000,-1.426719e-005,1.257867e-005
1.023618e+000,-1.510643e-005,1.258329e-005
1.024412e+000,-1.661708e-005,1.259317e-005
1.025206e+000,-1.695277e-005,1.261728e-005
1.026000e+000,-1.560998e-005,1.263354e-005
1.026794e+000,-1.594568e-005,1.265103e-005
1.027588e+000,-1.426719e-005,1.267149e-005
1.028382e+000,-1.023880e-005,1.265803e-005
1.029176e+000,-1.124590e-005,1.258364e-005
1.029971e+000,-8.896010e-006,1.250232e-005
1.030765e+000,-9.567407e-006,1.249112e-005
1.031559e+000,-3.524834e-006,1.250120e-005
1.032353e+000,-6.210422e-006,1.249839e-005
1.033147e+000,-8.560311e-006,1.250329e-005
1.033941e+000,-1.023880e-005,1.250329e-005
1.034735e+000,-1.124590e-005,1.249906e-005
1.035529e+000,-1.225299e-005,1.249498e-005
1.036324e+000,-1.225299e-005,1.249392e-005
1.037118e+000,-1.023880e-005,1.248949e-005
1.037912e+000,-1.225299e-005,1.246905e-005
1.038706e+000,-1.292439e-005,1.245709e-005
1.039500e+000,-1.124590e-005,1.245709e-005
1.040294e+000,-1.124590e-005,1.245986e-005
1.041088e+000,-6.881819e-006,1.245838e-005
1.041882e+000,-9.903105e-006,1.243052e-005
1.042676e+000,-1.124590e-005,1.240624e-005
1.043471e+000,-1.158160e-005,1.237208e-005
1.044265e+000,-1.225299e-005,1.234301e-005
1.045059e+000,-1.594568e-005,1.234301e-005
1.045853e+000,-2.299535e-005,1.236314e-005
1.046647e+000,-2.198825e-005,1.242803e-005
1.047441e+000,-1.695277e-005,1.248188e-005
1.048235e+000,-1.040665e-005,1.251410e-005
1.049029e+000,-1.023880e-005,1.252349e-005
1.049824e+000,-1.023880e-005,1.252518e-005
1.050618e+000,-1.023880e-005,1.253093e-005
1.051412e+000,-1.695277e-005,1.253667e-005
1.052206e+000,-1.795987e-005,1.255409e-005
1.053000e+000,-1.426719e-005,1.257797e-005
1.053794e+000,-8.224612e-006,1.258867e-005
1.054588e+000,-2.182040e-006,1.257553e-005
1.055382e+000,-8.392462e-007,1.256197e-005
1.056176e+000,-2.182040e-006,1.255202e-005
1.056971e+000,-6.378271e-006,1.254018e-005
1.057765e+000,-7.553216e-006,1.252781e-005
1.058559e+000,-7.888914e-006,1.251271e-005
1.059353e+000,-1.023880e-005,1.250045e-005
1.060147e+000,-1.493858e-005,1.250045e-005
1.060941e+000,-1.493858e-005,1.251078e-005
1.061735e+000,-1.359579e-005,1.251267e-005
1.062529e+000,-1.326009e-005,1.251149e-005
1.063324e+000,-1.376364e-005,1.251316e-005
1.064118e+000,-1.493858e-005,1.251489e-005
1.064912e+000,-1.493858e-005,1.252091e-005
1.065706e+000,-1.393149e-005,1.252091e-005
1.066500e+000,-1.493858e-005,1.251971e-005
1.067294e+000,-1.661708e-005,1.252458e-005
1.068088e+000,-1.493858e-005,1.253559e-005
1.068882e+000,-1.359579e-005,1.252886e-005
1.069676e+000,-1.242084e-005,1.252649e-005
1.070471e+000,-8.896010e-006,1.253097e-005
1.071265e+000,-1.007095e-005,1.252939e-005
1.072059e+000,-9.735256e-006,1.253738e-005
1.072853e+000,-1.225299e-005,1.254217e-005
1.073647e+000,-1.225299e-005,1.254792e-005
1.074441e+000,-1.091020e-005,1.254995e-005
1.075235e+000,-1.158160e-005,1.254385e-005
1.076029e+000,-1.594568e-005,1.253255e-005
1.076824e+000,-1.963836e-005,1.254363e-005
1.077618e+000,-1.863127e-005,1.256792e-005
1.078412e+000,-1.426719e-005,1.258234e-005
1.079206e+000,-1.191730e-005,1.257455e-005
1.080000e+000,-1.225299e-005,1.254025e-005
1.080794e+000,-1.493858e-005,1.250861e-005
1.081588e+000,-1.560998e-005,1.251349e-005
1.082382e+000,-1.560998e-005,1.252212e-005
1.083176e+000,-1.359579e-005,1.252722e-005
1.083971e+000,-1.158160e-005,1.252948e-005
1.084765e+000,-1.426719e-005,1.251817e-005
1.085559e+000,-1.493858e-005,1.252336e-005
1.086353e+000,-1.493858e-005,1.253659e-005
1.087147e+000,-1.426719e-005,1.255161e-005
1.087941e+000,-8.896010e-006,1.257226e-005
1.088735e+000,-7.553216e-006,1.258124e-005
1.089529e+000,-6.881819e-006,1.258743e-005
1.090324e+000,-8.224612e-006,1.258621e-005
1.091118e+000,-6.210422e-006,1.258318e-005
1.091912e+000,-8.224612e-006,1.257480e-005
1.092706e+000,-1.829557e-005,1.255936e-005
1.093500e+000,-1.258869e-005,1.256391e-005
1.094294e+000,-3.860533e-006,1.256056e-005
1.095088e+000,-1.510643e-006,1.254341e-005
1.095882e+000,-3.189136e-006,1.252462e-005
1.096676e+000,-6.546120e-006,1.250411e-005
1.097471e+000,-9.231709e-006,1.248301e-005
1.098265e+000,-1.359579e-005,1.246791e-005
1.099059e+000,-1.426719e-005,1.248140e-005
1.099853e+000,-1.695277e-005,1.250243e-005
1.100647e+000,-1.628138e-005,1.252652e-005
1.101441e+000,-1.695277e-005,1.254688e-005
1.102235e+000,-1.829557e-005,1.257003e-005
1.103029e+000,-1.695277e-005,1.258783e-005
1.103824e+000,-1.426719e-005,1.260466e-005
1.104618e+000,-1.527428e-005,1.261293e-005
1.105412e+000,-1.628138e-005,1.262074e-005
1.106206e+000,-1.225299e-005,1.262475e-005
1.107000e+000,-1.124590e-005,1.262423e-005
1.107794e+000,-1.225299e-005,1.262326e-005
1.108588e+000,-8.560311e-006,1.262429e-005
1.109382e+000,-9.063859e-006,1.261851e-005
1.110176e+000,-1.225299e-005,1.262035e-005
1.110971e+000,-7.553216e-006,1.263075e-005
1.111765e+000,-9.567407e-006,1.262472e-005
1.112559e+000,-1.510643e-005,1.262261e-005
1.113353e+000,-1.560998e-005,1.263032e-005
1.114147e+000,-1.443504e-005,1.261884e-005
1.114941e+000,-1.225299e-005,1.255623e-005
1.115735e+000,-1.023880e-005,1.251758e-005
1.116529e+000,-9.231709e-006,1.251285e-005
1.117324e+000,-1.091020e-005,1.252356e-005
1.118118e+000,-9.903105e-006,1.253808e-005
1.118912e+000,-8.560311e-006,1.254329e-005
1.119706e+000,-7.553216e-006,1.253353e-005
1.120500e+000,-9.567407e-006,1.252373e-005
1.121294e+000,-1.191730e-005,1.250437e-005
1.122088e+000,-1.191730e-005,1.248288e-005
1.122882e+000,-1.091020e-005,1.247380e-005
1.123676e+000,-1.091020e-005,1.247380e-005
1.124471e+000,-1.359579e-005,1.248035e-005
1.125265e+000,-1.359579e-005,1.249142e-005
1.126059e+000,-1.158160e-005,1.249257e-005
1.126853e+000,-1.158160e-005,1.249156e-005
1.127647e+000,-1.057450e-005,1.248846e-005
1.128441e+000,-9.231709e-006,1.247614e-005
1.129235e+000,-1.292439e-005,1.246990e-005
1.130029e+000,-1.326009e-005,1.247603e-005
1.130824e+000,-9.063859e-006,1.247931e-005
1.131618e+000,-8.560311e-006,1.247460e-005
1.132412e+000,-1.023880e-005,1.247057e-005
1.133206e+000,-1.426719e-005,1.246479e-005
1.134000e+000,-1.124590e-005,1.247511e-005
1.134794e+000,-7.553216e-006,1.247606e-005
1.135588e+000,-9.903105e-006,1.246417e-005
1.136382e+000,-1.460288e-005,1.246241e-005
1.137176e+000,-1.493858e-005,1.247712e-005
1.137971e+000,-1.493858e-005,1.248201e-005
1.138765e+000,-1.560998e-005,1.248451e-005
1.139559e+000,-1.393149e-005,1.249848e-005
1.140353e+000,-1.493858e-005,1.250561e-005
1.141147e+000,-1.695277e-005,1.251792e-005
1.141941e+000,-1.460288e-005,1.254023e-005
1.142735e+000,-1.527428e-005,1.255355e-005
1.143529e+000,-1.158160e-005,1.256410e-005
1.144324e+000,-1.225299e-005,1.255993e-005
1.145118e+000,-1.258869e-005,1.255667e-005
1.145912e+000,-1.258869e-005,1.255773e-005
1.146706e+000,-9.903105e-006,1.255878e-005
1.147500e+000,-1.225299e-005,1.254778e-005
1.148294e+000,-1.091020e-005,1.254981e-005
1.149088e+000,-1.057450e-005,1.254981e-005
1.149882e+000,-1.225299e-005,1.254648e-005
1.150676e+000,-1.426719e-005,1.254090e-005
1.151471e+000,-1.359579e-005,1.254768e-005
1.152265e+000,-1.242084e-005,1.255208e-005
1.153059e+000,-1.258869e-005,1.253223e-005
1.153853e+000,-1.292439e-005,1.248897e-005
1.154647e+000,-1.292439e-005,1.245410e-005
1.155441e+000,-1.258869e-005,1.244943e-005
1.156235e+000,-1.091020e-005,1.245629e-005
1.157029e+000,-7.217518e-006,1.246887e-005
1.157824e+000,-4.867628e-006,1.247309e-005
1.158618e+000,-7.553216e-006,1.247453e-005
1.159412e+000,-1.091020e-005,1.247318e-005
1.160206e+000,-1.577783e-005,1.247125e-005
1.161000e+000,-1.997406e-005,1.248874e-005
1.161794e+000,-1.493858e-005,1.252788e-005
1.162588e+000,-1.225299e-005,1.254202e-005
1.163382e+000,-1.023880e-005,1.254503e-005
1.164176e+000,-1.258869e-005,1.254131e-005
1.164971e+000,-6.546120e-006,1.253679e-005
1.165765e+000,-1.846342e-006,1.251386e-005
1.166559e+000,-6.210422e-006,1.248587e-005
1.167353e+000,-6.210422e-006,1.246835e-005
1.168147e+000,-1.712062e-005,1.244847e-005
1.168941e+000,-2.366674e-005,1.245065e-005
1.169735e+000,-1.493858e-005,1.249617e-005
1.170529e+000,-2.853437e-006,1.250220e-005
1.171324e+000,5.203327e-006,1.248410e-005
1.172118e+000,1.846342e-006,1.246943e-005
1.172912e+000,-4.531929e-006,1.244133e-005
1.173706e+000,-1.376364e-005,1.242367e-005
1.174500e+000,-1.493858e-005,1.243927e-005
1.175294e+000,-1.661708e-005,1.246260e-005
1.176088e+000,-2.232395e-005,1.248850e-005
1.176882e+000,-2.265965e-005,1.253485e-005
1.177676e+000,-1.896696e-005,1.258834e-005
1.178471e+000,-1.426719e-005,1.261828e-005
1.179265e+000,-1.091020e-005,1.263241e-005
1.180059e+000,-1.376364e-005,1.263744e-005
1.180853e+000,-1.695277e-005,1.264977e-005
1.181647e+000,-1.712062e-005,1.267440e-005
1.182441e+000,-1.829557e-005,1.270125e-005
1.183235e+000,-2.064546e-005,1.272003e-005
1.184029e+000,-1.863127e-005,1.273881e-005
1.184824e+000,-1.359579e-005,1.274768e-005
1.185618e+000,-1.057450e-005,1.270846e-005
1.186412e+000,-1.191730e-005,1.263965e-005
1.187206e+000,-8.560311e-006,1.261688e-005
1.188000e+000,-6.546120e-006,1.261955e-005
1.188794e+000,-5.539025e-006,1.262197e-005
1.189588e+000,-3.860533e-006,1.262504e-005
1.190382e+000,-5.539025e-006,1.262305e-005
1.191176e+000,-6.210422e-006,1.260359e-005
1.191971e+000,-8.224612e-006,1.258393e-005
1.192765e+000,-1.124590e-005,1.257134e-005
1.193559e+000,-1.426719e-005,1.257229e-005
1.194353e+000,-1.661708e-005,1.258647e-005
1.195147e+000,-1.359579e-005,1.260980e-005
1.195941e+000,-1.426719e-005,1.261620e-005
1.196735e+000,-1.359579e-005,1.263033e-005
1.197529e+000,-1.426719e-005,1.264209e-005
1.198324e+000,-1.292439e-005,1.264776e-005
1.199118e+000,-1.393149e-005,1.264494e-005
1.199912e+000,-1.225299e-005,1.265249e-005
1.200706e+000,-1.258869e-005,1.265641e-005
1.201500e+000,-1.225299e-005,1.265309e-005
1.202294e+000,-1.258869e-005,1.264755e-005
1.203088e+000,-1.191730e-005,1.264860e-005
1.203882e+000,-1.225299e-005,1.263839e-005
1.204676e+000,-1.057450e-005,1.262526e-005
1.205471e+000,-8.896010e-006,1.260862e-005
1.206265e+000,-8.896010e-006,1.259751e-005
1.207059e+000,-8.392462e-006,1.258748e-005
1.207853e+000,-8.896010e-006,1.257525e-005
1.208647e+000,-1.057450e-005,1.256412e-005
1.209441e+000,-1.158160e-005,1.256500e-005
1.210235e+000,-1.057450e-005,1.256028e-005
1.211029e+000,-8.224612e-006,1.255542e-005
1.211824e+000,-1.158160e-005,1.254796e-005
1.212618e+000,-1.023880e-005,1.255336e-005
1.213412e+000,-1.091020e-005,1.255662e-005
1.214206e+000,-1.258869e-005,1.256571e-005
1.215000e+000,-1.493858e-005,1.257576e-005
1.215794e+000,-1.091020e-005,1.259200e-005
1.216588e+000,-1.225299e-005,1.258368e-005
1.217382e+000,-1.359579e-005,1.257928e-005
1.218176e+000,-1.326009e-005,1.258368e-005
1.218971e+000,-1.527428e-005,1.258253e-005
1.219765e+000,-1.628138e-005,1.258382e-005
1.220559e+000,-1.829557e-005,1.259397e-005
1.221353e+000,-1.829557e-005,1.261623e-005
1.222147e+000,-1.527428e-005,1.264153e-005
1.222941e+000,-1.426719e-005,1.265401e-005
1.223735e+000,-1.963836e-005,1.265750e-005
1.224529e+000,-1.863127e-005,1.268709e-005
1.225324e+000,-1.057450e-005,1.270968e-005
1.226118e+000,-1.091020e-005,1.270688e-005
1.226912e+000,-1.091020e-005,1.271112e-005
1.227706e+000,-8.224612e-006,1.270923e-005
1.228500e+000,-9.903105e-006,1.270279e-005
1.229294e+000,-1.124590e-005,1.270150e-005
1.230088e+000,-9.231709e-006,1.270588e-005
1.230882e+000,-1.091020e-005,1.270427e-005
1.231676e+000,-1.225299e-005,1.270927e-005
1.232471e+000,-1.023880e-005,1.272550e-005
1.233265e+000,-1.023880e-005,1.272871e-005
1.234059e+000,-1.091020e-005,1.272304e-005
1.234853e+000,-1.292439e-005,1.272395e-005
1.235647e+000,-1.493858e-005,1.272902e-005
1.236441e+000,-1.292439e-005,1.273381e-005
1.237235e+000,-1.393149e-005,1.274159e-005
1.238029e+000,-1.376364e-005,1.274604e-005
1.238824e+000,-1.225299e-005,1.273926e-005
1.239618e+000,-9.903105e-006,1.273605e-005
1.240412e+000,-1.023880e-005,1.272633e-005
1.241206e+000,-8.896010e-006,1.272167e-005
1.242000e+000,-8.896010e-006,1.270956e-005
1.242794e+000,-9.903105e-006,1.269855e-005
1.243588e+000,-6.881819e-006,1.269770e-005
1.244382e+000,-7.721065e-006,1.268480e-005
1.245176e+000,-1.225299e-005,1.266298e-005
1.245971e+000,-1.225299e-005,1.265121e-005
1.246765e+000,-7.553216e-006,1.263100e-005
1.247559e+000,-8.896010e-006,1.260475e-005
1.248353e+000,-1.158160e-005,1.258654e-005
1.249147e+000,-1.091020e-005,1.256996e-005
1.249941e+000,-1.023880e-005,1.255416e-005
1.250735e+000,-1.023880e-005,1.254102e-005
1.251529e+000,-1.225299e-005,1.253680e-005
1.252324e+000,-1.426719e-005,1.254796e-005
1.253118e+000,-1.426719e-005,1.255627e-005
1.253912e+000,-1.258869e-005,1.257314e-005
1.254706e+000,-1.225299e-005,1.258464e-005
1.255500e+000,-1.091020e-005,1.259507e-005
1.256294e+000,-1.023880e-005,1.260470e-005
1.257088e+000,-1.258869e-005,1.260795e-005
1.257882e+000,-1.359579e-005,1.261102e-005
1.258676e+000,-1.292439e-005,1.261435e-005
1.259471e+000,-9.567407e-006,1.261648e-005
1.260265e+000,-7.217518e-006,1.261648e-005
1.261059e+000,-9.735256e-006,1.261648e-005
1.261853e+000,-1.426719e-005,1.261052e-005
1.262647e+000,-1.359579e-005,1.260804e-005
1.263441e+000,-1.091020e-005,1.260804e-005
1.264235e+000,-9.231709e-006,1.258383e-005
1.265029e+000,-9.567407e-006,1.253333e-005
1.265824e+000,-9.231709e-006,1.251659e-005
1.266618e+000,-9.567407e-006,1.251579e-005
1.267412e+000,-1.124590e-005,1.252253e-005
1.268206e+000,-1.292439e-005,1.253470e-005
1.269000e+000,-1.158160e-005,1.254801e-005
1.269794e+000,-1.560998e-005,1.255342e-005
1.270588e+000,-1.493858e-005,1.256528e-005
1.271382e+000,-1.527428e-005,1.257347e-005
1.272176e+000,-1.829557e-005,1.257601e-005
1.272971e+000,-1.493858e-005,1.259261e-005
1.273765e+000,-1.258869e-005,1.259197e-005
1.274559e+000,-1.493858e-005,1.257708e-005
1.275353e+000,-2.803082e-005,1.256895e-005
1.276147e+000,-2.970932e-005,1.263744e-005
1.276941e+000,-1.560998e-005,1.271637e-005
1.277735e+000,-2.182040e-006,1.272139e-005
1.278529e+000,2.349889e-006,1.270886e-005
1.279324e+000,2.517739e-006,1.269369e-005
1.280118e+000,-8.392462e-007,1.268456e-005
1.280912e+000,-8.560311e-006,1.267315e-005
1.281706e+000,-1.091020e-005,1.268079e-005
1.282500e+000,-1.493858e-005,1.269089e-005
1.283294e+000,-1.393149e-005,1.270969e-005
1.284088e+000,-1.124590e-005,1.272086e-005
1.284882e+000,-1.560998e-005,1.272086e-005
1.285676e+000,-1.896696e-005,1.273257e-005
1.286471e+000,-1.527428e-005,1.275875e-005
1.287265e+000,-1.225299e-005,1.277478e-005
1.288059e+000,-1.023880e-005,1.277478e-005
1.288853e+000,-7.217518e-006,1.276702e-005
1.289647e+000,-1.359579e-005,1.275774e-005
1.290441e+000,-1.560998e-005,1.276503e-005
1.291235e+000,-1.779202e-005,1.278949e-005
1.292029e+000,-1.560998e-005,1.281666e-005
1.292824e+000,-1.426719e-005,1.283122e-005
1.293618e+000,-1.393149e-005,1.283983e-005
1.294412e+000,-9.567407e-006,1.284528e-005
1.295206e+000,-4.531929e-006,1.282509e-005
1.296000e+000,-4.196231e-006,1.276183e-005
1.296794e+000,-7.217518e-006,1.270357e-005
1.297588e+000,-1.091020e-005,1.267404e-005
1.298382e+000,-1.225299e-005,1.267539e-005
1.299176e+000,-1.829557e-005,1.268108e-005
1.299971e+000,-1.560998e-005,1.270991e-005
1.300765e+000,-1.829557e-005,1.272730e-005
1.301559e+000,-1.896696e-005,1.273322e-005
1.302353e+000,-1.560998e-005,1.273787e-005
1.303147e+000,-1.560998e-005,1.274288e-005
1.303941e+000,-1.359579e-005,1.276486e-005
1.304735e+000,-1.460288e-005,1.278730e-005
1.305529e+000,-1.628138e-005,1.281374e-005
1.306324e+000,-1.292439e-005,1.284605e-005
1.307118e+000,-1.326009e-005,1.286170e-005
1.307912e+000,-1.057450e-005,1.287640e-005
1.308706e+000,-5.203327e-006,1.288253e-005
1.309500e+000,-6.881819e-006,1.287292e-005
1.310294e+000,-9.903105e-006,1.285115e-005
1.311088e+000,-1.242084e-005,1.283564e-005
1.311882e+000,-1.174945e-005,1.283185e-005
1.312676e+000,-9.567407e-006,1.282716e-005
1.313471e+000,-8.896010e-006,1.281500e-005
1.314265e+000,-1.091020e-005,1.279709e-005
1.315059e+000,-1.091020e-005,1.278413e-005
1.315853e+000,-1.158160e-005,1.277478e-005
1.316647e+000,-1.091020e-005,1.276368e-005
1.317441e+000,-1.023880e-005,1.274406e-005
1.318235e+000,-6.210422e-006,1.272927e-005
1.319029e+000,-1.040665e-005,1.271096e-005
1.319824e+000,-1.359579e-005,1.270520e-005
1.320618e+000,-1.124590e-005,1.271844e-005
1.321412e+000,-1.225299e-005,1.272157e-005
1.322206e+000,-1.493858e-005,1.272850e-005
1.323000e+000,-1.258869e-005,1.273763e-005
1.323794e+000,-1.124590e-005,1.273868e-005
1.324588e+000,-9.903105e-006,1.273961e-005
1.325382e+000,-8.560311e-006,1.273510e-005
1.326176e+000,-8.896010e-006,1.271245e-005
1.326971e+000,-1.057450e-005,1.267399e-005
1.327765e+000,-9.567407e-006,1.264440e-005
1.328559e+000,-1.023880e-005,1.263028e-005
1.329353e+000,-1.225299e-005,1.262559e-005
1.330147e+000,-1.225299e-005,1.262559e-005
1.330941e+000,-1.292439e-005,1.261638e-005
1.331735e+000,-1.527428e-005,1.260670e-005
1.332529e+000,-1.628138e-005,1.260539e-005
1.333324e+000,-1.426719e-005,1.261552e-005
1.334118e+000,-1.359579e-005,1.262428e-005
1.334912e+000,-1.460288e-005,1.262192e-005
1.335706e+000,-1.628138e-005,1.262067e-005
1.336500e+000,-1.174945e-005,1.262596e-005
1.337294e+000,-1.393149e-005,1.261770e-005
1.338088e+000,-1.225299e-005,1.263220e-005
1.338882e+000,-1.258869e-005,1.264392e-005
1.339676e+000,-1.376364e-005,1.265791e-005
1.340471e+000,-1.292439e-005,1.267322e-005
1.341265e+000,-1.426719e-005,1.268935e-005
1.342059e+000,-8.560311e-006,1.270640e-005
1.342853e+000,-1.091020e-005,1.267359e-005
1.343647e+000,-1.191730e-005,1.266863e-005
1.344441e+000,-1.023880e-005,1.268460e-005
1.345235e+000,-1.091020e-005,1.269747e-005
1.346029e+000,-9.063859e-006,1.271111e-005
1.346824e+000,-1.158160e-005,1.271604e-005
1.347618e+000,-1.225299e-005,1.272216e-005
1.348412e+000,-1.309224e-005,1.271781e-005
1.349206e+000,-1.057450e-005,1.271379e-005
1.350000e+000,-1.426719e-005,1.269178e-005
1.350794e+000,-1.158160e-005,1.268406e-005
1.351588e+000,-1.225299e-005,1.266480e-005
1.352382e+000,-1.091020e-005,1.264157e-005
1.353176e+000,-1.057450e-005,1.262035e-005
1.353971e+000,-1.091020e-005,1.260877e-005
1.354765e+000,-1.393149e-005,1.259433e-005
1.355559e+000,-9.903105e-006,1.258535e-005
1.356353e+000,-8.560311e-006,1.257876e-005
1.357147e+000,-1.158160e-005,1.257202e-005
1.357941e+000,-1.292439e-005,1.257000e-005
1.358735e+000,-1.091020e-005,1.258187e-005
1.359529e+000,-6.378271e-006,1.258654e-005
1.360324e+000,-1.158160e-005,1.257268e-005
1.361118e+000,-1.275654e-005,1.258244e-005
1.361912e+000,-1.225299e-005,1.259145e-005
1.362706e+000,-1.292439e-005,1.258157e-005
1.363500e+000,-1.460288e-005,1.257187e-005
1.364294e+000,-1.426719e-005,1.257248e-005
1.365088e+000,-1.292439e-005,1.257925e-005
1.365882e+000,-1.493858e-005,1.258712e-005
1.366676e+000,-1.359579e-005,1.260456e-005
1.367471e+000,-8.224612e-006,1.261287e-005
1.368265e+000,-1.040665e-005,1.260903e-005
1.369059e+000,-1.258869e-005,1.261345e-005
1.369853e+000,-1.359579e-005,1.262625e-005
1.370647e+000,-2.098116e-005,1.263801e-005
1.371441e+000,-2.333104e-005,1.267552e-005
1.372235e+000,-1.493858e-005,1.272596e-005
1.373029e+000,-6.378271e-006,1.273899e-005
1.373824e+000,1.846342e-006,1.272919e-005
1.374618e+000,-5.035477e-007,1.270647e-005
1.375412e+000,-4.196231e-006,1.268332e-005
1.376206e+000,-9.567407e-006,1.266868e-005
1.377000e+000,-1.091020e-005,1.266332e-005
1.377794e+000,-1.292439e-005,1.266423e-005
1.378588e+000,-1.292439e-005,1.267451e-005
1.379382e+000,-1.359579e-005,1.267451e-005
1.380176e+000,-1.493858e-005,1.267565e-005
1.380971e+000,-1.309224e-005,1.269335e-005
1.381765e+000,-1.359579e-005,1.270565e-005
1.382559e+000,-1.292439e-005,1.271568e-005
1.383353e+000,-1.359579e-005,1.271110e-005
1.384147e+000,-1.795987e-005,1.271841e-005
1.384941e+000,-1.644922e-005,1.275161e-005
1.385735e+000,-1.292439e-005,1.277314e-005
1.386529e+000,-1.829557e-005,1.276737e-005
1.387324e+000,-1.896696e-005,1.278128e-005
1.388118e+000,-1.493858e-005,1.279829e-005
1.388912e+000,-8.896010e-006,1.279573e-005
1.389706e+000,-6.881819e-006,1.278142e-005
1.390500e+000,-9.567407e-006,1.275950e-005
1.391294e+000,-1.359579e-005,1.273503e-005
1.392088e+000,-1.762417e-005,1.273148e-005
1.392882e+000,-1.628138e-005,1.274115e-005
1.393676e+000,-1.124590e-005,1.275750e-005
1.394471e+000,-5.874723e-006,1.275455e-005
1.395265e+000,-5.035477e-006,1.273906e-005
1.396059e+000,-4.867628e-006,1.272241e-005
1.396853e+000,-4.531929e-006,1.271310e-005
1.397647e+000,-2.182040e-006,1.269686e-005
1.398441e+000,-4.867628e-006,1.268252e-005
1.399235e+000,-8.392462e-006,1.267145e-005
1.400029e+000,-7.553216e-006,1.266143e-005
1.400824e+000,-1.023880e-005,1.264299e-005
1.401618e+000,-1.225299e-005,1.263291e-005
1.402412e+000,-1.326009e-005,1.263239e-005
1.403206e+000,-1.309224e-005,1.263458e-005
1.404000e+000,-1.292439e-005,1.263513e-005
1.404794e+000,-1.426719e-005,1.263513e-005
1.405588e+000,-1.292439e-005,1.264081e-005
1.406382e+000,-1.158160e-005,1.264685e-005
1.407176e+000,-1.359579e-005,1.265718e-005
1.407971e+000,-1.577783e-005,1.267743e-005
1.408765e+000,-1.426719e-005,1.270151e-005
1.409559e+000,-1.829557e-005,1.271211e-005
1.410353e+000,-1.594568e-005,1.272285e-005
1.411147e+000,-1.393149e-005,1.270472e-005
1.411941e+000,-1.527428e-005,1.270108e-005
1.412735e+000,-1.225299e-005,1.271150e-005
1.413529e+000,-1.023880e-005,1.271718e-005
1.414324e+000,-1.124590e-005,1.271046e-005
1.415118e+000,-9.567407e-006,1.272093e-005
1.415912e+000,-1.191730e-005,1.273196e-005
1.416706e+000,-1.174945e-005,1.274489e-005
1.417500e+000,-1.158160e-005,1.275731e-005
1.418294e+000,-1.040665e-005,1.273745e-005
1.419088e+000,-1.174945e-005,1.268084e-005
1.419882e+000,-8.896010e-006,1.267015e-005
1.420676e+000,-1.124590e-005,1.267907e-005
1.421471e+000,-1.225299e-005,1.269155e-005
1.422265e+000,-1.091020e-005,1.270994e-005
1.423059e+000,-1.309224e-005,1.272228e-005
1.423853e+000,-1.359579e-005,1.272002e-005
1.424647e+000,-1.359579e-005,1.271522e-005
1.425441e+000,-1.426719e-005,1.270378e-005
1.426235e+000,-1.493858e-005,1.266678e-005
1.427029e+000,-1.527428e-005,1.263023e-005
1.427824e+000,-1.158160e-005,1.261428e-005
1.428618e+000,-1.091020e-005,1.260551e-005
1.429412e+000,-1.460288e-005,1.260551e-005
1.430206e+000,-1.443504e-005,1.260852e-005
1.431000e+000,-1.258869e-005,1.259854e-005
1.431794e+000,-9.903105e-006,1.258151e-005
1.432588e+000,-8.896010e-006,1.255152e-005
1.433382e+000,-1.225299e-005,1.250741e-005
1.434176e+000,-1.124590e-005,1.248230e-005
1.434971e+000,-1.225299e-005,1.247485e-005
1.435765e+000,-1.225299e-005,1.247974e-005
1.436559e+000,-1.124590e-005,1.248078e-005
1.437353e+000,-1.309224e-005,1.248756e-005
1.438147e+000,-1.560998e-005,1.250395e-005
1.438941e+000,-1.426719e-005,1.253104e-005
1.439735e+000,-1.225299e-005,1.255499e-005
1.440529e+000,-1.661708e-005,1.257013e-005
1.441324e+000,-1.896696e-005,1.260019e-005
1.442118e+000,-1.577783e-005,1.263705e-005
1.442912e+000,-1.493858e-005,1.265247e-005
1.443706e+000,-1.258869e-005,1.265494e-005
1.444500e+000,-1.023880e-005,1.264013e-005
1.445294e+000,-1.057450e-005,1.263004e-005
1.446088e+000,-7.888914e-006,1.261847e-005
1.446882e+000,-9.567407e-006,1.260299e-005
1.447676e+000,-1.376364e-005,1.258883e-005
1.448471e+000,-1.628138e-005,1.259166e-005
1.449265e+000,-1.527428e-005,1.260064e-005
1.450059e+000,-9.903105e-006,1.261114e-005
1.450853e+000,-8.224612e-006,1.260351e-005
1.451647e+000,-1.091020e-005,1.259309e-005
1.452441e+000,-1.124590e-005,1.258810e-005
1.453235e+000,-8.560311e-006,1.258613e-005
1.454029e+000,-1.124590e-005,1.257640e-005
1.454824e+000,-1.023880e-005,1.257826e-005
1.455618e+000,-7.217518e-006,1.258151e-005
1.456412e+000,-9.231709e-006,1.257809e-005
1.457206e+000,-8.560311e-006,1.257996e-005
1.458000e+000,-1.023880e-005,1.257922e-005
1.458794e+000,-1.091020e-005,1.257833e-005
1.459588e+000,-1.091020e-005,1.257642e-005
1.460382e+000,-1.091020e-005,1.257733e-005
1.461176e+000,-9.567407e-006,1.258384e-005
1.461971e+000,-1.040665e-005,1.257845e-005
1.462765e+000,-8.896010e-006,1.257889e-005
1.463559e+000,-1.292439e-005,1.257384e-005
1.464353e+000,-1.359579e-005,1.257492e-005
1.465147e+000,-2.333104e-005,1.257007e-005
1.465941e+000,-2.635233e-005,1.262383e-005
1.466735e+000,-1.628138e-005,1.269230e-005
1.467529e+000,-4.867628e-006,1.270236e-005
1.468324e+000,-1.678492e-007,1.268328e-005
1.469118e+000,-8.392462e-007,1.265396e-005
1.469912e+000,-9.567407e-006,1.262064e-005
1.470706e+000,-1.225299e-005,1.258992e-005
1.471500e+000,-1.359579e-005,1.256655e-005
1.472294e+000,-1.594568e-005,1.256041e-005
1.473088e+000,-1.393149e-005,1.256684e-005
1.473882e+000,-1.628138e-005,1.254254e-005
1.474676e+000,-1.191730e-005,1.253212e-005
1.475471e+000,-9.567407e-006,1.253596e-005
1.476265e+000,-1.158160e-005,1.253247e-005
1.477059e+000,-9.567407e-006,1.253438e-005
1.477853e+000,-1.292439e-005,1.253742e-005
1.478647e+000,-1.695277e-005,1.254617e-005
1.479441e+000,-1.225299e-005,1.256658e-005
1.480235e+000,-1.225299e-005,1.257481e-005
1.481029e+000,-1.225299e-005,1.257874e-005
1.481824e+000,-9.567407e-006,1.257874e-005
1.482618e+000,-1.023880e-005,1.257706e-005
1.483412e+000,-1.225299e-005,1.257706e-005
1.484206e+000,-1.292439e-005,1.258100e-005
1.485000e+000,-1.023880e-005,1.258100e-005
1.485794e+000,-1.124590e-005,1.256601e-005
1.486588e+000,-1.326009e-005,1.256087e-005
1.487382e+000,-1.493858e-005,1.255856e-005
1.488176e+000,-1.225299e-005,1.256283e-005
1.488971e+000,-9.735256e-006,1.256283e-005
1.489765e+000,-1.040665e-005,1.256241e-005
1.490559e+000,-1.091020e-005,1.256285e-005
1.491353e+000,-1.359579e-005,1.256791e-005
1.492147e+000,-1.158160e-005,1.258129e-005
1.492941e+000,-8.392462e-006,1.258586e-005
1.493735e+000,-4.196231e-006,1.258878e-005
1.494529e+000,-5.874723e-006,1.258346e-005
1.495324e+000,-1.124590e-005,1.256882e-005
1.496118e+000,-1.091020e-005,1.256582e-005
1.496912e+000,-1.359579e-005,1.257368e-005
1.497706e+000,-1.191730e-005,1.258705e-005
1.498500e+000,-1.225299e-005,1.258805e-005
1.499294e+000,-1.359579e-005,1.259199e-005
1.500088e+000,-1.225299e-005,1.260210e-005
1.500882e+000,-1.124590e-005,1.260782e-005
1.501676e+000,-1.242084e-005,1.260483e-005
1.502471e+000,-1.460288e-005,1.259861e-005
1.503265e+000,-1.560998e-005,1.259983e-005
1.504059e+000,-1.376364e-005,1.261060e-005
1.504853e+000,-1.258869e-005,1.261556e-005
1.505647e+000,-1.393149e-005,1.262053e-005
1.506441e+000,-1.292439e-005,1.263179e-005
1.507235e+000,-1.158160e-005,1.263287e-005
1.508029e+000,-1.426719e-005,1.262648e-005
1.508824e+000,-1.242084e-005,1.263108e-005
1.509618e+000,-1.091020e-005,1.263899e-005
1.510412e+000,-1.359579e-005,1.264742e-005
1.511206e+000,-2.870222e-005,1.265875e-005
1.512000e+000,-2.920577e-005,1.273654e-005
1.512794e+000,-1.426719e-005,1.281980e-005
1.513588e+000,-2.853437e-006,1.283029e-005
1.514382e+000,4.531929e-006,1.282072e-005
1.515176e+000,2.517739e-006,1.281190e-005
1.515971e+000,-2.349889e-006,1.280209e-005
1.516765e+000,-4.196231e-006,1.279139e-005
1.517559e+000,-1.057450e-005,1.277783e-005
1.518353e+000,-1.258869e-005,1.277095e-005
1.519147e+000,-1.493858e-005,1.277398e-005
1.519941e+000,-1.426719e-005,1.277142e-005
1.520735e+000,-1.493858e-005,1.276898e-005
1.521529e+000,-1.493858e-005,1.276771e-005
1.522324e+000,-1.309224e-005,1.275379e-005
1.523118e+000,-1.628138e-005,1.274733e-005
1.523912e+000,-1.930266e-005,1.276064e-005
1.524706e+000,-1.661708e-005,1.277927e-005
1.525500e+000,-1.628138e-005,1.271562e-005
1.526294e+000,-1.493858e-005,1.263804e-005
1.527088e+000,-1.510643e-005,1.263546e-005
1.527882e+000,-1.326009e-005,1.266359e-005
1.528676e+000,-1.057450e-005,1.268498e-005
1.529471e+000,-1.242084e-005,1.269822e-005
1.530265e+000,-1.326009e-005,1.271746e-005
1.531059e+000,-1.107805e-005,1.273029e-005
1.531853e+000,-1.107805e-005,1.273076e-005
1.532647e+000,-9.903105e-006,1.271819e-005
1.533441e+000,-9.567407e-006,1.270616e-005
1.534235e+000,-1.023880e-005,1.270178e-005
1.535029e+000,-1.091020e-005,1.268436e-005
1.535824e+000,-1.124590e-005,1.265411e-005
1.536618e+000,-8.224612e-006,1.264066e-005
1.537412e+000,-1.225299e-005,1.263026e-005
1.538206e+000,-1.560998e-005,1.263597e-005
1.539000e+000,-1.158160e-005,1.266009e-005
1.539794e+000,-1.191730e-005,1.265371e-005
1.540588e+000,-1.359579e-005,1.264091e-005
1.541382e+000,-9.903105e-006,1.262431e-005
1.542176e+000,-9.903105e-006,1.260593e-005
1.542971e+000,-2.064546e-005,1.259260e-005
1.543765e+000,-1.829557e-005,1.262192e-005
1.544559e+000,-7.553216e-006,1.265257e-005
1.545353e+000,1.510643e-006,1.265716e-005
1.546147e+000,5.035477e-007,1.265523e-005
1.546941e+000,-5.539025e-006,1.264871e-005
1.547735e+000,-9.567407e-006,1.263758e-005
1.548529e+000,-1.023880e-005,1.263020e-005
1.549324e+000,-1.124590e-005,1.260118e-005
1.550118e+000,-1.091020e-005,1.258636e-005
1.550912e+000,-8.896010e-006,1.255904e-005
1.551706e+000,-1.426719e-005,1.252341e-005
1.552500e+000,-1.091020e-005,1.251831e-005
1.553294e+000,-7.888914e-006,1.250245e-005
1.554088e+000,-1.326009e-005,1.248682e-005
1.554882e+000,-1.695277e-005,1.248205e-005
1.555676e+000,-1.628138e-005,1.248489e-005
1.556471e+000,-1.493858e-005,1.249739e-005
1.557265e+000,-1.628138e-005,1.250342e-005
1.558059e+000,-1.829557e-005,1.252293e-005
1.558853e+000,-1.762417e-005,1.256198e-005
1.559647e+000,-1.695277e-005,1.259531e-005
1.560441e+000,-1.577783e-005,1.261922e-005
1.561235e+000,-1.527428e-005,1.263116e-005
1.562029e+000,-1.594568e-005,1.264316e-005
1.562824e+000,-1.527428e-005,1.266364e-005
1.563618e+000,-1.426719e-005,1.268301e-005
1.564412e+000,-1.426719e-005,1.269362e-005
1.565206e+000,-1.359579e-005,1.270422e-005
1.566000e+000,-1.191730e-005,1.271057e-005
1.566794e+000,-1.091020e-005,1.271345e-005
1.567588e+000,-1.023880e-005,1.271523e-005
1.568382e+000,-1.191730e-005,1.272353e-005
1.569176e+000,-8.224612e-006,1.272775e-005
1.569971e+000,-8.224612e-006,1.271308e-005
1.570765e+000,-6.881819e-006,1.270571e-005
1.571559e+000,-5.035477e-006,1.269282e-005
1.572353e+000,-4.196231e-006,1.266798e-005
1.573147e+000,-6.210422e-006,1.265026e-005
1.573941e+000,-6.042573e-006,1.263919e-005
1.574735e+000,-1.023880e-005,1.263143e-005
1.575529e+000,-9.567407e-006,1.263541e-005
1.576324e+000,-8.224612e-006,1.263697e-005
1.577118e+000,-9.903105e-006,1.263140e-005
1.577912e+000,-1.225299e-005,1.263223e-005
1.578706e+000,-1.426719e-005,1.263794e-005
1.579500e+000,-1.191730e-005,1.264466e-005
1.580294e+000,-1.191730e-005,1.264364e-005
1.581088e+000,-1.292439e-005,1.264049e-005
1.581882e+000,-1.225299e-005,1.263214e-005
1.582676e+000,-1.493858e-005,1.261764e-005
1.583471e+000,-1.493858e-005,1.262012e-005
1.584265e+000,-1.393149e-005,1.262495e-005
1.585059e+000,-1.493858e-005,1.262253e-005
1.585853e+000,-1.795987e-005,1.261724e-005
1.586647e+000,-1.460288e-005,1.264051e-005
1.587441e+000,-1.091020e-005,1.264292e-005
1.588235e+000,-1.040665e-005,1.263900e-005
1.589029e+000,-1.292439e-005,1.263268e-005
1.589824e+000,-1.426719e-005,1.262986e-005
1.590618e+000,-1.225299e-005,1.263446e-005
1.591412e+000,-1.225299e-005,1.262773e-005
1.592206e+000,-1.426719e-005,1.263741e-005
1.593000e+000,-1.057450e-005,1.264806e-005
1.593794e+000,-1.426719e-005,1.264426e-005
1.594588e+000,-1.426719e-005,1.265668e-005
1.595382e+000,-1.359579e-005,1.266731e-005
1.596176e+000,-1.091020e-005,1.268021e-005
1.596971e+000,-1.023880e-005,1.267832e-005
1.597765e+000,-1.023880e-005,1.267263e-005
1.598559e+000,-1.225299e-005,1.266426e-005
1.599353e+000,-1.158160e-005,1.266907e-005
1.600147e+000,-1.225299e-005,1.266035e-005
1.600941e+000,-1.393149e-005,1.266236e-005
1.601735e+000,-1.191730e-005,1.266788e-005
1.602529e+000,-1.124590e-005,1.267077e-005
1.603324e+000,-1.158160e-005,1.267261e-005
1.604118e+000,-1.493858e-005,1.267451e-005
1.604912e+000,-1.493858e-005,1.267816e-005
1.605706e+000,-1.359579e-005,1.269387e-005
1.606500e+000,-1.191730e-005,1.270785e-005
1.607294e+000,-8.224612e-006,1.270884e-005
1.608088e+000,-1.023880e-005,1.269638e-005
1.608882e+000,-1.091020e-005,1.269460e-005
1.609676e+000,-8.896010e-006,1.270442e-005
1.610471e+000,-9.231709e-006,1.269753e-005
1.611265e+000,-8.896010e-006,1.268781e-005
1.612059e+000,-1.091020e-005,1.267889e-005
1.612853e+000,-1.258869e-005,1.267286e-005
1.613647e+000,-1.225299e-005,1.266598e-005
1.614441e+000,-1.040665e-005,1.265926e-005
1.615235e+000,-9.567407e-006,1.265187e-005
1.616029e+000,-6.881819e-006,1.263529e-005
1.616824e+000,-6.210422e-006,1.261795e-005
1.617618e+000,-8.224612e-006,1.261428e-005
1.618412e+000,-1.158160e-005,1.260915e-005
1.619206e+000,-1.359579e-005,1.260608e-005
1.620000e+000,-1.560998e-005,1.260608e-005
1.620794e+000,-1.527428e-005,1.258123e-005
1.621588e+000,-1.560998e-005,1.254180e-005
1.622382e+000,-2.299535e-005,1.254440e-005
1.623176e+000,-2.568093e-005,1.260621e-005
1.623971e+000,-2.030976e-005,1.268881e-005
1.624765e+000,-2.047761e-005,1.274044e-005
1.625559e+000,-1.426719e-005,1.279055e-005
1.626353e+000,8.392462e-007,1.280449e-005
1.627147e+000,5.203327e-006,1.278977e-005
1.627941e+000,4.867628e-006,1.277233e-005
1.628735e+000,3.356985e-007,1.275444e-005
1.629529e+000,-5.539025e-006,1.273136e-005
1.630324e+000,-1.158160e-005,1.270726e-005
1.631118e+000,-1.980621e-005,1.270259e-005
1.631912e+000,-2.064546e-005,1.272857e-005
1.632706e+000,-1.661708e-005,1.276095e-005
1.633500e+000,-1.359579e-005,1.277234e-005
1.634294e+000,-6.210422e-006,1.275516e-005
1.635088e+000,-4.196231e-006,1.272616e-005
1.635882e+000,-5.706874e-006,1.270745e-005
1.636676e+000,-1.124590e-005,1.266953e-005
1.637471e+000,-1.628138e-005,1.264018e-005
1.638265e+000,-2.064546e-005,1.264546e-005
1.639059e+000,-2.299535e-005,1.268909e-005
1.639853e+000,-2.098116e-005,1.274936e-005
1.640647e+000,-2.064546e-005,1.279284e-005
1.641441e+000,-1.963836e-005,1.282285e-005
1.642235e+000,-1.527428e-005,1.283216e-005
1.643029e+000,-1.225299e-005,1.282822e-005
1.643824e+000,-1.091020e-005,1.283116e-005
1.644618e+000,-1.091020e-005,1.284164e-005
1.645412e+000,-1.225299e-005,1.285325e-005
1.646206e+000,-8.896010e-006,1.286891e-005
1.647000e+000,-7.553216e-006,1.287616e-005
1.647794e+000,-6.378271e-006,1.288262e-005
1.648588e+000,-9.903105e-006,1.288472e-005
1.649382e+000,-1.091020e-005,1.288814e-005
1.650176e+000,-1.023880e-005,1.289579e-005
1.650971e+000,-9.567407e-006,1.289579e-005
1.651765e+000,-8.224612e-006,1.288855e-005
1.652559e+000,-6.881819e-006,1.287518e-005
1.653353e+000,-7.217518e-006,1.285983e-005
1.654147e+000,-6.210422e-006,1.284559e-005
1.654941e+000,-5.874723e-006,1.282512e-005
1.655735e+000,-1.225299e-005,1.280866e-005
1.656529e+000,-1.174945e-005,1.281064e-005
1.657324e+000,-1.225299e-005,1.280483e-005
1.658118e+000,-1.426719e-005,1.279253e-005
1.658912e+000,-1.527428e-005,1.279253e-005
1.659706e+000,-1.393149e-005,1.277990e-005
1.660500e+000,-1.292439e-005,1.277240e-005
1.661294e+000,-1.292439e-005,1.276903e-005
1.662088e+000,-1.057450e-005,1.276076e-005
1.662882e+000,-1.426719e-005,1.275598e-005
1.663676e+000,-1.695277e-005,1.276830e-005
1.664471e+000,-1.712062e-005,1.278835e-005
1.665265e+000,-1.594568e-005,1.281343e-005
1.666059e+000,-1.594568e-005,1.282737e-005
1.666853e+000,-1.124590e-005,1.284179e-005
1.667647e+000,-1.057450e-005,1.284084e-005
1.668441e+000,-1.326009e-005,1.284127e-005
1.669235e+000,-1.292439e-005,1.284596e-005
1.670029e+000,-1.258869e-005,1.285685e-005
1.670824e+000,-1.158160e-005,1.286081e-005
1.671618e+000,-1.393149e-005,1.285883e-005
1.672412e+000,-1.493858e-005,1.286812e-005
1.673206e+000,-1.493858e-005,1.287453e-005
1.674000e+000,-1.242084e-005,1.287926e-005
1.674794e+000,-1.091020e-005,1.287548e-005
1.675588e+000,-1.158160e-005,1.286503e-005
1.676382e+000,-9.567407e-006,1.285400e-005
1.677176e+000,-1.023880e-005,1.283643e-005
1.677971e+000,-9.903105e-006,1.283279e-005
1.678765e+000,-1.023880e-005,1.283019e-005
1.679559e+000,-1.023880e-005,1.281673e-005
1.680353e+000,-8.560311e-006,1.280386e-005
1.681147e+000,-1.191730e-005,1.279326e-005
1.681941e+000,-1.225299e-005,1.279873e-005
1.682735e+000,-1.124590e-005,1.280756e-005
1.683529e+000,-1.057450e-005,1.280462e-005
1.684324e+000,-1.292439e-005,1.280280e-005
1.685118e+000,-1.225299e-005,1.280490e-005
1.685912e+000,-1.393149e-005,1.280490e-005
1.686706e+000,-1.393149e-005,1.281330e-005
1.687500e+000,-1.292439e-005,1.281612e-005
1.688294e+000,-1.225299e-005,1.280660e-005
1.689088e+000,-1.292439e-005,1.279995e-005
1.689882e+000,-1.309224e-005,1.280206e-005
1.690676e+000,-1.225299e-005,1.278902e-005
1.691471e+000,-1.091020e-005,1.276290e-005
1.692265e+000,-1.124590e-005,1.274668e-005
1.693059e+000,-1.191730e-005,1.273460e-005
1.693853e+000,-1.091020e-005,1.273254e-005
1.694647e+000,-1.107805e-005,1.273431e-005
1.695441e+000,-1.107805e-005,1.273568e-005
1.696235e+000,-1.191730e-005,1.274324e-005
1.697029e+000,-1.191730e-005,1.274955e-005
1.697824e+000,-1.225299e-005,1.274362e-005
1.698618e+000,-1.158160e-005,1.272925e-005
1.699412e+000,-9.903105e-006,1.271684e-005
1.700206e+000,-9.903105e-006,1.271684e-005
1.701000e+000,-1.158160e-005,1.272065e-005
1.701794e+000,-1.225299e-005,1.272254e-005
1.702588e+000,-1.762417e-005,1.272550e-005
1.703382e+000,-2.198825e-005,1.275516e-005
1.704176e+000,-1.359579e-005,1.279966e-005
1.704971e+000,-7.888914e-006,1.280961e-005
1.705765e+000,1.846342e-006,1.281087e-005
1.706559e+000,6.546120e-006,1.280069e-005
1.707353e+000,-1.678492e-007,1.279691e-005
1.708147e+000,-7.217518e-006,1.278386e-005
1.708941e+000,-7.553216e-006,1.277552e-005
1.709735e+000,-1.460288e-005,1.276779e-005
1.710529e+000,-1.493858e-005,1.277954e-005
1.711324e+000,-1.560998e-005,1.279593e-005
1.712118e+000,-1.628138e-005,1.281276e-005
1.712912e+000,-1.695277e-005,1.283585e-005
1.713706e+000,-1.997406e-005,1.285077e-005
1.714500e+000,-1.930266e-005,1.287728e-005
1.715294e+000,-1.795987e-005,1.285602e-005
1.716088e+000,-1.829557e-005,1.280988e-005
1.716882e+000,-1.560998e-005,1.281853e-005
1.717676e+000,-1.695277e-005,1.284583e-005
1.718471e+000,-1.695277e-005,1.288140e-005
1.719265e+000,-1.628138e-005,1.291679e-005
1.720059e+000,-2.098116e-005,1.293817e-005
1.720853e+000,-1.359579e-005,1.297382e-005
1.721647e+000,-6.881819e-006,1.297382e-005
1.722441e+000,-1.678492e-006,1.294840e-005
1.723235e+000,-5.035477e-006,1.292486e-005
1.724029e+000,-6.881819e-006,1.289529e-005
1.724824e+000,-1.107805e-005,1.288359e-005
1.725618e+000,-1.292439e-005,1.288745e-005
1.726412e+000,-1.762417e-005,1.289151e-005
1.727206e+000,-1.628138e-005,1.291854e-005
1.728000e+000,-1.023880e-005,1.293062e-005
1.728794e+000,-1.091020e-005,1.290812e-005
1.729588e+000,-1.023880e-005,1.290428e-005
1.730382e+000,-8.224612e-006,1.289869e-005
1.731176e+000,-7.385367e-006,1.288851e-005
1.731971e+000,-9.735256e-006,1.288393e-005
1.732765e+000,-1.393149e-005,1.288269e-005
1.733559e+000,-1.628138e-005,1.288812e-005
1.734353e+000,-1.225299e-005,1.290023e-005
1.735147e+000,-1.258869e-005,1.290582e-005
1.735941e+000,-1.158160e-005,1.290977e-005
1.736735e+000,-9.231709e-006,1.290463e-005
1.737529e+000,-7.553216e-006,1.288759e-005
1.738324e+000,-8.560311e-006,1.287609e-005
1.739118e+000,-1.242084e-005,1.287343e-005
1.739912e+000,-1.158160e-005,1.287911e-005
1.740706e+000,-1.124590e-005,1.288098e-005
1.741500e+000,-1.091020e-005,1.287376e-005
1.742294e+000,-1.158160e-005,1.287190e-005
1.743088e+000,-1.124590e-005,1.287977e-005
1.743882e+000,-1.225299e-005,1.289323e-005
1.744676e+000,-1.107805e-005,1.290750e-005
1.745471e+000,-1.158160e-005,1.290703e-005
1.746265e+000,-1.158160e-005,1.290890e-005
1.747059e+000,-1.460288e-005,1.290264e-005
1.747853e+000,-1.829557e-005,1.291143e-005
1.748647e+000,-1.829557e-005,1.293417e-005
1.749441e+000,-1.560998e-005,1.295261e-005
1.750235e+000,-1.023880e-005,1.296411e-005
1.751029e+000,-5.539025e-006,1.296145e-005
1.751824e+000,-6.210422e-006,1.294626e-005
1.752618e+000,-8.560311e-006,1.292475e-005
1.753412e+000,-9.567407e-006,1.290374e-005
1.754206e+000,-1.158160e-005,1.289166e-005
1.755000e+000,-1.191730e-005,1.288865e-005
1.755794e+000,-9.567407e-006,1.288221e-005
1.756588e+000,-1.023880e-005,1.287288e-005
1.757382e+000,-1.225299e-005,1.286925e-005
1.758176e+000,-1.493858e-005,1.286264e-005
1.758971e+000,-1.426719e-005,1.287117e-005
1.759765e+000,-1.225299e-005,1.288162e-005
1.760559e+000,-1.258869e-005,1.287733e-005
1.761353e+000,-1.292439e-005,1.279479e-005
1.762147e+000,-1.158160e-005,1.270914e-005
1.762941e+000,-1.225299e-005,1.270044e-005
1.763735e+000,-1.158160e-005,1.271823e-005
1.764529e+000,-9.567407e-006,1.273244e-005
1.765324e+000,-9.231709e-006,1.274309e-005
1.766118e+000,-1.292439e-005,1.275305e-005
1.766912e+000,-1.292439e-005,1.277169e-005
1.767706e+000,-1.158160e-005,1.277857e-005
1.768500e+000,-1.326009e-005,1.277554e-005
1.769294e+000,-1.510643e-005,1.276964e-005
1.770088e+000,-1.107805e-005,1.277271e-005
1.770882e+000,-9.567407e-006,1.276019e-005
1.771676e+000,-1.258869e-005,1.274375e-005
1.772471e+000,-1.393149e-005,1.274213e-005
1.773265e+000,-1.359579e-005,1.273326e-005
1.774059e+000,-1.023880e-005,1.270976e-005
1.774853e+000,-1.023880e-005,1.268828e-005
1.775647e+000,-1.158160e-005,1.266815e-005
1.776441e+000,-1.023880e-005,1.265696e-005
1.777235e+000,-1.628138e-005,1.264143e-005
1.778029e+000,-2.131685e-005,1.265266e-005
1.778824e+000,-1.426719e-005,1.269570e-005
1.779618e+000,-4.531929e-006,1.270188e-005
1.780412e+000,5.035477e-007,1.268240e-005
1.781206e+000,-4.867628e-006,1.266701e-005
1.782000e+000,-1.057450e-005,1.265456e-005
1.782794e+000,-1.628138e-005,1.265629e-005
1.783588e+000,-1.762417e-005,1.267811e-005
1.784382e+000,-1.695277e-005,1.270392e-005
1.785176e+000,-1.829557e-005,1.272501e-005
1.785971e+000,-1.762417e-005,1.275104e-005
1.786765e+000,-1.594568e-005,1.278135e-005
1.787559e+000,-1.493858e-005,1.279432e-005
1.788353e+000,-1.644922e-005,1.279176e-005
1.789147e+000,-2.030976e-005,1.280874e-005
1.789941e+000,-2.030976e-005,1.284232e-005
1.790735e+000,-1.896696e-005,1.287051e-005
1.791529e+000,-1.292439e-005,1.290285e-005
1.792324e+000,-9.903105e-006,1.291135e-005
1.793118e+000,-1.023880e-005,1.287082e-005
1.793912e+000,-9.567407e-006,1.284234e-005
1.794706e+000,-1.225299e-005,1.284662e-005
1.795500e+000,-1.225299e-005,1.286493e-005
1.796294e+000,-1.292439e-005,1.288347e-005
1.797088e+000,-1.376364e-005,1.290031e-005
1.797882e+000,-1.426719e-005,1.291239e-005
1.798676e+000,-1.309224e-005,1.292456e-005
1.799471e+000,-1.057450e-005,1.293010e-005
1.800265e+000,-8.560311e-006,1.292921e-005
1.801059e+000,-7.721065e-006,1.292849e-005
1.801853e+000,-8.896010e-006,1.291075e-005
1.802647e+000,-5.203327e-006,1.290582e-005
1.803441e+000,-5.706874e-006,1.290149e-005
1.804235e+000,-4.867628e-006,1.288379e-005
1.805029e+000,-5.539025e-006,1.285116e-005
1.805824e+000,-6.881819e-006,1.282208e-005
1.806618e+000,-9.231709e-006,1.280023e-005
1.807412e+000,-9.567407e-006,1.277784e-005
1.808206e+000,-7.385367e-006,1.274749e-005
1.809000e+000,-8.560311e-006,1.271547e-005
1.809794e+000,-1.158160e-005,1.268862e-005
1.810588e+000,-1.292439e-005,1.267421e-005
1.811382e+000,-1.326009e-005,1.266588e-005
1.812176e+000,-1.158160e-005,1.265602e-005
1.812971e+000,-9.735256e-006,1.264353e-005
1.813765e+000,-1.057450e-005,1.262982e-005
1.814559e+000,-9.567407e-006,1.261825e-005
1.815353e+000,-1.191730e-005,1.260647e-005
1.816147e+000,-1.527428e-005,1.260647e-005
1.816941e+000,-1.628138e-005,1.262090e-005
1.817735e+000,-1.359579e-005,1.264110e-005
1.818529e+000,-1.158160e-005,1.264649e-005
1.819324e+000,-1.493858e-005,1.265486e-005
1.820118e+000,-1.695277e-005,1.267442e-005
1.820912e+000,-1.309224e-005,1.270454e-005
1.821706e+000,-1.292439e-005,1.272283e-005
1.822500e+000,-1.493858e-005,1.274152e-005
1.823294e+000,-1.091020e-005,1.276457e-005
1.824088e+000,-1.191730e-005,1.277486e-005
1.824882e+000,-9.567407e-006,1.277949e-005
1.825676e+000,-1.292439e-005,1.277949e-005
1.826471e+000,-1.376364e-005,1.279187e-005
1.827265e+000,-1.493858e-005,1.280324e-005
1.828059e+000,-1.393149e-005,1.281232e-005
1.828853e+000,-1.107805e-005,1.281114e-005
1.829647e+000,-8.896010e-006,1.280874e-005
1.830441e+000,-1.091020e-005,1.280092e-005
1.831235e+000,-1.191730e-005,1.279495e-005
1.832029e+000,-1.594568e-005,1.279394e-005
1.832824e+000,-1.527428e-005,1.279781e-005
1.833618e+000,-1.359579e-005,1.279907e-005
1.834412e+000,-1.426719e-005,1.279792e-005
1.835206e+000,-1.359579e-005,1.279548e-005
1.836000e+000,-1.225299e-005,1.277833e-005
1.836794e+000,-1.124590e-005,1.277047e-005
1.837588e+000,-1.292439e-005,1.277139e-005
1.838382e+000,-1.326009e-005,1.277872e-005
1.839176e+000,-8.224612e-006,1.277981e-005
1.839971e+000,-1.023880e-005,1.276287e-005
1.840765e+000,-8.224612e-006,1.275721e-005
1.841559e+000,-5.539025e-006,1.274691e-005
1.842353e+000,-7.217518e-006,1.272530e-005
1.843147e+000,-6.378271e-006,1.271782e-005
1.843941e+000,-9.063859e-006,1.269741e-005
1.844735e+000,-1.426719e-005,1.268218e-005
1.845529e+000,-1.393149e-005,1.268453e-005
1.846324e+000,-1.292439e-005,1.269395e-005
1.847118e+000,-1.225299e-005,1.270175e-005
1.847912e+000,-1.426719e-005,1.270743e-005
1.848706e+000,-1.158160e-005,1.271412e-005
1.849500e+000,-1.174945e-005,1.271412e-005
1.850294e+000,-1.376364e-005,1.271260e-005
1.851088e+000,-1.225299e-005,1.271202e-005
1.851882e+000,-1.225299e-005,1.271304e-005
1.852676e+000,-1.158160e-005,1.271600e-005
1.853471e+000,-1.023880e-005,1.271600e-005
1.854265e+000,-1.124590e-005,1.270118e-005
1.855059e+000,-9.903105e-006,1.268905e-005
1.855853e+000,-1.091020e-005,1.267815e-005
1.856647e+000,-1.023880e-005,1.267527e-005
1.857441e+000,-6.881819e-006,1.267994e-005
1.858235e+000,-1.023880e-005,1.267272e-005
1.859029e+000,-1.426719e-005,1.267093e-005
1.859824e+000,-1.292439e-005,1.268656e-005
1.860618e+000,-1.443504e-005,1.269682e-005
1.861412e+000,-2.568093e-005,1.271302e-005
1.862206e+000,-2.970932e-005,1.278054e-005
1.863000e+000,-1.158160e-005,1.287045e-005
1.863794e+000,-3.189136e-006,1.286847e-005
1.864588e+000,5.035477e-007,1.285632e-005
1.865382e+000,1.174945e-006,1.284501e-005
1.866176e+000,-6.210422e-006,1.283931e-005
1.866971e+000,-1.158160e-005,1.283931e-005
1.867765e+000,-1.560998e-005,1.284755e-005
1.868559e+000,-1.712062e-005,1.286112e-005
1.869353e+000,-1.577783e-005,1.287452e-005
1.870147e+000,-1.292439e-005,1.287517e-005
1.870941e+000,-1.426719e-005,1.286697e-005
1.871735e+000,-1.174945e-005,1.286201e-005
1.872529e+000,-1.124590e-005,1.281354e-005
1.873324e+000,-1.292439e-005,1.274713e-005
1.874118e+000,-1.091020e-005,1.271643e-005
1.874912e+000,-8.392462e-006,1.267877e-005
1.875706e+000,-1.158160e-005,1.266204e-005
1.876500e+000,-1.829557e-005,1.267881e-005
1.877294e+000,-2.568093e-005,1.271739e-005
1.878088e+000,-1.577783e-005,1.279675e-005
1.878882e+000,-1.174945e-006,1.282768e-005
1.879676e+000,2.853437e-006,1.282404e-005
1.880471e+000,1.174945e-006,1.280839e-005
1.881265e+000,-8.896010e-006,1.275969e-005
1.882059e+000,-1.393149e-005,1.271631e-005
1.882853e+000,-1.762417e-005,1.270603e-005
1.883647e+000,-1.963836e-005,1.272178e-005
1.884441e+000,-1.829557e-005,1.276515e-005
1.885235e+000,-1.930266e-005,1.280465e-005
1.886029e+000,-1.628138e-005,1.284686e-005
1.886824e+000,-1.426719e-005,1.286403e-005
1.887618e+000,-1.292439e-005,1.285641e-005
1.888412e+000,-1.191730e-005,1.282427e-005
1.889206e+000,-1.174945e-005,1.277616e-005
1.890000e+000,-1.460288e-005,1.273844e-005
1.890794e+000,-1.174945e-005,1.271179e-005
1.891588e+000,-1.292439e-005,1.268073e-005
1.892382e+000,-1.225299e-005,1.267241e-005
1.893176e+000,-1.091020e-005,1.267241e-005
1.893971e+000,-1.359579e-005,1.267241e-005
1.894765e+000,-1.393149e-005,1.268068e-005
1.895559e+000,-9.231709e-006,1.268619e-005
1.896353e+000,-5.874723e-006,1.268696e-005
1.897147e+000,-8.224612e-006,1.268413e-005
1.897941e+000,-8.224612e-006,1.268751e-005
1.898735e+000,-1.091020e-005,1.268369e-005
1.899529e+000,-9.903105e-006,1.268369e-005
1.900324e+000,-7.217518e-006,1.268284e-005
1.901118e+000,-7.049668e-006,1.267789e-005
1.901912e+000,-1.091020e-005,1.267564e-005
1.902706e+000,-1.359579e-005,1.268464e-005
1.903500e+000,-1.225299e-005,1.270129e-005
1.904294e+000,-1.426719e-005,1.271527e-005
1.905088e+000,-1.493858e-005,1.273642e-005
1.905882e+000,-1.560998e-005,1.274555e-005
1.906676e+000,-1.930266e-005,1.275874e-005
1.907471e+000,-1.527428e-005,1.278647e-005
1.908265e+000,-1.124590e-005,1.279018e-005
1.909059e+000,-1.225299e-005,1.277687e-005
1.909853e+000,-1.661708e-005,1.277139e-005
1.910647e+000,-1.628138e-005,1.278499e-005
1.911441e+000,-1.124590e-005,1.279719e-005
1.912235e+000,-9.567407e-006,1.279901e-005
1.913029e+000,-1.091020e-005,1.278507e-005
1.913824e+000,-1.527428e-005,1.276408e-005
1.914618e+000,-1.460288e-005,1.275662e-005
1.915412e+000,-1.326009e-005,1.275150e-005
1.916206e+000,-1.124590e-005,1.274170e-005
1.917000e+000,-9.567407e-006,1.274170e-005
1.917794e+000,-1.023880e-005,1.273916e-005
1.918588e+000,-8.392462e-006,1.273029e-005
1.919382e+000,-7.553216e-006,1.271820e-005
1.920176e+000,-1.158160e-005,1.270549e-005
1.920971e+000,-1.258869e-005,1.270549e-005
1.921765e+000,-1.292439e-005,1.270103e-005
1.922559e+000,-9.567407e-006,1.269399e-005
1.923353e+000,-7.553216e-006,1.267747e-005
1.924147e+000,-7.888914e-006,1.266525e-005
1.924941e+000,-9.567407e-006,1.265811e-005
1.925735e+000,-1.359579e-005,1.265275e-005
1.926529e+000,-1.158160e-005,1.266449e-005
1.927324e+000,-1.091020e-005,1.266817e-005
1.928118e+000,-1.426719e-005,1.267080e-005
1.928912e+000,-1.712062e-005,1.268320e-005
1.929706e+000,-3.743038e-005,1.270682e-005
1.930500e+000,-4.095522e-005,1.287213e-005
1.931294e+000,-2.702373e-005,1.306068e-005
1.932088e+000,-5.539025e-006,1.313122e-005
1.932882e+000,1.292439e-005,1.311960e-005
1.933676e+000,2.198825e-005,1.312630e-005
1.934471e+000,2.064546e-005,1.316463e-005
1.935265e+000,7.553216e-006,1.319799e-005
1.936059e+000,-1.174945e-006,1.318144e-005
1.936853e+000,-7.553216e-006,1.315814e-005
1.937647e+000,-1.158160e-005,1.314482e-005
1.938441e+000,-1.292439e-005,1.314289e-005
1.939235e+000,-1.527428e-005,1.314289e-005
1.940029e+000,-1.695277e-005,1.315038e-005
1.940824e+000,-1.795987e-005,1.316699e-005
1.941618e+000,-1.762417e-005,1.319158e-005
1.942412e+000,-1.527428e-005,1.321379e-005
1.943206e+000,-1.426719e-005,1.322479e-005
1.944000e+000,-1.628138e-005,1.323496e-005
1.944794e+000,-1.896696e-005,1.325208e-005
1.945588e+000,-1.963836e-005,1.328053e-005
1.946382e+000,-2.702373e-005,1.330971e-005
1.947176e+000,-3.440909e-005,1.337990e-005
1.947971e+000,-2.299535e-005,1.350238e-005
1.948765e+000,-9.567407e-006,1.354884e-005
1.949559e+000,5.035477e-007,1.354807e-005
1.950353e+000,2.517739e-006,1.353657e-005
1.951147e+000,-5.874723e-006,1.352153e-005
1.951941e+000,-1.023880e-005,1.350791e-005
1.952735e+000,-1.191730e-005,1.348363e-005
1.953529e+000,-1.309224e-005,1.344324e-005
1.954324e+000,-1.292439e-005,1.344165e-005
1.955118e+000,-1.712062e-005,1.345406e-005
1.955912e+000,-3.256275e-005,1.348830e-005
1.956706e+000,-2.467384e-005,1.360789e-005
1.957500e+000,-2.970932e-005,1.367894e-005
1.958294e+000,-2.030976e-005,1.377529e-005
1.959088e+000,1.174945e-006,1.381631e-005
1.959882e+000,1.594568e-005,1.379188e-005
1.960676e+000,2.534523e-005,1.379547e-005
1.961471e+000,2.098116e-005,1.384141e-005
1.962265e+000,8.896010e-006,1.386154e-005
1.963059e+000,-8.392462e-007,1.383760e-005
1.963853e+000,-1.258869e-005,1.379169e-005
1.964647e+000,-1.896696e-005,1.376695e-005
1.965441e+000,-2.333104e-005,1.377125e-005
1.966235e+000,-2.735943e-005,1.379546e-005
1.967029e+000,-2.870222e-005,1.385362e-005
1.967824e+000,-3.273060e-005,1.391514e-005
1.968618e+000,-2.836652e-005,1.400455e-005
1.969412e+000,-2.719158e-005,1.406577e-005
1.970206e+000,-2.735943e-005,1.409960e-005
1.971000e+000,-2.769513e-005,1.416312e-005
1.971794e+000,-2.366674e-005,1.424380e-005
1.972588e+000,-1.661708e-005,1.430597e-005
1.973382e+000,-1.560998e-005,1.433385e-005
1.974176e+000,-1.023880e-005,1.435564e-005
1.974971e+000,-8.224612e-006,1.435366e-005
1.975765e+000,-6.881819e-006,1.434263e-005
1.976559e+000,-3.189136e-006,1.431337e-005
1.977353e+000,-5.539025e-006,1.428498e-005
1.978147e+000,-5.539025e-006,1.427672e-005
1.978941e+000,-3.189136e-006,1.426686e-005
1.979735e+000,-5.035477e-007,1.425629e-005
1.980529e+000,3.524834e-006,1.424876e-005
1.981324e+000,4.196231e-006,1.424405e-005
1.982118e+000,-6.210422e-006,1.423542e-005
1.982912e+000,-2.534523e-005,1.421802e-005
1.983706e+000,-2.249180e-005,1.426021e-005
1.984500e+000,-6.546120e-006,1.429988e-005
1.985294e+000,8.896010e-006,1.428700e-005
1.986088e+000,1.258869e-005,1.428087e-005
1.986882e+000,2.014191e-006,1.428903e-005
1.987676e+000,-5.203327e-006,1.428313e-005
1.988471e+000,-1.023880e-005,1.427797e-005
1.989265e+000,-1.728847e-005,1.427246e-005
1.990059e+000,-2.098116e-005,1.429083e-005
1.990853e+000,-2.333104e-005,1.432574e-005
1.991647e+000,-2.232395e-005,1.437294e-005
1.992441e+000,-2.299535e-005,1.441324e-005
1.993235e+000,-2.601663e-005,1.445761e-005
1.994029e+000,-2.517739e-005,1.451551e-005
1.994824e+000,-2.165255e-005,1.457148e-005
1.995618e+000,-1.158160e-005,1.460801e-005
1.996412e+000,-8.224612e-006,1.460801e-005
1.997206e+000,-8.560311e-006,1.459213e-005
1.998000e+000,-1.091020e-005,1.456357e-005
1.998794e+000,-1.023880e-005,1.453997e-005
1.999588e+000,-1.023880e-005,1.452476e-005
2.000382e+000,-1.091020e-005,1.452476e-005
2.001176e+000,-1.258869e-005,1.453444e-005
2.001971e+000,-1.527428e-005,1.454757e-005
2.002765e+000,-1.560998e-005,1.456508e-005
2.003559e+000,-1.493858e-005,1.458170e-005
2.004353e+000,-1.359579e-005,1.459142e-005
2.005147e+000,-1.393149e-005,1.459609e-005
2.005941e+000,-1.359579e-005,1.460727e-005
2.006735e+000,-1.359579e-005,1.461599e-005
2.007529e+000,-1.225299e-005,1.461977e-005
2.008324e+000,-1.158160e-005,1.461182e-005
2.009118e+000,-9.903105e-006,1.460425e-005
2.009912e+000,-7.553216e-006,1.459857e-005
2.010706e+000,-2.265965e-005,1.458751e-005
2.011500e+000,-3.709468e-005,1.462527e-005
2.012294e+000,-2.769513e-005,1.475987e-005
2.013088e+000,-1.695277e-005,1.482627e-005
2.013882e+000,-1.678492e-007,1.484272e-005
2.014676e+000,1.443504e-005,1.483290e-005
2.015471e+000,1.795987e-005,1.484611e-005
2.016265e+000,1.326009e-005,1.486279e-005
2.017059e+000,3.860533e-006,1.486373e-005
2.017853e+000,-9.567407e-006,1.485095e-005
2.018647e+000,-1.695277e-005,1.484191e-005
2.019441e+000,-1.762417e-005,1.484826e-005
2.020235e+000,-2.030976e-005,1.486839e-005
2.021029e+000,-2.165255e-005,1.490273e-005
2.021824e+000,-3.205920e-005,1.493585e-005
2.022618e+000,-3.910887e-005,1.502447e-005
2.023412e+000,-3.608759e-005,1.516632e-005
2.024206e+000,-1.930266e-005,1.529153e-005
2.025000e+000,-3.021286e-006,1.531938e-005
2.025794e+000,1.846342e-006,1.530638e-005
2.026588e+000,-1.174945e-006,1.529583e-005
2.027382e+000,-1.510643e-006,1.526835e-005
2.028176e+000,3.356985e-007,1.522113e-005
2.028971e+000,-1.846342e-006,1.519983e-005
2.029765e+000,-5.539025e-006,1.519803e-005
2.030559e+000,-3.524834e-006,1.520122e-005
2.031353e+000,-2.853437e-006,1.520004e-005
2.032147e+000,-5.874723e-006,1.518918e-005
2.032941e+000,-7.553216e-006,1.516498e-005
2.033735e+000,-7.217518e-006,1.513834e-005
2.034529e+000,-6.546120e-006,1.511357e-005
2.035324e+000,-2.853437e-006,1.508278e-005
2.036118e+000,5.035477e-007,1.505082e-005
2.036912e+000,-4.364080e-006,1.502392e-005
2.037706e+000,-7.888914e-006,1.500227e-005
2.038500e+000,-1.174945e-005,1.498014e-005
2.039294e+000,-1.628138e-005,1.495094e-005
2.040088e+000,-2.098116e-005,1.493523e-005
2.040882e+000,-1.963836e-005,1.494381e-005
2.041676e+000,-1.460288e-005,1.496708e-005
2.042471e+000,-1.359579e-005,1.497933e-005
2.043265e+000,-2.131685e-005,1.498783e-005
2.044059e+000,-3.038071e-005,1.502634e-005
2.044853e+000,-2.299535e-005,1.510802e-005
2.045647e+000,-4.364080e-006,1.514787e-005
2.046441e+000,1.057450e-005,1.513231e-005
2.047235e+000,1.460288e-005,1.512414e-005
2.048029e+000,-1.577783e-005,1.512516e-005
2.048824e+000,-4.112306e-005,1.513332e-005
2.049618e+000,-3.340200e-005,1.529859e-005
2.050412e+000,-1.057450e-005,1.540671e-005
2.051206e+000,-1.510643e-006,1.541210e-005
2.052000e+000,-4.196231e-006,1.540416e-005
2.052794e+000,-8.224612e-006,1.540318e-005
2.053588e+000,-1.393149e-005,1.540681e-005
2.054382e+000,-2.165255e-005,1.542441e-005
2.055176e+000,-2.668803e-005,1.546958e-005
2.055971e+000,-2.165255e-005,1.553787e-005
2.056765e+000,-2.232395e-005,1.557713e-005
2.057559e+000,-2.299535e-005,1.561866e-005
2.058353e+000,-1.963836e-005,1.566694e-005
2.059147e+000,-2.098116e-005,1.569865e-005
2.059941e+000,-3.205920e-005,1.572967e-005
2.060735e+000,-2.853437e-005,1.581657e-005
2.061529e+000,-3.121996e-005,1.588071e-005
2.062324e+000,-1.913481e-005,1.596476e-005
2.063118e+000,5.035477e-007,1.599181e-005
2.063912e+000,5.203327e-006,1.598070e-005
2.064706e+000,3.860533e-006,1.597427e-005
2.065500e+000,-3.541619e-005,1.596159e-005
2.066294e+000,-4.515145e-005,1.606313e-005
2.067088e+000,-1.023880e-005,1.623799e-005
2.067882e+000,2.635233e-005,1.623014e-005
2.068676e+000,5.018692e-005,1.628502e-005
2.069471e+000,4.380865e-005,1.650796e-005
2.070265e+000,2.803082e-005,1.666462e-005
2.071059e+000,-8.392462e-007,1.672322e-005
2.071853e+000,-3.038071e-005,1.670737e-005
2.072647e+000,-1.829557e-005,1.677394e-005
2.073441e+000,2.517739e-006,1.679440e-005
2.074235e+000,-1.896696e-005,1.678153e-005
2.075029e+000,-3.004501e-005,1.680696e-005
2.075824e+000,-6.881819e-006,1.687652e-005
2.076618e+000,8.560311e-006,1.686311e-005
2.077412e+000,1.158160e-005,1.684895e-005
2.078206e+000,6.881819e-006,1.684328e-005
2.079000e+000,-7.553216e-006,1.683615e-005
2.079794e+000,-1.829557e-005,1.683406e-005
2.080588e+000,-3.038071e-005,1.685445e-005
2.081382e+000,-3.440909e-005,1.692808e-005
2.082176e+000,-4.246586e-005,1.701531e-005
2.082971e+000,-7.804990e-005,1.716161e-005
2.083765e+000,-7.418937e-005,1.770121e-005
2.084559e+000,-4.313725e-005,1.817177e-005
2.085353e+000,-1.829557e-005,1.831805e-005
2.086147e+000,-1.846342e-006,1.833409e-005
2.086941e+000,-3.524834e-006,1.832340e-005
2.087735e+000,-5.874723e-006,1.830995e-005
2.088529e+000,-7.217518e-006,1.829766e-005
2.089324e+000,-9.567407e-006,1.829630e-005
2.090118e+000,-6.881819e-006,1.829515e-005
2.090912e+000,-7.888914e-006,1.829338e-005
2.091706e+000,-9.903105e-006,1.829613e-005
2.092500e+000,-1.158160e-005,1.830013e-005
2.093294e+000,-1.023880e-005,1.830826e-005
2.094088e+000,-1.158160e-005,1.831023e-005
2.094882e+000,-1.091020e-005,1.830419e-005
2.095676e+000,-9.903105e-006,1.829766e-005
2.096471e+000,-7.553216e-006,1.829166e-005
2.097265e+000,-7.553216e-006,1.828356e-005
2.098059e+000,-9.903105e-006,1.827079e-005
2.098853e+000,-1.628138e-005,1.826765e-005
2.099647e+000,-2.601663e-005,1.827872e-005
2.100441e+000,-1.628138e-005,1.832113e-005
2.101235e+000,5.035477e-007,1.833112e-005
2.102029e+000,1.191730e-005,1.831809e-005
2.102824e+000,1.258869e-005,1.831878e-005
2.103618e+000,3.860533e-006,1.832344e-005
2.104412e+000,-1.510643e-006,1.831374e-005
2.105206e+000,-8.224612e-006,1.830541e-005
2.106000e+000,-1.695277e-005,1.830094e-005
2.106794e+000,-1.661708e-005,1.831682e-005
2.107588e+000,-3.910887e-005,1.833670e-005
2.108382e+000,-1.057450e-004,1.846000e-005
2.109176e+000,-9.617762e-005,1.938388e-005
2.109971e+000,-1.829557e-005,2.011621e-005
2.110765e+000,5.690089e-005,2.012621e-005
2.111559e+000,8.442817e-005,2.032917e-005
2.112353e+000,6.361486e-005,2.081262e-005
2.113147e+000,3.709468e-005,2.110986e-005
2.113941e+000,1.393149e-005,2.121264e-005
2.114735e+000,-5.203327e-006,2.122718e-005
2.115529e+000,-1.762417e-005,2.122911e-005
2.116324e+000,-2.601663e-005,2.124951e-005
2.117118e+000,-2.769513e-005,2.129014e-005
2.117912e+000,-2.366674e-005,2.132924e-005
2.118706e+000,-1.359579e-005,2.134917e-005
2.119500e+000,-1.292439e-005,2.134438e-005
2.120294e+000,-1.493858e-005,2.134439e-005
2.121088e+000,-1.560998e-005,2.134585e-005
2.121882e+000,-1.460288e-005,2.135373e-005
2.122676e+000,-8.224612e-006,2.136019e-005
2.123471e+000,-6.378271e-006,2.135278e-005
2.124265e+000,-8.392462e-006,2.134694e-005
2.125059e+000,-1.359579e-005,2.134694e-005
2.125853e+000,-1.426719e-005,2.135072e-005
2.126647e+000,-2.652018e-005,2.134094e-005
2.127441e+000,-5.387960e-005,2.134421e-005
2.128235e+000,-4.380865e-005,2.154130e-005
2.129029e+000,-3.575189e-005,2.168260e-005
2.129824e+000,-2.064546e-005,2.177568e-005
2.130618e+000,1.963836e-005,2.180672e-005
2.131412e+000,3.776608e-005,2.182909e-005
2.132206e+000,3.810178e-005,2.191879e-005
2.133000e+000,1.930266e-005,2.200154e-005
2.133794e+000,-5.035477e-007,2.200059e-005
2.134588e+000,-2.098116e-005,2.197637e-005
2.135382e+000,-5.824369e-005,2.198127e-005
2.136176e+000,-7.771420e-005,2.220665e-005
2.136971e+000,-5.992218e-005,2.262126e-005
2.137765e+000,-2.803082e-005,2.286098e-005
2.138559e+000,-4.867628e-006,2.290578e-005
2.139353e+000,9.231709e-006,2.289782e-005
2.140147e+000,9.231709e-006,2.288892e-005
2.140941e+000,-1.678492e-007,2.288524e-005
2.141735e+000,-1.158160e-005,2.287362e-005
2.142529e+000,-2.114900e-005,2.287251e-005
2.143324e+000,-2.098116e-005,2.289535e-005
2.144118e+000,-1.493858e-005,2.291310e-005
2.144912e+000,-1.594568e-005,2.291512e-005
2.145706e+000,-1.242084e-005,2.292687e-005
2.146500e+000,-8.224612e-006,2.293518e-005
2.147294e+000,-9.567407e-006,2.293518e-005
2.148088e+000,-9.567407e-006,2.293684e-005
2.148882e+000,-8.896010e-006,2.293493e-005
2.149676e+000,-1.292439e-005,2.293362e-005
2.150471e+000,-1.628138e-005,2.294160e-005
2.151265e+000,-1.628138e-005,2.295654e-005
2.152059e+000,-1.594568e-005,2.296667e-005
2.152853e+000,-1.493858e-005,2.297148e-005
2.153647e+000,-1.292439e-005,2.297654e-005
2.154441e+000,-1.359579e-005,2.297401e-005
2.155235e+000,-1.057450e-005,2.297136e-005
2.156029e+000,-3.306630e-005,2.296222e-005
2.156824e+000,-5.656519e-005,2.301215e-005
2.157618e+000,-3.004501e-005,2.321650e-005
2.158412e+000,-1.426719e-005,2.326968e-005
2.159206e+000,-9.047074e-005,2.327333e-005
2.160000e+000,-1.102770e-004,2.380830e-005
2.160794e+000,-5.757229e-005,2.459107e-005
2.161588e+000,4.448005e-005,2.479665e-005
2.162382e+000,1.132982e-004,2.491752e-005
2.163176e+000,1.158160e-004,2.571740e-005
2.163971e+000,9.718471e-005,2.652092e-005
2.164765e+000,6.395056e-005,2.706953e-005
2.165559e+000,3.138781e-005,2.729879e-005
2.166353e+000,7.217518e-006,2.734883e-005
