X [s].2,L DELTOID ANTERIOR: EMG 3 [V],X [s].3,L BICEPS BRACHII: EMG 4 [V],X [s].4,L DELTOID POSTERIOR: EMG 5 [V],X [s].7,L DELTOID MEDIUS: EMG 8 [V]
0.0,-1.09102e-05,0.0,-1.59457e-05,0.0,2.70237e-05,0.0,-1.15816e-05
0.000794117179931,-1.1917298959989046e-05,0.000794117179931,-1.695279895998905e-05,0.000794117179931,2.870219826664841e-05,0.000794117179931,-1.2924398613318728e-05
0.0015882343598621,-1.4267183310171542e-05,0.0015882343598621,-1.9638380925910336e-05,0.0015882343598621,1.2756613252052277e-05,0.0015882343598621,-2.4673716551567948e-05
0.0023823515397932,-1.5609994792640095e-05,0.0023823515397932,-2.299530390551993e-05,0.0023823515397932,-1.6952850771565196e-05,0.0023823515397932,-3.038070585827989e-05
0.0031764687197242,-1.2924404329708944e-05,0.0031764687197242,-2.500949675271829e-05,0.0031764687197242,-4.313725778549901e-05,0.0031764687197242,-3.340199512907744e-05
0.0039705858996553,-1.2253003466694448e-05,0.0039705858996553,-2.333100866673613e-05,0.0039705858996553,-4.9515467066919066e-05,0.0039705858996553,-3.105211213343057e-05
0.0047647030795864,-1.0910211701923325e-05,0.0047647030795864,-2.0981220477494363e-05,0.0047647030795864,-2.7695290155382565e-05,0.0047647030795864,-2.030989361451514e-05
0.0055588202595174,-8.22460846411735e-06,0.0055588202595174,-1.326009813499824e-05,0.0055588202595174,-8.39242050588314e-07,0.0055588202595174,-1.292439637970285e-05
0.0063529374394485,-3.524845153916817e-06,0.0063529374394485,-7.553238401198525e-06,0.0063529374394485,1.124586103279362e-05,0.0063529374394485,-1.846375719969816e-06
0.0071470546193796,-4.531923176317471e-06,0.0071470546193796,-7.0496734118412645e-06,0.0071470546193796,4.867673216452748e-06,0.0071470546193796,1.1749195290879256e-06
0.0079411717993107,-2.853457333368979e-06,0.0079411717993107,-5.539045600021754e-06,0.0079411717993107,1.258862026633747e-05,0.0079411717993107,-9.23160253298841e-06
0.0087352889792417,-4.196228273962129e-06,0.0087352889792417,-6.210419136987492e-06,0.0087352889792417,3.508047108877889e-05,0.0087352889792417,-1.4938592664297272e-05
0.0095294061591728,-1.8463513654376144e-06,0.0095294061591728,-1.2252970774561354e-05,0.0095294061591728,4.213016590354206e-05,0.0095294061591728,-1.4267203247281709e-05
0.0103235233391039,-3.355944027699557e-07,0.0103235233391039,-8.895763340205578e-06,0.0103235233391039,4.129046094504748e-05,0.0103235233391039,-2.903800853080096e-05
0.0111176405190349,3.1892770147443767e-06,0.0111176405190349,-5.033938578768799e-07,0.0111176405190349,2.6351143936117344e-05,0.0111176405190349,-3.273018895270575e-05
0.011911757698966,5.874576959442544e-06,0.011911757698966,2.5175790788136056e-06,0.011911757698966,3.6938869067674593e-06,0.011911757698966,-2.467422912486812e-05
0.0127058748788971,3.1892249574756896e-06,0.0127058748788971,-8.39139802807407e-07,0.0127058748788971,-3.810047784481619e-05,0.0127058748788971,-2.131700619447201e-05
0.0134999920588282,-2.3498346085016545e-06,0.0134999920588282,-2.8534198576242383e-06,0.0134999920588282,-8.241355686841326e-05,0.0134999920588282,-1.3092282248779376e-05
0.0142941092387592,-4.364062424834021e-06,0.0142941092387592,-2.1820517168548803e-06,0.0142941092387592,-9.617740081463044e-05,0.0142941092387592,-5.706817274385723e-06
0.0150882264186903,-2.853529334891203e-06,0.0150882264186903,-3.1893410032557238e-06,0.0150882264186903,-7.905576048042201e-05,0.0150882264186903,-1.1749623338059625e-06
0.0158823435986214,-5.538839278546559e-06,0.0158823435986214,-9.231280877262382e-06,0.0158823435986214,-4.1797146255816736e-05,0.0158823435986214,-1.8462923194590984e-06
0.0166764607785524,-5.874703419912207e-06,0.0166764607785524,-1.4938318130604937e-05,0.0166764607785524,-1.512629662889769e-06,0.0166764607785524,5.874338648596444e-06
0.0174705779584835,-5.539039317613217e-06,0.0174705779584835,-1.6952744092655303e-05,0.0174705779584835,8.560030464664343e-06,0.0174705779584835,9.231616821369738e-06
0.0182646951384146,-5.53903e-06,0.0182646951384146,-2.0645477392801525e-05,0.0182646951384146,-7.720970323235268e-06,0.0182646951384146,8.392973797761402e-07
0.0190588123183456,-6.210414792508942e-06,0.0190588123183456,-2.29953e-05,0.0190588123183456,-1.7623848495439417e-05,0.0190588123183456,-3.5248247926640648e-06
0.0198529294982767,-5.874682594535951e-06,0.0198529294982767,-2.2995175317595977e-05,0.0198529294982767,5.036583467317905e-06,0.0198529294982767,-3.189277153987216e-06
0.0206470466782078,-4.867697615013438e-06,0.0206470466782078,-1.963862537890219e-05,0.0206470466782078,3.4742805346025653e-05,0.0206470466782078,-6.881572077165078e-06
0.0214411638581389,-2.350004589861921e-06,0.0214411638581389,-1.62815527870894e-05,0.0214411638581389,4.750071941361157e-05,0.0214411638581389,-1.2588440262858278e-05
0.0222352810380699,-1.5106600400450466e-06,0.0222352810380699,-1.795985991990991e-05,0.0222352810380699,4.011617635000856e-05,0.0222352810380699,-1.0910240080090093e-05
0.023029398218001,-2.853436986691611e-06,0.023029398218001,-1.963839623336452e-05,0.023029398218001,1.6952851979345305e-05,0.023029398218001,-1.0238801506654194e-05
0.0238235153979321,-1.5106530187276456e-06,0.0238235153979321,-1.8967013018727646e-05,0.0238235153979321,-1.1581931975615916e-05,0.0238235153979321,-6.881862310670943e-06
0.0246176325778631,-2.182019344519002e-06,0.0246176325778631,-1.963828983743468e-05,0.0246176325778631,-2.8702213770320663e-05,0.0246176325778631,-9.064073439560114e-06
0.0254117497577942,-1.6785218552791491e-06,0.0254117497577942,-1.695296989482213e-05,0.0254117497577942,-2.9037878763147238e-05,0.0254117497577942,-1.4266870829414742e-05
0.0262058669377253,-3.860439150981206e-06,0.0262058669377253,-1.3931625791525585e-05,0.0262058669377253,-3.9108480694914726e-05,0.0262058669377253,-1.7288374208474416e-05
0.0269999841176564,-4.531916571709492e-06,0.0269999841176564,-1.326011342829051e-05,0.0269999841176564,-5.72362374381563e-05,0.0269999841176564,-1.829557985756424e-05
0.0277941012975874,-4.196228080106506e-06,0.0277941012975874,-1.1581597805817332e-05,0.0277941012975874,-5.9922195611634665e-05,0.0277941012975874,-1.8967005485293267e-05
0.0285882184775185,-3.021379817444784e-06,0.0285882184775185,-1.023870627742869e-05,0.0285882184775185,-5.723662343075916e-05,0.0285882184775185,-2.2323845330555195e-05
0.0293823356574496,-6.881507237035947e-06,0.0293823356574496,-6.210746361424243e-06,0.0293823356574496,-5.824361840923886e-05,0.0293823356574496,-1.99742903703411e-05
0.0301764528373806,-5.874779812962995e-06,0.0301764528373806,-8.560170437013592e-06,0.0301764528373806,-5.656529968827165e-05,0.0301764528373806,-1.6785089410685713e-05
0.0309705700173117,-3.524918724366313e-06,0.0309705700173117,-7.72110168703096e-06,0.0309705700173117,-5.606161901433296e-05,0.0309705700173117,-1.2924545760191392e-05
0.0317646871972428,-3.189145412111265e-06,0.0317646871972428,-9.567380232662537e-06,0.0317646871972428,-5.337614329656767e-05,0.0317646871972428,-1.1245927061362444e-05
0.0325588043771738,-7.217529252037034e-06,0.0325588043771738,-1.3931505551255294e-05,0.0325588043771738,-4.112300377824157e-05,0.0325588043771738,-1.1917324055439608e-05
0.0333529215571049,-8.895991776076207e-06,0.0333529215571049,-1.4938622778547582e-05,0.0333529215571049,-2.366617150973862e-05,0.0333529215571049,-1.6281509343542758e-05
0.034147038737036,-8.224661790423075e-06,0.034147038737036,-1.5777735265828052e-05,0.034147038737036,-4.197731912241257e-06,0.034147038737036,-2.030948925746155e-05
0.0349411559169671,-9.567335456873735e-06,0.0349411559169671,-1.0910470216057044e-05,0.0349411559169671,7.720408432530073e-06,0.0349411559169671,-2.2995150919298796e-05
0.0357352730968981,-7.217599611295734e-06,0.0357352730968981,-6.210579222591468e-06,0.0357352730968981,1.7791658809652136e-05,0.0357352730968981,-2.5680809015274838e-05
0.0365293902768292,-5.5390505518761725e-06,0.0365293902768292,-7.0496597240006925e-06,0.0365293902768292,2.970915408142205e-05,0.0365293902768292,-2.836646711680221e-05
0.0373235074567603,-4.531914238637932e-06,0.0373235074567603,-1.091022048942325e-05,0.0373235074567603,2.803073065053275e-05,0.0373235074567603,-2.853432592162645e-05
0.0381176246366913,-2.853481654372739e-06,0.0381176246366913,-1.3092173967374195e-05,0.0381176246366913,2.0645416690634108e-05,0.0381176246366913,-2.064540627696337e-05
0.0389117418166224,-4.196131626721814e-06,0.0389117418166224,-1.2253061480093726e-05,0.0389117418166224,1.796009674802158e-05,0.0389117418166224,-1.7624421341524278e-05
0.0397058589965535,-5.538960664364788e-06,0.0397058589965535,-1.174942600344496e-05,0.0397058589965535,-2.85236530075232e-06,0.0397058589965535,-2.2995022662622663e-05
0.0404999761764846,-5.53903e-06,0.0404999761764846,-1.023884531898044e-05,0.0404999761764846,-2.7694354734076744e-05,0.0404999761764846,-2.29953e-05
0.0412940933564156,-4.86763561705392e-06,0.0412940933564156,-8.896021234024178e-06,0.0412940933564156,-4.8004730084537215e-05,0.0412940933564156,-2.232390561705392e-05
0.0420882105363467,-1.5106756286923195e-06,0.0420882105363467,-1.225310020540694e-05,0.0420882105363467,-5.857917286756738e-05,0.0420882105363467,-2.568088663919063e-05
0.0428823277162778,-4.195985572347681e-06,0.0428823277162778,-1.9805512549218797e-05,0.0428823277162778,-4.1460358222984255e-05,0.0428823277162778,-2.4673891660710923e-05
0.0436764448962088,-5.538936821092159e-06,0.0436764448962088,-2.0645441759713025e-05,0.0436764448962088,-2.856118883885613e-06,0.0436764448962088,-2.1652809645603493e-05
0.0444705620761399,-5.53903e-06,0.0444705620761399,-2.030981603203604e-05,0.0444705620761399,2.467248538068606e-05,0.0444705620761399,-2.5848599601937383e-05
0.045264679256071,-4.531956308035352e-06,0.045264679256071,-2.316312546187263e-05,0.045264679256071,3.575161061161112e-05,0.045264679256071,-2.1988400846162724e-05
0.046058796436002,-8.392625731243294e-07,0.046058796436002,-1.6952827872878194e-05,0.046058796436002,2.2659658759513584e-05,0.046058796436002,-9.567465746160312e-06
0.0468529136159331,-4.531961654044357e-06,0.0468529136159331,-1.4938507915180026e-05,0.0468529136159331,7.888858202535214e-06,0.0468529136159331,6.882015680263873e-06
0.0476470307958642,-6.378109115633313e-06,0.0476470307958642,-9.567878028912069e-06,0.0476470307958642,4.867893265010446e-06,0.0476470307958642,1.8294605438452934e-05
0.0484411479757953,-6.210430996427098e-06,0.0484411479757953,-8.224697971416777e-06,0.0484411479757953,-5.874016231941448e-06,0.0484411479757953,1.695288797141678e-05
0.0492352651557263,-7.553161079346901e-06,0.0492352651557263,-1.6616731746356926e-05,0.0492352651557263,-8.895877428969319e-06,0.0492352651557263,1.1917520952449118e-05
0.0500293823356574,-2.853544544168074e-06,0.0500293823356574,-2.668777597805381e-05,0.0500293823356574,-4.364180810431896e-06,0.0500293823356574,1.1751789582255675e-06
0.0508234995155885,3.18913631394643e-06,0.0508234995155885,-3.239489651871566e-05,0.0508234995155885,-6.881818464145363e-06,0.0508234995155885,-5.035469761001619e-07
0.0516176166955195,5.203315885958381e-06,0.0516176166955195,-3.105196591660462e-05,0.0516176166955195,-2.265991050891562e-05,0.0516176166955195,-4.532120538931205e-06
0.0524117338754506,4.5319859003052496e-06,0.0524117338754506,-2.4674331052899867e-05,0.0524117338754506,-3.742917019328452e-05,0.0524117338754506,-1.3595045348376915e-05
0.0532058510553817,-1.675593275543393e-07,0.0532058510553817,-2.1988465521687896e-05,0.0532058510553817,-3.74304e-05,0.0532058510553817,-1.963802756233428e-05
0.0539999682353128,-4.867442004692894e-06,0.0539999682353128,-1.7960061139486107e-05,0.0539999682353128,-2.4338623703329844e-05,0.0539999682353128,-2.4337912007932964e-05
0.0547940854152438,-5.539017668800828e-06,0.0547940854152438,-1.4938655490396272e-05,0.0547940854152438,5.030917484223345e-07,0.0547940854152438,-2.098126165415922e-05
0.0555882025951749,-6.88182e-06,0.0555882025951749,-1.4267176415571635e-05,0.0555882025951749,1.6617091224374433e-05,0.0555882025951749,-1.795990329085959e-05
0.056382319775106,-6.88182e-06,0.056382319775106,-7.050399067714785e-06,0.056382319775106,1.393177128176188e-05,0.056382319775106,-1.8966898269339293e-05
0.057176436955037,-9.231523438196816e-06,0.057176436955037,-3.362310337687507e-07,0.057176436955037,-1.896438813157976e-05,0.057176436955037,-2.198806013380373e-05
0.0579705541349681,-1.158146427681693e-05,0.0579705541349681,8.391955885600565e-06,0.0579705541349681,-4.85066937699891e-05,0.0579705541349681,-1.9974216334651977e-05
0.0587646713148992,-1.3595727241493525e-05,0.0587646713148992,1.7959554397455466e-05,0.0587646713148992,-5.421509385089832e-05,0.0587646713148992,-1.6952909137759717e-05
0.0595587884948302,-1.3763597568861003e-05,0.0595587884948302,2.366661731809284e-05,0.0595587884948302,-5.320821459118048e-05,0.0595587884948302,-1.5610019454907294e-05
0.0603529056747613,-1.258869280401389e-05,0.0603529056747613,3.0716390405351854e-05,0.0603529056747613,-5.119403358126851e-05,0.0603529056747613,-1.35958e-05
0.0611470228546924,-1.1581697825534184e-05,0.0611470228546924,2.937373043404558e-05,0.0611470228546924,-5.589334348084047e-05,0.0611470228546924,-1.35958e-05
0.0619411400346235,-9.567562098805805e-06,0.0619411400346235,1.863211119010697e-05,0.0619411400346235,-4.582356049780469e-05,0.0619411400346235,-1.896659440117083e-05
0.0627352572145545,-6.210600871820211e-06,0.0627352572145545,1.0080495771908036e-06,0.0627352572145545,-2.1653902270208987e-05,0.0627352572145545,-1.6617226610651302e-05
0.0635293743944856,-3.524916596037372e-06,0.0635293743944856,-1.0909815730265538e-05,0.0635293743944856,2.5169606346963127e-06,0.0635293743944856,-1.6449205413884725e-05
0.0643234915744167,2.5176758869452206e-06,0.0643234915744167,-1.1581592876291878e-05,0.0643234915744167,1.0910110954072895e-05,0.0643234915744167,-1.3092235618540604e-05
0.0651176087543477,2.517680794286384e-06,0.0651176087543477,-9.903129602967035e-06,0.0651176087543477,6.210390397143192e-06,0.0651176087543477,-4.531963303227688e-06
0.0659117259342788,-2.8529390930242443e-06,0.0659117259342788,-1.258844954557954e-05,0.0659117259342788,3.525080453487878e-06,0.0659117259342788,-7.552938239709564e-06
0.0667058431142099,-5.53883761628392e-06,0.0667058431142099,-2.181973868209528e-05,0.0667058431142099,1.1245346896905817e-05,0.0667058431142099,-1.527374689618946e-05
0.067499960294141,-6.88175285904746e-06,0.067499960294141,-2.584859857564235e-05,0.067499960294141,3.8436140390585966e-05,0.067499960294141,-2.2994913941647945e-05
0.068294077474072,-6.88182e-06,0.068294077474072,-3.172333335465458e-05,0.068294077474072,5.455054291457037e-05,0.068294077474072,-3.239463336517799e-05
0.0690881946540031,-5.539039039857869e-06,0.0690881946540031,-3.4576880790495574e-05,0.0690881946540031,3.642342203831685e-05,0.0690881946540031,-3.440908644011222e-05
0.0698823118339342,-4.532041800610487e-06,0.0698823118339342,-3.038116583032641e-05,0.0698823118339342,-3.856057994452643e-06,0.0698823118339342,-1.7626063332406868e-05
0.0706764290138652,-6.881609938788416e-06,0.0706764290138652,-2.4338640159699863e-05,0.0706764290138652,-4.313378897357184e-05,0.0706764290138652,-8.225450247528089e-06
0.0714705461937963,-1.1581281554817063e-05,0.0714705461937963,-2.5680809015274838e-05,0.0714705461937963,-4.850803606787508e-05,0.0714705461937963,-1.2252727046502074e-05
0.0722646633737274,-1.29243380660385e-05,0.0722646633737274,-2.534521548349037e-05,0.0722646633737274,-2.1653838670005372e-05,0.0722646633737274,-9.567533867461767e-06
0.0730587805536585,-1.1917324662398338e-05,0.0730587805536585,-2.232397398719501e-05,0.0730587805536585,2.6351124430576932e-05,0.0730587805536585,-7.55326932455179e-06
0.0738528977335895,-7.888921497273806e-06,0.0738528977335895,-1.8295611497016943e-05,0.0738528977335895,6.93215773626791e-05,0.0738528977335895,-3.860540539165278e-06
0.0746470149135206,-1.6791553522704117e-06,0.0746470149135206,-1.52746236864519e-05,0.0746470149135206,7.502798859225753e-05,0.0746470149135206,-6.210168244942095e-06
0.0754411320934517,-2.1819969395008223e-06,0.0754411320934517,-1.6281313879001643e-05,0.0754411320934517,5.220305206741134e-05,0.0754411320934517,-1.292382586172124e-05
0.0762352492733827,-4.196101334787621e-06,0.0762352492733827,-1.62814e-05,0.0762352492733827,1.527665886116231e-05,0.0762352492733827,-6.882205996275933e-06
0.0770293664533138,-5.203287455147182e-06,0.0770293664533138,-1.5106449637773868e-05,0.0770293664533138,-2.7693284761395417e-05,0.0770293664533138,-5.539086726047976e-06
0.0778234836332449,-8.895933892218629e-06,0.0778234836332449,-1.1581672647699713e-05,0.0778234836332449,-4.850797102860632e-05,0.0778234836332449,-8.560247730072009e-06
0.078617600813176,-8.896007250242596e-06,0.078617600813176,-1.0910200859251194e-05,0.078617600813176,-6.227210945227507e-05,0.078617600813176,-1.2924397250232357e-05
0.079411717993107,-6.210697306587282e-06,0.079411717993107,-1.1749313346531657e-05,0.079411717993107,-7.150284676021961e-05,0.079411717993107,-1.0239077307619853e-05
0.0802058351730381,-8.895790759802892e-06,0.0802058351730381,-1.191728629335487e-05,0.0802058351730381,-8.0734746363098e-05,0.0802058351730381,-7.889101835070424e-06
0.0809999523529692,-6.210581138886116e-06,0.0809999523529692,-1.1581620142435764e-05,0.0809999523529692,-8.174253957269271e-05,0.0809999523529692,-9.567309287821167e-06
0.0817940695329002,-3.1892559169361995e-06,0.0817940695329002,-1.1078119317698914e-05,0.0817940695329002,-7.36861091138761e-05,0.0817940695329002,-8.560348639234513e-06
0.0825881867128313,-3.5248243831134035e-06,0.0825881867128313,-1.0238814043471416e-05,0.0825881867128313,-6.462215165878262e-05,0.0825881867128313,-1.6449068000236814e-05
0.0833823038927624,-9.231019402578662e-06,0.0833823038927624,-1.158143750591963e-05,0.0833823038927624,-5.925144997632148e-05,0.0833823038927624,-2.43371453533284e-05
0.0841764210726934,-9.567376634055156e-06,0.0841764210726934,-1.4266933072441254e-05,0.0841764210726934,-5.253746731889687e-05,0.0841764210726934,-2.43381e-05
0.0849705382526245,-6.882028825253739e-06,0.0849705382526245,-1.5274221690238256e-05,0.0849705382526245,-4.985140882603132e-05,0.0849705382526245,-2.031011323127121e-05
0.0857646554325556,-6.88182e-06,0.0857646554325556,-1.292453188394098e-05,0.0857646554325556,-4.8844156521689e-05,0.0857646554325556,-1.779214130702864e-05
0.0865587726124866,-5.539076311143435e-06,0.0865587726124866,-8.56046051199216e-06,0.0865587726124866,-4.4815838934464965e-05,0.0865587726124866,-1.6952828942955764e-05
0.0873528897924177,-5.203334315181157e-06,0.0873528897924177,-7.217537260596087e-06,0.0873528897924177,-3.6591205721295646e-05,0.0873528897924177,-1.292445178217389e-05
0.0881470069723488,-5.538990678188749e-06,0.0881470069723488,-8.22449203573758e-06,0.0881470069723488,-3.65911e-05,0.0881470069723488,-1.8966292207397464e-05
0.0889411241522799,-6.881691744666841e-06,0.0889411241522799,-9.5672817437117e-06,0.0889411241522799,-5.991997155176652e-05,0.0889411241522799,-2.5008922856254064e-05
0.0897352413322109,-1.0574227186284858e-05,0.0897352413322109,-8.22470920552463e-06,0.0897352413322109,-7.200640715766628e-05,0.0897352413322109,-2.131717280780477e-05
0.090529358512142,-5.539293078786167e-06,0.090529358512142,-8.22461e-06,0.090529358512142,-5.589464185190675e-05,0.090529358512142,-1.2924838467255869e-05
0.0913234756920731,-4.196271103997247e-06,0.0913234756920731,-9.567368896002753e-06,0.0913234756920731,-1.1247266701786336e-05,0.0913234756920731,-6.042780657373678e-06
0.0921175928720041,-2.1820580797605715e-06,0.0921175928720041,-8.224622053233555e-06,0.0921175928720041,2.870184141809696e-05,0.0921175928720041,-4.8676405464896e-06
0.0929117100519352,-1.846378020102412e-06,0.0929117100519352,-8.22461e-06,0.0929117100519352,5.286976256395197e-05,0.0929117100519352,-9.231215740933771e-06
0.0937058272318663,-1.680028101718352e-07,0.0937058272318663,-9.567286951202752e-06,0.0937058272318663,5.320816923780069e-05,0.0937058272318663,-1.1581384665521176e-05
0.0944999444117974,1.174846002736461e-06,0.0944999444117974,-1.4434659261328452e-05,0.0944999444117974,4.531985223494706e-05,0.0944999444117974,-8.896197995367097e-06
0.0952940615917284,-2.853245159157678e-06,0.0952940615917284,-1.9134572684555397e-05,0.0952940615917284,3.474531145733201e-05,0.0952940615917284,-7.553284946786217e-06
0.0960881787716595,-4.19619410376113e-06,0.0960881787716595,-1.8295622433979745e-05,0.0960881787716595,3.004512563777169e-05,0.0960881787716595,-1.057441923339571e-05
0.0968822959515906,-3.5249179603400446e-06,0.0968822959515906,-1.6617319900850113e-05,0.0968822959515906,3.038065601982997e-05,0.0968822959515906,-1.527368427761969e-05
0.0976764131315216,-8.395397823894508e-07,0.0976764131315216,-1.6952763276982535e-05,0.0976764131315216,2.93737101690524e-05,0.0976764131315216,-2.333011865852005e-05
0.0984705303114527,-1.5105810798734494e-06,0.0984705303114527,-2.0477290670959128e-05,0.0984705303114527,3.0044941079346905e-05,0.0984705303114527,-2.2659658920653095e-05
0.0992646474913838,-2.853351209457495e-06,0.0992646474913838,-2.4505733628372485e-05,0.0992646474913838,3.659066714941147e-05,0.0992646474913838,-1.762453295792205e-05
0.1000587646713148,1.1737465046348787e-06,0.1000587646713148,-2.534495136871139e-05,0.1000587646713148,3.743015133908421e-05,0.1000587646713148,-2.1987007040268564e-05
0.1008528818512459,-1.006775308177274e-06,0.1008528818512459,-2.0981849371741297e-05,0.1008528818512459,4.078690047182963e-05,0.1008528818512459,-2.836555091135648e-05
0.101646999031177,-8.392462048121036e-07,0.101646999031177,-1.7624204096144454e-05,0.101646999031177,4.380869631346999e-05,0.101646999031177,-2.769510081922889e-05
0.1024411162111081,1.1746943338156062e-06,0.1024411162111081,-1.4266536698023636e-05,0.1024411162111081,2.601149013464146e-05,0.1024411162111081,-2.6016059530530387e-05
0.1032352333910391,-5.039427048114549e-07,0.1032352333910391,-9.734421250218054e-06,0.1032352333910391,-8.906272353904279e-06,0.1032352333910391,-2.232212384716083e-05
0.1040293505709702,-1.847968364674396e-06,0.1040293505709702,-6.8806357359849015e-06,0.1040293505709702,-4.3814621298027e-05,0.1040293505709702,-1.6279623597362805e-05
0.1048234677509013,-5.536557759843751e-06,0.1048234677509013,-4.198027991015011e-06,0.1048234677509013,-5.722761007839973e-05,0.1048234677509013,-1.2255696996564951e-05
0.1056175849308323,-7.55216706780009e-06,0.1056175849308323,1.1721321825427662e-06,0.1056175849308323,-5.3210305874854966e-05,0.1056175849308323,-1.023985293742748e-05
0.1064117021107634,-8.895506218277158e-06,0.1064117021107634,7.886391083882288e-06,0.1064117021107634,-4.314107835354192e-05,0.1064117021107634,-9.903225946368648e-06
0.1072058192906945,-6.882278416720368e-06,0.1072058192906945,8.224533596833949e-06,0.1072058192906945,-4.582218879743095e-05,0.1072058192906945,-1.2923712371505545e-05
0.1079999364706256,-8.224502560946283e-06,0.1079999364706256,9.902965700982825e-06,0.1079999364706256,-5.253626280073083e-05,0.1079999364706256,-1.2420840293945778e-05
0.1087940536505566,-9.063984757139536e-06,0.1087940536505566,1.0238323654680992e-05,0.1087940536505566,-5.824385878267393e-05,0.1087940536505566,-6.881842683239133e-06
0.1095881708304877,-1.0909766643501129e-05,0.1095881708304877,3.187551024736456e-06,0.1095881708304877,-6.059172211251498e-05,0.1095881708304877,-7.217447773558268e-06
0.1103822880104188,-8.89588823035567e-06,0.1103822880104188,-4.197934767765945e-06,0.1103822880104188,-5.185906801476821e-05,0.1103822880104188,-6.88157646071134e-06
0.1111764051903498,-8.560823292077193e-06,0.1111764051903498,-8.899431942084547e-06,0.1111764051903498,-3.4399860793577883e-05,0.1111764051903498,-6.211959871134843e-06
0.1119705223702809,-9.566804942276656e-06,0.1119705223702809,-1.5605966287852295e-05,0.1119705223702809,-1.6292290978940987e-05,0.1119705223702809,-9.22989483283789e-06
0.112764639550212,-5.540858751532601e-06,0.112764639550212,-1.963657123938806e-05,0.112764639550212,-6.886087099015188e-06,0.112764639550212,-1.0573890417669024e-05
0.1135587567301431,-6.210214296033725e-06,0.1135587567301431,-1.980614858856173e-05,0.1135587567301431,-8.224198589003597e-06,0.1135587567301431,-8.560927118026532e-06
0.1143528739100741,-6.881713379375057e-06,0.1143528739100741,-2.7022553836222035e-05,0.1143528739100741,-1.393059372627602e-05,0.1143528739100741,-9.567250069062586e-06
0.1151469910900052,-5.539045068327301e-06,0.1151469910900052,-2.5009522602659275e-05,0.1151469910900052,-2.131681712358265e-05,0.1151469910900052,-1.0910184931672698e-05
0.1159411082699363,-6.546074223907281e-06,0.1159411082699363,-1.829532534344369e-05,0.1159411082699363,-3.273174440231797e-05,0.1159411082699363,-6.546303103007273e-06
0.1167352254498673,-6.209752767772244e-06,0.1167352254498673,-1.6282162554362485e-05,0.1167352254498673,-4.112443444174016e-05,0.1167352254498673,-7.890530425180865e-06
0.1175293426297984,-3.861108721123722e-06,0.1175293426297984,-1.896945952167773e-05,0.1175293426297984,-4.5817591552984594e-05,0.1175293426297984,-1.359608936056186e-05
0.1183234598097295,-5.20241758805634e-06,0.1183234598097295,-2.4669922317187905e-05,0.1183234598097295,-3.374591163954448e-05,0.1183234598097295,-1.426674379402817e-05
0.1191175769896605,-8.89404269292175e-06,0.1191175769896605,-3.1384223058666505e-05,0.1191175769896605,-1.2599967311924644e-05,0.1191175769896605,-1.0911988470666746e-05
0.1199116941695916,-8.224868607728165e-06,0.1199116941695916,-2.9374375823184494e-05,0.1199116941695916,8.719949239296676e-06,0.1199116941695916,-8.393429775128852e-06
0.1207058113495227,-7.5533795189470176e-06,0.1207058113495227,-2.0311953514100572e-05,0.1207058113495227,1.6615225626831064e-05,0.1207058113495227,-5.539707960870717e-06
0.1214999285294538,-8.224549565982348e-06,0.1214999285294538,-1.4939083479342276e-05,0.1214999285294538,1.1917723044424492e-05,0.1214999285294538,-6.210359565982349e-06
0.1222940457093848,-6.546023371857156e-06,0.1222940457093848,-9.734844498237382e-06,0.1222940457093848,4.86693427610502e-06,0.1222940457093848,-1.6617525160604677e-05
0.1230881628893159,-4.868043211626284e-06,0.1230881628893159,-2.5162248893359554e-06,0.1230881628893159,-7.21958606428593e-06,0.1230881628893159,-2.4001504724213154e-05
0.123882280069247,-6.88182e-06,0.123882280069247,4.870590293140289e-06,0.123882280069247,-1.728672381776665e-05,0.123882280069247,-1.9636742229915543e-05
0.124676397249178,-6.8798070809509495e-06,0.124676397249178,1.3258087075954106e-05,0.124676397249178,-1.2247799953293636e-05,0.124676397249178,-1.4938096767739314e-05
0.1254705144291091,-2.8559004579437865e-06,0.1254705144291091,9.234170464051596e-06,0.1254705144291091,-1.852696190147227e-06,0.1254705144291091,-1.3932115117539853e-05
0.1262646316090402,3.857414929657261e-06,0.1262646316090402,3.398254690160747e-07,0.1262646316090402,1.4595268071396715e-05,0.1262646316090402,-1.6951398212082196e-05
0.1270587487889713,5.20290515595801e-06,0.1270587487889713,-7.550724051377682e-06,0.1270587487889713,2.6348582646271256e-05,0.1270587487889713,-2.265779444446021e-05
0.1278528659689023,7.552823327032712e-06,0.1278528659689023,-1.1748691664217528e-05,0.1278528659689023,2.4506311664503232e-05,0.1278528659689023,-2.702296331849723e-05
0.1286469831488334,6.042602060723909e-06,0.1286469831488334,-1.2924375062820249e-05,0.1286469831488334,1.796003892874245e-05,0.1286469831488334,-1.963855673919458e-05
0.1294411003287645,1.509834050442235e-06,0.1294411003287645,-1.5945572744208127e-05,0.1294411003287645,3.187422048073311e-06,0.1294411003287645,-1.3260566604570198e-05
0.1302352175086955,-4.868273729859776e-06,0.1302352175086955,-1.4939427656198943e-05,0.1302352175086955,-1.0412079724202086e-05,0.1302352175086955,-1.695215626740082e-05
0.1310293346886266,-7.216389388139829e-06,0.1310293346886266,-1.7962443844058507e-05,0.1310293346886266,-3.005135967329506e-05,0.1310293346886266,-1.4600356118052218e-05
0.1318234518685577,-4.533781643169939e-06,0.1318234518685577,-2.3998233856301836e-05,0.1318234518685577,-4.514098453733356e-05,0.1318234518685577,-8.564476205750781e-06
0.1326175690484888,-7.383821266649629e-06,0.1326175690484888,-2.232481102281057e-05,0.1326175690484888,-6.192728977189428e-05,0.1326175690484888,-1.0573406778054917e-05
0.1334116862284198,-1.0237672386347726e-05,0.1334116862284198,-2.031059592863923e-05,0.1334116862284198,-8.475487906707112e-05,0.1334116862284198,-7.889971286924301e-06
0.1342058034083509,-1.1581267527372329e-05,0.1342058034083509,-2.064541688184308e-05,0.1342058034083509,-8.358919092592904e-05,0.1342058034083509,-1.5122192375535512e-06
0.134999920588282,-9.231945023680136e-06,0.134999920588282,-1.7624502174588936e-05,0.134999920588282,-6.613434588762348e-05,0.134999920588282,5.0334655147422e-07
0.135794037768213,-1.2253e-05,0.135794037768213,-1.4267311777737944e-05,0.135794037768213,-5.589314530657731e-05,0.135794037768213,5.03484127292291e-07
0.1365881549481441,-1.225214835309018e-05,0.1365881549481441,-1.6617296534352612e-05,0.1365881549481441,-4.21245005232892e-05,0.1365881549481441,-8.401631571897985e-07
0.1373822721280752,-7.888162148179803e-06,0.1373822721280752,-1.762373978138615e-05,0.1373822721280752,-1.2909558018249504e-05,0.1373822721280752,-5.542999358125997e-06
0.1381763893080062,-5.705801464601237e-06,0.1381763893080062,-1.6283701471406162e-05,0.1381763893080062,3.0400426799827983e-05,0.1381763893080062,-1.712758658514107e-05
0.1389705064879373,-3.5261845447310784e-06,0.1389705064879373,-2.0978282505670327e-05,0.1389705064879373,7.063949302989962e-05,0.1389705064879373,-3.137894335182341e-05
0.1397646236678684,3.689259117225544e-06,0.1397646236678684,-1.9639036446834096e-05,0.1397646236678684,8.64349217496994e-05,0.1397646236678684,-3.977632220728691e-05
0.1405587408477994,3.860475215747035e-06,0.1405587408477994,-1.3933362664600831e-05,0.1405587408477994,7.066964971977876e-05,0.1405587408477994,-3.793450264310203e-05
0.1413528580277305,1.6850927493940925e-07,0.1413528580277305,-1.3260220050606678e-05,0.1413528580277305,3.810762241866262e-05,0.1413528580277305,-3.138897048447479e-05
0.1421469752076616,-1.5105875898397948e-06,0.1421469752076616,-1.6616995178992648e-05,0.1421469752076616,-7.551794439920447e-06,0.1421469752076616,-2.366694108831691e-05
0.1429410923875927,-4.867590938898155e-06,0.1429410923875927,-1.7120111742044795e-05,0.1429410923875927,-3.776641248881476e-05,0.1429410923875927,-2.165228751118524e-05
0.1437352095675237,-4.532550227491755e-06,0.1437352095675237,-1.2924267080346378e-05,0.1437352095675237,-4.0447624201995336e-05,0.1437352095675237,-1.8966291165564408e-05
0.1445293267474548,-6.882233917099745e-06,0.1445293267474548,-1.2421075947473184e-05,0.1445293267474548,-2.500080770802509e-05,0.1445293267474548,-1.6279192420214525e-05
0.1453234439273859,-7.888205578403865e-06,0.1453234439273859,-1.3091730380939493e-05,0.1453234439273859,-3.875322909475844e-06,0.1453234439273859,-1.0913956952484052e-05
0.146117561107317,-8.89545331382739e-06,0.146117561107317,-1.292449275339069e-05,0.146117561107317,1.2579607497874026e-05,0.146117561107317,-4.870970100452808e-06
0.146911678287248,-1.023825592863202e-05,0.146911678287248,-1.0911016113129664e-05,0.146911678287248,2.131336350977145e-05,0.146911678287248,-8.223249819554153e-06
0.1477057954671791,-8.896355900033427e-06,0.1477057954671791,-6.882857702676264e-06,0.1477057954671791,1.5611470086089985e-05,0.1477057954671791,-1.2251962294747752e-05
0.1484999126471102,-5.539399322297157e-06,0.1484999126471102,-3.860862390947571e-06,0.1484999126471102,-7.718503203543802e-06,0.1484999126471102,-1.5777412214778457e-05
0.1492940298270412,-5.539130885271347e-06,0.1492940298270412,-1.510690443011329e-06,0.1492940298270412,-2.568117743656231e-05,0.1492940298270412,-1.326021349677549e-05
0.1500881470069723,-8.224641076977719e-06,0.1500881470069723,-2.853067077378267e-06,0.1500881470069723,-3.3066735077688055e-05,0.1500881470069723,-1.6280933836076863e-05
0.1508822641869034,-8.392515848579015e-06,0.1508822641869034,-8.405863605726742e-07,0.1508822641869034,-3.542167312747048e-05,0.1508822641869034,-1.3762706456008684e-05
0.1516763813668344,-8.560632075085114e-06,0.1516763813668344,-4.867710518771279e-06,0.1516763813668344,-5.187538427966785e-05,0.1516763813668344,-1.10767311617e-05
0.1524704985467655,-9.231286508551449e-06,0.1524704985467655,-5.035374127137861e-06,0.1524704985467655,-7.266557182817071e-05,0.1524704985467655,-8.226409863886705e-06
0.1532646157266966,-8.560634938407938e-06,0.1532646157266966,-6.880926424217885e-06,0.1532646157266966,-8.475805110865712e-05,0.1532646157266966,-1.0908900251207964e-05
0.1540587329066277,-7.889135852002731e-06,0.1540587329066277,-9.566506595352976e-06,0.1540587329066277,-8.47639e-05,0.1540587329066277,-1.242029184981334e-05
0.1548528500865587,-6.882010146508204e-06,0.1548528500865587,-1.0574309853491796e-05,0.1548528500865587,-8.073626059358513e-05,0.1548528500865587,-4.869056097867497e-06
0.1556469672664898,-6.210447679192362e-06,0.1556469672664898,-1.023881383959618e-05,0.1556469672664898,-7.872138303757709e-05,0.1556469672664898,-3.1892091975686426e-06
0.1564410844464209,-2.35019347959104e-06,0.1564410844464209,-9.064341997623157e-06,0.1564410844464209,-6.814249773137936e-05,0.1564410844464209,-8.225627546401718e-06
0.157235201626352,-5.20333e-06,0.157235201626352,-1.3596567221281138e-05,0.157235201626352,-2.7676686790827677e-05,0.157235201626352,-1.7792724610573504e-05
0.158029318806283,-5.201579940378727e-06,0.158029318806283,-1.661831158417981e-05,0.158029318806283,4.484551833261616e-05,0.158029318806283,-2.0645769240928845e-05
0.1588234359862141,-8.423421050801184e-07,0.1588234359862141,-1.9636256534778307e-05,0.1588234359862141,0.0001191202471166,0.1588234359862141,-2.131642367439518e-05
0.1596175531661451,-1.5102621642706145e-06,0.1596175531661451,-1.762533351731789e-05,0.1596175531661451,0.0001512139583796,0.1596175531661451,-2.601395518253456e-05
0.1604116703460762,-1.846200623649622e-06,0.1604116703460762,-1.795976062364962e-05,0.1604116703460762,0.0001247230106071,0.1604116703460762,-2.266099376350378e-05
0.1612057875260073,-3.0209755839827907e-06,0.1612057875260073,-1.7624289833147773e-05,0.1612057875260073,6.832969191530615e-05,0.1612057875260073,-1.29270051345255e-05
0.1619999047059384,-4.867408406501612e-06,0.1619999047059384,-1.1078885647930391e-05,0.1619999047059384,1.7965943455773746e-05,0.1619999047059384,-1.091044173967116e-05
0.1627940218858694,-5.203422532022821e-06,0.1627940218858694,-8.392492386400936e-06,0.1627940218858694,-2.635318830995497e-05,0.1627940218858694,-1.460282134593381e-05
0.1635881390658005,-8.560545184088552e-06,0.1635881390658005,-9.567645184088551e-06,0.1635881390658005,-5.857987037168002e-05,0.1635881390658005,-1.174866505651018e-05
0.1643822562457316,-9.9026666445769e-06,0.1643822562457316,-1.0909658304914302e-05,0.1643822562457316,-6.126174981012216e-05,0.1643822562457316,-7.552569965251709e-06
0.1651763734256627,-8.5604676842704e-06,0.1651763734256627,-9.23092158334518e-06,0.1651763734256627,-5.1194e-05,0.1651763734256627,-5.54013378049844e-06
0.1659704906055937,-8.895794901003543e-06,0.1659704906055937,-7.554295488574812e-06,0.1659704906055937,-5.1194e-05,0.1659704906055937,-7.88740431983975e-06
0.1667646077855248,-1.090920504474338e-05,0.1667646077855248,-1.1579610089486763e-05,0.1667646077855248,-5.48848759063067e-05,0.1667646077855248,-1.8493248657698504e-06
0.1675587249654559,-9.232291414020084e-06,0.1675587249654559,-1.6950939464051222e-05,0.1675587249654559,-5.9249288314541615e-05,0.1675587249654559,5.027340196791014e-07
0.1683528421453869,-6.882287180071353e-06,0.1683528421453869,-1.896659955823476e-05,0.1683528421453869,-6.126459955823477e-05,0.1683528421453869,-3.5240291208433257e-06
0.169146959325318,-2.8536463640746813e-06,0.169146959325318,-1.6281537576732822e-05,0.169146959325318,-4.6662848070923344e-05,0.169146959325318,-6.881648029596248e-06
0.1699410765052491,-1.680592488542431e-07,0.1699410765052491,-9.902550119003806e-06,0.1699410765052491,-1.4265194548826994e-05,0.1699410765052491,-1.577810729287211e-05
0.1707351936851801,-2.3496033874024643e-06,0.1707351936851801,-4.19623e-06,0.1707351936851801,6.545587721901079e-06,0.1707351936851801,-1.896683622137284e-05
0.1715293108651112,-1.1744149355322154e-06,0.1715293108651112,-4.196755068769063e-06,0.1715293108651112,4.355482026278366e-06,0.1715293108651112,-1.829717516720466e-05
0.1723234280450423,1.6688294361547606e-07,0.1723234280450423,-5.538063935701634e-06,0.1723234280450423,-1.760838074747507e-05,0.1723234280450423,-2.2321001879048924e-05
0.1731175452249733,5.033557235243605e-07,0.1731175452249733,-7.216558620485625e-06,0.1731175452249733,-4.12773445540022e-05,0.1731175452249733,-2.836303901312873e-05
0.1739116624049044,-1.5097836020273218e-06,0.1739116624049044,-1.2250859000816478e-05,0.1739116624049044,-5.1189789372807686e-05,0.1739116624049044,-2.668871366922906e-05
0.1747057795848355,-1.6822176007446998e-07,0.1747057795848355,-1.5609068093567805e-05,0.1747057795848355,-5.656370894970848e-05,0.1747057795848355,-1.5613075263466155e-05
0.1754998967647666,-2.1817781165264782e-06,0.1754998967647666,-2.030918893583138e-05,0.1754998967647666,-4.8509447538574775e-05,0.1754998967647666,-1.023949835904985e-05
0.1762940139446976,-3.692606303361672e-06,0.1762940139446976,-2.1652493876284424e-05,0.1762940139446976,-2.16518718760303e-05,0.1762940139446976,-8.224497981049325e-06
0.1770881311246287,5.03215368194321e-07,0.1770881311246287,-1.561038807275198e-05,0.1770881311246287,1.9813933710785665e-05,0.1770881311246287,-1.8458410526217705e-06
0.1778822483045598,-1.511269889875703e-06,0.1778822483045598,-1.7960844839504447e-05,0.1778822483045598,6.664197398792123e-05,0.1778822483045598,1.1716855684543242e-06
0.1786763654844909,-3.5245213426008284e-06,0.1786763654844909,-2.09796566900177e-05,0.1786763654844909,8.509280943607786e-05,0.1786763654844909,-9.23556827035847e-06
0.1794704826644219,-2.8538768980298644e-06,0.1794704826644219,-1.762638452268615e-05,0.1794704826644219,7.033841189981907e-05,0.1794704826644219,-1.761873869979199e-05
0.180264599844353,-3.188970815805175e-06,0.180264599844353,-1.7288669184194824e-05,0.180264599844353,3.610485668707725e-05,0.180264599844353,-1.89663232632207e-05
0.181058717024284,-6.880503956213293e-06,0.181058717024284,-1.6617339281984466e-05,0.181058717024284,7.898959804144353e-06,0.181058717024284,-1.628235712793786e-05
0.1818528342042151,-6.88182e-06,0.1818528342042151,-1.2589541173475543e-05,0.1818528342042151,-7.717810467399023e-06,0.1818528342042151,-2.0308958826524453e-05
0.1826469513841462,-3.5250355452580755e-06,0.1826469513841462,-1.1245982218348146e-05,0.1826469513841462,-1.8966311422558857e-05,0.1826469513841462,-1.628164665504444e-05
0.1834410685640773,-3.3570814601544447e-06,0.1834410685640773,-1.2588613034153331e-05,0.1834410685640773,-3.1052998647082225e-05,0.1834410685640773,-1.527461887477111e-05
0.1842351857440083,-4.532165595454444e-06,0.1842351857440083,-1.158191412727259e-05,0.1842351857440083,-4.145895706363629e-05,0.1842351857440083,-1.8966842936363703e-05
0.1850293029239394,-5.53928582402983e-06,0.1850293029239394,-1.2925423311360773e-05,0.1850293029239394,-4.213109535933704e-05,0.1850293029239394,-1.8295344172159807e-05
0.1858234201038705,-6.209930268600793e-06,0.1858234201038705,-1.5608041045226012e-05,0.1858234201038705,-4.447828598751567e-05,0.1858234201038705,-1.7624689738693497e-05
0.1866175372838016,-6.8814287309123245e-06,0.1866175372838016,-1.4603486903631514e-05,0.1866175372838016,-4.263477596085281e-05,0.1866175372838016,-1.5946678172719187e-05
0.1874116544637326,-8.89513345630437e-06,0.1874116544637326,-1.225402263938872e-05,0.1874116544637326,-4.2130419115252654e-05,0.1874116544637326,-1.3596822639388716e-05
0.1882057716436637,-9.567216903722692e-06,0.1882057716436637,-1.1581793096277306e-05,0.1882057716436637,-4.179459654813865e-05,0.1882057716436637,-1.6280627614890773e-05
0.1889998888235948,-7.721328525748065e-06,0.1889998888235948,-9.56769202821609e-06,0.1889998888235948,-3.97805820296163e-05,0.1889998888235948,-1.7624011980255803e-05
0.1897940060035258,-5.706891575190001e-06,0.1897940060035258,-6.88182e-06,0.1897940060035258,-3.5751925382665424e-05,0.1897940060035258,-1.7624187308667287e-05
0.1905881231834569,-8.560362081469136e-06,0.1905881231834569,-6.881872081469134e-06,0.1905881231834569,-3.9109733287991866e-05,0.1905881231834569,-1.5945127103839515e-05
0.191382240363388,-8.895908375328262e-06,0.191382240363388,-7.217113501313045e-06,0.191382240363388,-4.447649396396125e-05,0.191382240363388,-1.2253914622045648e-05
0.192176357543319,-8.55902669382598e-06,0.192176357543319,-5.875172933178149e-06,0.192176357543319,-3.289190800275388e-05,0.192176357543319,-1.5275658799534445e-05
0.1929704747232501,-5.708755340489412e-06,0.1929704747232501,-6.881154583377647e-06,0.1929704747232501,-1.8472937572181176e-05,0.1929704747232501,-1.8293603750132943e-05
0.1937645919031812,-5.874633729154871e-06,0.1937645919031812,-7.217347458309741e-06,0.1937645919031812,-7.223300110645351e-06,0.1937645919031812,-1.5108039171756249e-05
0.1945587090831123,-7.888172012737943e-06,0.1945587090831123,-9.90211601942655e-06,0.1945587090831123,-1.704319576155667e-07,0.1945587090831123,-1.2925199471850129e-05
0.1953528262630433,-4.868291093189317e-06,0.1953528262630433,-1.2923738902434437e-05,0.1953528262630433,1.8458992706965604e-06,0.1953528262630433,-1.0910640731710372e-05
0.1961469434429744,-6.881676528217483e-06,0.1961469434429744,-1.4602780439587649e-05,0.1961469434429744,2.182016087917529e-06,0.1961469434429744,-7.049944987523798e-06
0.1969410606229055,-1.0406482133188426e-05,0.1969410606229055,-1.5274197475519515e-05,0.1969410606229055,1.845955534725198e-06,0.1969410606229055,-9.735477863757524e-06
0.1977351778028366,-7.5528441283863714e-06,0.1977351778028366,-1.3931124128386371e-05,0.1977351778028366,-3.1902676081228943e-06,0.1977351778028366,-1.258907587161363e-05
0.1985292949827676,-5.874470882414644e-06,0.1985292949827676,-1.2253747363887497e-05,0.1985292949827676,-8.226602966656179e-06,0.1985292949827676,-1.42672e-05
0.1993234121626987,-5.203826437843656e-06,0.1993234121626987,-1.4265710664286492e-05,0.1993234121626987,-1.3591828445491492e-05,0.1993234121626987,-1.42672e-05
0.2001175293426297,-4.196826976117815e-06,0.2001175293426297,-1.3931698992039272e-05,0.2001175293426297,-1.35958e-05,0.2001175293426297,-1.695120806368583e-05
0.2009116465225608,-4.867331102326642e-06,0.2009116465225608,-1.6280353858143244e-05,0.2009116465225608,-1.1582496693020076e-05,0.2009116465225608,-1.69528e-05
0.2017057637024919,-3.525229622536302e-06,0.2017057637024919,-1.5274599716902227e-05,0.2017057637024919,-1.2252800188731848e-05,0.2017057637024919,-1.82952003774637e-05
0.202499880882423,-4.19612927513701e-06,0.202499880882423,-1.6281248912705513e-05,0.202499880882423,-1.3763373376559378e-05,0.202499880882423,-1.561040289945196e-05
0.203293998062354,-2.853443276891161e-06,0.203293998062354,-1.594570081922889e-05,0.203293998062354,-9.567420240214718e-06,0.203293998062354,-1.3931504096144456e-05
0.2040881152422851,-3.860773619868564e-06,0.2040881152422851,-1.3595605104105148e-05,0.2040881152422851,-7.888763829530277e-06,0.2040881152422851,-1.4434683301427936e-05
0.2048822324222162,-5.539226531425355e-06,0.2048822324222162,-1.2253196534352584e-05,0.2048822324222162,-6.882262199366087e-06,0.2048822324222162,-1.2252901732823706e-05
0.2056763496021472,-6.210272375546108e-06,0.2056763496021472,-1.29244e-05,0.2056763496021472,-8.39268143668084e-06,0.2056763496021472,-1.1917816663601066e-05
0.2064704667820783,-5.8749451588129415e-06,0.2064704667820783,-1.29244e-05,0.2064704667820783,-8.895672261780588e-06,0.2064704667820783,-1.3091411977690422e-05
0.2072645839620094,-5.539205893945919e-06,0.2072645839620094,-9.736931037024304e-06,0.2072645839620094,-1.0909144610125618e-05,0.2072645839620094,-1.0575819217693829e-05
0.2080587011419405,-3.525588135898531e-06,0.2080587011419405,-1.0909757757823143e-05,0.2080587011419405,-1.325921550811838e-05,0.2080587011419405,-9.56778906418531e-06
0.2088528183218715,-4.1960763744389846e-06,0.2088528183218715,-1.1581446374438985e-05,0.2088528183218715,-1.32601e-05,0.2088528183218715,-1.3594878248922042e-05
0.2096469355018026,-3.0213854427103446e-06,0.2096469355018026,-1.15816e-05,0.2096469355018026,-1.1749522717162168e-05,0.2096469355018026,-1.4602818191266288e-05
0.2104410526817337,-6.5461088631876495e-06,0.2104410526817337,-7.553086358915299e-06,0.2104410526817337,-1.35958e-05,0.2104410526817337,-1.2924489094498798e-05
0.2112351698616647,-6.37837772524092e-06,0.2112351698616647,-5.5388504579318e-06,0.2112351698616647,-1.3595656366345438e-05,0.2112351698616647,-1.4266769099036318e-05
0.2120292870415958,-6.880971551980277e-06,0.2120292870415958,-4.699113363043914e-06,0.2120292870415958,-1.2924157585248482e-05,0.2120292870415958,-1.2253242414751515e-05
0.2128234042215269,-4.53369102374354e-06,0.2128234042215269,-2.854823659906909e-06,0.2128234042215269,-1.2253503151782174e-05,0.2128234042215269,-1.2923896848217823e-05
0.2136175214014579,-5.538422951395885e-06,0.2136175214014579,-5.537411209750048e-06,0.2136175214014579,-1.2253e-05,0.2136175214014579,-1.5272883553257063e-05
0.214411638581389,-5.53903e-06,0.214411638581389,-6.881208779223465e-06,0.214411638581389,-1.3595188774671594e-05,0.214411638581389,-1.52743e-05
0.2152057557613201,-6.210213476817012e-06,0.2152057557613201,-1.0908960848597857e-05,0.2152057557613201,-1.2253413052518083e-05,0.2152057557613201,-1.7287880421222874e-05
0.2159998729412512,-6.881712560146165e-06,0.2159998729412512,-1.4434435948768553e-05,0.2159998729412512,-1.0910414879707668e-05,0.2159998729412512,-1.5610268599634587e-05
0.2167939901211822,-5.203350883497148e-06,0.2167939901211822,-1.4938593734291438e-05,0.2167939901211822,-1.1581591646551372e-05,0.2167939901211822,-1.4267216706897252e-05
0.2175881073011133,-4.868083662079874e-06,0.2175881073011133,-1.5777868056474396e-05,0.2175881073011133,-1.15816e-05,0.2175881073011133,-1.3595981465913068e-05
0.2183822244810444,-8.224230364103733e-06,0.2183822244810444,-1.6281210180638256e-05,0.2183822244810444,-1.1581315270957386e-05,0.2183822244810444,-1.49386e-05
0.2191763416609755,-6.879944483232844e-06,0.2191763416609755,-1.5609134372909662e-05,0.2191763416609755,-1.0573057296778016e-05,0.2191763416609755,-1.4938744271181723e-05
0.2199704588409065,-2.520710643492526e-06,0.2199704588409065,-1.3597171072510731e-05,0.2199704588409065,-7.219805107237158e-06,0.2199704588409065,-1.5274071487914878e-05
0.2207645760208376,-2.349979628340557e-06,0.2207645760208376,-1.35958e-05,0.2207645760208376,-1.1914790417143976e-05,0.2207645760208376,-1.6951903716594428e-05
0.2215586932007686,-3.188815716303665e-06,0.2215586932007686,-1.35958e-05,0.2215586932007686,-1.359515143260733e-05,0.2215586932007686,-1.3093691724322991e-05
0.2223528103806997,-1.5110408513796502e-06,0.2223528103806997,-1.3092320267354655e-05,0.2223528103806997,-1.292456034055186e-05,0.2223528103806997,-1.62806383704379e-05
0.2231469275606308,-3.8603156113989696e-06,0.2231469275606308,-1.527410091946163e-05,0.2231469275606308,-1.5609754983413297e-05,0.2231469275606308,-1.6617069372926664e-05
0.2239410447405619,-6.546176748387762e-06,0.2239410447405619,-1.3259891923141689e-05,0.2239410447405619,-2.4338535070972847e-05,0.2239410447405619,-1.2253113496775523e-05
0.2247351619204929,-7.553083081336284e-06,0.2247351619204929,-9.56768383528813e-06,0.2247351619204929,-3.2058994622004424e-05,0.2247351619204929,-1.426713154066814e-05
0.225529279100424,-6.88134858709634e-06,0.225529279100424,-1.0910671416414358e-05,0.225529279100424,-3.105304283282872e-05,0.225529279100424,-1.3931146437689233e-05
0.2263233962803551,-5.540049709059067e-06,0.2263233962803551,-1.2251980283346976e-05,0.2263233962803551,-3.373566056669395e-05,0.2263233962803551,-1.2925164787489768e-05
0.2271175134602862,-4.868041414060255e-06,0.2271175134602862,-1.2588494292969872e-05,0.2271175134602862,-3.910560868751796e-05,0.2271175134602862,-1.0240445656241018e-05
0.2279116306402172,-5.706479595083019e-06,0.2279116306402172,-1.25887e-05,0.2279116306402172,-4.1793250689379626e-05,0.2279116306402172,-9.567722323003207e-06
0.2287057478201483,-6.881446827812699e-06,0.2287057478201483,-1.1581919861874828e-05,0.2287057478201483,-5.186220141301239e-05,0.2287057478201483,-7.55385972057359e-06
0.2294998650000794,-6.88182e-06,0.2294998650000794,-1.3259814612888246e-05,0.2294998650000794,-5.555747214835414e-05,0.2294998650000794,-6.881934154844701e-06
0.2302939821800104,-7.217512465780241e-06,0.2302939821800104,-1.2253022602659276e-05,0.2302939821800104,-4.951563561595565e-05,0.2302939821800104,-5.03552143798424e-06
0.2310880993599415,-8.895757947354313e-06,0.2310880993599415,-1.35958209982345e-05,0.2310880993599415,-3.5750807766446025e-05,0.2310880993599415,-6.882324105291372e-06
0.2318822165398726,-6.88182e-06,0.2318822165398726,-1.37643324174835e-05,0.2318822165398726,-2.7020541463238425e-05,0.2318822165398726,-1.0912031043708746e-05
0.2326763337198036,-6.88266550325959e-06,0.2326763337198036,-1.6450256905310322e-05,0.2326763337198036,-1.5432729013585194e-05,0.2326763337198036,-1.7627018316213745e-05
0.2334704508997347,-8.894618814763173e-06,0.2334704508997347,-1.8965260975285702e-05,0.2334704508997347,6.866401043530096e-06,0.2334704508997347,-2.4333462761923384e-05
0.2342645680796658,-7.218433065442938e-06,0.2342645680796658,-2.098010431494071e-05,0.2342645680796658,3.8084816946858655e-05,0.2342645680796658,-2.031199131572055e-05
0.2350586852595969,-6.37860267743489e-06,0.2350586852595969,-2.2323367755744022e-05,0.2350586852595969,5.890684963925458e-05,0.2350586852595969,-1.1585059845322855e-05
0.2358528024395279,-6.210461763885683e-06,0.2358528024395279,-1.963906819728924e-05,0.2358528024395279,2.80384845300838e-05,0.2358528024395279,-1.0239134111085457e-05
0.236646919619459,-8.560072109030948e-06,0.236646919619459,-1.0239751567925609e-05,0.236646919619459,-2.7018126561091923e-05,0.236646919619459,-5.203839765494528e-06
0.2374410367993901,-6.881664414125263e-06,0.2374410367993901,-3.5246744145423853e-06,0.2374410367993901,-4.5150730983380407e-05,0.2374410367993901,1.6742891878706773e-07
0.2382351539793211,-3.5250253055092734e-06,0.2382351539793211,-1.6810940560033992e-07,0.2382351539793211,-3.0716725509182125e-05,0.2382351539793211,-8.897995594375226e-06
0.2390292711592522,-4.532273502494261e-06,0.2390292711592522,-1.5109835024942608e-06,0.2390292711592522,-3.240360202907985e-05,0.2390292711592522,-1.913531527079543e-05
0.2398233883391833,-5.538255152693724e-06,0.2398233883391833,-2.516965152693724e-06,0.2398233883391833,-5.788837061184616e-05,0.2398233883391833,-2.0644337690571355e-05
0.2406175055191144,-6.545492812651036e-06,0.2406175055191144,-3.524202812651036e-06,0.2406175055191144,-7.568891964242245e-05,0.2406175055191144,-1.2593717548613468e-05
0.2414116226990454,-2.5196542463718246e-06,0.2414116226990454,-7.886836232305205e-06,0.2414116226990454,-6.328510224143084e-05,0.2414116226990454,1.1683996542696778e-06
0.2422057398789765,-1.5109699343611306e-06,0.2422057398789765,-1.3593930375229676e-05,0.2422057398789765,7.865594733486532e-06,0.2422057398789765,5.037679536198868e-07
0.2429998570589076,-8.3936686875541e-07,0.2429998570589076,-2.1818919353515605e-05,0.2429998570589076,0.0001163004795233,0.2429998570589076,-2.5676186103776835e-05
0.2437939742388386,3.86037751676598e-06,0.2437939742388386,-2.9205560382265767e-05,0.2437939742388386,0.0002066190701707,0.2437939742388386,-5.8242643506870805e-05
0.2445880914187697,9.232096513722743e-06,0.2445880914187697,-2.601663865148741e-05,0.2445880914187697,0.0002321284679331,0.2445880914187697,-6.059236315240284e-05
0.2453822085987008,1.2589405557520027e-05,0.2453822085987008,-2.6352564584070007e-05,0.2453822085987008,0.0001753835673886,0.2453822085987008,-4.984873057495178e-05
0.2461763257786318,1.527237409507661e-05,0.2461763257786318,-2.735713020397237e-05,0.2461763257786318,0.0001052233920132,0.2461763257786318,-4.044812331942799e-05
0.2469704429585629,1.0577793060812285e-05,0.2469704429585629,-2.182428107235185e-05,0.2469704429585629,6.230220749409271e-05,0.2469704429585629,-3.1729615684365673e-05
0.247764560138494,2.5222032979685785e-06,0.247764560138494,-9.909701966656688e-06,0.247764560138494,2.93918251684572e-05,0.247764560138494,-2.031612298144961e-05
0.2485586773184251,-4.193501442804202e-06,0.2485586773184251,-3.527422128726407e-06,0.2485586773184251,-1.4980886458401376e-06,0.2485586773184251,-5.880586416055763e-06
0.2493527944983561,-8.559180496707994e-06,0.2493527944983561,-2.1823875384790085e-06,0.2493527944983561,-1.762002951754644e-05,0.2493527944983561,-7.552785573666012e-06
0.2501469116782872,-8.895972657935794e-06,0.2501469116782872,-2.853365315871589e-06,0.2501469116782872,-3.340024493410598e-05,0.2501469116782872,-4.196603419529691e-06
0.2509410288582183,-8.89601e-06,0.2509410288582183,-4.196327608743546e-06,0.2509410288582183,-4.867670263393184e-05,0.2509410288582183,-3.3593592118064137e-07
0.2517351460381494,-8.896380464206742e-06,0.2517351460381494,-6.882313952888747e-06,0.2517351460381494,-5.975655365925022e-05,0.2517351460381494,-6.882375695390478e-06
0.2525292632180804,-1.0909310822836909e-05,0.2525292632180804,-9.569855242992609e-06,0.2525292632180804,-7.201107901701454e-05,0.2525292632180804,-9.90232197370708e-06
0.2533233803980115,-8.226703077867019e-06,0.2533233803980115,-1.6947044022226662e-05,0.2533233803980115,-8.34122043859418e-05,0.2533233803980115,-7.555051434365688e-06
0.2541174975779426,-4.869754207554482e-06,0.2541174975779426,-2.198511366968508e-05,0.2541174975779426,-9.885342865031156e-05,0.2541174975779426,-1.5144635837224414e-06
0.2549116147578736,-8.222981221519687e-06,0.2549116147578736,-1.4270946212823532e-05,0.2549116147578736,-0.0001075867653447,0.2549116147578736,5.871136685402544e-06
0.2557057319378047,-9.566956657536755e-06,0.2557057319378047,-9.568996695245251e-06,0.2557057319378047,-0.000105241793383,0.2557057319378047,8.559403318449614e-06
0.2564998491177358,-1.040654051136586e-05,0.2564998491177358,-9.06395568861981e-06,0.2564998491177358,-0.0001022205740747,0.2564998491177358,3.861423089984333e-06
0.2572939662976669,-1.3595664634621364e-05,0.2572939662976669,-9.56738862618406e-06,0.2572939662976669,-9.315668472019766e-05,0.2572939662976669,-2.8531550170608617e-06
0.2580880834775979,-1.1245829412016046e-05,0.2580880834775979,-9.231657059012034e-06,0.2580880834775979,-7.737744118024067e-05,0.2580880834775979,-1.158174117596791e-05
0.258882200657529,-1.0574754511583744e-05,0.258882200657529,-8.728372092986453e-06,0.258882200657529,-6.730240979359684e-05,0.258882200657529,-1.2924909023167488e-05
0.2596763178374601,-1.1582807902286942e-05,0.2596763178374601,-9.569087618077466e-06,0.2596763178374601,-4.715674208987532e-05,0.2596763178374601,-1.4937660520443489e-05
0.2604704350173911,-1.4600752852885331e-05,0.2604704350173911,-1.3760617893869824e-05,0.2604704350173911,-2.5025245674440564e-05,0.2604704350173911,-1.2590370003311408e-05
0.2612645521973222,-1.0576771950009273e-05,0.2612645521973222,-1.4434621341665122e-05,0.2612645521973222,-1.6286322501955096e-05,0.2612645521973222,-1.225318932916744e-05
0.2620586693772533,-6.547797423249713e-06,0.2620586693772533,-1.695175158444384e-05,0.2620586693772533,-2.7858177405034063e-05,0.2620586693772533,-1.3091850555908042e-05
0.2628527865571843,-6.881729757237768e-06,0.2628527865571843,-2.29936756571618e-05,0.2628527865571843,-3.809904760919293e-05,0.2628527865571843,-1.3595664622415669e-05
0.2636469037371154,-8.560106503414125e-06,0.2636469037371154,-2.1988422086555164e-05,0.2636469037371154,-4.3472348807045584e-05,0.2636469037371154,-9.567898393503431e-06
0.2644410209170465,-9.90307346933451e-06,0.2644410209170465,-1.6952640814426428e-05,0.2644410209170465,-3.57513738045601e-05,0.2644410209170465,-8.896116123452277e-06
0.2652351380969776,-8.896301932488527e-06,0.2652351380969776,-1.0909966454357027e-05,0.2652351380969776,-1.577546454183104e-05,0.2652351380969776,-1.2924108065772216e-05
0.2660292552769086,-1.0573314269264289e-05,0.2660292552769086,-9.568703528233814e-06,0.2660292552769086,-2.3506984539419976e-06,0.2660292552769086,-1.1246870148583632e-05
0.2668233724568397,-6.884734862990019e-06,0.2668233724568397,-1.3592620140136604e-05,0.2668233724568397,-4.865642590545487e-06,0.2668233724568397,-1.4264815099182234e-05
0.2676174896367708,-4.868924670670894e-06,0.2676174896367708,-1.560870532290136e-05,0.2676174896367708,-1.4932126633790033e-05,0.2676174896367708,-1.393171577951644e-05
0.2684116068167018,-6.209755059696585e-06,0.2684116068167018,-1.4603398708941507e-05,0.2684116068167018,-2.5675580487476532e-05,0.2684116068167018,-1.493810129105849e-05
0.2692057239966329,-5.539263382746353e-06,0.2692057239966329,-1.1918233544889862e-05,0.2692057239966329,-2.937231637577644e-05,0.2692057239966329,-1.4603016693111232e-05
0.269999841176564,-5.53903e-06,0.269999841176564,-8.560981497086228e-06,0.269999841176564,-2.903796714990865e-05,0.269999841176564,-1.4267267149908653e-05
0.270793958356495,-4.867665213412097e-06,0.270793958356495,-3.52509409954177e-06,0.270793958356495,-2.584896726108507e-05,0.270793958356495,-1.191742324694234e-05
0.2715880755364261,-6.88182e-06,0.2715880755364261,-2.517516445380317e-06,0.2715880755364261,-2.299504451754096e-05,0.2715880755364261,-1.829582355547589e-05
0.2723821927163572,-6.88182e-06,0.2723821927163572,-1.671971650767861e-07,0.2723821927163572,-2.030963704060173e-05,0.2723821927163572,-2.0645581479699135e-05
0.2731763098962882,-6.883390289320568e-06,0.2731763098962882,2.518263428474167e-06,0.2731763098962882,-1.9639773990486783e-05,0.2731763098962882,-2.098146171618612e-05
0.2739704270762193,-1.090729691232745e-05,0.2739704270762193,3.859562306511347e-06,0.2739704270762193,-2.316065982170793e-05,0.2739704270762193,-2.1652116149652374e-05
0.2747645442561504,-6.884132228474359e-06,0.2747645442561504,7.88659777152564e-06,0.2747645442561504,-2.6350469505402272e-05,0.2747645442561504,-1.9639556119977027e-05
0.2755586614360815,-6.88182e-06,0.2755586614360815,9.566694282698711e-06,0.2755586614360815,-2.467451571730129e-05,0.2755586614360815,-1.6282831434602574e-05
0.2763527786160125,-5.539404398242497e-06,0.2763527786160125,3.862121198804085e-06,0.2763527786160125,-1.1585250382167284e-05,0.2763527786160125,-1.3596548802061416e-05
0.2771468957959436,-4.867718114110099e-06,0.2771468957959436,-1.509935091056388e-06,0.2771468957959436,9.228978474398469e-06,0.2771468957959436,-5.875733309641355e-06
0.2779410129758747,-4.196221770778704e-06,0.2779410129758747,-6.8820065286892005e-06,0.2779410129758747,2.0981150624672224e-05,0.2779410129758747,-8.392295416391196e-07
0.2787351301558057,-3.692322310863519e-06,0.2787351301558057,-1.8296590511909582e-05,0.2787351301558057,1.796001005870022e-05,0.2787351301558057,1.670235631907389e-07
0.2795292473357368,-1.5098044781029783e-06,0.2795292473357368,-2.43381e-05,0.2795292473357368,1.8631874410026314e-05,0.2795292473357368,-4.872538718367487e-06
0.2803233645156679,1.1727932779715674e-06,0.2803233645156679,-2.43381e-05,0.2803233645156679,2.047612415758194e-05,0.2803233645156679,-2.063288793813972e-05
0.2811174816955989,1.8459017259762751e-06,0.2811174816955989,-3.0376755533786472e-05,0.2811174816955989,2.3664618231026125e-05,0.2811174816955989,-3.138078768089803e-05
0.2819115988755301,-1.8444744782020464e-06,0.2819115988755301,-3.1051760812381484e-05,0.2819115988755301,2.266010878142777e-05,0.2819115988755301,-3.239439121857222e-05
0.2827057160554611,-1.6844924981487617e-07,0.2827057160554611,-2.736072055667346e-05,0.2827057160554611,1.5276941077585645e-05,0.2827057160554611,-2.870352055667346e-05
0.2834998332353922,-1.67849e-07,0.2834998332353922,-2.366747558144482e-05,0.2834998332353922,3.862927245437597e-06,0.2834998332353922,-2.1654080634482465e-05
0.2842939504153233,-8.392040717844069e-07,0.2842939504153233,-2.36667e-05,0.2842939504153233,-1.51030457464995e-06,0.2842939504153233,-1.6617414463022056e-05
0.2850880675952543,-8.390745271851957e-07,0.2850880675952543,-2.467371426299667e-05,0.2850880675952543,-6.21093442031733e-06,0.2850880675952543,-1.2252571316686e-05
0.2858821847751854,1.17494e-06,0.2858821847751854,-2.366560631241977e-05,0.2858821847751854,-1.2254015588647975e-05,0.2858821847751854,-7.218379339586308e-06
0.2866763019551165,1.17468499339674e-06,0.2866763019551165,-1.8966489980716395e-05,0.2866763019551165,-1.6618821296091278e-05,0.2866763019551165,-1.0912240077134416e-05
0.2874704191350475,5.040385510467068e-07,0.2874704191350475,-1.762518111378378e-05,0.2874704191350475,-2.114568877751214e-05,0.2874704191350475,-1.627747554486489e-05
0.2882645363149786,-1.844967697899851e-06,0.2882645363149786,-1.15851287948491e-05,0.2882645363149786,-3.976941957841459e-05,0.2882645363149786,-1.7623415823366866e-05
0.2890586534949096,-1.84634e-06,0.2890586534949096,-2.8572490073921e-06,0.2890586534949096,-4.04514069980886e-05,0.2890586534949096,-1.292645101337984e-05
0.2898527706748408,-6.880365639479967e-06,0.2898527706748408,8.381794687594276e-07,0.2898527706748408,-2.434275397214875e-05,0.2898527706748408,-1.29244e-05
0.2906468878547718,-8.224420343210429e-06,0.2906468878547718,4.531408442204408e-06,0.2906468878547718,-7.723417003300604e-06,0.2906468878547718,-1.7959188781742573e-05
0.2914410050347029,-7.217539157741949e-06,0.2914410050347029,7.217490198997624e-06,0.2914410050347029,-1.678319708530677e-07,0.2914410050347029,-1.9302693614043743e-05
0.292235122214634,-1.023854164226578e-05,0.292235122214634,2.516577387887174e-06,0.292235122214634,2.519522665133734e-06,0.292235122214634,-1.829541914081245e-05
0.293029239394565,-8.559400216337705e-06,0.293029239394565,-5.037249026464467e-06,0.293029239394565,1.4104101652724631e-05,0.293029239394565,-1.7120549471184883e-05
0.2938233565744961,-5.541475243530004e-06,0.2938233565744961,-1.0905445352608634e-05,0.2938233565744961,3.0032094503072742e-05,0.2938233565744961,-1.6952935807295034e-05
0.2946174737544272,1.170490129737643e-06,0.2946174737544272,-1.0574722494507283e-05,0.2946174737544272,4.480591030795726e-05,0.2946174737544272,-1.091420490113112e-05
0.2954115909343582,5.201254589495511e-06,0.2954115909343582,-1.3594243438257664e-05,0.2954115909343582,5.152624097390592e-05,0.2954115909343582,-1.158125409739059e-05
0.2962057081142893,5.20333e-06,0.2962057081142893,-1.4938106367591504e-05,0.2962057081142893,3.441539377644689e-05,0.2962057081142893,-1.8293131837957525e-05
0.2969998252942204,3.189583187196653e-06,0.2969998252942204,-1.6952356810603023e-05,0.2969998252942204,1.2593501196464012e-05,0.2969998252942204,-2.517588578056195e-05
0.2977939424741515,-1.8459751759952748e-06,0.2977939424741515,-1.8295502713212336e-05,0.2977939424741515,-1.0908497488460955e-05,0.2977939424741515,-1.997447698267966e-05
0.2985880596540825,-4.3642691605411725e-06,0.2985880596540825,-1.66171e-05,0.2985880596540825,-2.6688933195709583e-05,0.2985880596540825,-9.567056900423318e-06
0.2993821768340136,-6.882567642628661e-06,0.2993821768340136,-1.6617174764708293e-05,0.2993821768340136,-3.911076909543601e-05,0.2993821768340136,-4.867031884560794e-06
0.3001762940139447,-1.023929660619488e-05,0.3001762940139447,-1.6954351875867562e-05,0.3001762940139447,-4.750341057632824e-05,0.3001762940139447,-2.1822883030974404e-06
0.3009704111938757,-1.15806054731275e-05,0.3009704111938757,-2.1145892140555267e-05,0.3009704111938757,-5.320397326079188e-05,0.3009704111938757,-2.8529427365637494e-06
0.3017645283738068,-1.15816e-05,0.3017645283738068,-2.26587027222576e-05,0.3017645283738068,-5.08596958115761e-05,0.3017645283738068,-1.8469382049611869e-06
0.3025586455537379,-1.1917150141548877e-05,0.3025586455537379,-1.9304198539870664e-05,0.3025586455537379,-4.7838348726060126e-05,0.3025586455537379,-8.892862985918553e-06
0.3033527627336689,-1.3259698739005917e-05,0.3033527627336689,-1.5611103467733733e-05,0.3033527627336689,-4.649460126099408e-05,0.3033527627336689,-2.0977588654041485e-05
0.3041468799136,-1.1917503088183762e-05,0.3041468799136,-1.3596104632275642e-05,0.3041468799136,-4.011696465374864e-05,0.3041468799136,-2.09812e-05
0.3049409970935311,-9.063870445131758e-06,0.3049409970935311,-1.2924402457686674e-05,0.3049409970935311,-2.568095284026348e-05,0.3049409970935311,-2.232389508499271e-05
0.3057351142734621,-8.896203255997856e-06,0.3057351142734621,-9.903051687079945e-06,0.3057351142734621,-2.2996338765920302e-05,0.3057351142734621,-2.299418878412898e-05
0.3065292314533932,-1.0238604533970212e-05,0.3065292314533932,-9.5670190621177e-06,0.3065292314533932,-3.0215294479972265e-05,0.3065292314533932,-1.5273420389764826e-05
0.3073233486333243,-9.567960089399202e-06,0.3073233486333243,-8.225710195184989e-06,0.3073233486333243,-3.84307613454584e-05,0.3073233486333243,-1.2255475439166224e-05
0.3081174658132554,-6.548152661296777e-06,0.3081174658132554,-6.211775105288588e-06,0.3081174658132554,-5.0682256435539314e-05,0.3081174658132554,-1.024015511201638e-05
0.3089115829931864,-5.707310772000375e-06,0.3089115829931864,-2.184155695097846e-06,0.3089115829931864,-5.823973307825651e-05,0.3089115829931864,-4.87045092504647e-06
0.3097057001731175,-7.552522789213627e-06,0.3097057001731175,8.381051149089195e-07,0.3097057001731175,-6.495516468804955e-05,0.3097057001731175,-4.532056765597522e-06
0.3104998173530486,-9.231323890325632e-06,0.3104998173530486,-1.6761733396534426e-07,0.3104998173530486,-6.66358138880253e-05,0.3104998173530486,-5.203175555210117e-06
0.3112939345329796,-8.560365358384723e-06,0.3112939345329796,-8.895290344214237e-06,0.3112939345329796,-5.4887668771732645e-05,0.3112939345329796,-6.881681604862714e-06
0.3120880517129107,-9.567344407969202e-06,0.3120880517129107,-1.2924793552184786e-05,0.3120880517129107,-2.030717632528105e-05,0.3120880517129107,-9.56693992573317e-06
0.3128821688928418,-8.56031e-06,0.3128821688928418,-1.8968142494134404e-05,0.3128821688928418,1.9980740828252437e-05,0.3128821688928418,-2.3487117852422628e-06
0.3136762860727728,-8.558739629601787e-06,0.3136762860727728,-2.433797920172346e-05,0.3136762860727728,5.11946039913827e-05,0.3136762860727728,3.18914e-06
0.314470403252704,-4.199505789861164e-06,0.314470403252704,-2.4002651984990283e-05,0.314470403252704,5.287124007504859e-05,0.314470403252704,3.18914e-06
0.315264520432635,-3.1897482714075614e-06,0.315264520432635,-2.3666902759149156e-05,0.315264520432635,4.045920202811967e-05,0.315264520432635,1.1761565548949051e-06
0.3160586376125661,-8.403185088873848e-07,0.3160586376125661,-2.0479055528671828e-05,0.3160586376125661,3.47474046710913e-05,0.3160586376125661,-4.864872126654375e-06
0.3168527547924971,3.859078588996282e-06,0.3168527547924971,-2.2994522469861527e-05,0.3168527547924971,3.8100763272560334e-05,0.3168527547924971,-1.292191186340957e-05
0.3176468719724282,5.874395224364263e-06,0.3176468719724282,-2.2324008259082727e-05,0.3176468719724282,3.81018e-05,0.3176468719724282,-1.1078397704415303e-05
0.3184409891523593,3.5248621042346917e-06,0.3184409891523593,-1.963843668934387e-05,0.3184409891523593,2.2659810971582905e-05,0.3184409891523593,-2.16524555310122e-05
0.3192351063322903,2.8529454763728385e-06,0.3192351063322903,-1.6280770603906495e-05,0.3192351063322903,2.1808711268974274e-06,0.3192351063322903,-3.407304034508942e-05
0.3200292235122214,-8.392931917237986e-07,0.3200292235122214,-1.158197752479367e-05,0.3200292235122214,-6.546403143595252e-06,0.3200292235122214,-3.138732809400791e-05
0.3208233406921525,-1.006960795648514e-06,0.3208233406921525,-1.2923286391726287e-05,0.3208233406921525,-7.552384793794716e-06,0.3208233406921525,-2.971069201034214e-05
0.3216174578720835,-8.393606074802108e-07,0.3216174578720835,-1.29244e-05,0.3216174578720835,-1.9630148471721296e-05,0.3216174578720835,-2.9038358418996348e-05
0.3224115750520147,-1.5102806706200973e-06,0.3224115750520147,-1.2253359332591097e-05,0.3224115750520147,-3.373015406910687e-05,0.3224115750520147,-2.6353737330364384e-05
0.3232056922319457,-2.1817797538140645e-06,0.3232056922319457,-1.3595279507628129e-05,0.3232056922319457,-3.4408839753814066e-05,0.3232056922319457,-2.299660123092968e-05
0.3239998094118768,-3.188898260328838e-06,0.3239998094118768,-1.0239605798903872e-05,0.3239998094118768,-2.165566201183118e-05,0.3239998094118768,-1.846448781651846e-05
0.3247939265918079,-2.3499675917194586e-06,0.3247939265918079,-7.553468291653195e-06,0.3247939265918079,1.844167437402374e-06,0.3247939265918079,-1.6952939660472346e-05
0.3255880437717389,-1.510584480896564e-06,0.3255880437717389,-6.21042e-06,0.3255880437717389,3.0045e-05,0.3255880437717389,-1.594568149348518e-05
0.32638216095167,-5.03548e-07,0.32638216095167,-6.21113452000561e-06,0.32638216095167,3.004071289010184e-05,0.32638216095167,-1.5609455602260795e-05
0.3271762781316011,-5.03548e-07,0.3271762781316011,-9.733909385948118e-06,0.3271762781316011,8.886262096122882e-06,0.3271762781316011,-1.2924752335013146e-05
0.3279703953115321,-5.03548e-07,0.3279703953115321,-5.877656382412186e-06,0.3279703953115321,-1.894580699267084e-05,0.3279703953115321,-1.393073398521261e-05
0.3287645124914632,-4.361709669639242e-06,0.3287645124914632,-4.532754460438386e-06,0.3287645124914632,-4.379344742970066e-05,0.3287645124914632,-1.627995718348799e-05
0.3295586296713942,-6.880645703849144e-06,0.3295586296713942,-2.854222862545874e-06,0.3295586296713942,-5.622370682928716e-05,0.3295586296713942,-1.7288030279674023e-05
0.3303527468513254,-9.23096079151255e-06,0.3303527468513254,-2.182254060478777e-06,0.3303527468513254,-5.253797733263328e-05,0.3303527468513254,-1.510709571249738e-05
0.3311468640312564,-1.4601980209123524e-05,0.3311468640312564,-6.209730158983207e-06,0.3311468640312564,-4.381019464583249e-05,0.3311468640312564,-1.3596058683103371e-05
0.3319409812111875,-1.292443971917102e-05,0.3319409812111875,-8.22456233723141e-06,0.3319409812111875,-3.508070653968931e-05,0.3319409812111875,-1.35958e-05
0.3327350983911186,-1.3595966397473596e-05,0.3327350983911186,-8.8958852018948e-06,0.3327350983911186,-2.63521336025264e-05,0.3327350983911186,-1.0910366397473595e-05
0.3335292155710496,-1.4937871776590108e-05,0.3335292155710496,-7.88918308377871e-06,0.3335292155710496,-2.5009864111704944e-05,0.3335292155710496,-1.2252817944147528e-05
0.3343233327509807,-1.225525404272487e-05,0.3343233327509807,-8.895164733978173e-06,0.3343233327509807,-2.6351172978637564e-05,0.3343233327509807,-1.1582163510681217e-05
0.3351174499309118,-9.56927052902096e-06,0.3351174499309118,-1.1915206903985444e-05,0.3351174499309118,-2.60168325669936e-05,0.3351174499309118,-3.530411587062877e-06
0.3359115671108428,-9.902916981661013e-06,0.3359115671108428,-1.2252816976209003e-05,0.3359115671108428,-2.769418488104503e-05,0.3359115671108428,3.856503498406155e-06
0.3367056842907739,-8.72862717808326e-06,0.3367056842907739,-1.426639911646952e-05,0.3367056842907739,-2.970849911646952e-05,0.3367056842907739,-1.5085043225139468e-06
0.337499801470705,-8.895968031307095e-06,0.337499801470705,-1.393158393738581e-05,0.337499801470705,-3.272984456352772e-05,0.337499801470705,-1.1579081888427192e-05
0.338293918650636,-7.889013182549618e-06,0.338293918650636,-1.2253171970916028e-05,0.338293918650636,-3.071660636509923e-05,0.338293918650636,-1.76235809047023e-05
0.3390880358305671,-7.721032127451562e-06,0.3390880358305671,-1.3260054552941876e-05,0.3390880358305671,-2.98772984663696e-05,0.3390880358305671,-2.232386970647392e-05
0.3398821530104982,-6.88182e-06,0.3398821530104982,-1.2252773586858495e-05,0.3398821530104982,-3.205877951019256e-05,0.3398821530104982,-2.165298813406103e-05
0.3406762701904293,-6.881477724803325e-06,0.3406762701904293,-1.107781475367633e-05,0.3406762701904293,-2.9875089285960733e-05,0.3406762701904293,-2.366784091732225e-05
0.3414703873703603,-5.8754960746039335e-06,0.3414703873703603,-1.0239446767366776e-05,0.3414703873703603,-2.3671485831921084e-05,0.3414703873703603,-2.702111308465356e-05
0.3422645045502914,-4.868258416180064e-06,0.3422645045502914,-8.225866838600049e-06,0.3422645045502914,-2.38344952317304e-05,0.3422645045502914,-2.70237e-05
0.3430586217302225,-4.532089930937415e-06,0.3430586217302225,-8.392380034531293e-06,0.3430586217302225,-2.6351100541789902e-05,0.3430586217302225,-2.0984078709232434e-05
0.3438527389101535,-1.5116334863252217e-06,0.3438527389101535,-1.1244961707542194e-05,0.3438527389101535,-2.9037016898121327e-05,0.3438527389101535,-1.4940586979227012e-05
0.3446468560900846,-8.393676879769801e-07,0.3446468560900846,-1.2252817466403307e-05,0.3446468560900846,-3.172301324374216e-05,0.3446468560900846,-1.3763812964925142e-05
0.3454409732700157,-3.0212165415594184e-06,0.3454409732700157,-1.0238867807977757e-05,0.3454409732700157,-2.433834862925178e-05,0.3454409732700157,-1.225305085430007e-05
0.3462350904499467,-4.532159450098556e-06,0.3462350904499467,-1.1581752967491815e-05,0.3462350904499467,-1.0573161541281616e-05,0.3462350904499467,-6.378212637190569e-06
0.3470292076298778,-6.545769303995379e-06,0.3470292076298778,-1.2924575349308158e-05,0.3470292076298778,1.1774825545215129e-06,0.3470292076298778,-5.875333719966859e-06
0.3478233248098089,-5.2044704259581066e-06,0.3478233248098089,-1.3595229782774467e-05,0.3478233248098089,1.0901931884201611e-05,0.3478233248098089,-8.222614248203594e-06
0.34861744198974,-3.526009622445098e-06,0.34861744198974,-1.35958e-05,0.34861744198974,1.5942161132664704e-05,0.34861744198974,-9.56646630204392e-06
0.349411559169671,-6.208928955260506e-06,0.349411559169671,-1.426682723742712e-05,0.349411559169671,1.1751729793840588e-05,0.349411559169671,-1.5606645142396115e-05
0.3502056763496021,-7.217109485748494e-06,0.3502056763496021,-1.7622831619161645e-05,0.3502056763496021,9.903852589080089e-06,0.3502056763496021,-1.7958942133413154e-05
0.3509997935295332,-4.197015651330699e-06,0.3509997935295332,-2.0309101640950147e-05,0.3509997935295332,1.62797413972566e-05,0.3509997935295332,-2.1316027051187683e-05
0.3517939107094642,-2.18226650894734e-06,0.3517939107094642,-2.1316786744964045e-05,0.3517939107094642,1.7959711241606746e-05,0.3517939107094642,-1.9302926510071903e-05
0.3525880278893953,-4.196206416952095e-06,0.3525880278893953,-2.36665643992308e-05,0.3525880278893953,8.89578596209865e-06,0.3525880278893953,-1.527417029323652e-05
0.3533821450693264,-3.52483e-06,0.3533821450693264,-1.9806230676498627e-05,0.3533821450693264,2.516022634964689e-06,0.3533821450693264,-1.1579637297154704e-05
0.3541762622492574,-3.524608526378645e-06,0.3541762622492574,-1.9973103353859603e-05,0.3541762622492574,-6.884588454903632e-06,0.3541762622492574,-8.384154661678966e-07
0.3549703794291886,-2.853964081807634e-06,0.3549703794291886,-1.6955158403261004e-05,0.3549703794291886,-1.5267748895442392e-05,0.3549703794291886,1.6765246748774553e-06
0.3557644966091196,-8.405229860086817e-07,0.3557644966091196,-1.4939876989812644e-05,0.3557644966091196,-1.628076150509368e-05,0.3557644966091196,-8.376497716101062e-07
0.3565586137890507,-8.39246e-07,0.3565586137890507,-1.460306328843286e-05,0.3565586137890507,-9.90620248022434e-06,0.3565586137890507,-2.1813868491870304e-06
0.3573527309689818,-1.5104125115725146e-06,0.3573527309689818,-1.8965521312006972e-05,0.3573527309689818,-9.735316869226817e-06,0.3573527309689818,-4.195547532006904e-06
0.3581468481489128,-2.1819115959446955e-06,0.3581468481489128,-2.165208638377878e-05,0.3581468481489128,-1.930087024412439e-05,0.3581468481489128,-6.377852688732743e-06
0.3589409653288439,-2.853410682349856e-06,0.3589409653288439,-1.460320783532651e-05,0.3589409653288439,-2.467356546316549e-05,0.3589409653288439,-1.3931170177309211e-05
0.3597350825087749,-2.853300462489966e-06,0.3597350825087749,-8.224121620793187e-06,0.3597350825087749,-2.2994602322841364e-05,0.3597350825087749,-2.1653018602138568e-05
0.360529199688706,-1.51064e-06,0.360529199688706,-3.524661359747964e-06,0.360529199688706,-1.627975573556433e-05,0.360529199688706,-2.567988816853501e-05
0.3613233168686371,-1.51064e-06,0.3613233168686371,-2.854016915177e-06,0.3613233168686371,-9.740884998163162e-06,0.3613233168686371,-2.165606145669061e-05
0.3621174340485681,-1.51064e-06,0.3621174340485681,-6.208027194411052e-06,0.3621174340485681,-1.0238441084151154e-05,0.3621174340485681,-1.963983569190679e-05
0.3629115512284993,-4.194712095397144e-06,0.3629115512284993,-9.230002356615284e-06,0.3629115512284993,-1.2922882089745108e-05,0.3629115512284993,-1.896737947756372e-05
0.3637056684084303,-7.2162582439628995e-06,0.3637056684084303,-8.728370293368886e-06,0.3637056684084303,-1.4937758826524456e-05,0.3637056684084303,-1.762476078231703e-05
0.3644997855883614,-5.539483259182987e-06,0.3644997855883614,-8.895964673811661e-06,0.3644997855883614,-1.158250652376677e-05,0.3644997855883614,-1.309342382058713e-05
0.3652939027682925,-7.552973346180142e-06,0.3652939027682925,-1.0909953346180142e-05,0.3652939027682925,3.187331203688268e-06,0.3652939027682925,-9.567841638980284e-06
0.3660880199482235,-2.853549641868121e-06,0.3660880199482235,-6.881811565971492e-06,0.3660880199482235,6.042582651042761e-06,0.3660880199482235,-1.6617167472228058e-05
0.3668821371281546,-7.21775190719739e-06,0.3668821371281546,-6.545714161109276e-06,0.3668821371281546,6.5444966444371045e-06,0.3668821371281546,-1.9302410113844444e-05
0.3676762543080857,-8.560524770375774e-06,0.3676762543080857,-4.195478306883638e-06,0.3676762543080857,-2.8562320020896742e-06,0.3676762543080857,-1.7625273851878865e-05
0.3684703714880167,-9.231179203842084e-06,0.3684703714880167,-1.8481977786469008e-06,0.3684703714880167,-1.1574699681570313e-05,0.3684703714880167,-2.097854601921041e-05
0.3692644886679478,-5.541408067559845e-06,0.3692644886679478,-3.52374906078552e-06,0.3692644886679478,-2.198159813694253e-05,0.3692644886679478,-1.762636189130886e-05
0.3700586058478789,-8.558810196573727e-06,0.3700586058478789,-6.209086837537876e-06,0.3700586058478789,-4.983736848723524e-05,0.3700586058478789,-7.558219367920197e-06
0.3708527230278099,-1.0238214489859922e-05,0.3708527230278099,-7.552751589097287e-06,0.3708527230278099,-7.367748574136e-05,0.3708527230278099,-1.5127478420855788e-06
0.371646840207741,-1.0910064880953804e-05,0.371646840207741,-8.560107323443204e-06,0.371646840207741,-7.435706488095379e-05,0.371646840207741,-4.531321966304617e-06
0.3724409573876721,-1.09102e-05,0.3724409573876721,-9.567355951038449e-06,0.3724409573876721,-7.804970182047432e-05,0.3724409573876721,-1.628076943039193e-05
0.3732350745676032,-1.124624679570321e-05,0.3732350745676032,-5.706570496498233e-06,0.3732350745676032,-8.476371083870734e-05,0.3732350745676032,-2.064559458064633e-05
0.3740291917475342,-1.493868096810974e-05,0.3740291917475342,-2.5174970956707766e-06,0.3740291917475342,-8.274945709567078e-05,0.3740291917475342,-2.165243806378052e-05
0.3748233089274653,-1.5274008184842896e-05,0.3748233089274653,-1.5115154454713131e-06,0.3748233089274653,-8.174347544547132e-05,0.3748233089274653,-2.098178363031421e-05
0.3756174261073964,-1.1919726394798872e-05,0.3756174261073964,-3.523374170348543e-06,0.3756174261073964,-6.899522030023572e-05,0.3756174261073964,-1.360113806855752e-05
0.3764115432873274,-8.897747860743713e-06,0.3764115432873274,-1.224797951404617e-05,0.3764115432873274,-4.617163048933637e-05,0.3764115432873274,-1.0240730962773068e-05
0.3772056604672585,-7.55379420802258e-06,0.3772056604672585,-2.4332932132073e-05,0.3772056604672585,-2.8374108270196942e-05,0.3772056604672585,-2.6513237697258064e-05
0.3779997776471896,-4.197170095920578e-06,0.3779997776471896,-2.9707795842046417e-05,0.3779997776471896,-1.518160750562138e-06,0.3779997776471896,-2.4506564059232592e-05
0.3787938948271206,2.516850670583414e-06,0.3787938948271206,-2.8534555626720335e-05,0.3787938948271206,4.883743003401169e-05,0.3787938948271206,-8.226766625524081e-06
0.3795880120070517,5.87472e-06,0.3795880120070517,-3.373791321287736e-05,0.3795880120070517,9.852800257979987e-05,0.3795880120070517,-8.056777767865798e-06
0.3803821291869828,5.874993098678446e-06,0.3803821291869828,-4.78372457969458e-05,0.3803821291869828,0.0001317645669811,0.3803821291869828,-9.232857012822434e-06
0.3811762463669139,7.553532092648162e-06,0.3811762463669139,-4.93453592973914e-05,0.3811762463669139,0.0001475347349083,0.3811762463669139,-1.628285644681988e-05
0.3819703635468449,8.559503753952281e-06,0.3819703635468449,-4.180054686537215e-05,0.3819703635468449,0.0001337870182449,0.3819703635468449,-2.097743748108405e-05
0.382764480726776,5.8764763664705e-06,0.382764480726776,-2.837528186505232e-05,0.382764480726776,9.452478695527803e-05,0.382764480726776,-1.2929669119031391e-05
0.3835585979067071,2.5194400241087475e-06,0.3835585979067071,-2.0984940024680025e-05,0.3835585979067071,4.46731453818164e-05,0.3835585979067071,-4.2006500738238665e-06
0.3843527150866381,-8.380414028124239e-07,0.3843527150866381,-9.068136334261563e-06,0.3843527150866381,8.57325941635753e-06,0.3843527150866381,-6.209697242261588e-06
0.3851468322665692,-2.8530144991563875e-06,0.3851468322665692,4.529057873425016e-06,0.3851468322665692,1.1765001680699017e-06,0.3851468322665692,-1.0909207165965745e-05
0.3859409494465003,-6.545884889298312e-06,0.3859409494465003,1.1245472525591765e-05,0.3859409494465003,2.047637101131508e-05,0.3859409494465003,-1.3595629009472673e-05
0.3867350666264313,-1.292414647552002e-05,0.3867350666264313,1.191687746087828e-05,0.3867350666264313,3.877269295104004e-05,0.3867350666264313,-1.7624791548728716e-05
0.3875291838063624,-9.902168626573336e-06,0.3875291838063624,6.880500552385534e-06,0.3875291838063624,3.2723304237637746e-05,0.3875291838063624,-2.467348954064976e-05
0.3883233009862935,-5.8782620035658905e-06,0.3883233009862935,1.1799578457121989e-06,0.3883233009862935,1.20268570925385e-06,0.3883233009862935,-2.333218067371705e-05
0.3891174181662246,-6.210174003024667e-06,0.3891174181662246,-2.1795800449024343e-06,0.3891174181662246,-3.404757043483616e-05,0.3891174181662246,-1.7628381875301842e-05
0.3899115353461556,-6.881427092454542e-06,0.3899115353461556,-5.201561921897503e-06,0.3899115353461556,-6.057808021047506e-05,0.3899115353461556,-1.695319290754546e-05
0.3907056525260867,-4.365181824899692e-06,0.3907056525260867,-5.538883089429876e-06,0.3907056525260867,-7.871336687297571e-05,0.3907056525260867,-1.29261629268415e-05
0.3914997697060178,-3.189480782885978e-06,0.3914997697060178,-9.56624159739032e-06,0.3914997697060178,-9.21453053343025e-05,0.3914997697060178,-1.3595605265264913e-05
0.3922938868859488,-2.8534878241649408e-06,0.3922938868859488,-1.2252617408105084e-05,0.3922938868859488,-8.442929994154753e-05,0.3922938868859488,-1.896623481336095e-05
0.3930880040658799,-4.867652347387207e-06,0.3930880040658799,-1.3260094842887011e-05,0.3930880040658799,-5.925069342017696e-05,0.3930880040658799,-1.6281406876150653e-05
0.393882121245811,-9.23135116584532e-06,0.393882121245811,-1.2253307573441462e-05,0.393882121245811,-3.843639786946989e-05,0.393882121245811,-1.7625122705054134e-05
0.394676238425742,-6.8822227115750336e-06,0.394676238425742,-1.4267099321356475e-05,0.394676238425742,-3.1222063897196935e-05,0.394676238425742,-2.3665995279485988e-05
0.3954703556056732,-8.2235215896124e-06,0.3954703556056732,-1.3931772104623298e-05,0.3954703556056732,-3.809622189575036e-05,0.3954703556056732,-2.131880465130719e-05
0.3962644727856042,-5.876280322212131e-06,0.3962644727856042,-1.4099188581139037e-05,0.3962644727856042,-5.789484872321772e-05,0.3962644727856042,-1.5278312274191143e-05
0.3970585899655353,-6.210246639080851e-06,0.3970585899655353,-1.6280273128204718e-05,0.3970585899655353,-6.294089958621276e-05,0.3970585899655353,-1.2254560248272348e-05
0.3978527071454664,-5.874843817716546e-06,0.3978527071454664,-1.6616976182283453e-05,0.3978527071454664,-5.9252161994882e-05,0.3978527071454664,-8.561671991193659e-06
0.3986468243253974,-7.217222901944232e-06,0.3986468243253974,-1.326084274513942e-05,0.3986468243253974,-5.790829709805577e-05,0.3986468243253974,-8.224684274513941e-06
0.3994409415053285,-9.902902150982524e-06,0.3994409415053285,-1.6952527955575023e-05,0.3994409415053285,-4.850909247671812e-05,0.3994409415053285,-8.22461e-06
0.4002350586852595,-8.895861129391795e-06,0.4002350586852595,-2.568065188108781e-05,0.4002350586852595,-3.860474173614312e-05,0.4002350586852595,-8.560012258783592e-06
0.4010291758651906,-6.88182e-06,0.4010291758651906,-2.2322043482986337e-05,0.4010291758651906,-3.1051208861215166e-05,0.4010291758651906,-4.532227044049471e-06
0.4018232930451217,-6.88182e-06,0.4018232930451217,-1.3938962953610925e-05,0.4018232930451217,-2.702728226041731e-05,0.4018232930451217,-5.873525922086744e-06
0.4026174102250527,-1.2249010343323714e-05,0.4026174102250527,-9.73837692345654e-06,0.4026174102250527,-3.440361420164339e-05,0.4026174102250527,-9.564667108249592e-06
0.4034115274049838,-9.904498678877055e-06,0.4034115274049838,-8.22550915070668e-06,0.4034115274049838,-3.5080100377463695e-05,0.4034115274049838,-1.7283904346784606e-05
0.4042056445849149,-1.1580848659672148e-05,0.4042056445849149,-7.55352053165488e-06,0.4042056445849149,-2.836950536131141e-05,0.4042056445849149,-2.39993946834512e-05
0.404999761764846,-1.124600072486299e-05,0.404999761764846,-9.902394931959956e-06,0.404999761764846,-2.031221736670733e-05,0.404999761764846,-2.467359855027402e-05
0.4057938789447771,-5.875538903516554e-06,0.4057938789447771,-1.2923939365056736e-05,0.4057938789447771,-1.0911633086490156e-05,0.4057938789447771,-1.9303518891319555e-05
0.4065879961247081,-2.517756384480208e-06,0.4065879961247081,-8.89602966144458e-06,0.4065879961247081,-5.0355086728647686e-06,0.4065879961247081,-1.5945716384577823e-05
0.4073821133046392,-5.538742571531211e-06,0.4073821133046392,-3.524638382447818e-06,0.4073821133046392,-1.510352573243624e-06,0.4073821133046392,-8.894956099895473e-06
0.4081762304845703,-3.524246050670831e-06,0.4081762304845703,-2.183207898658338e-06,0.4081762304845703,5.045212484953913e-07,0.4081762304845703,-1.5103480262051686e-06
0.4089703476645013,-1.5122927391672487e-06,0.4089703476645013,-6.207114521665503e-06,0.4089703476645013,3.857775435815315e-06,0.4089703476645013,-5.043743671219811e-07
0.4097644648444324,2.515024874073881e-06,0.4097644648444324,-1.023608487407388e-05,0.4097644648444324,1.1576396003024943e-05,0.4097644648444324,-7.883932270034116e-06
0.4105585820243635,5.201916257947603e-06,0.4105585820243635,-1.6278219068537706e-05,0.4105585820243635,1.862758891329399e-05,0.4105585820243635,-1.090860953953303e-05
0.4113526992042945,4.867757175211992e-06,0.4113526992042945,-2.43350478327958e-05,0.4113526992042945,1.8295727175211996e-05,0.4113526992042945,-8.56120022269558e-06
0.4121468163842256,2.5182834217531707e-06,0.4121468163842256,-3.272865919976532e-05,0.4121468163842256,9.23380606194092e-06,0.4121468163842256,-3.525994475515729e-06
0.4129409335641567,1.0072263987938023e-06,0.4129409335641567,-2.920609492828761e-05,0.4129409335641567,-5.034286230732041e-06,0.4129409335641567,-5.706687423592631e-06
0.4137350507440878,-2.182190180131484e-06,0.4137350507440878,-2.1988064001646238e-05,0.4137350507440878,-1.1749518002372354e-05,0.4137350507440878,-1.3595907271978983e-05
0.4145291679240188,-4.532426355940468e-06,0.4145291679240188,-1.829382729266886e-05,0.4145291679240188,-1.3595445458533771e-05,0.4145291679240188,-1.527479635805272e-05
0.4153232851039499,-6.879706884177039e-06,0.4153232851039499,-9.910646874340584e-06,0.4153232851039499,-1.1918809374868115e-05,0.4153232851039499,-1.7622086875184636e-05
0.416117402283881,-8.559046447697028e-06,0.416117402283881,-2.8587469211780723e-06,0.416117402283881,-8.89828440016768e-06,0.416117402283881,-1.896598915213529e-05
0.416911519463812,-7.553829500238696e-06,0.416911519463812,2.3467408962684417e-06,0.416911519463812,-6.883039006529486e-06,0.416911519463812,-1.7625012675054387e-05
0.4177056366437431,-8.895395502332211e-06,0.4177056366437431,5.873106940761882e-06,0.4177056366437431,-8.559541876771195e-06,0.4177056366437431,-1.7288653625561015e-05
0.4184997538236742,-8.224818164716777e-06,0.4184997538236742,4.532346326333097e-06,0.4184997538236742,-9.902683673666903e-06,0.4184997538236742,-1.527492449415033e-05
0.4192938710036052,-8.22461e-06,0.4192938710036052,-8.383733774062037e-07,0.4192938710036052,-1.040661818314309e-05,0.4192938710036052,-9.903972626492932e-06
0.4200879881835363,-9.06384751011693e-06,0.4200879881835363,-7.553120081322381e-06,0.4200879881835363,-1.7624092587749712e-05,0.4200879881835363,-1.158157502023386e-05
0.4208821053634674,-6.5460754527506e-06,0.4208821053634674,-1.3595978188997596e-05,0.4208821053634674,-1.7959320885757807e-05,0.4208821053634674,-1.3092712300003072e-05
0.4216762225433985,-6.211218760043999e-06,0.4216762225433985,-1.493916383259526e-05,0.4216762225433985,-1.35958e-05,0.4216762225433985,-1.695298794419842e-05
0.4224703397233295,-9.061490113380466e-06,0.4224703397233295,-1.695112713299419e-05,0.4224703397233295,-1.35958e-05,0.4224703397233295,-1.762364237766473e-05
0.4232644569032606,-8.896124809556298e-06,0.4232644569032606,-1.5946388857337792e-05,0.4232644569032606,-1.5440837129080758e-05,0.4232644569032606,-1.7959670380887404e-05
0.4240585740831917,-8.224970151820034e-06,0.4240585740831917,-1.1583940986830225e-05,0.4240585740831917,-1.896510917612386e-05,0.4240585740831917,-2.2321559066811693e-05
0.4248526912631227,-9.566887869170346e-06,0.4248526912631227,-4.53467117519056e-06,0.4248526912631227,-2.2993733646394776e-05,0.4248526912631227,-2.500845573834069e-05
0.4256468084430538,-8.224933958019237e-06,0.4256468084430538,-1.689018589786669e-07,0.4256468084430538,-2.3666538020990383e-05,0.4256468084430538,-2.1989028881417727e-05
0.4264409256229849,-5.539281568544356e-06,0.4264409256229849,2.5174884306125795e-06,0.4264409256229849,-2.0310114453654908e-05,0.4264409256229849,-2.232386856306516e-05
0.4272350428029159,-6.881838096900374e-06,0.4272350428029159,-3.524974774663919e-06,0.4272350428029159,-1.5609945709298876e-05,0.4272350428029159,-1.4938455224797e-05
0.428029159982847,-7.217587555021064e-06,0.428029159982847,-6.209845784333313e-06,0.428029159982847,-1.4603102665063195e-05,0.428029159982847,-1.2253135110042128e-05
0.4288232771627781,-7.552914771754243e-06,0.4288232771627781,-3.359574430996645e-06,0.4288232771627781,-1.560908431526273e-05,0.4288232771627781,-1.2923789543508484e-05
0.4296173943427092,-7.55322e-06,0.4296173943427092,-8.411665087574869e-07,0.4296173943427092,-1.561e-05,0.4296173943427092,-1.4937063583230264e-05
0.4304115115226402,-5.87575263129521e-06,0.4304115115226402,-5.536138642216785e-06,0.4304115115226402,-1.6280986947481914e-05,0.4304115115226402,-1.6280573894963832e-05
0.4312056287025713,-6.881349050830756e-06,0.4312056287025713,-1.3592032420674916e-05,0.4312056287025713,-1.62814e-05,0.4312056287025713,-1.2254883796676974e-05
0.4319997458825024,-3.693700675410952e-06,0.4319997458825024,-1.6280540481169328e-05,0.4319997458825024,-1.393225207897684e-05,0.4319997458825024,-1.2588592560146166e-05
0.4327938630624334,-3.189226843252226e-06,0.4327938630624334,-1.62814e-05,0.4327938630624334,-1.1582005276558775e-05,0.4327938630624334,-1.3931268413394985e-05
0.4335879802423645,-5.203279879557079e-06,0.4335879802423645,-1.4602941767243132e-05,0.4335879802423645,-1.3931441525859616e-05,0.4335879802423645,-8.89613530148056e-06
0.4343820974222956,-3.692535837088142e-06,0.4343820974222956,-1.5610576656555356e-05,0.4343820974222956,-1.3595758810246043e-05,0.4343820974222956,-2.853522378280927e-06
0.4351762146022266,-2.5181930914357475e-06,0.4351762146022266,-2.0310343685968184e-05,0.4351762146022266,-1.326028123765406e-05,0.4351762146022266,-3.527639175539713e-06
0.4359703317821577,-4.194819186206293e-06,0.4359703317821577,-2.2322207097413804e-05,0.4359703317821577,-1.3930935671120414e-05,0.4359703317821577,-1.3922752927582196e-05
0.4367644489620888,-2.183437852708235e-06,0.4367644489620888,-2.7691372374271307e-05,0.4367644489620888,-1.3260565953216088e-05,0.4367644489620888,-1.695070321052761e-05
0.4375585661420199,-2.18204e-06,0.4375585661420199,-3.0043715966161927e-05,0.4375585661420199,-1.762181536572929e-05,0.4375585661420199,-1.2591084634270712e-05
0.438352683321951,1.6691177296737978e-07,0.438352683321951,-3.0380566109797163e-05,0.438352683321951,-2.701995111420449e-05,0.438352683321951,-1.0239737231419848e-05
0.439146800501882,-1.8458339207622977e-06,0.439146800501882,-3.105193130599949e-05,0.439146800501882,-3.172231914199643e-05,0.439146800501882,-1.1245646958999236e-05
0.4399409176818131,5.033043746603813e-07,0.4399409176818131,-2.467446127215581e-05,0.4399409176818131,-3.373749117721395e-05,0.4399409176818131,-1.4266886765820928e-05
0.4407350348617442,-1.8464726542055105e-06,0.4407350348617442,-1.9302567345355424e-05,0.4407350348617442,-4.716595374571887e-05,0.4407350348617442,-1.1917086279506314e-05
0.4415291520416752,-4.867662100874454e-06,0.4415291520416752,-1.6280629579013112e-05,0.4415291520416752,-5.5222271596502186e-05,0.4415291520416752,-7.049252690544576e-06
0.4423232692216063,-5.035325709241031e-06,0.4423232692216063,-1.2256702978215257e-05,0.4423232692216063,-5.455161716303587e-05,0.4423232692216063,-4.869635770674417e-06
0.4431173864015373,-5.538640859564398e-06,0.4431173864015373,-8.563163688799807e-06,0.4431173864015373,-3.5934098157477574e-05,0.4431173864015373,-4.532189426957068e-06
0.4439115035814684,-3.861579418772203e-06,0.4439115035814684,-4.198958476303482e-06,0.4439115035814684,-1.0925836245923985e-05,0.4439115035814684,5.003997574380611e-07
0.4447056207613995,-4.53160931889628e-06,0.4447056207613995,-2.8540813574311355e-06,0.4447056207613995,-2.5217484946912846e-06,0.4447056207613995,-9.562599803504676e-06
0.4454997379413306,-4.867519202650721e-06,0.4454997379413306,-6.880490438409617e-06,0.4454997379413306,3.858424860265146e-06,0.4454997379413306,-2.785696156426718e-05
0.4462938551212617,-3.525075016586704e-06,0.4462938551212617,-9.566919968651264e-06,0.4462938551212617,8.8950911914492e-06,0.4462938551212617,-3.5750460536676464e-05
0.4470879723011927,-4.8675831562237125e-06,0.4470879723011927,-8.392500988304251e-06,0.4470879723011927,1.258857117996406e-05,0.4470879723011927,-3.9108782890559285e-05
0.4478820894811238,-6.2102686720929326e-06,0.4478820894811238,-6.210684824682594e-06,0.4478820894811238,1.7290240272621727e-05,0.4478820894811238,-4.246514335482983e-05
0.4486762066610549,-4.867455468890256e-06,0.4486762066610549,-8.560964502059582e-06,0.4486762066610549,3.272728393490997e-05,0.4486762066610549,-3.574875844002461e-05
0.4494703238409859,-4.1968010354239474e-06,0.4494703238409859,-1.107595858313962e-05,0.4494703238409859,1.9984949588003543e-05,0.4494703238409859,-2.3676978637631045e-05
0.450264441020917,-5.5380846635860455e-06,0.450264441020917,-1.0910318202251936e-05,0.450264441020917,-1.441077585999298e-05,0.450264441020917,-1.1254644291428697e-05
0.4510585582008481,-8.223115683921551e-06,0.4510585582008481,-8.897130739840947e-06,0.4510585582008481,-2.3997076487146556e-05,0.4510585582008481,-9.568343948940086e-06
0.4518526753807791,-8.560172752301719e-06,0.4518526753807791,-6.882643482101282e-06,0.4518526753807791,-1.9304621426891906e-05,0.4518526753807791,-9.56741e-06
0.4526467925607102,-9.567146886512898e-06,0.4526467925607102,-1.0909147551276764e-05,0.4526467925607102,-6.213840470107151e-06,0.4526467925607102,-4.533245562210337e-06
0.4534409097406413,-6.882125289207817e-06,0.4534409097406413,-1.829476045155239e-05,0.4534409097406413,2.1985094460475995e-05,0.4534409097406413,-1.5109834505008903e-06
0.4542350269205724,-3.1891286180904927e-06,0.4542350269205724,-2.7695077236180984e-05,0.4542350269205724,5.690217476708382e-05,0.4542350269205724,-6.2106704013310605e-06
0.4550291441005034,-2.8524664279975444e-06,0.4550291441005034,-2.702263516072021e-05,0.4550291441005034,9.450268998762348e-05,0.4550291441005034,-1.3596225939337086e-05
0.4558232612804345,2.512749061942237e-06,0.4558232612804345,-2.115445881236673e-05,0.4558232612804345,0.000114286596219,0.4558232612804345,-1.5943516456469167e-05
0.4566173784603656,3.859478870017995e-06,0.4566173784603656,-2.098133135308647e-05,0.4566173784603656,0.0001099444161196,0.4566173784603656,-1.0243267335692329e-05
0.4574114956402966,5.034733655625398e-06,0.4574114956402966,-2.09812e-05,0.4574114956402966,9.417342214818052e-05,0.4574114956402966,-1.1245260276250342e-05
0.4582056128202277,3.1900403343838613e-06,0.4582056128202277,-1.2424974324587892e-05,0.4582056128202277,6.362979642477842e-05,0.4582056128202277,-2.5673861032729053e-05
0.4589997300001588,-1.00567306784173e-06,0.4589997300001588,-7.554875221444663e-06,0.4589997300001588,1.864659668118e-05,0.4589997300001588,-2.7694415070931787e-05
0.4597938471800898,-4.363433887428389e-06,0.4597938471800898,-2.854344559140002e-06,0.4597938471800898,-1.8288492738616075e-05,0.4597938471800898,-2.4003110728063075e-05
0.4605879643600209,-7.217391918712968e-06,0.4605879643600209,-5.036534787175292e-07,0.4605879643600209,-4.347186987152486e-05,0.4605879643600209,-1.527469177493879e-05
0.461382081539952,-7.553530270813875e-06,0.461382081539952,3.189208948499221e-06,0.461382081539952,-6.798127874838345e-05,0.461382081539952,-4.532585017417789e-06
0.4621761987198831,-1.0575087385979003e-05,0.4621761987198831,3.859858704237904e-06,0.4621761987198831,-9.114621160186816e-05,0.4621761987198831,-1.0910619561413572e-05
0.4629703158998141,-1.292237790311092e-05,0.4629703158998141,1.1772509592682e-06,0.4629703158998141,-0.0001075768456659,0.4629703158998141,-1.258725564507923e-05
0.4637644330797452,-1.2253479383197776e-05,0.4637644330797452,-1.173262173087896e-06,0.4637644330797452,-0.0001131260451243,0.4637644330797452,-1.829152524281892e-05
0.4645585502596763,-1.0910960593585228e-05,0.4645585502596763,-5.872057933780176e-06,0.4645585502596763,-0.0001136337145225,0.4645585502596763,-2.4502482282989505e-05
0.4653526674396073,-7.722405740963564e-06,0.4653526674396073,-1.4934803668146222e-05,0.4653526674396073,-0.0001116208435473,0.4653526674396073,-1.5613726016691662e-05
0.4661467846195384,-6.546438716968846e-06,0.4661467846195384,-3.037651117553544e-05,0.4661467846195384,-0.0001104453187305,0.4661467846195384,1.6738003237339976e-06
0.4669409017994695,-8.895719369717151e-06,0.4669409017994695,-2.7024115187885188e-05,0.4669409017994695,-9.752199849190972e-05,0.4669409017994695,1.426564305037768e-05
0.4677350189794005,-8.895993951171877e-06,0.4677350189794005,-1.6952719755859384e-05,0.4677350189794005,-6.3949468562398e-05,0.4677350189794005,1.3260067902343752e-05
0.4685291361593316,-8.224667495204593e-06,0.4685291361593316,-1.3595455028772445e-05,0.4685291361593316,-1.6609223191224728e-05,0.4685291361593316,1.1916840040075956e-05
0.4693232533392627,-8.559994711937724e-06,0.4693232533392627,-1.1583491728373656e-05,0.4693232533392627,2.933040572330733e-05,0.4693232533392627,9.234232295106251e-06
0.4701173705191938,-8.56031e-06,0.4701173705191938,-1.292333543220835e-05,0.4701173705191938,5.218300242682168e-05,0.4701173705191938,-2.340708142436884e-06
0.4709114876991248,-3.5280789682756704e-06,0.4709114876991248,-1.7956651018820025e-05,0.4709114876991248,5.1530133197490665e-05,0.4709114876991248,-2.130466219669737e-05
0.4717056048790559,5.015433444352029e-07,0.4717056048790559,-2.366386010553697e-05,0.4717056048790559,4.481904111085456e-05,0.4717056048790559,-2.769192599445152e-05
0.472499722058987,3.0204086602494846e-06,0.472499722058987,-2.0310975088396075e-05,0.472499722058987,2.182844954279073e-05,0.472499722058987,-2.652061127568785e-05
0.473293839238918,1.1753138302564883e-06,0.473293839238918,-2.4672916421458925e-05,0.473293839238918,1.1791200837366283e-06,0.473293839238918,-2.601670196382981e-05
0.4740879564188491,-1.1748110195531856e-06,0.4740879564188491,-2.2491919765832706e-05,0.4740879564188491,-1.493771555841619e-05,0.4740879564188491,-2.7023644722195185e-05
0.4748820735987802,1.1747844147741197e-06,0.4748820735987802,-1.8966579912252165e-05,0.4748820735987802,-2.7359991228085177e-05,0.4748820735987802,-2.16527244598012e-05
0.4756761907787112,-5.044341447963542e-07,0.4756761907787112,-1.4434315260409124e-05,0.4756761907787112,-3.373874726713694e-05,0.4756761907787112,-2.2994977787955187e-05
0.4764703079586423,-4.1930155488496905e-06,0.4764703079586423,-1.1584083862653836e-05,0.4764703079586423,-3.809800108466826e-05,0.4764703079586423,-2.1653768809975925e-05
0.4772644251385734,-7.718517991749574e-06,0.4772644251385734,-9.568868287325929e-06,0.4772644251385734,-3.877271390181133e-05,0.4772644251385734,-2.031077219637733e-05
0.4780585423185045,-7.217810258837629e-06,0.4780585423185045,-1.1244932476305489e-05,0.4780585423185045,-3.7766680517675255e-05,0.4780585423185045,-1.863226752945876e-05
0.4788526594984356,-7.21752e-06,0.4788526594984356,-8.561461697224568e-06,0.4788526594984356,-3.810165603731088e-05,0.4788526594984356,-1.8463472002786725e-05
0.4796467766783666,-7.553125580513455e-06,0.4796467766783666,-7.553503255647018e-06,0.4796467766783666,-3.860515838483326e-05,0.4796467766783666,-1.6282013712599464e-05
0.4804408938582977,-9.567140743633013e-06,0.4804408938582977,-5.2036441326509525e-06,0.4804408938582977,-4.7835765908874976e-05,0.4804408938582977,-1.7120487815974076e-05
0.4812350110382288,-8.896028667535538e-06,0.4812350110382288,5.0359466893616e-07,0.4812350110382288,-4.750121132993605e-05,0.4812350110382288,-1.493859533308136e-05
0.4820291282181598,-1.023885414193241e-05,0.4820291282181598,3.860259291950748e-06,0.4820291282181598,-4.112255858067588e-05,0.4820291282181598,-1.460225029681106e-05
0.4828232453980909,-1.0574181358665569e-05,0.4828232453980909,2.1836331971803204e-06,0.4828232453980909,-3.776928641334433e-05,0.4828232453980909,-1.0578323696013205e-05
0.483617362578022,-9.568218490302018e-06,0.483617362578022,-1.5076755221792943e-06,0.483617362578022,-3.9107822002226665e-05,0.483617362578022,-5.878492976150708e-06
0.484411479757953,-1.107711017070794e-05,0.484411479757953,-2.349340109398116e-06,0.484411479757953,-4.447648076566961e-05,0.484411479757953,1.6388980797815217e-07
0.4852055969378841,-1.2252403579748138e-05,0.4852055969378841,-2.1821252065190863e-06,0.4852055969378841,-4.682870710873279e-05,0.4852055969378841,3.187606287225155e-06
0.4859997141178152,-1.2588579130164431e-05,0.4859997141178152,-5.537821305244839e-06,0.4859997141178152,-5.253474521279533e-05,0.4859997141178152,-3.522412614090208e-06
0.4867938312977463,-5.540527852918133e-06,0.4867938312977463,-7.55279204232692e-06,0.4867938312977463,-6.260566020101104e-05,0.4867938312977463,-7.048921072478577e-06
0.4875879484776773,-6.210376433788126e-06,0.4875879484776773,-6.88186356686077e-06,0.4875879484776773,-5.790830496802539e-05,0.4875879484776773,-3.189390508151636e-06
0.4883820656576084,-4.3640661201138906e-06,0.4883820656576084,-1.0910422078177753e-05,0.4883820656576084,-3.9107067863302777e-05,0.4883820656576084,-5.539710107803987e-06
0.4891761828375395,-4.196268602869188e-06,0.4891761828375395,-1.3595915797108348e-05,0.4891761828375395,-1.6949866188841224e-05,0.4891761828375395,-1.3766804026643409e-05
0.4899703000174705,-4.363932211235766e-06,0.4899703000174705,-1.4098856677731355e-05,0.4899703000174705,-4.2074619196673895e-06,0.4899703000174705,-2.7682833576592592e-05
0.4907644171974016,-3.5254460164744462e-06,0.4907644171974016,-1.527343754023536e-05,0.4907644171974016,1.1709975165837948e-06,0.4907644171974016,-3.138508952751244e-05
0.4915585343773327,-2.6860821526036707e-06,0.4915585343773327,-1.695181568306413e-05,0.4915585343773327,1.3085211402533695e-05,0.4915585343773327,-2.0316296433134106e-05
0.4923526515572637,-8.400562583820694e-07,0.4923526515572637,-1.5610589280738285e-05,0.4923526515572637,3.5741955909483725e-05,0.4923526515572637,-2.064535267981543e-05
0.4931467687371948,-8.39246e-07,0.4931467687371948,-1.493879555396398e-05,0.4931467687371948,7.03187290291076e-05,0.4931467687371948,-2.316246668719822e-05
0.4939408859171259,-2.8531505981857694e-06,0.4939408859171259,-1.829511766220614e-05,0.4939408859171259,0.0001065787908092,0.4939408859171259,-2.1820592935117544e-05
0.494735003097057,-5.874714762346136e-06,0.494735003097057,-2.2995302618846437e-05,0.494735003097057,0.0001300829921442,0.494735003097057,-2.500951571307861e-05
0.495529120276988,-4.531422114910608e-06,0.495529120276988,-2.366583660790525e-05,0.495529120276988,0.0001280631593192,0.495529120276988,-2.90370873814363e-05
0.4963232374569191,-1.1781599364741732e-06,0.4963232374569191,-1.796537381239468e-05,0.4963232374569191,8.950062928384059e-05,0.4963232374569191,-2.3671851913705457e-05
0.4971173546368502,1.0053264380259316e-06,0.4971173546368502,-1.1754447894007418e-05,0.4971173546368502,5.021882409927722e-05,0.4971173546368502,-2.0312528488107803e-05
0.4979114718167812,1.68407285005716e-07,0.4979114718167812,-9.568861499372203e-06,0.4979114718167812,2.8716492012594933e-05,0.4979114718167812,-1.3264789588460182e-05
0.4987055889967123,-3.522918535000816e-06,0.4987055889967123,-6.212157700159589e-06,0.4987055889967123,1.4610198310647366e-05,0.4987055889967123,-1.2924573770533596e-05
0.4994997061766434,-5.538284636014052e-06,0.4994997061766434,-7.720510977010538e-06,0.4994997061766434,3.6967173771555817e-06,0.4994997061766434,-1.493785463601405e-05
0.5002938233565745,-5.53903e-06,0.5002938233565745,-1.158074113697273e-05,0.5002938233565745,-1.3591953782959936e-05,0.5002938233565745,-1.091109620954093e-05
0.5010879405365055,-5.53903e-06,0.5010879405365055,-1.2924299436296773e-05,0.5010879405365055,-3.105079267934714e-05,0.5010879405365055,-1.0406737707644158e-05
0.5018820577164366,-3.189274211795217e-06,0.5018820577164366,-1.359597081593725e-05,0.5018820577164366,-4.464876627719009e-05,0.5018820577164366,-1.3763294975902067e-05
0.5026761748963677,-5.035590778699328e-06,0.5026761748963677,-1.594610617756443e-05,0.5026761748963677,-5.656682475425682e-05,0.5026761748963677,-9.566597625071544e-06
0.5034702920762988,-5.5385816037990605e-06,0.5034702920762988,-1.7790355925120056e-05,0.5034702920762988,-6.394402352238621e-05,0.5034702920762988,-5.8780082299021904e-06
0.5042644092562298,-5.53903e-06,0.5042644092562298,-1.5276173193438338e-05,0.5042644092562298,-5.992519716902212e-05,0.5042644092562298,-9.564662602503153e-06
0.5050585264361609,-8.39075813442629e-06,0.5050585264361609,-1.460330044176524e-05,0.5050585264361609,-5.522520309235668e-05,0.5050585264361609,-8.89641044176524e-06
0.505852643616092,-9.566882628119944e-06,0.505852643616092,-1.3596252033040047e-05,0.505852643616092,-6.260448509103964e-05,0.505852643616092,-9.567108644639968e-06
0.506646760796023,-6.882629072806653e-06,0.506646760796023,-1.1246607941341886e-05,0.506646760796023,-8.542842288566242e-05,0.506646760796023,-1.2252190927193349e-05
0.507440877975954,-6.88182e-06,0.507440877975954,-6.882490683499464e-06,0.507440877975954,-9.01342777375203e-05,0.507440877975954,-9.567822728662014e-06
0.5082349951558852,-1.0238779519399972e-05,0.5082349951558852,-7.553215903855591e-06,0.5082349951558852,-7.637148397035029e-05,0.5082349951558852,-8.896014096144408e-06
0.5090291123358163,-9.063931153082148e-06,0.5090291123358163,-8.224515130636834e-06,0.5090291123358163,-6.394908206758089e-05,0.5090291123358163,-1.1078550629121776e-05
0.5098232295157473,-9.566921978181809e-06,0.5098232295157473,-7.553870686065964e-06,0.5098232295157473,-5.321861113212145e-05,0.5098232295157473,-1.4264109243609572e-05
0.5106173466956784,-6.884029707245787e-06,0.5106173466956784,-1.141052359160251e-05,0.5106173466956784,-4.91831145732107e-05,0.5106173466956784,-1.1248385929908026e-05
0.5114114638756094,-5.539936678174289e-06,0.5114114638756094,-1.2923379945696722e-05,0.5114114638756094,-3.643191343927964e-05,0.5114114638756094,-1.091042667123162e-05
0.5122055810555405,-6.8811114931601216e-06,0.5122055810555405,-1.2253354256058127e-05,0.5122055810555405,-1.3607844653212584e-05,0.5122055810555405,-1.1581245743941872e-05
0.5129996982354716,-4.532823089984333e-06,0.5129996982354716,-1.829330347312456e-05,0.5129996982354716,1.056531393050384e-05,0.5129996982354716,-1.6279613812430213e-05
0.5137938154154027,-1.846964330665733e-06,0.5137938154154027,-2.1651819583761904e-05,0.5137938154154027,3.608166885983791e-05,0.5137938154154027,-1.8630753708633333e-05
0.5145879325953338,-1.174996996842505e-06,0.5145879325953338,-2.3834414764506485e-05,0.5145879325953338,4.414371603788994e-05,0.5145879325953338,-1.997398600631499e-05
0.5153820497752648,-2.1821031343440537e-06,0.5153820497752648,-2.7694868507405133e-05,0.5153820497752648,2.9204674107332167e-05,0.5153820497752648,-2.366675261508784e-05
0.5161761669551959,-3.189245746690992e-06,0.5161761669551959,-2.4001518770574847e-05,0.5161761669551959,1.1244208027743345e-05,0.5161761669551959,-2.4505330268156963e-05
0.5169702841351269,-3.692226582895379e-06,0.5169702841351269,-1.9809978505887143e-05,0.5169702841351269,3.1963947817290133e-06,0.5169702841351269,-2.131977165366872e-05
0.5177644013150581,-4.531297196048444e-06,0.5177644013150581,-1.6284057738895972e-05,0.5177644013150581,3.18914e-06,0.5177644013150581,-1.896877185106436e-05
0.5185585184949891,-1.847968620959853e-06,0.5185585184949891,-9.571481561496077e-06,0.5185585184949891,4.531115692552221e-06,0.5185585184949891,-1.829600715675604e-05
0.5193526356749202,-3.1885238592983414e-06,0.5193526356749202,-3.52760262398051e-06,0.5193526356749202,-7.04435580939058e-06,0.5193526356749202,-1.82956e-05
0.5201467528548512,-4.867107543248371e-06,0.5201467528548512,1.17347712171797e-06,0.5201467528548512,-2.164805460540601e-05,0.5201467528548512,-1.309381964114259e-05
0.5209408700347823,-7.552780411474811e-06,0.5209408700347823,2.5175202049189846e-06,0.5209408700347823,-3.306443175817979e-05,0.5209408700347823,-1.393136261989016e-05
0.5217349872147133,-8.895988377890424e-06,0.5217349872147133,1.8463508111353e-06,0.5217349872147133,-3.407338378329705e-05,0.5217349872147133,-1.46028891888647e-05
0.5225291043946444,-7.55317591788413e-06,0.5225291043946444,-1.6881880274102065e-07,0.5225291043946444,-3.843840367680962e-05,0.5225291043946444,-1.1916726935119978e-05
0.5233232215745756,-7.217848701150929e-06,0.5233232215745756,-7.54598860307495e-06,0.5233232215745756,-4.531256167536352e-05,0.5233232215745756,-7.55749309537905e-06
0.5241173387545066,-6.882099571929624e-06,0.5241173387545066,-9.230312148679912e-06,0.5241173387545066,-4.0791174179409776e-05,0.5241173387545066,-7.888630436398406e-06
0.5249114559344377,-6.546350028727066e-06,0.5249114559344377,-7.722105122419589e-06,0.5249114559344377,-2.703313117780973e-05,0.5249114559344377,8.33265283245995e-07
0.5257055731143687,-6.881639514475536e-06,0.5257055731143687,-1.1244004912745926e-05,0.5257055731143687,-1.2596460823787969e-05,0.5257055731143687,5.53650321125975e-06
0.5264996902942998,-8.89522434996942e-06,0.5264996902942998,-1.3594883403746988e-05,0.5264996902942998,-7.219615069348592e-06,0.5264996902942998,-5.011910467878053e-07
0.5272938074742308,-1.023847440594755e-05,0.5272938074742308,-1.2253325596477208e-05,0.5272938074742308,-1.5607965026866968e-05,0.5272938074742308,-7.55151062528398e-06
0.528087924654162,-8.896137422717665e-06,0.528087924654162,-1.527401329675014e-05,0.528087924654162,-3.4575100154943306e-05,0.528087924654162,-5.539221134550967e-06
0.528882041834093,-6.88146625580889e-06,0.528882041834093,-2.165249387628428e-05,0.528882041834093,-4.447951360227069e-05,0.528882041834093,3.86053e-06
0.5296761590140241,-1.686547472619546e-07,0.5296761590140241,-1.963678849787542e-05,0.5296761590140241,-3.524423770173027e-05,0.5296761590140241,3.859119941641522e-06
0.5304702761939551,-4.192562369158653e-06,0.5304702761939551,-1.1588935296279712e-05,0.5304702761939551,-1.4957090922804597e-05,0.5304702761939551,-3.1827216430686875e-06
0.5312643933738862,-6.879768175031583e-06,0.5312643933738862,-8.898061824968415e-06,0.5312643933738862,-2.862673216177938e-06,0.5312643933738862,-1.4594179741974196e-05
0.5320585105538173,-4.197885480823403e-06,0.5320585105538173,-1.4934875160441957e-05,0.5320585105538173,1.358566017918612e-05,0.5320585105538173,-2.433209892131264e-05
0.5328526277337483,-3.5251447853418143e-06,0.5328526277337483,-1.8965111287949117e-05,0.5328526277337483,3.540596952327596e-05,0.5328526277337483,-3.2391122575898225e-05
0.5336467449136795,-3.52483e-06,0.5336467449136795,-2.064496075265872e-05,0.5336467449136795,5.219570755871392e-05,0.5336467449136795,-3.2059307849468254e-05
0.5344408620936105,5.028483286326917e-07,0.5344408620936105,-1.980634577434853e-05,0.5344408620936105,6.227035081202902e-05,0.5344408620936105,-3.23948416937343e-05
0.5352349792735416,7.553035976405904e-06,0.5352349792735416,-1.8967021906352546e-05,0.5352349792735416,5.555827526126191e-05,0.5352349792735416,-3.3066282473873805e-05
0.5360290964534726,1.0574174170463368e-05,0.5360290964534726,-1.6953044373062413e-05,0.5360290964534726,3.440628972191477e-05,0.5360290964534726,-3.4072911253875175e-05
0.5368232136334037,7.891566425493477e-06,0.5368232136334037,-1.896500767346134e-05,0.5368232136334037,1.1268811656280556e-05,0.5368232136334037,-3.0048984653077323e-05
0.5376173308133347,2.522266845517727e-06,0.5376173308133347,-1.292949272965209e-05,0.5376173308133347,-1.4245697447971606e-05,0.5376173308133347,-2.09888390101977e-05
0.5384114479932659,-2.514239220567472e-06,0.5384114479932659,-9.905200476002189e-06,0.5384114479932659,-2.7014831393068576e-05,0.5384114479932659,-1.6284667407114514e-05
0.539205565173197,-6.376155816224409e-06,0.539205565173197,-1.0574132313960275e-05,0.539205565173197,-3.910228165128499e-05,0.539205565173197,-9.57108685492082e-06
0.539999682353128,-6.881618550274043e-06,0.539999682353128,-1.1916762800730782e-05,0.539999682353128,-5.118916524658294e-05,0.539999682353128,-1.1245228504914068e-05
0.5407937995330591,-6.88182e-06,0.5407937995330591,-1.3930991460311796e-05,0.5407937995330591,-5.25364609735412e-05,0.5407937995330591,-1.2252745730155896e-05
0.5415879167129901,-7.553149573175806e-06,0.5415879167129901,-1.5777606331478242e-05,0.5415879167129901,-4.733404580264272e-05,0.5415879167129901,-7.889367773308303e-06
0.5423820338929212,-9.5673240216841e-06,0.5423820338929212,-1.795992865958092e-05,0.5423820338929212,-3.575169938293356e-05,0.5423820338929212,-6.88184865958092e-06
0.5431761510728523,-7.55322e-06,0.5431761510728523,-1.8631427585299444e-05,0.5431761510728523,-3.105171724410166e-05,0.5431761510728523,-7.553602753998053e-06
0.5439702682527834,-7.55322e-06,0.5439702682527834,-1.930208201876576e-05,0.5439702682527834,-2.903975394370273e-05,0.5439702682527834,-9.565556065501635e-06
0.5447643854327144,-9.56585098831106e-06,0.5447643854327144,-1.561285820228665e-05,0.5447643854327144,-2.853478971615656e-05,0.5447643854327144,-1.2921801642025007e-05
0.5455585026126455,-8.896430586737819e-06,0.5455585026126455,-1.5106715471374984e-05,0.5455585026126455,-3.272797136421025e-05,0.5455585026126455,-1.4601848533155452e-05
0.5463526197925765,-1.392908875229392e-05,0.5463526197925765,-1.258990560230476e-05,0.5463526197925765,-3.440829624916847e-05,0.5463526197925765,-1.2589664500997834e-05
0.5471467369725076,-1.426708879303625e-05,0.5471467369725076,-6.212532925685849e-06,0.5471467369725076,-3.8100576723398765e-05,0.5471467369725076,-1.0910756034818745e-05
0.5479408541524387,-1.0910816637611448e-05,0.5479408541524387,-1.6895894237368208e-07,0.5479408541524387,-4.984904178672864e-05,0.5479408541524387,-1.4937860034866262e-05
0.5487349713323698,-1.0574512120558494e-05,0.5487349713323698,7.049409409111644e-06,0.5487349713323698,-8.140576067111209e-05,0.5487349713323698,-1.8966854553298076e-05
0.5495290885123009,-7.55280886982626e-06,0.5495290885123009,7.55314524885689e-06,0.5495290885123009,-0.0001116186544571,0.5495290885123009,-2.098063936642668e-05
0.5503232056922319,-3.8642194746569066e-06,0.5503232056922319,6.882490815390581e-06,0.5503232056922319,-9.954667487685632e-05,0.5503232056922319,-1.5950731115429362e-05
0.551117322872163,-5.537598565397427e-06,0.551117322872163,3.863106573756574e-06,0.551117322872163,-5.861432683374163e-05,0.551117322872163,-7.56037715595675e-06
0.551911440052094,-5.53903e-06,0.551911440052094,-1.650080901947757e-07,0.551911440052094,-6.918278377408978e-06,0.551911440052094,-1.157875908948955e-05
0.5527055572320251,-5.874532805061069e-06,0.5527055572320251,-4.529496403895604e-06,0.5527055572320251,2.801133124677881e-05,0.5527055572320251,-1.2252625598969291e-05
0.5534996744119562,-6.8814070280618905e-06,0.5534996744119562,-1.2249833894109644e-05,0.5534996744119562,4.5815504203432783e-05,0.5534996744119562,-4.870658448577652e-06
0.5542937915918873,-3.5257111384762044e-06,0.5542937915918873,-1.25886118858899e-05,0.5542937915918873,7.636338164222886e-05,0.5542937915918873,-5.046934787066718e-07
0.5550879087718184,-2.350024997027428e-06,0.5550879087718184,-1.091039285453771e-05,0.5550879087718184,0.0001090982393537,0.5550879087718184,-7.3845792996125e-06
0.5558820259517494,-1.5104863885228327e-06,0.5558820259517494,-1.158186881959477e-05,0.5558820259517494,0.0001453580588248,0.5558820259517494,-1.1581962082468554e-05
0.5566761431316805,3.189260876954687e-06,0.5566761431316805,-1.9807438998237632e-05,0.5566761431316805,0.0001777507912124,0.5566761431316805,-2.2661654938836453e-05
0.5574702603116115,3.859905321525557e-06,0.5574702603116115,-2.6681596996789614e-05,0.5574702603116115,0.0001710442468777,0.5574702603116115,-3.406278030776211e-05
0.5582643774915427,5.873140843438684e-06,0.5582643774915427,-2.6017126388133823e-05,0.5582643774915427,0.000119381531259,0.5582643774915427,-2.6358353463538977e-05
0.5590584946714737,5.203757295364277e-06,0.5590584946714737,-1.7629541207964312e-05,0.5590584946714737,4.687604852304718e-05,0.5590584946714737,-2.1991077397592618e-05
0.5598526118514048,-1.6751258075996642e-06,0.5598526118514048,-1.225562572258802e-05,0.5598526118514048,-1.7592691475599405e-05,0.5598526118514048,-1.8465123154891e-05
0.5606467290313358,-4.530956205509951e-06,0.5606467290313358,-1.3259756306622558e-05,0.5606467290313358,-5.78942523331564e-05,0.5606467290313358,-1.4268632038675824e-05
0.5614408462112669,-4.8675649787434565e-06,0.5614408462112669,-1.426700493623037e-05,0.5614408462112669,-7.267583908408095e-05,0.5614408462112669,-4.198180631885645e-06
0.5622349633911979,-4.86763e-06,0.5622349633911979,-2.0309521395028245e-05,0.5622349633911979,-7.603554521946013e-05,0.5622349633911979,5.033313082585394e-07
0.563029080571129,-5.538842877353444e-06,0.563029080571129,-2.1652021620910644e-05,0.563029080571129,-7.33501e-05,0.563029080571129,-4.196127934115352e-06
0.5638231977510602,-3.694543185320836e-06,0.5638231977510602,-1.595145893644622e-05,0.5638231977510602,-7.33501e-05,0.5638231977510602,-3.1901562728110927e-06
0.5646173149309912,-4.866616244544304e-06,0.5646173149309912,-1.1249955021822788e-05,0.5646173149309912,-7.972289675609764e-05,0.5646173149309912,-1.1766778664954796e-06
0.5654114321109223,-6.880379399872117e-06,0.5654114321109223,-1.0239520303640069e-05,0.5654114321109223,-8.744397767209282e-05,0.5654114321109223,-4.194069096232049e-06
0.5662055492908533,-7.888338331644181e-06,0.5662055492908533,-1.0574309441989248e-05,0.5662055492908533,-9.88567210843988e-05,0.5662055492908533,-1.3590464392728242e-05
0.5669996664707844,-9.566704925959256e-06,0.5669996664707844,-1.2252294925959255e-05,0.5669996664707844,-0.0001008761540791,0.5669996664707844,-1.795806680749407e-05
0.5677937836507154,-8.560584414816775e-06,0.5677937836507154,-1.3595434113577631e-05,0.5677937836507154,-8.745315872798356e-05,0.5677937836507154,-2.1651593812338493e-05
