X [s],R BICEPS BRACHII: EMG 1 [V],X [s].1,R DELTOID ANTERIOR: EMG 2 [V],X [s].5,R DELTOID MEDIUS: EMG 6 [V],X [s].6,R DELTOID POSTERIOR: EMG 7 [V]
0.0,2.34989e-06,0.0,-2.23239e-05,0.0,-4.19623e-06,0.0,-5.58938e-05
0.000794117179931,9.379795693352104e-07,0.000794117179931,-2.36864473675502e-05,0.000794117179931,-4.1468762922228203e-07,0.000794117179931,-6.019865866383277e-05
0.0015882343598621,1.4316549838653482e-06,0.0015882343598621,-2.2284409930521245e-05,0.0015882343598621,2.813940018036705e-06,0.0015882343598621,-5.747356670208419e-05
0.0023823515397932,-5.528974820839043e-07,0.0023823515397932,-2.2244957068296836e-05,0.0023823515397932,7.5334455355155714e-06,0.0023823515397932,-5.696010986033772e-05
0.0031764687197242,-3.840781711594459e-06,0.0031764687197242,-2.3607466340189683e-05,0.0031764687197242,9.6266499108003e-06,0.0031764687197242,-6.268678324478952e-05
0.0039705858996553,-5.38104929995339e-06,0.0039705858996553,-2.6115326949576496e-05,0.0039705858996553,5.973490194317929e-06,0.0039705858996553,-6.477998070004661e-05
0.0047647030795864,-5.697002620517978e-06,0.0047647030795864,-2.579937492562896e-05,0.0047647030795864,4.5911650806732605e-06,0.0047647030795864,-6.223261261953416e-05
0.0055588202595174,-8.10610136152591e-06,0.0055588202595174,-2.7300145803362845e-05,0.0055588202595174,7.138513848771461e-06,0.0055588202595174,-5.929030307561427e-05
0.0063529374394485,-1.094970926960224e-05,0.0063529374394485,-2.5364958244532225e-05,0.0063529374394485,8.125876702084194e-06,0.0063529374394485,-6.651763497565722e-05
0.0071470546193796,-1.0515278834138376e-05,0.0071470546193796,-2.305455286553412e-05,0.0071470546193796,5.835257782676862e-06,0.0071470546193796,-7.248121049772937e-05
0.0079411717993107,-1.2312237433592136e-05,0.0079411717993107,-2.348896707459704e-05,0.0079411717993107,3.653280274560992e-07,0.0079411717993107,-7.415977834221329e-05
0.0087352889792417,-1.159154412118586e-05,0.0087352889792417,-2.439734259705436e-05,0.0087352889792417,9.774193595689266e-07,0.0087352889792417,-7.060531855993819e-05
0.0095294061591728,-8.93551010625258e-06,0.0095294061591728,-2.322242304857039e-05,0.0095294061591728,9.389691071001142e-06,0.0095294061591728,-6.517487219119327e-05
0.0103235233391039,-6.3288681415131495e-06,0.0103235233391039,-2.2590516408890245e-05,0.0103235233391039,7.671952467044042e-06,0.0103235233391039,-5.9962070443355365e-05
0.0111176405190349,-9.84389885626224e-06,0.0111176405190349,-1.9500163407972185e-05,0.0111176405190349,1.155166914990207e-06,0.0111176405190349,-4.751113663558534e-05
0.011911757698966,-1.2529409540094926e-05,0.011911757698966,-2.088246107032845e-05,0.011911757698966,3.4657531116045094e-06,0.011911757698966,-3.105126218161374e-05
0.0127058748788971,-1.0614073919361331e-05,0.0127058748788971,-2.1869769850296667e-05,0.0127058748788971,4.008593040319333e-06,0.0127058748788971,-5.481245378030426e-06
0.0134999920588282,-9.567415726685202e-06,0.0134999920588282,-2.0309810269073088e-05,0.0134999920588282,3.860538590283695e-06,0.0134999920588282,3.0548207711572104e-05
0.0142941092387592,-4.689827795563807e-06,0.0142941092387592,-1.8256142834958697e-05,0.0142941092387592,-1.91560212992108e-06,0.0142941092387592,7.534571836291656e-05
0.0150882264186903,-8.12555161387917e-06,0.0150882264186903,-1.8423890919842687e-05,0.0150882264186903,-8.196779465496629e-07,0.0150882264186903,0.0001034234559419
0.0158823435986214,-8.955358904480193e-06,0.0158823435986214,-2.1168715402234084e-05,0.0158823435986214,5.627665791042092e-07,0.0158823435986214,0.0001170111217918
0.0166764607785524,-6.605355524468165e-06,0.0166764607785524,-1.9993958653928057e-05,0.0166764607785524,5.924016396097514e-07,0.0166764607785524,0.0001039974882878
0.0174705779584835,-6.88182e-06,0.0174705779584835,-1.827590146762093e-05,0.0174705779584835,-2.665761916944708e-06,0.0174705779584835,7.348901149484034e-05
0.0182646951384146,-6.21042e-06,0.0182646951384146,-2.003332281965676e-05,0.0182646951384146,-2.063807635410884e-06,0.0182646951384146,4.132212480668432e-05
0.0190588123183456,-7.158267294964443e-06,0.0190588123183456,-2.03098e-05,0.0190588123183456,1.767336863965738e-06,0.0190588123183456,4.127367863116568e-06
0.0198529294982767,-7.572912437337169e-06,0.0198529294982767,-1.849320717367284e-05,0.0198529294982767,6.220126162996484e-07,0.0198529294982767,-1.798001260866572e-05
0.0206470466782078,-4.946789292434256e-06,0.0206470466782078,-1.746623825067169e-05,0.0206470466782078,1.194588307503852e-06,0.0206470466782078,-2.4930340707565744e-05
0.0214411638581389,-4.956431157162099e-06,0.0214411638581389,-2.0447817497775253e-05,0.0214411638581389,2.3993381436036097e-06,0.0214411638581389,-2.7734567442222254e-05
0.0222352810380699,-5.479760094801424e-06,0.0222352810380699,-2.1711838223266387e-05,0.0222352810380699,-1.2934779282237992e-06,0.0222352810380699,-2.887993860141822e-05
0.023029398218001,-6.486850961588342e-06,0.023029398218001,-2.0428250773850065e-05,0.023029398218001,-8.891091047635682e-08,0.023029398218001,-2.995616194368681e-05
0.0238235153979321,-1.0041154987180488e-05,0.0238235153979321,-2.06455e-05,0.0238235153979321,2.399303312198444e-06,0.0238235153979321,-2.947242662439689e-05
0.0246176325778631,-1.432642746449131e-05,0.0246176325778631,-2.0033337083039967e-05,0.0246176325778631,9.577335235863606e-07,0.0246176325778631,-2.599686861200993e-05
0.0254117497577942,-1.8670926521677183e-05,0.0254117497577942,-1.869055876141256e-05,0.0254117497577942,-5.223302271328116e-06,0.0254117497577942,-1.3022507529175572e-05
0.0262058669377253,-2.252130593338085e-05,0.0262058669377253,-2.0625740616192543e-05,0.0262058669377253,-7.237586213522706e-06,0.0262058669377253,9.062482562635244e-06
0.0269999841176564,-2.1652645811434483e-05,0.0269999841176564,-2.232385892676666e-05,0.0269999841176564,-2.853508721928369e-06,0.0269999841176564,3.13873819412328e-05
0.0277941012975874,-8.935216215730256e-06,0.0277941012975874,-2.327184505372486e-05,0.0277941012975874,-6.614757237617851e-07,0.0277941012975874,3.81018e-05
0.0285882184775185,9.191213914719264e-06,0.0285882184775185,-1.857210285302596e-05,0.0285882184775185,2.951836599439343e-06,0.0285882184775185,3.0085497852478265e-05
0.0293823356574496,1.7900512183546387e-05,0.0293823356574496,-1.76242e-05,0.0293823356574496,6.476952922695139e-06,0.0293823356574496,1.4455458242657635e-05
0.0301764528373806,1.7485971261915675e-05,0.0301764528373806,-2.0546638443313617e-05,0.0301764528373806,7.770429262060185e-06,0.0301764528373806,-4.591167529849752e-06
0.0309705700173117,8.955442904796482e-06,0.0309705700173117,-2.23239e-05,0.0309705700173117,9.94252931818309e-06,0.0309705700173117,-1.8808710753024032e-05
0.0317646871972428,2.8539545943519705e-06,0.0317646871972428,-2.086276462975957e-05,0.0317646871972428,1.1562001696766897e-05,0.0317646871972428,-2.613477791867704e-05
0.0325588043771738,-4.986007674642865e-06,0.0325588043771738,-2.03098e-05,0.0325588043771738,6.77332299370574e-06,0.0325588043771738,-3.028191685732841e-05
0.0333529215571049,-5.341510666670291e-06,0.0333529215571049,-1.8779490246219635e-05,0.0333529215571049,4.808394475531834e-06,0.0333529215571049,-3.411301846170035e-05
0.034147038737036,-5.242580959722036e-06,0.034147038737036,-1.698237678737607e-05,0.034147038737036,1.8070883346335517e-06,0.034147038737036,-3.893089690260145e-05
0.0349411559169671,-8.155562607773724e-06,0.0349411559169671,-1.7959590098354477e-05,0.0349411559169671,-1.67849e-07,0.0349411559169671,-4.290023409460277e-05
0.0357352730968981,-5.124325843212882e-06,0.0357352730968981,-2.052701328439413e-05,0.0357352730968981,8.886304443076815e-08,0.0357352730968981,-4.576356786926656e-05
0.0365293902768292,-3.603812609462607e-06,0.0365293902768292,-2.078358255725407e-05,0.0365293902768292,5.430843004010472e-07,0.0365293902768292,-4.635600434322436e-05
0.0373235074567603,-6.2003893937473845e-06,0.0373235074567603,-2.298545270451105e-05,0.0373235074567603,5.231231148002478e-07,0.0373235074567603,-4.4183954553326506e-05
0.0381176246366913,-7.572970901678519e-06,0.0381176246366913,-2.401228640010607e-05,0.0381176246366913,3.0706345899288863e-06,0.0381176246366913,-4.191300541007112e-05
0.0389117418166224,-9.60699055094079e-06,0.0389117418166224,-2.5611749750288376e-05,0.0389117418166224,3.2680845540229717e-06,0.0389117418166224,-3.91482622375906e-05
0.0397058589965535,-1.0495933301861962e-05,0.0397058589965535,-2.6490495523645417e-05,0.0397058589965535,2.4287830995865747e-06,0.0397058589965535,-2.9690178082348783e-05
0.0404999761764846,-5.874823082892568e-06,0.0404999761764846,-2.85343306814624e-05,0.0404999761764846,3.860487049093304e-06,0.0404999761764846,-2.3666820263971743e-05
0.0412940933564156,-1.0120350133311187e-05,0.0412940933564156,-2.6362346286447643e-05,0.0412940933564156,3.86053e-06,0.0412940933564156,-2.3242143707755808e-05
0.0420882105363467,-1.1107718137375725e-05,0.0420882105363467,-2.295584550442373e-05,0.0420882105363467,5.380930540330049e-06,0.0420882105363467,-2.218575929968214e-05
0.0428823277162778,-9.92306281357386e-06,0.0428823277162778,-2.2718785747561957e-05,0.0428823277162778,5.6476700123425785e-06,0.0428823277162778,-2.0448162788888707e-05
0.0436764448962088,-4.788698016918922e-06,0.0436764448962088,-2.36667e-05,0.0436764448962088,3.959291401808933e-06,0.0436764448962088,-1.703182884725834e-05
0.0444705620761399,-5.775827697810383e-06,0.0444705620761399,-2.323225289306556e-05,0.0444705620761399,2.004339572680021e-06,0.0444705620761399,-1.8552103845879813e-05
0.045264679256071,-9.56741e-06,0.045264679256071,-2.23239e-05,0.045264679256071,5.7286458318001e-07,0.045264679256071,-2.408105637693169e-05
0.046058796436002,-6.408042965210164e-06,0.046058796436002,-2.090217335949188e-05,0.046058796436002,-3.05080386548379e-06,0.046058796436002,-2.8573747633419053e-05
0.0468529136159331,-6.625139650284961e-06,0.0468529136159331,-1.873013439405569e-05,0.0468529136159331,-2.4979587376111057e-06,0.0468529136159331,-2.6845937430544937e-05
0.0476470307958642,-7.316346624396888e-06,0.0476470307958642,-1.821660885626276e-05,0.0476470307958642,-1.293376687801556e-06,0.0476470307958642,-2.169253171469757e-05
0.0484411479757953,-6.960708482101341e-06,0.0484411479757953,-1.910530429324159e-05,0.0484411479757953,-4.443814328001158e-07,0.0484411479757953,-1.5649865989006987e-05
0.0492352651557263,-7.711201952947086e-06,0.0492352651557263,-1.697259095403685e-05,0.0492352651557263,1.0169575764413376e-06,0.0492352651557263,-6.802897388866088e-06
0.0500293823356574,-5.933924027871892e-06,0.0500293823356574,-1.9598445552546695e-05,0.0500293823356574,-2.664638655685716e-07,0.0500293823356574,1.8856145316013744e-06
0.0508234995155885,-1.1068279329432444e-05,0.0508234995155885,-2.3469182563489532e-05,0.0508234995155885,-4.65034378037837e-06,0.0508234995155885,1.0415846040099157e-05
0.0516176166955195,-6.684508008813725e-06,0.0516176166955195,-2.43381e-05,0.0516176166955195,-5.499522469787169e-06,0.0516176166955195,2.305423104359332e-05
0.0524117338754506,-3.110168265580241e-06,0.0524117338754506,-2.2758415947719693e-05,0.0524117338754506,-6.467154148155439e-06,0.0524117338754506,3.257266829631088e-05
0.0532058510553817,-6.684436974042328e-06,0.0532058510553817,-2.0744236411534297e-05,0.0532058510553817,-6.092290836041608e-06,0.0532058510553817,2.317476039254836e-05
0.0539999682353128,-4.196367443856738e-06,0.0539999682353128,-2.232378704325505e-05,0.0539999682353128,8.389023902899183e-07,0.0539999682353128,-2.8522946329349683e-06
0.0547940854152438,-3.327358285586646e-06,0.0547940854152438,-2.0428405546915374e-05,0.0547940854152438,4.18634935261179e-06,0.0547940854152438,-2.8070248282838012e-05
0.0555882025951749,-5.8153781554769176e-06,0.0555882025951749,-2.042812680458753e-05,0.0555882025951749,7.0988204270138805e-06,0.0555882025951749,-3.77661e-05
0.056382319775106,-6.37827e-06,0.056382319775106,-2.2521337740233177e-05,0.056382319775106,7.79025688708921e-06,0.056382319775106,-3.587083598486949e-05
0.057176436955037,-6.7929409424466645e-06,0.057176436955037,-2.1573670470701275e-05,0.057176436955037,7.1878936474822215e-06,0.057176436955037,-2.6194554100711136e-05
0.0579705541349681,-5.993351784788013e-06,0.0579705541349681,-2.076398158106932e-05,0.0579705541349681,5.440578276317113e-06,0.0579705541349681,-1.2885516557681132e-05
0.0587646713148992,-3.840615352624444e-06,0.0587646713148992,-2.1336426859280677e-05,0.0587646713148992,-1.4708129425398902e-06,0.0587646713148992,-5.035830829059303e-06
0.0595587884948302,-7.0791440131402085e-06,0.0595587884948302,-2.275833892967155e-05,0.0595587884948302,-3.2089074933843555e-06,0.0595587884948302,3.058678841748017e-07
0.0603529056747613,-8.343092502647928e-06,0.0603529056747613,-2.315320013488979e-05,0.0603529056747613,9.873422647220041e-09,0.0603529056747613,6.941057037649027e-06
0.0611470228546924,-6.1908306450435885e-06,0.0611470228546924,-2.2126554137835063e-05,0.0611470228546924,2.9620745195271187e-06,0.0611470228546924,7.88891e-06
0.0619411400346235,-4.80848037836878e-06,0.0619411400346235,-1.9559482902434437e-05,0.0619411400346235,1.11579090696236e-06,0.0619411400346235,1.140341998234071e-05
0.0627352572145545,-3.603827879858286e-06,0.0627352572145545,-1.841410725375205e-05,0.0627352572145545,-6.022535370393801e-07,0.0627352572145545,2.380468289625274e-05
0.0635293743944856,-4.512137535347225e-06,0.0635293743944856,-2.1020376941320383e-05,0.0635293743944856,4.6396089496777606e-07,0.0635293743944856,4.428174235186299e-05
0.0643234915744167,-5.38093172648621e-06,0.0643234915744167,-2.3804845122608747e-05,0.0643234915744167,2.18204e-06,0.0643234915744167,5.832240814333371e-05
0.0651176087543477,-9.17227860635437e-06,0.0651176087543477,-2.4022223211325533e-05,0.0651176087543477,1.2934797712059056e-06,0.0651176087543477,6.02579e-05
0.0659117259342788,-1.1719827677470656e-05,0.0659117259342788,-2.1435504055795364e-05,0.0659117259342788,7.010191460484237e-07,0.0659117259342788,5.7888232129647866e-05
0.0667058431142099,-8.975298222963471e-06,0.0667058431142099,-2.147485490745287e-05,0.0667058431142099,2.596604465307596e-06,0.0667058431142099,4.56465415994489e-05
0.067499960294141,-8.224552732295002e-06,0.067499960294141,-2.16526e-05,0.067499960294141,5.203158195179063e-06,0.067499960294141,2.6689030834043457e-05
0.068294077474072,-8.145675386678385e-06,0.068294077474072,-1.928301248586177e-05,0.068294077474072,5.3020730546810055e-06,0.068294077474072,5.434160348347307e-07
0.0690881946540031,-4.47257081782536e-06,0.0690881946540031,-1.906558489357524e-05,0.0690881946540031,5.87472e-06,0.0690881946540031,-2.456288098151628e-05
0.0698823118339342,-7.55322e-06,0.0698823118339342,-2.1237797820056137e-05,0.0698823118339342,6.595276761473888e-06,0.0698823118339342,-4.514044578439078e-05
0.0706764290138652,-4.788812553693654e-06,0.0706764290138652,-2.09812e-05,0.0706764290138652,8.501051568108645e-06,0.0706764290138652,-6.161996390704207e-05
0.0714705461937963,-4.235585904273503e-06,0.0714705461937963,-2.16328398531824e-05,0.0714705461937963,3.071067580267845e-06,0.0714705461937963,-7.970754723418802e-05
0.0722646633737274,-3.880469906321297e-06,0.0722646633737274,-2.323210912604232e-05,0.0722646633737274,-1.67849e-07,0.0722646633737274,-9.457723100340554e-05
0.0730587805536585,-3.4852829708287355e-06,0.0730587805536585,-2.3390276256832373e-05,0.0730587805536585,-7.996985585062343e-07,0.0730587805536585,-0.0001029897319617
0.0738528977335895,-3.76180645900745e-06,0.0738528977335895,-2.1731544932908357e-05,0.0738528977335895,-1.5205223442555874e-06,0.0738528977335895,-0.000102911420512
0.0746470149135206,-5.597753579099357e-06,0.0746470149135206,-2.275831929490617e-05,0.0746470149135206,3.030588813189317e-06,0.0746470149135206,-7.98507445930755e-05
0.0754411320934517,-9.56741e-06,0.0754411320934517,-2.438745849092939e-05,0.0754411320934517,6.466968074440108e-06,0.0754411320934517,-3.786738562864664e-05
0.0762352492733827,-8.797320820142224e-06,0.0762352492733827,-2.3814855729679963e-05,0.0762352492733827,9.685777106400544e-06,0.0762352492733827,-1.7977852320945092e-06
0.0770293664533138,-8.086470578892085e-06,0.0770293664533138,-2.3864379057184452e-05,0.0770293664533138,9.587208620939891e-06,0.0770293664533138,1.0396748042047808e-05
0.0778234836332449,-7.23699085552217e-06,0.0778234836332449,-1.973736543890568e-05,0.0778234836332449,8.027554598388423e-06,0.0778234836332449,3.644392532806754e-06
0.078617600813176,-1.0673087273664772e-05,0.078617600813176,-1.837453277286645e-05,0.078617600813176,2.5772286620329247e-06,0.078617600813176,-9.369387062507936e-06
0.079411717993107,-1.0258572903866233e-05,0.079411717993107,-1.959885308276596e-05,0.079411717993107,-3.6531500745015453e-07,0.079411717993107,-1.7189732765388444e-05
0.0802058351730381,-1.134414586538324e-05,0.0802058351730381,-1.96384e-05,0.0802058351730381,-1.4119599407327603e-06,0.0802058351730381,-1.391308151711736e-05
0.0809999523529692,-1.4267131277730432e-05,0.0809999523529692,-2.0645407578342207e-05,0.0809999523529692,1.677115565867877e-07,0.0809999523529692,5.873276839504047e-06
0.0817940695329002,-8.303750713748254e-06,0.0817940695329002,-2.200792431626412e-05,0.0817940695329002,8.589762393791606e-07,0.0817940695329002,3.194018059123705e-05
0.0825881867128313,-7.572639294565597e-06,0.0825881867128313,-2.291645849514898e-05,0.0825881867128313,5.104008022793161e-06,0.0825881867128313,5.232733158825467e-05
0.0833823038927624,-7.909010257089427e-06,0.0833823038927624,-2.1060317580587277e-05,0.0833823038927624,9.113359215035398e-06,0.0833823038927624,7.007125497144249e-05
0.0841764210726934,-4.018632873109347e-06,0.0841764210726934,-2.252117247788134e-05,0.0841764210726934,5.7367038979434055e-06,0.0841764210726934,7.459425663498861e-05
0.0849705382526245,-8.164925169032804e-06,0.0849705382526245,-2.3133567400569617e-05,0.0849705382526245,6.025635984032853e-07,0.0849705382526245,6.096995541590052e-05
0.0857646554325556,-8.778063506906742e-06,0.0857646554325556,-1.924350285302596e-05,0.0857646554325556,-2.260974884444519e-06,0.0857646554325556,3.897326986120049e-05
0.0865587726124866,-4.630827090584778e-06,0.0865587726124866,-1.944090160251072e-05,0.0865587726124866,-3.1495809280849927e-06,0.0865587726124866,1.3725468260265196e-05
0.0873528897924177,-4.3147239563595244e-06,0.0873528897924177,-1.967828161302553e-05,0.0873528897924177,-4.1074088472583335e-06,0.0873528897924177,-5.2029331325632524e-06
0.0881470069723488,-2.6166009855316586e-06,0.0881470069723488,-1.8394280357959383e-05,0.0881470069723488,-1.7474790144683411e-06,0.0881470069723488,-2.3388671912691583e-05
0.0889411241522799,-2.18204e-06,0.0889411241522799,-1.900665265069128e-05,0.0889411241522799,-4.137115326488569e-06,0.0889411241522799,-3.77252569087786e-05
0.0897352413322109,-2.310385333215063e-06,0.0897352413322109,-1.898664908704054e-05,0.0897352413322109,-1.3923099228473171e-06,0.0897352413322109,-5.759124532434481e-05
0.090529358512142,-8.788749686904588e-07,0.090529358512142,-2.141574979766532e-05,0.090529358512142,1.11549866415354e-06,0.090529358512142,-7.358672316421999e-05
0.0913234756920731,-1.0168140709617396e-06,0.0913234756920731,-1.9944530242322957e-05,0.0913234756920731,5.1339819301253335e-06,0.0913234756920731,-7.29556889427291e-05
0.0921175928720041,-3.0310411568791068e-06,0.0921175928720041,-2.1612899365752857e-05,0.0921175928720041,7.414883512269219e-06,0.0921175928720041,-6.18878483703268e-05
0.0929117100519352,-3.120020434408878e-06,0.0929117100519352,-2.29953e-05,0.0929117100519352,7.355759131182243e-06,0.0929117100519352,-3.474525451092856e-05
0.0937058272318663,-3.722178664822881e-06,0.0937058272318663,-2.3173055359642743e-05,0.0937058272318663,8.994684332411441e-06,0.0937058272318663,-1.5689354005531356e-05
0.0944999444117974,-2.85360035076813e-06,0.0944999444117974,-2.33309640582442e-05,0.0944999444117974,7.889070351962291e-06,0.0944999444117974,-1.896643876813198e-05
0.0952940615917284,-5.232658257608771e-07,0.0952940615917284,-2.5542550469920555e-05,0.0952940615917284,2.2612366505696904e-06,0.0952940615917284,-3.156510081536295e-05
0.0960881787716595,-3.406071705256088e-06,0.0960881787716595,-2.425927316143214e-05,0.0960881787716595,-2.96908679085648e-08,0.0960881787716595,-4.368869690374021e-05
0.0968822959515906,-5.134090162004082e-06,0.0968822959515906,-2.309404057437332e-05,0.0968822959515906,1.135496170197085e-06,0.0968822959515906,-5.593240162638324e-05
0.0976764131315216,-5.598298120041859e-06,0.0976764131315216,-2.2126664946174905e-05,0.0976764131315216,-2.6646951692487905e-07,0.0976764131315216,-6.568788183035292e-05
0.0984705303114527,-4.551585049633544e-06,0.0984705303114527,-2.042829698467895e-05,0.0984705303114527,-1.84634e-06,0.0984705303114527,-6.616286758003758e-05
0.0992646474913838,-5.953649157588718e-06,0.0992646474913838,-2.0862815975125007e-05,0.0992646474913838,-7.108613436762249e-07,0.0992646474913838,-4.896502805067597e-05
0.1000587646713148,-5.578328360898119e-06,0.1000587646713148,-1.983636459434132e-05,0.1000587646713148,-1.6293666684139162e-06,0.1000587646713148,-2.705968103207665e-05
0.1008528818512459,-6.9608064243362585e-06,0.1008528818512459,-2.0467471435311256e-05,0.1008528818512459,8.589893020769494e-07,0.1008528818512459,-8.422100865714786e-06
0.101646999031177,-5.934649767443592e-06,0.101646999031177,-2.046762553076636e-05,0.101646999031177,2.18204e-06,0.101646999031177,-1.67849e-07
0.1024411162111081,-4.352838656752248e-06,0.1024411162111081,-2.03098e-05,0.1024411162111081,5.03548e-07,0.1024411162111081,-4.075867121713463e-06
0.1032352333910391,-6.88182e-06,0.1032352333910391,-2.03098e-05,0.1032352333910391,1.0167931692630387e-06,0.1032352333910391,-9.6062098504442e-06
0.1040293505709702,-6.052402861213061e-06,0.1040293505709702,-2.1949069747896413e-05,0.1040293505709702,1.628984721339508e-06,0.1040293505709702,-1.5333988526656338e-05
0.1048234677509013,-5.301395459419982e-06,0.1048234677509013,-2.204787978350229e-05,0.1048234677509013,4.842181721071313e-07,0.1048234677509013,-2.469739860833511e-05
0.1056175849308323,-4.7890616614212085e-06,0.1056175849308323,-2.1997957367927816e-05,0.1056175849308323,2.360603322842416e-06,0.1056175849308323,-3.520192162994845e-05
0.1064117021107634,-8.738785708556263e-06,0.1064117021107634,-2.3598112350551063e-05,0.1064117021107634,2.536859557214264e-06,0.1064117021107634,-3.689710473422947e-05
0.1072058192906945,-1.09102e-05,0.1072058192906945,-2.0825703275618617e-05,0.1072058192906945,4.541606495847802e-07,0.1072058192906945,-3.539617709418692e-05
0.1079999364706256,-1.1245854234311188e-05,0.1079999364706256,-1.846348218424272e-05,0.1079999364706256,8.391773517394412e-07,0.1079999364706256,-2.9709849188265736e-05
0.1087940536505566,-8.66950893072382e-06,0.1087940536505566,-2.153499912734934e-05,0.1087940536505566,-1.67849e-07,0.1087940536505566,-1.4568228424012454e-05
0.1095881708304877,-8.914670918850285e-06,0.1095881708304877,-2.2917245329295e-05,0.1095881708304877,2.7937660120203764e-06,0.1095881708304877,9.992763918825938e-06
0.1103822880104188,-1.1324284882140202e-05,0.1103822880104188,-2.125766672409404e-05,0.1103822880104188,9.39786988057127e-07,0.1103822880104188,3.362688596796309e-05
0.1111764051903498,-1.1641100166522626e-05,0.1111764051903498,-2.3034941773847025e-05,0.1111764051903498,-1.944040397361976e-06,0.1111764051903498,5.625889350561753e-05
0.1119705223702809,-1.1739708670164562e-05,0.1119705223702809,-2.224595039252497e-05,0.1119705223702809,-4.512447340329125e-06,0.1119705223702809,7.241983049138662e-05
0.112764639550212,-1.09102e-05,0.112764639550212,-1.890772563197268e-05,0.112764639550212,-2.6660046253148215e-07,0.112764639550212,7.138542947932027e-05
0.1135587567301431,-1.0594167883206376e-05,0.1135587567301431,-1.8157760637272927e-05,0.1135587567301431,-1.2851340935027934e-07,0.1135587567301431,6.031555766412752e-05
0.1143528739100741,-1.1779046207414174e-05,0.1143528739100741,-1.8926244649123644e-05,0.1143528739100741,1.925299877023716e-06,0.1143528739100741,4.468756846864672e-05
0.1151469910900052,-1.1305875631382482e-05,0.1151469910900052,-2.25218160970704e-05,0.1151469910900052,1.2349163367205034e-06,0.1151469910900052,2.694739664641093e-05
0.1159411082699363,-9.922670421973371e-06,0.1159411082699363,-2.29953e-05,0.1159411082699363,-1.0379482121334825e-06,0.1159411082699363,1.002653051663974e-05
0.1167352254498673,-1.02388e-05,0.1167352254498673,-2.0784675827324e-05,0.1167352254498673,2.714659530306581e-06,0.1167352254498673,-5.497147387370016e-06
0.1175293426297984,-1.1423588581924168e-05,0.1175293426297984,-1.7821240687296056e-05,0.1175293426297984,2.744918545189578e-06,0.1175293426297984,-1.5965971271137466e-05
0.1183234598097295,-8.735772736973019e-06,0.1183234598097295,-1.8728626439917644e-05,0.1183234598097295,6.0929871742965405e-06,0.1183234598097295,-2.505093497320681e-05
0.1191175769896605,-3.0891782434312477e-06,0.1191175769896605,-2.3902914371602224e-05,0.1191175769896605,8.778140293090717e-06,0.1191175769896605,-3.0737780781575245e-05
0.1199116941695916,-3.405877754868847e-06,0.1199116941695916,-2.4732607325249007e-05,0.1199116941695916,6.03198868935521e-06,0.1199116941695916,-3.5318416262054546e-05
0.1207058113495227,1.6293930350465545e-06,0.1207058113495227,-2.19883e-05,0.1207058113495227,4.058067935633463e-06,0.1207058113495227,-4.027414483908366e-05
0.1214999285294538,3.860478513600085e-06,0.1214999285294538,-2.3330815099224687e-05,0.1214999285294538,4.867578513600085e-06,0.1214999285294538,-4.2633519805268805e-05
0.1222940457093848,6.535767432777973e-06,0.1222940457093848,-2.4140084135026e-05,0.1222940457093848,2.241828648253744e-06,0.1222940457093848,-4.571358999698235e-05
0.1230881628893159,5.046680473051035e-06,0.1230881628893159,-2.17306341261744e-05,0.1230881628893159,1.906025454007052e-06,0.1230881628893159,-4.6218185454007054e-05
0.123882280069247,3.40727104314414e-06,0.123882280069247,-2.358768450431341e-05,0.123882280069247,1.144252310884057e-06,0.123882280069247,-4.2902179751661645e-05
0.124676397249178,1.9653517744674627e-06,0.124676397249178,-2.2057014285557237e-05,0.124676397249178,1.9058458872337317e-06,0.124676397249178,-4.11231e-05
0.1254705144291091,1.0168284351188083e-06,0.1254705144291091,-2.1533917714550947e-05,0.1254705144291091,1.8732063124590465e-07,0.1254705144291091,-3.934724390875666e-05
0.1262646316090402,1.6785874265310471e-06,0.1262646316090402,-2.16526e-05,0.1262646316090402,6.812924948180636e-07,0.1262646316090402,-3.3579745789035174e-05
0.1270587487889713,-3.979821276464764e-06,0.1270587487889713,-2.212605858083931e-05,0.1270587487889713,-1.481755009894348e-07,0.1270587487889713,-3.55945110702394e-05
0.1278528659689023,-4.53193e-06,0.1278528659689023,-2.1594172776873622e-05,0.1278528659689023,1.4710780898267078e-06,0.1278528659689023,-3.673930034756036e-05
0.1286469831488334,-6.367719724259555e-06,0.1286469831488334,-2.0823353923172972e-05,0.1286469831488334,3.406448272619585e-06,0.1286469831488334,-3.235598847660153e-05
0.1294411003287645,-9.577192344479838e-06,0.1294411003287645,-2.080308158410492e-05,0.1294411003287645,2.547087033439512e-06,0.1294411003287645,-2.809259435456456e-05
0.1302352175086955,-8.067275337609211e-06,0.1302352175086955,-1.9145100475901132e-05,0.1302352175086955,1.6099118944633304e-06,0.1302352175086955,-1.8791106622398797e-05
0.1310293346886266,-8.659250468047174e-06,0.1310293346886266,-1.914485937518983e-05,0.1310293346886266,2.754992266894345e-06,0.1310293346886266,-7.88841726505848e-06
0.1318234518685577,-1.0060610188185012e-05,0.1318234518685577,-2.021045894861631e-05,0.1318234518685577,5.87472e-06,0.1318234518685577,4.261209909392251e-07
0.1326175690484888,-9.23171e-06,0.1326175690484888,-1.989537728567812e-05,0.1326175690484888,4.985515735392338e-06,0.1326175690484888,3.18914e-06
0.1334116862284198,-8.027026200256885e-06,0.1334116862284198,-1.803833031305936e-05,0.1334116862284198,6.991158812604911e-06,0.1334116862284198,-3.131594813268588e-06
0.1342058034083509,-8.22461e-06,0.1342058034083509,-1.76242e-05,0.1342058034083509,5.736311915789114e-06,0.1342058034083509,-1.6519257328412033e-05
0.134999920588282,-7.049870223184453e-06,0.134999920588282,-2.064503771363465e-05,0.134999920588282,3.189311619628943e-06,0.134999920588282,-3.440738378666943e-05
0.135794037768213,-5.53903e-06,0.135794037768213,-2.192795208293261e-05,0.135794037768213,2.2809178950771345e-06,0.135794037768213,-4.16852347450312e-05
0.1365881549481441,-6.564727699913836e-06,0.1365881549481441,-2.039756891072546e-05,0.1365881549481441,1.0574867698507377e-06,0.1365881549481441,-3.8469264815868216e-05
0.1373822721280752,-8.97437195008537e-06,0.1373822721280752,-2.2906380597428272e-05,0.1373822721280752,-9.567882248425324e-07,0.1373822721280752,-3.689347170051222e-05
0.1381763893080062,-9.56741e-06,0.1381763893080062,-2.6639094561717547e-05,0.1381763893080062,-2.6749051761654943e-06,0.1381763893080062,-4.708013913694026e-05
0.1389705064879373,-7.514295736185841e-06,0.1389705064879373,-2.7201748810548652e-05,0.1389705064879373,-4.84087810125161e-07,0.1389705064879373,-5.739347561229328e-05
0.1397646236678684,-7.197703186646033e-06,0.1397646236678684,-2.5325315430018103e-05,0.1397646236678684,-1.0366730504647511e-06,0.1397646236678684,-4.922002536399704e-05
0.1405587408477994,-8.540630650766218e-06,0.1405587408477994,-2.319318114382198e-05,0.1405587408477994,-2.1525209761493247e-06,0.1405587408477994,-1.5052065981116705e-05
0.1413528580277305,-8.283859957086937e-06,0.1413528580277305,-2.4495740616220243e-05,0.1413528580277305,-1.3330445752692049e-06,0.1413528580277305,5.505201535089859e-05
0.1421469752076616,-1.185723616708845e-05,0.1421469752076616,-2.398241269971473e-05,0.1421469752076616,3.899413598967787e-06,0.1421469752076616,0.0001433574428215
0.1429410923875927,-1.4149846264324324e-05,0.1429410923875927,-2.39035670874714e-05,0.1429410923875927,4.453694758848206e-06,0.1429410923875927,0.0002095783451132
0.1437352095675237,-1.071334911822662e-05,0.1437352095675237,-2.0350845855768755e-05,0.1437352095675237,3.18914e-06,0.1437352095675237,0.0002080880739873
0.1445293267474548,-9.9031e-06,0.1445293267474548,-1.7861359110291285e-05,0.1445293267474548,3.86053e-06,0.1445293267474548,0.0001471809089967
0.1453234439273859,-8.688141613642066e-06,0.1453234439273859,-1.888752164009021e-05,0.1453234439273859,1.2524288082490537e-06,0.1453234439273859,6.726644621599943e-05
0.146117561107317,-6.387276157487261e-06,0.146117561107317,-1.8967e-05,0.146117561107317,-4.178218855754353e-06,0.146117561107317,-9.908048268273183e-06
0.146911678287248,-4.848420333646978e-06,0.146911678287248,-1.9599174570439972e-05,0.146911678287248,-3.682167485178191e-06,0.146911678287248,-5.449702526974039e-05
0.1477057954671791,-8.856582505367952e-06,0.1477057954671791,-2.117952405588421e-05,0.1477057954671791,-2.577067065319265e-06,0.1477057954671791,-7.316289907391235e-05
0.1484999126471102,-7.889224639110516e-06,0.1484999126471102,-1.963856950500058e-05,0.1484999126471102,-5.538652433067382e-06,0.1484999126471102,-7.737853145453842e-05
0.1492940298270412,-8.461426371909144e-06,0.1492940298270412,-2.119927507647157e-05,0.1492940298270412,-4.690645194859168e-06,0.1492940298270412,-6.664909964788698e-05
0.1500881470069723,-7.001236772123732e-06,0.1500881470069723,-2.1535601731322345e-05,0.1500881470069723,-8.206654869118193e-07,0.1500881470069723,-5.202991740486613e-05
0.1508822641869034,-4.859191410869615e-06,0.1508822641869034,-2.023075368522237e-05,0.1508822641869034,1.17494e-06,0.1508822641869034,-3.804574757971025e-05
0.1516763813668344,-2.1439248703476534e-06,0.1516763813668344,-2.194867360606474e-05,0.1516763813668344,2.279670685376244e-06,0.1516763813668344,-3.397576931462376e-05
0.1524704985467655,-2.270827083851073e-06,0.1524704985467655,-2.100157767543817e-05,0.1524704985467655,7.137186929982541e-06,0.1524704985467655,-2.355260203332163e-05
0.1532646157266966,-4.05775760012447e-06,0.1532646157266966,-1.9954246249109224e-05,0.1532646157266966,7.494084031967861e-06,0.1532646157266966,-9.133287759963771e-06
0.1540587329066277,-8.145870257399137e-06,0.1540587329066277,-1.805884569854823e-05,0.1540587329066277,5.262384660353371e-06,0.1540587329066277,-3.642940493484952e-06
0.1548528500865587,-1.450381529218657e-05,0.1548528500865587,-2.024994136165298e-05,0.1548528500865587,1.0172035887593871e-06,0.1548528500865587,-1.2844743291772034e-05
0.1556469672664898,-1.947933787872328e-05,0.1556469672664898,-2.1790954964864967e-05,0.1556469672664898,-1.290082094149162e-07,0.1556469672664898,-3.237178742404217e-05
0.1564410844464209,-2.3115920372357294e-05,0.1564410844464209,-2.2797644428217324e-05,0.1564410844464209,3.622596114661289e-06,0.1564410844464209,-4.830627735037419e-05
0.157235201626352,-1.3993139289141791e-05,0.157235201626352,-2.1495013607444205e-05,0.157235201626352,6.229733394526132e-06,0.157235201626352,-6.282207450878054e-05
0.158029318806283,1.8073717246558557e-06,0.158029318806283,-2.177117441863048e-05,0.158029318806283,5.420453426699532e-06,0.158029318806283,-7.672711383913786e-05
0.1588234359862141,1.731030225342173e-05,0.1588234359862141,-2.169234430659215e-05,0.1588234359862141,3.762373009202436e-06,0.1588234359862141,-7.619078495398782e-05
0.1596175531661451,2.13169e-05,0.1596175531661451,-2.267891201167258e-05,0.1596175531661451,6.053192765522739e-06,0.1596175531661451,-6.41439445205765e-05
0.1604116703460762,1.626043199541161e-05,0.1604116703460762,-2.4614946446114445e-05,0.1604116703460762,6.348547666284301e-06,0.1604116703460762,-4.75573441749355e-05
0.1612057875260073,8.32308052459171e-06,0.1612057875260073,-2.3529339465429692e-05,0.1612057875260073,2.695381156121885e-06,0.1612057875260073,-3.873375530632687e-05
0.1619999047059384,-3.3470260076707013e-07,0.1619999047059384,-2.29953e-05,0.1619999047059384,2.517534054400319e-06,0.1619999047059384,-3.843770594559968e-05
0.1627940218858694,-5.7159761402431385e-06,0.1627940218858694,-2.058526072732504e-05,0.1627940218858694,2.132595319447724e-06,0.1627940218858694,-2.7876017173813822e-05
0.1635881390658005,-7.709756333214677e-06,0.1635881390658005,-2.0387778299724416e-05,0.1635881390658005,2.2417598520892594e-06,0.1635881390658005,-2.0746389334401667e-05
0.1643822562457316,-1.144174754507634e-05,0.1643822562457316,-2.13564014540454e-05,0.1643822562457316,-1.0742623540110204e-06,0.1643822562457316,-1.3875504909847315e-05
0.1651763734256627,-1.2648223049367025e-05,0.1651763734256627,-2.1573357465404e-05,0.1651763734256627,-1.748732197468092e-06,0.1651763734256627,-8.148446947465323e-06
0.1659704906055937,-1.0091710384056332e-05,0.1659704906055937,-1.989618847497285e-05,0.1659704906055937,8.975558634983594e-07,0.1659704906055937,2.809292251738758e-06
0.1667646077855248,-9.369767307996238e-06,0.1667646077855248,-2.1336705280974106e-05,0.1667646077855248,3.0312201133017867e-06,0.1667646077855248,3.2373092400151654e-05
0.1675587249654559,-1.3754282662649208e-05,0.1675587249654559,-2.228512299958829e-05,0.1675587249654559,1.2537032610447966e-06,0.1675587249654559,6.918673858044927e-05
0.1683528421453869,-1.2944234140603871e-05,0.1683528421453869,-2.139571003507977e-05,0.1683528421453869,1.5696528416937644e-06,0.1683528421453869,6.766408576468331e-05
0.169146959325318,-1.146323194514136e-05,0.169146959325318,-2.16526e-05,0.169146959325318,7.729793496572402e-06,0.169146959325318,3.561995698277483e-05
0.1699410765052491,-1.110906815286059e-05,0.1699410765052491,-2.0467435411505396e-05,0.1699410765052491,1.12459e-05,0.1699410765052491,8.254339580105581e-06
0.1707351936851801,-7.613032449274535e-06,0.1707351936851801,-1.96384e-05,0.1707351936851801,9.19313133265447e-06,0.1707351936851801,-2.5514920997439127e-05
0.1715293108651112,-7.86919236422112e-06,0.1715293108651112,-2.346957712846126e-05,0.1715293108651112,4.2554034948531554e-06,0.1715293108651112,-6.647890577983e-05
0.1723234280450423,-8.22461e-06,0.1723234280450423,-2.2858347166147125e-05,0.1723234280450423,3.603611721457941e-06,0.1723234280450423,-9.148016053702124e-05
0.1731175452249733,-7.631844497645408e-06,0.1731175452249733,-2.239298332037193e-05,0.1731175452249733,2.0035913374316776e-06,0.1731175452249733,-9.084263101844254e-05
0.1739116624049044,-7.55322e-06,0.1739116624049044,-2.170165454682887e-05,0.1739116624049044,-2.024642073084188e-06,0.1739116624049044,-5.314062344318628e-05
0.1747057795848355,-6.486838798448846e-06,0.1747057795848355,-2.16526e-05,0.1747057795848355,-2.458455856952398e-06,0.1747057795848355,6.784352214464631e-06
0.1754998967647666,-4.364340292355088e-06,0.1754998967647666,-2.098133354939441e-05,0.1754998967647666,-1.51064e-06,0.1754998967647666,7.199904505818845e-05
0.1762940139446976,-6.663167098872335e-06,0.1762940139446976,-2.066556948452798e-05,0.1762940139446976,-3.761634905881741e-06,0.1762940139446976,0.0001107440652039
0.1770881311246287,-8.422325659058351e-06,0.1770881311246287,-2.228492692877982e-05,0.1770881311246287,-2.3015026362334e-06,0.1770881311246287,0.000108569730102
0.1778822483045598,-7.318238510620845e-06,0.1778822483045598,-2.0862836178491504e-05,0.1778822483045598,9.175728520249968e-07,0.1778822483045598,7.347329224218662e-05
0.1786763654844909,-5.53903e-06,0.1786763654844909,-2.034941614066076e-05,0.1786763654844909,1.297928997904831e-07,0.1786763654844909,3.095506677172748e-05
0.1794704826644219,-7.117653794632003e-06,0.1794704826644219,-2.021150566301947e-05,0.1794704826644219,2.082181910363028e-06,0.1794704826644219,-1.1925762441816698e-05
0.180264599844353,-1.1068108445276005e-05,0.180264599844353,-1.9598943427257348e-05,0.180264599844353,2.1624483500569783e-06,0.180264599844353,-3.934516093348015e-05
0.181058717024284,-1.0001582741374544e-05,0.181058717024284,-2.192810567020429e-05,0.181058717024284,-7.309152191802661e-07,0.181058717024284,-4.764003451725091e-05
0.1818528342042151,-7.573067809197754e-06,0.1818528342042151,-2.248150979712921e-05,0.1818528342042151,-1.51064e-06,0.1818528342042151,-5.249709732071005e-05
0.1826469513841462,-7.898609956931178e-06,0.1826469513841462,-2.427908207762908e-05,0.1826469513841462,-1.273917471811869e-06,0.1826469513841462,-5.212254950272384e-05
0.1834410685640773,-6.88182e-06,0.1834410685640773,-2.4229135821355463e-05,0.1834410685640773,-8.001626608262155e-07,0.1834410685640773,-4.9714407701666114e-05
0.1842351857440083,-7.138411318162256e-06,0.1842351857440083,-2.31632e-05,0.1842351857440083,8.585078648310334e-07,0.1842351857440083,-4.570516077286421e-05
0.1850293029239394,-6.21042e-06,0.1850293029239394,-2.342957170879972e-05,0.1850293029239394,4.452993104020032e-06,0.1850293029239394,-4.137975466931697e-05
0.1858234201038705,-5.262704310878398e-06,0.1858234201038705,-2.3587190880266664e-05,0.1858234201038705,4.936145601047211e-06,0.1858234201038705,-3.622463120209442e-05
0.1866175372838016,-5.53903e-06,0.1866175372838016,-2.119887895778286e-05,0.1866175372838016,2.6553538145594885e-06,0.1866175372838016,-3.166302997160139e-05
0.1874116544637326,-2.7145293773801155e-06,0.1874116544637326,-1.8729440621627648e-05,0.1874116544637326,1.6287219804449615e-06,0.1874116544637326,-2.771439566155859e-05
0.1882057716436637,-3.34713857241536e-06,0.1882057716436637,-1.8610953143652847e-05,0.1882057716436637,-1.51064e-06,0.1882057716436637,-2.528593878900717e-05
0.1889998888235948,-4.196310089955415e-06,0.1889998888235948,-1.8967e-05,0.1889998888235948,1.0064993277201485e-06,0.1889998888235948,-2.232438053973249e-05
0.1897940060035258,-2.8144395352884533e-06,0.1897940060035258,-1.8453420394251197e-05,0.1897940060035258,5.7549163290517054e-06,0.1897940060035258,-2.34090244982827e-05
0.1905881231834569,-8.989860722849073e-07,0.1905881231834569,-2.050682935489193e-05,0.1905881231834569,7.0013055682882335e-06,0.1905881231834569,-2.6154578607927945e-05
0.191382240363388,-1.3931668042039276e-06,0.191382240363388,-1.9994020905690155e-05,0.191382240363388,3.7038989945079417e-06,0.191382240363388,-2.5602583914024256e-05
0.192176357543319,1.868624824041924e-07,0.192176357543319,-2.181103225656637e-05,0.192176357543319,2.51774e-06,0.192176357543319,-2.4457168981578496e-05
0.1929704747232501,-2.753533749824687e-06,0.1929704747232501,-2.2669844271374843e-05,0.1929704747232501,1.84634e-06,0.1929704747232501,-2.271928104029216e-05
0.1937645919031812,-5.0255270038537976e-06,0.1937645919031812,-2.311378709787256e-05,0.1937645919031812,2.438791498073101e-06,0.1937645919031812,-2.0902251498073104e-05
0.1945587090831123,-4.591036843865848e-06,0.1945587090831123,-2.2719744313840028e-05,0.1945587090831123,1.234046843865848e-06,0.1945587090831123,-2.127749543742277e-05
0.1953528262630433,-2.616394307542625e-06,0.1953528262630433,-2.113879952409889e-05,0.1953528262630433,2.043648615085251e-06,0.1953528262630433,-1.9678137077372125e-05
0.1961469434429744,-6.012452829659421e-06,0.1961469434429744,-2.0240429724262087e-05,0.1961469434429744,3.288120348003009e-06,0.1961469434429744,-1.738748682233757e-05
0.1969410606229055,-3.932494957757247e-06,0.1969410606229055,-1.7150424811959153e-05,0.1969410606229055,8.197100924986435e-07,0.1969410606229055,-1.543417578497981e-05
0.1977351778028366,2.516669463694533e-06,0.1977351778028366,-1.886754256062609e-05,0.1977351778028366,1.4015914764386947e-06,0.1977351778028366,-1.1305772012744162e-05
0.1985292949827676,3.208880518282472e-06,0.1985292949827676,-2.144541518118861e-05,0.1985292949827676,2.0043170938092228e-06,0.1985292949827676,-1.15816e-05
0.1993234121626987,2.0633028196654053e-06,0.1993234121626987,-2.3467913411295243e-05,0.1993234121626987,2.6947627540798653e-06,0.1993234121626987,-1.0455762819665406e-05
0.2001175293426297,4.733321142190876e-07,0.2001175293426297,-2.4476215222198107e-05,0.2001175293426297,-3.069279037677025e-07,0.2001175293426297,-1.0199475699614663e-05
0.2009116465225608,-2.162715673372868e-06,0.2009116465225608,-2.2777399565044204e-05,0.2009116465225608,8.911505007513976e-08,0.2009116465225608,-1.05745e-05
0.2017057637024919,-6.80282447725213e-06,0.2017057637024919,-2.0508185694066224e-05,0.2017057637024919,2.1425437092035105e-06,0.2017057637024919,-9.488423575663742e-06
0.202499880882423,-7.553391618776906e-06,0.202499880882423,-1.9638477047727568e-05,0.202499880882423,3.860272570556555e-06,0.202499880882423,-7.217949050776522e-06
0.203293998062354,-9.645363585404168e-06,0.203293998062354,-2.104134681540186e-05,0.203293998062354,3.8215496804370304e-06,0.203293998062354,-4.828649680437031e-06
0.2040881152422851,-1.2133491499657013e-05,0.2040881152422851,-2.293686830639469e-05,0.2040881152422851,1.7083671250857467e-06,0.2040881152422851,-8.321294779303605e-06
0.2048822324222162,-1.4407138450129284e-05,0.2048822324222162,-2.1593438635306443e-05,0.2048822324222162,2.439435380051714e-06,0.2048822324222162,-9.055525771405006e-06
0.2056763496021472,-1.2095920634501004e-05,0.2056763496021472,-2.2403111774772484e-05,0.2056763496021472,1.2940204230006697e-06,0.2056763496021472,-8.687621033362516e-06
0.2064704667820783,-1.0999002087362568e-05,0.2064704667820783,-2.2561326209080137e-05,0.2064704667820783,-3.648022100798486e-07,0.2064704667820783,-1.09102e-05
0.2072645839620094,-1.2154128343647383e-05,0.2072645839620094,-2.0862723175157752e-05,0.2072645839620094,-3.6559260492726555e-07,0.2072645839620094,-1.2104654273406916e-05
0.2080587011419405,-1.245036495681454e-05,0.2080587011419405,-2.03098e-05,0.2080587011419405,2.438907942790777e-06,0.2080587011419405,-1.3576091985697696e-05
0.2088528183218715,-1.1147257158484816e-05,0.2088528183218715,-2.158235870456927e-05,0.2088528183218715,5.617780634576734e-06,0.2088528183218715,-1.4583014262272774e-05
0.2096469355018026,-1.12459e-05,0.2096469355018026,-2.350879228499092e-05,0.2096469355018026,4.275879246407092e-06,0.2096469355018026,-1.6320105134905084e-05
0.2104410526817337,-1.0357871945693985e-05,0.2104410526817337,-2.29953e-05,0.2104410526817337,1.1358798836675956e-06,0.2104410526817337,-2.23593697088904e-05
0.2112351698616647,-8.027938382689816e-06,0.2112351698616647,-2.244269528878279e-05,0.2112351698616647,2.469688875729642e-07,0.2112351698616647,-3.349809753480087e-05
0.2120292870415958,-6.151191567254678e-06,0.2120292870415958,-2.214608684885644e-05,0.2120292870415958,9.379454353833422e-07,0.2120292870415958,-4.179443314268156e-05
0.2128234042215269,-5.53903e-06,0.2128234042215269,-2.2560193889818088e-05,0.2128234042215269,2.902564261087613e-06,0.2128234042215269,-4.372885991380664e-05
0.2136175214014579,-4.946290066798089e-06,0.2136175214014579,-2.4199989914317066e-05,0.2136175214014579,1.0162304473460423e-06,0.2136175214014579,-3.616347063458185e-05
0.214411638581389,-3.6035876797180192e-06,0.214411638581389,-2.40024e-05,0.214411638581389,8.986420955612305e-07,0.214411638581389,-2.528446136844318e-05
0.2152057557613201,-2.8929534898376747e-06,0.2152057557613201,-2.451613370120392e-05,0.2152057557613201,5.03548e-07,0.2152057557613201,-1.0298246662313208e-05
0.2159998729412512,-1.683981858118121e-07,0.2159998729412512,-2.2324393105456327e-05,0.2159998729412512,2.51719081391553e-06,0.2159998729412512,4.194216317872049e-06
0.2167939901211822,-4.630835662030169e-07,0.2167939901211822,-2.094112266912608e-05,0.2167939901211822,4.570893120521862e-06,0.2167939901211822,8.984429267101553e-06
0.2175881073011133,-1.9061057161989505e-06,0.2175881073011133,-2.1175934487682738e-05,0.2175881073011133,5.20333e-06,0.2175881073011133,7.594544116530759e-06
0.2183822244810444,-4.810205661775528e-07,0.2183822244810444,-2.374582336250516e-05,0.2183822244810444,5.480310134559318e-06,0.2183822244810444,8.890100642209859e-06
0.2191763416609755,-5.062664316092619e-06,0.2191763416609755,-2.0901998478502036e-05,0.2191763416609755,2.8262556839073813e-06,0.2191763416609755,1.94545813557713e-05
0.2199704588409065,-7.138442782073313e-06,0.2199704588409065,-2.074376351788952e-05,0.2199704588409065,1.8851222565865045e-06,0.2199704588409065,3.5884612488545414e-05
0.2207645760208376,-8.431928530252354e-06,0.2207645760208376,-2.011240051684643e-05,0.2207645760208376,4.610867060504707e-06,0.2207645760208376,5.218027827059883e-05
0.2215586932007686,-7.6123606547051074e-06,0.2215586932007686,-1.691401399520357e-05,0.2215586932007686,1.7077768859173463e-06,0.2215586932007686,6.0100190021471726e-05
0.2223528103806997,-7.197617063231687e-06,0.2223528103806997,-1.7168626423133616e-05,0.2223528103806997,-3.0606477503192943e-06,0.2223528103806997,5.674344312256104e-05
0.2231469275606308,-9.241377684205728e-06,0.2231469275606308,-2.1020928047842383e-05,0.2231469275606308,-4.234900736822913e-06,0.2231469275606308,4.722830718314338e-05
0.2239410447405619,-1.0929724557863714e-05,0.2239410447405619,-2.1356193541884823e-05,0.2239410447405619,-5.460931768545137e-06,0.2239410447405619,3.0880161495543395e-05
0.2247351619204929,-1.047617753191312e-05,0.2247351619204929,-1.9540311123626268e-05,0.2247351619204929,-3.6830816879420807e-06,0.2247351619204929,1.7528193309017474e-05
0.225529279100424,-1.194688756032816e-05,0.225529279100424,-2.1040456711081228e-05,0.225529279100424,-1.12561398109349e-06,0.225529279100424,5.78604085229438e-06
0.2263233962803551,-1.1659430280709628e-05,0.2263233962803551,-2.100107904645464e-05,0.2263233962803551,-9.579592365938653e-07,0.2263233962803551,-1.1564734535070422e-06
0.2271175134602862,-8.006917299238252e-06,0.2271175134602862,-2.2185836190227268e-05,0.2271175134602862,-1.8070042335872488e-06,0.2271175134602862,-7.159863507626034e-06
0.2279116306402172,-8.22461e-06,0.2279116306402172,-1.977590473709732e-05,0.2279116306402172,-5.823142901354372e-07,0.2279116306402172,-1.302379301782441e-05
0.2287057478201483,-7.671708448146455e-06,0.2287057478201483,-1.8494016513157252e-05,0.2287057478201483,-2.6657180962575304e-07,0.2287057478201483,-2.1810278873422543e-05
0.2294998650000794,-8.560018246630816e-06,0.2294998650000794,-1.8295512679242108e-05,0.2294998650000794,-1.5103482460514156e-06,0.2294998650000794,-3.507816594987056e-05
0.2302939821800104,-9.093846052346187e-06,0.2302939821800104,-2.1179092588609897e-05,0.2302939821800104,-1.3533101449860429e-06,0.2302939821800104,-4.797178696890907e-05
0.2310880993599415,-8.22461e-06,0.2310880993599415,-2.0358469331142445e-05,0.2310880993599415,2.460331718286571e-07,0.2310880993599415,-5.0918077182226345e-05
0.2318822165398726,-8.068047790160109e-06,0.2318822165398726,-2.1839942028316653e-05,0.2318822165398726,2.830865585626876e-06,0.2318822165398726,-4.973377746815976e-05
0.2326763337198036,-5.9153007852288985e-06,0.2326763337198036,-2.1573408731776552e-05,0.2326763337198036,7.412500324528681e-06,0.2326763337198036,-4.856795165292254e-05
0.2334704508997347,-8.193983850249507e-06,0.2334704508997347,-2.09812e-05,0.2334704508997347,9.764324241660678e-06,0.2334704508997347,-4.725439636494735e-05
0.2342645680796658,-6.527117285175798e-06,0.2342645680796658,-2.1089702223843325e-05,0.2342645680796658,1.0930174640825573e-05,0.2342645680796658,-4.807379401938082e-05
0.2350586852595969,-2.2411984409891677e-06,0.2350586852595969,-2.49385913040136e-05,0.2350586852595969,8.007226294564564e-06,0.2350586852595969,-5.1687924677032495e-05
0.2358528024395279,-7.493456654832352e-06,0.2358528024395279,-2.552333129499213e-05,0.2358528024395279,5.568906672583823e-06,0.2358528024395279,-5.693975950203206e-05
0.236646919619459,-9.113370610209904e-06,0.236646919619459,-2.3597490956826223e-05,0.236646919619459,4.53193e-06,0.236646919619459,-5.631043586359922e-05
0.2374410367993901,-8.462716457186416e-06,0.2374410367993901,-2.218586462198188e-05,0.2374410367993901,4.53193e-06,0.2374410367993901,-4.686504820359937e-05
0.2382351539793211,-5.855553901517833e-06,0.2382351539793211,-2.1278221890380224e-05,0.2382351539793211,2.9925270308821206e-06,0.2382351539793211,-3.234942867431045e-05
0.2390292711592522,-6.88182e-06,0.2390292711592522,-1.9895417997697268e-05,0.2390292711592522,2.813875021313999e-06,0.2390292711592522,-1.914502122983343e-05
0.2398233883391833,-7.67192108807786e-06,0.2398233883391833,-2.246073651631789e-05,0.2398233883391833,3.682477483888155e-06,0.2398233883391833,-1.8021108024710626e-05
0.2406175055191144,-7.335543326355004e-06,0.2406175055191144,-2.0843100187347395e-05,0.2406175055191144,1.668005997705766e-06,0.2406175055191144,-2.684796050745626e-05
0.2414116226990454,-6.072257935633457e-06,0.2414116226990454,-2.12776026592276e-05,0.2414116226990454,3.6538634719754476e-07,0.2414116226990454,-1.4679402265921226e-05
0.2422057398789765,-6.605289482773513e-06,0.2422057398789765,-2.16526e-05,0.2422057398789765,-2.922417339557778e-06,0.2422057398789765,9.152016005807456e-06
0.2429998570589076,-1.0573573250936336e-05,0.2429998570589076,-2.265932265572244e-05,0.2429998570589076,-3.525190404799407e-06,0.2429998570589076,2.937030490107948e-05
0.2437939742388386,-8.719225849143417e-06,0.2437939742388386,-2.058544564187124e-05,0.2437939742388386,-1.7084875183735922e-06,0.2437939742388386,3.760718120406602e-05
0.2445880914187697,-8.105038593999635e-06,0.2445880914187697,-1.904485502336035e-05,0.2445880914187697,-1.885423513809692e-06,0.2445880914187697,3.253750918602995e-05
0.2453822085987008,-7.911531444088348e-06,0.2453822085987008,-2.0408478232874747e-05,0.2453822085987008,-1.3932355998219465e-06,0.2453822085987008,1.9924552004808045e-05
0.2461763257786318,-4.4344594945345865e-06,0.2461763257786318,-2.0132462029897868e-05,0.2461763257786318,-5.03548e-07,0.2461763257786318,7.222891803522147e-06
0.2469704429585629,-3.4860987975777524e-06,0.2469704429585629,-2.153387148591442e-05,0.2469704429585629,7.004466085453598e-07,0.2469704429585629,1.1161996613884386e-05
0.247764560138494,2.267765092289653e-07,0.247764560138494,-2.1376123002875605e-05,0.247764560138494,1.8784693431556647e-07,0.247764560138494,3.640008553877808e-05
0.2485586773184251,-2.2721003171258975e-07,0.2485586773184251,-2.1179163170018046e-05,0.2485586773184251,-1.4711899258638683e-06,0.2485586773184251,6.632124520867397e-05
0.2493527944983561,-4.669873997724156e-06,0.2493527944983561,-1.987473764796623e-05,0.2493527944983561,6.414882352854881e-07,0.2493527944983561,8.332141332574719e-05
0.2501469116782872,-5.922978900840587e-06,0.2501469116782872,-2.154401932720549e-05,0.2501469116782872,2.754407313552777e-06,0.2501469116782872,7.081099967382206e-05
0.2509410288582183,-8.088018938411817e-06,0.2509410288582183,-1.9815840502847327e-05,0.2509410288582183,2.51774e-06,0.2509410288582183,3.071678165853501e-05
0.2517351460381494,-3.565670853776784e-06,0.2517351460381494,-1.7249865269684526e-05,0.2517351460381494,5.083351860829984e-06,0.2517351460381494,-1.6743494529414254e-05
0.2525292632180804,-2.537531578070345e-06,0.2525292632180804,-1.8651215389072844e-05,0.2525292632180804,7.079357367105518e-06,0.2525292632180804,-5.20222719179783e-05
0.2533233803980115,-6.815837077128741e-07,0.2533233803980115,-2.1374138648629164e-05,0.2533233803980115,3.445111816559554e-06,0.2533233803980115,-7.700560556110331e-05
0.2541174975779426,-3.288747777454198e-06,0.2541174975779426,-2.402147338068717e-05,0.2541174975779426,3.252368748750117e-07,0.2541174975779426,-8.456716383779925e-05
0.2549116147578736,-2.5965433921407306e-06,0.2549116147578736,-2.4377407613802748e-05,0.2549116147578736,2.272136399830103e-07,0.2549116147578736,-7.785132035284439e-05
0.2557057319378047,-3.0508603348875586e-06,0.2557057319378047,-2.43381e-05,0.2557057319378047,3.800985408892146e-06,0.2557057319378047,-6.707094320184309e-05
0.2564998491177358,-5.202786532445428e-06,0.2564998491177358,-2.400249759378822e-05,0.2564998491177358,1.0237713071366487e-05,0.2564998491177358,-6.059446954808732e-05
0.2572939662976669,-4.355177461002553e-06,0.2572939662976669,-2.3883484778885188e-05,0.2572939662976669,1.033772949220051e-05,0.2572939662976669,-5.700144491071155e-05
0.2580880834775979,-4.472129885718839e-06,0.2580880834775979,-2.16526e-05,0.2580880834775979,6.707168847190583e-06,0.2580880834775979,-5.987599862862607e-05
0.258882200657529,-3.3291842760087917e-06,0.258882200657529,-2.125777972742775e-05,0.258882200657529,2.674256346071859e-06,0.258882200657529,-7.44910525350322e-05
0.2596763178374601,-2.122476905655253e-06,0.2596763178374601,-2.0764256142511677e-05,0.2596763178374601,2.755990603083654e-06,0.2596763178374601,-7.860217381131051e-05
0.2604704350173911,-4.728815206039975e-06,0.2604704350173911,-2.2520400766572422e-05,0.2604704350173911,5.92311672176153e-07,0.2604704350173911,-7.315653195973351e-05
0.2612645521973222,-6.368259796742728e-06,0.2612645521973222,-2.315334640091869e-05,0.2612645521973222,2.675579796742728e-06,0.2612645521973222,-5.985442554162795e-05
0.2620586693772533,-6.565850946357119e-06,0.2620586693772533,-2.185054393663433e-05,0.2620586693772533,3.18914e-06,0.2620586693772533,-4.855745639274047e-05
0.2628527865571843,-8.974652443513854e-06,0.2628527865571843,-2.090242592052641e-05,0.2628527865571843,4.988539066857717e-08,0.2628527865571843,-3.2703051925908826e-05
0.2636469037371154,-8.65935415247468e-06,0.2636469037371154,-2.244250270033497e-05,0.2636469037371154,-2.0772960051796946e-07,0.2636469037371154,-1.565382165945706e-05
0.2644410209170465,-9.88359322227236e-06,0.2644410209170465,-2.4950052908826825e-05,0.2644410209170465,-2.2637055348239985e-07,0.2644410209170465,1.1472880518908489e-06
0.2652351380969776,-9.054296012208694e-06,0.2652351380969776,-2.165404576894824e-05,0.2652351380969776,-9.183875915734072e-07,0.2652351380969776,2.004790437407221e-05
0.2660292552769086,-8.28402376352664e-06,0.2660292552769086,-2.0526966673490908e-05,0.2660292552769086,-1.6685884902537037e-06,0.2660292552769086,3.632380923684999e-05
0.2668233724568397,-6.132426330819434e-06,0.2668233724568397,-2.1197544040929444e-05,0.2668233724568397,-4.86763e-06,0.2668233724568397,5.220445954480124e-05
0.2676174896367708,-1.334120669045777e-05,0.2676174896367708,-1.899792880618609e-05,0.2676174896367708,-3.0895566204573667e-06,0.2676174896367708,7.523257531178057e-05
0.2684116068167018,-1.0554088248744943e-05,0.2684116068167018,-1.601450337390563e-05,0.2684116068167018,1.7577884640209886e-06,0.2684116068167018,0.0001005039837304
0.2692057239966329,-6.684408190668037e-06,0.2692057239966329,-1.906342026914792e-05,0.2692057239966329,2.2313929523329904e-06,0.2692057239966329,0.0001066238819066
0.269999841176564,-5.7070416213330574e-06,0.269999841176564,-2.03098e-05,0.269999841176564,3.188853964444904e-06,0.269999841176564,8.644766284972007e-05
0.270793958356495,-4.828735675642596e-06,0.270793958356495,-1.7939902426684437e-05,0.270793958356495,2.0442104504283978e-06,0.270793958356495,5.057513069628056e-05
0.2715880755364261,-3.602968520385872e-06,0.2715880755364261,-1.975512089685846e-05,0.2715880755364261,-1.3702762865219262e-06,0.2715880755364261,1.2488491526544948e-05
0.2723821927163572,-4.86763e-06,0.2723821927163572,-2.204735119555028e-05,0.2723821927163572,-3.603077289811242e-06,0.2723821927163572,-1.3964325608301176e-05
0.2731763098962882,-4.315367630111676e-06,0.2731763098962882,-2.2876571027764823e-05,0.2731763098962882,-4.19623e-06,0.2731763098962882,-2.0683355924720813e-05
0.2739704270762193,-5.222675362604402e-06,0.2739704270762193,-2.1337416361347844e-05,0.2739704270762193,2.672502795752383e-06,0.2739704270762193,-2.307272856907078e-05
0.2747645442561504,-6.21042e-06,0.2747645442561504,-2.09812e-05,0.2747645442561504,9.15279582233969e-06,0.2747645442561504,-3.1988457243681434e-05
0.2755586614360815,-7.1583099618874565e-06,0.2755586614360815,-2.109951882495091e-05,0.2755586614360815,6.684276167669829e-06,0.2755586614360815,-4.3453439771324736e-05
0.2763527786160125,-7.79033095697925e-06,0.2763527786160125,-2.27383689429584e-05,0.2763527786160125,7.177570065776919e-06,0.2763527786160125,-4.870557102275617e-05
0.2771468957959436,-3.959585618501976e-06,0.2771468957959436,-2.19684946334999e-05,0.2771468957959436,1.1719188762996047e-05,0.2771468957959436,-4.862672219074901e-05
0.2779410129758747,-4.86763e-06,0.2779410129758747,-2.086270553586416e-05,0.2779410129758747,1.2194495122573294e-05,0.2779410129758747,-5.367837229541692e-05
0.2787351301558057,-4.86763e-06,0.2787351301558057,-2.1810030019098236e-05,0.2787351301558057,9.706600003170849e-06,0.2787351301558057,-6.281245779615462e-05
0.2795292473357368,-8.619181055211917e-06,0.2795292473357368,-2.4397381748882892e-05,0.2795292473357368,1.0850756617255717e-05,0.2795292473357368,-7.264871832534788e-05
0.2803233645156679,-1.1541738906742016e-05,0.2803233645156679,-2.5541639364342772e-05,0.2803233645156679,9.80315807824895e-06,0.2803233645156679,-7.544235734099322e-05
0.2811174816955989,-8.796461018368748e-06,0.2811174816955989,-2.694514679067873e-05,0.2811174816955989,1.765318132140195e-06,0.2811174816955989,-6.467757313425776e-05
0.2819115988755301,-8.48147220977709e-06,0.2819115988755301,-2.508815631972686e-05,0.2819115988755301,-2.83393779911503e-06,0.2819115988755301,-3.617360780176541e-05
0.2827057160554611,-9.172609313390988e-06,0.2827057160554611,-2.319377815133927e-05,0.2827057160554611,-6.605220686609012e-06,0.2827057160554611,-5.1262496369951445e-06
0.2834998332353922,-8.560189865066878e-06,0.2834998332353922,-2.2995192133181438e-05,0.2834998332353922,-7.888789868645518e-06,0.2834998332353922,2.7352312081889463e-05
0.2842939504153233,-9.41899856265817e-06,0.2842939504153233,-2.125689107610287e-05,0.2842939504153233,-5.263390885608653e-06,0.2842939504153233,5.282663029493549e-05
0.2850880675952543,-9.309821321515464e-06,0.2850880675952543,-1.9399941731472936e-05,0.2850880675952543,-4.591753046335995e-06,0.2850880675952543,5.252345350969594e-05
0.2858821847751854,-1.0082329517696411e-05,0.2858821847751854,-2.216554037707297e-05,0.2858821847751854,-4.215788955945946e-06,0.2858821847751854,3.5686455171891874e-05
0.2866763019551165,-7.791516368431531e-06,0.2866763019551165,-2.194872487243729e-05,0.2866763019551165,-4.778268196349617e-06,0.2866763019551165,1.700194379087917e-05
0.2874704191350475,-4.8289621576354565e-06,0.2874704191350475,-2.1869556076368912e-05,0.2874704191350475,-4.512596078817728e-06,0.2874704191350475,1.653006652070095e-06
0.2882645363149786,-5.262169934181234e-06,0.2882645363149786,-2.1158822779990278e-05,0.2882645363149786,-3.603738456949187e-06,0.2882645363149786,-2.537806172203253e-06
0.2890586534949096,-5.598256649056845e-06,0.2890586534949096,-2.222493252479169e-05,0.2890586534949096,-3.5445724123845765e-06,0.2890586534949096,-2.142555175230847e-06
0.2898527706748408,-2.2613104206362128e-06,0.2898527706748408,-1.9994744774227024e-05,0.2898527706748408,8.978411259417643e-07,0.2898527706748408,-1.1224547517134244e-05
0.2906468878547718,-3.129981771132358e-06,0.2906468878547718,-2.0507291940426625e-05,0.2906468878547718,2.893348855661791e-06,0.2906468878547718,-1.9005498746411705e-05
0.2914410050347029,-2.814448214409653e-06,0.2914410050347029,-2.3390406078075064e-05,0.2914410050347029,1.1359486790124009e-06,0.2914410050347029,-2.3465383434558013e-05
0.292235122214634,-1.1558623753707866e-06,0.292235122214634,-2.3371190770764024e-05,0.292235122214634,1.5297240962076915e-06,0.292235122214634,-3.298431994452201e-05
0.293029239394565,6.122569074504103e-07,0.293029239394565,-2.3439620820139742e-05,0.293029239394565,5.074792015033777e-06,0.293029239394565,-4.104379639065212e-05
0.2938233565744961,-3.841750462468517e-06,0.2938233565744961,-2.1851566010318765e-05,0.2938233565744961,3.6232175865501207e-06,0.2938233565744961,-4.671272817784379e-05
0.2946174737544272,-7.474491137037489e-06,0.2946174737544272,-2.1197817066367744e-05,0.2946174737544272,1.0360674538418172e-06,0.2946174737544272,-5.5896004664818656e-05
0.2954115909343582,-3.6825458622042e-06,0.2954115909343582,-2.2936298209824248e-05,0.2954115909343582,8.89946572655007e-08,0.2954115909343582,-6.310196503936498e-05
0.2962057081142893,-3.327444062682398e-06,0.2962057081142893,-2.29953e-05,0.2962057081142893,9.379386746628564e-07,0.2962057081142893,-6.62414222454459e-05
0.2969998252942204,-2.85344e-06,0.2969998252942204,-2.265971300333372e-05,0.2969998252942204,3.859523158595402e-06,0.2969998252942204,-5.99242136903073e-05
0.2977939424741515,-4.19623e-06,0.2977939424741515,-1.9598445945490185e-05,0.2977939424741515,7.78996625623206e-06,0.2977939424741515,-3.3631871999760204e-05
0.2985880596540825,-4.058297256181726e-06,0.2985880596540825,-1.7585313580441204e-05,0.2985880596540825,6.132325877354943e-06,0.2985880596540825,1.0471175717428093e-05
0.2993821768340136,-3.977866536634733e-06,0.2993821768340136,-1.754498418022188e-05,0.2993821768340136,5.055036089439122e-06,0.2993821768340136,4.859644100859083e-05
0.3001762940139447,-4.315390512956077e-06,0.3001762940139447,-1.76242e-05,0.3001762940139447,3.546619764061664e-06,0.3001762940139447,5.607254076943412e-05
0.3009704111938757,-3.208457191966164e-06,0.3009704111938757,-1.870895469926872e-05,0.3009704111938757,2.9114021514862126e-06,0.3009704111938757,3.5940190883937994e-05
0.3017645283738068,-2.537829055047712e-06,0.3017645283738068,-2.1217992191734785e-05,0.3017645283738068,7.533128594558001e-06,0.3017645283738068,1.1091010897006556e-05
0.3025586455537379,-8.787419378359277e-07,0.3025586455537379,-2.09037830581086e-05,0.3025586455537379,7.928406290796526e-06,0.3025586455537379,-9.843822149870265e-06
0.3033527627336689,-2.438449513815828e-06,0.3033527627336689,-1.922394133007192e-05,0.3033527627336689,4.571938730045786e-06,0.3033527627336689,-2.401100264967692e-05
0.3041468799136,-3.090057925143893e-06,0.3041468799136,-1.948042037377849e-05,0.3041468799136,2.834207825835335e-06,0.3041468799136,-2.8050032174164663e-05
0.3049409970935311,-3.5345750798907427e-06,0.3049409970935311,-2.1850113363245067e-05,0.3049409970935311,-1.8733910172321934e-07,0.3049409970935311,-3.176248031956297e-05
0.3057351142734621,-4.590569411168231e-06,0.3057351142734621,-2.177144949561629e-05,0.3057351142734621,1.0356818202494705e-06,0.3057351142734621,-2.957296185061413e-05
0.3065292314533932,-4.393836015638829e-06,0.3065292314533932,-2.074416416607282e-05,0.3065292314533932,2.754636992180585e-06,0.3065292314533932,-2.3410396420413143e-05
0.3073233486333243,-3.6434756489570046e-06,0.3073233486333243,-2.2085107658420206e-05,0.3073233486333243,3.1298171755214977e-06,0.3073233486333243,-2.2472215896886527e-05
0.3081174658132554,-4.788889671010033e-06,0.3081174658132554,-2.2976370479830772e-05,0.3081174658132554,2.557110164494984e-06,0.3081174658132554,-2.449664012366362e-05
0.3089115829931864,-5.657661198754395e-06,0.3089115829931864,-1.866998363644913e-05,0.3089115829931864,2.715249270564906e-06,0.3089115829931864,-2.4890862917740376e-05
0.3097057001731175,-8.984603992903934e-06,0.3097057001731175,-1.807665171594949e-05,0.3097057001731175,2.320362588750248e-06,0.3097057001731175,-2.2600574575387188e-05
0.3104998173530486,-1.0910002655064317e-05,0.3104998173530486,-1.8967e-05,0.3104998173530486,1.6785557881776652e-06,0.3104998173530486,-1.8296915763553305e-05
0.3112939345329796,-1.2192890302978624e-05,0.3112939345329796,-1.8849066885561416e-05,0.3112939345329796,2.0229796473099504e-06,0.3112939345329796,-1.884678060595725e-05
0.3120880517129107,-1.2253e-05,0.3120880517129107,-2.029036192673576e-05,0.3120880517129107,4.807784021609252e-06,0.3120880517129107,-2.1298664945976876e-05
0.3128821688928418,-1.2823338675187096e-05,0.3128821688928418,-1.957932081954913e-05,0.3128821688928418,4.571036445864516e-06,0.3128821688928418,-1.884968066240645e-05
0.3136762860727728,-1.4326785977189162e-05,0.3136762860727728,-2.121857745994592e-05,0.3136762860727728,4.86763e-06,0.3136762860727728,-1.713155793156749e-05
0.314470403252704,-9.66766665344095e-06,0.314470403252704,-2.2344527214888413e-05,0.314470403252704,3.5055242492855923e-06,0.314470403252704,-1.5254988961662144e-05
0.315264520432635,-8.954792727411066e-06,0.315264520432635,-2.1001015516247908e-05,0.315264520432635,2.3599459689460235e-06,0.315264520432635,-1.3280211937892046e-05
0.3160586376125661,-1.1502584486352188e-05,0.3160586376125661,-1.9954725573676373e-05,0.3160586376125661,2.666178624651701e-07,0.3160586376125661,-1.2253e-05
0.3168527547924971,-1.4148625556647936e-05,0.3168527547924971,-2.196759067415401e-05,0.3168527547924971,9.670475784736208e-07,0.3168527547924971,-1.0041704241253252e-05
0.3176468719724282,-1.2006750149664664e-05,0.3176468719724282,-2.29953e-05,0.3176468719724282,3.1699185490048397e-06,0.3176468719724282,-7.988003540712706e-06
0.3184409891523593,-1.1148478446572909e-05,0.3184409891523593,-2.485166722135949e-05,0.3184409891523593,-3.237238917716633e-07,0.3184409891523593,-5.757814019805114e-06
0.3192351063322903,-7.64341180888258e-06,0.3192351063322903,-2.5957161263487216e-05,0.3192351063322903,-3.109974111051228e-06,0.3192351063322903,-3.090935308613105e-06
0.3200292235122214,-4.51251355183937e-06,0.3200292235122214,-2.591792556089688e-05,0.3200292235122214,-3.1498694710252403e-06,0.3200292235122214,-1.84634e-06
0.3208233406921525,-5.065782166938763e-06,0.3208233406921525,-2.63523e-05,0.3208233406921525,6.221807939606426e-07,0.3208233406921525,-2.537940855636628e-06
0.3216174578720835,-9.331155787896712e-06,0.3216174578720835,-2.3192931006438444e-05,0.3216174578720835,1.91575025622822e-06,0.3216174578720835,-6.566813992879289e-06
0.3224115750520147,-8.20475350190505e-06,0.3224115750520147,-2.362734102104557e-05,0.3224115750520147,3.849323214628661e-07,0.3224115750520147,-7.928360577007565e-06
0.3232056922319457,-8.323292972611149e-06,0.3232056922319457,-2.4022849586650585e-05,0.3232056922319457,1.293009429194868e-06,0.3232056922319457,-5.341664054777705e-06
0.3239998094118768,-8.224747297066453e-06,0.3239998094118768,-2.23243931054564e-05,0.3239998094118768,4.195818112890512e-06,0.3239998094118768,-8.223237037515207e-06
0.3247939265918079,-7.78995479054621e-06,0.3247939265918079,-2.118804643112874e-05,0.3247939265918079,-1.2331809453231136e-06,0.3247939265918079,-1.3475534741847831e-05
0.3255880437717389,-8.698231277790898e-06,0.3255880437717389,-2.1058925958215536e-05,0.3255880437717389,-1.67849e-07,0.3255880437717389,-1.241436594430013e-05
0.32638216095167,-8.22461e-06,0.32638216095167,-2.23239e-05,0.32638216095167,-3.552483564253936e-07,0.32638216095167,-4.507622473067341e-06
0.3271762781316011,-9.329043208399012e-06,0.3271762781316011,-2.1050106523000663e-05,0.3271762781316011,-2.1601912327164336e-06,0.3271762781316011,2.8097335305213016e-06
0.3279703953115321,-8.186016093621735e-06,0.3279703953115321,-2.1828320044389704e-05,0.3279703953115321,-2.4791408061686986e-06,0.3279703953115321,7.452913301751741e-06
0.3287645124914632,-6.960711294815894e-06,0.3287645124914632,-2.3331e-05,0.3287645124914632,-4.246569401894516e-07,0.3287645124914632,8.916144820736421e-06
0.3295586296713942,-7.533460388574318e-06,0.3295586296713942,-2.2384319885036385e-05,0.3295586296713942,1.0959022017674127e-06,0.3295586296713942,4.729524937038381e-06
0.3303527468513254,-6.803317349502981e-06,0.3303527468513254,-2.059573432433037e-05,0.3303527468513254,2.7348598236342484e-06,0.3303527468513254,-2.003342121900839e-06
0.3311468640312564,-5.53903e-06,0.3311468640312564,-2.21363113788362e-05,0.3311468640312564,3.425734993430615e-06,0.3311468640312564,-1.104459090861924e-05
0.3319409812111875,-3.4663944989788966e-06,0.3319409812111875,-2.068491658117905e-05,0.3319409812111875,2.400868301668472e-06,0.3319409812111875,-2.332643779381916e-05
0.3327350983911186,-2.774268390340153e-06,0.3327350983911186,-2.025035612697209e-05,0.3327350983911186,5.03548e-07,0.3327350983911186,-3.2806654245442446e-05
0.3335292155710496,-1.3234149702387985e-06,0.3335292155710496,-2.1771107643933272e-05,0.3335292155710496,2.5768397167455094e-06,0.3335292155710496,-4.064837841377485e-05
0.3343233327509807,6.22169352674738e-07,0.3343233327509807,-2.1692410952876497e-05,0.3343233327509807,3.52483e-06,0.3343233327509807,-5.127467319335028e-05
0.3351174499309118,2.9528502168656244e-06,0.3351174499309118,-2.1257327714092845e-05,0.3351174499309118,1.4506102405370062e-06,0.3351174499309118,-6.383436738955209e-05
0.3359115671108428,-1.590011614034388e-06,0.3359115671108428,-2.16526e-05,0.3359115671108428,6.417493720952055e-07,0.3359115671108428,-7.050668682722519e-05
0.3367056842907739,-9.211379456527078e-06,0.3367056842907739,-1.9631172950131937e-05,0.3367056842907739,1.2818124906870078e-07,0.3367056842907739,-6.787155404589105e-05
0.337499801470705,-1.3930498875557237e-05,0.337499801470705,-1.6953313651517016e-05,0.337499801470705,-5.029759314460192e-07,0.337499801470705,-5.254116202091348e-05
0.338293918650636,-1.2373311122261768e-05,0.338293918650636,-1.672593127478571e-05,0.338293918650636,-1.254506777720795e-06,0.338293918650636,-3.332146725538928e-05
0.3390880358305671,-4.33503407040414e-07,0.3390880358305671,-1.766305560046773e-05,0.3390880358305671,-7.104221388252396e-07,0.3390880358305671,-8.939293522020827e-06
0.3398821530104982,1.3057839758045186e-05,0.3398821530104982,-1.849297931719509e-05,0.3398821530104982,-1.0576561086114876e-06,0.3398821530104982,1.4980267467023636e-05
0.3406762701904293,1.8273715488331972e-05,0.3406762701904293,-1.9934545378986325e-05,0.3406762701904293,-1.67849e-07,0.3406762701904293,4.238805198538847e-05
0.3414703873703603,1.598817698929288e-05,0.3414703873703603,-1.96384e-05,0.3414703873703603,6.617529797098237e-07,0.3414703873703603,8.11713204740836e-05
0.3422645045502914,4.790486480774258e-06,0.3422645045502914,-1.934246476365281e-05,0.3422645045502914,-9.181301641749788e-07,0.3422645045502914,0.0001205807897407
0.3430586217302225,-2.043683236582405e-06,0.3430586217302225,-1.724985241440948e-05,0.3430586217302225,1.0365837664844005e-06,0.3430586217302225,0.0001313469268466
0.3438527389101535,-7.47298615243935e-06,0.3438527389101535,-1.8531829781147665e-05,0.3438527389101535,1.2014071254286434e-05,0.3438527389101535,0.0001126420251796
0.3446468560900846,-1.055531942295865e-05,0.3446468560900846,-2.007278433203124e-05,0.3446468560900846,1.50984647431955e-05,0.3446468560900846,6.999000497798925e-05
0.3454409732700157,-9.606355341410436e-06,0.3454409732700157,-1.9776587974060463e-05,0.3454409732700157,7.397436894147283e-06,0.3454409732700157,1.9600906581983687e-05
0.3462350904499467,-1.02388e-05,0.3462350904499467,-2.04077039618276e-05,0.3462350904499467,4.0980619911129125e-06,0.3462350904499467,-2.452160821401062e-05
0.3470292076298778,-9.211838331974195e-06,0.3470292076298778,-2.1514443633320737e-05,0.3470292076298778,3.86053e-06,0.3470292076298778,-5.802405247349685e-05
0.3478233248098089,-1.2035911324690356e-05,0.3478233248098089,-2.4858871363890142e-05,0.3478233248098089,6.506946545099069e-06,0.3478233248098089,-7.41809685696324e-05
0.34861744198974,-1.25887e-05,0.34861744198974,-2.597739135639102e-05,0.34861744198974,5.814739198171537e-06,0.34861744198974,-8.721499063866995e-05
0.349411559169671,-1.1048407928476198e-05,0.349411559169671,-2.56809e-05,0.349411559169671,3.366805704183394e-06,0.349411559169671,-9.37684158569524e-05
0.3502056763496021,-1.1403557532918654e-05,0.3502056763496021,-2.65508551990668e-05,0.3502056763496021,5.829150754844853e-07,0.3502056763496021,-8.4212640828823e-05
0.3509997935295332,-1.3595353784534132e-05,0.3509997935295332,-2.5009900648183224e-05,0.3509997935295332,-2.8525475717266866e-06,0.3509997935295332,-6.865446467768141e-05
0.3517939107094642,-1.235196962329645e-05,0.3517939107094642,-2.6323225306271207e-05,0.3517939107094642,-9.59603333030489e-07,0.3517939107094642,-3.985239979973687e-05
0.3525880278893953,-1.1305780376473038e-05,0.3525880278893953,-2.7578564017687527e-05,0.3525880278893953,5.23962400950815e-06,0.3525880278893953,-1.7551603764730393e-05
0.3533821450693264,-1.031697849364681e-05,0.3533821450693264,-2.3312468626652047e-05,0.3533821450693264,8.856920753176594e-06,0.3533821450693264,-7.4819178035855714e-06
0.3541762622492574,-1.1462393721355076e-05,0.3541762622492574,-1.8137402022494395e-05,0.3541762622492574,5.5232609815706486e-06,0.3541762622492574,-4.65863098672915e-07
0.3549703794291886,-1.1128217185936344e-05,0.3549703794291886,-1.6302008818620795e-05,0.3549703794291886,3.563388141030331e-06,0.3549703794291886,-8.239892922340448e-06
0.3557644966091196,-8.738250293212625e-06,0.3557644966091196,-1.7446109323850586e-05,0.3557644966091196,5.559202936137894e-06,0.3557644966091196,-1.663634759170838e-05
0.3565586137890507,-8.22461e-06,0.3565586137890507,-1.8967e-05,0.3565586137890507,1.214695135355988e-06,0.3565586137890507,-1.1947361988128457e-05
0.3573527309689818,-1.030724019377533e-05,0.3573527309689818,-1.9281952495469603e-05,0.3573527309689818,-1.6292316423931283e-06,0.3573527309689818,2.235480617561819e-05
0.3581468481489128,-1.2016424414666477e-05,0.3581468481489128,-2.107986892248578e-05,0.3581468481489128,-8.39246e-07,0.3581468481489128,7.404331866035317e-05
0.3589409653288439,-1.1146232397545552e-05,0.3589409653288439,-1.934214734100253e-05,0.3589409653288439,-2.18204e-06,0.3589409653288439,0.0001202656498245
0.3597350825087749,-1.1868186370345376e-05,0.3597350825087749,-1.835505414605829e-05,0.3597350825087749,-2.6950738978358105e-06,0.3597350825087749,0.0001341321704114
0.360529199688706,-1.0327722258082089e-05,0.360529199688706,-1.8354831036155832e-05,0.360529199688706,-3.2090178133039512e-06,0.360529199688706,0.0001005476880744
0.3613233168686371,-9.369404058206035e-06,0.3613233168686371,-1.7723747084307198e-05,0.3613233168686371,-1.9448412933374983e-06,0.3613233168686371,4.9786922684032633e-05
0.3621174340485681,-5.696601212737949e-06,0.3621174340485681,-1.7505014336064226e-05,0.3621174340485681,9.385830635469444e-07,0.3621174340485681,4.9789334265785496e-06
0.3629115512284993,-5.677239544312006e-06,0.3629115512284993,-1.82956e-05,0.3629115512284993,2.18204e-06,0.3629115512284993,-2.145559034261253e-05
0.3637056684084303,-4.285265566074924e-06,0.3637056684084303,-2.089923142743668e-05,0.3637056684084303,7.802801387359911e-07,0.3637056684084303,-3.910650691032546e-05
0.3644997855883614,-4.195998311200381e-06,0.3644997855883614,-2.467282919863281e-05,0.3644997855883614,-4.194376498345156e-06,0.3644997855883614,-5.52186929792061e-05
0.3652939027682925,-2.4789660689304137e-06,0.3652939027682925,-2.63523e-05,0.3652939027682925,-4.790079189533264e-06,0.3652939027682925,-6.408419771338302e-05
0.3660880199482235,-8.002430602841615e-07,0.3660880199482235,-2.4693217527203555e-05,0.3660880199482235,-2.3290042756242146e-06,0.3660880199482235,-7.751991307459102e-05
0.3668821371281546,-8.39246e-07,0.3668821371281546,-2.540423808832949e-05,0.3668821371281546,-3.52483e-06,0.3668821371281546,-8.200013297238064e-05
0.3676762543080857,-1.3914233453280984e-06,0.3676762543080857,-2.4821921926293104e-05,0.3676762543080857,-4.077012279932924e-06,0.3676762543080857,-8.057862658010062e-05
0.3684703714880167,-1.3524226363245124e-06,0.3684703714880167,-2.5758426286389505e-05,0.3684703714880167,-1.433583667651523e-06,0.3684703714880167,-7.404486045513231e-05
0.3692644886679478,-8.594460537661636e-07,0.3692644886679478,-2.572071612880457e-05,0.3692644886679478,1.0960672770427658e-06,0.3692644886679478,-6.705165575259187e-05
0.3700586058478789,4.837712484453706e-07,0.3700586058478789,-2.386475544948864e-05,0.3700586058478789,9.972113591179874e-07,0.3700586058478789,-6.21242767538267e-05
0.3708527230278099,-2.931846655803827e-06,0.3708527230278099,-2.449556597470448e-05,0.3708527230278099,1.293537375406857e-06,0.3708527230278099,-5.936939737540686e-05
0.371646840207741,-3.18914e-06,0.371646840207741,-2.5137880483390587e-05,0.371646840207741,1.194090064891902e-06,0.371646840207741,-5.490925116485754e-05
0.3724409573876721,-5.616875399122924e-06,0.3724409573876721,-2.6747283038780903e-05,0.3724409573876721,2.546932242069384e-06,0.3724409573876721,-4.547249889245506e-05
0.3732350745676032,-6.368797543586297e-06,0.3732350745676032,-2.6037655695440623e-05,0.3732350745676032,3.4060492012251364e-06,0.3732350745676032,-3.4778369255392096e-05
0.3740291917475342,-6.032622724564913e-06,0.3740291917475342,-2.4772515531224504e-05,0.3740291917475342,5.163536194574079e-06,0.3740291917475342,-2.8090483652610525e-05
0.3748233089274653,-6.506889338328817e-06,0.3748233089274653,-2.3154605331153145e-05,0.3748233089274653,6.54612e-06,0.3748233089274653,-2.544372311630815e-05
0.3756174261073964,-9.963009366687557e-06,0.3756174261073964,-2.224549578006134e-05,0.3756174261073964,6.54612e-06,0.3756174261073964,-2.3152895318254025e-05
0.3764115432873274,-9.1724487890072e-06,0.3764115432873274,-1.9124600284303248e-05,0.3764115432873274,6.9410812109928e-06,0.3764115432873274,-2.33902612109928e-05
0.3772056604672585,-9.093330081112627e-06,0.3772056604672585,-1.8699830464954483e-05,0.3772056604672585,7.020199918887372e-06,0.3772056604672585,-2.4279159837774742e-05
0.3779997776471896,-9.23187017991083e-06,0.3779997776471896,-2.030922471030099e-05,0.3779997776471896,8.559348925306543e-06,0.3779997776471896,-1.863354247103642e-05
0.3787938948271206,-8.086872178647733e-06,0.3787938948271206,-1.995418461092712e-05,0.3787938948271206,7.140003587444856e-06,0.3787938948271206,-1.675483782135227e-05
0.3795880120070517,-1.076949348523538e-05,0.3795880120070517,-1.76242e-05,0.3795880120070517,3.7045440333687166e-06,0.3795880120070517,-1.61073181969033e-05
0.3803821291869828,-1.1347134479292577e-05,0.3803821291869828,-1.841365563059837e-05,0.3803821291869828,3.3454499591154364e-06,0.3803821291869828,-8.966165548010017e-06
0.3811762463669139,-8.463068322978648e-06,0.3811762463669139,-1.96384e-05,0.3811762463669139,5.636263452850388e-06,0.3811762463669139,-8.500695419255338e-06
0.3819703635468449,-6.970558457806705e-06,0.3819703635468449,-1.96384e-05,0.3819703635468449,7.05929691561341e-06,0.3819703635468449,-6.932050795353066e-06
0.382764480726776,-5.894948701485865e-06,0.382764480726776,-2.133621219999936e-05,0.382764480726776,8.106309731414587e-06,0.382764480726776,-6.023364495500121e-06
0.3835585979067071,-5.815372958850904e-06,0.3835585979067071,-2.2048701905123785e-05,0.3835585979067071,4.719863573772186e-06,0.3835585979067071,-3.446001445662139e-06
0.3843527150866381,-6.703915337369121e-06,0.3843527150866381,-1.9045727850837057e-05,0.3843527150866381,2.083546216841171e-06,0.3843527150866381,-4.294723783158829e-06
0.3851468322665692,-5.283341890077828e-06,0.3851468322665692,-2.007273810339485e-05,0.3851468322665692,1.7280636733606557e-06,0.3851468322665692,-5.558155456643484e-06
0.3859409494465003,-1.17494e-06,0.3859409494465003,-1.9282925656264525e-05,0.3859409494465003,5.424590597521575e-07,0.3859409494465003,-8.302433046797097e-06
0.3867350666264313,-3.4834819265469068e-06,0.3867350666264313,-1.96384e-05,0.3867350666264313,1.17494e-06,0.3867350666264313,-8.797893477512788e-06
0.3875291838063624,-5.667738186173112e-06,0.3875291838063624,-1.9954338706382327e-05,0.3875291838063624,1.332837003853788e-06,0.3875291838063624,-7.869009304192418e-06
0.3883233009862935,-1.944887058821836e-06,0.3883233009862935,-2.033819582460824e-05,0.3883233009862935,-1.0896363225038823e-07,0.3883233009862935,-9.804562234731927e-06
0.3891174181662246,-8.39246e-07,0.3891174181662246,-2.29953e-05,0.3891174181662246,-3.3672129234939397e-06,0.3891174181662246,-1.150279087484553e-05
0.3899115353461556,-5.627969802212223e-07,0.3899115353461556,-2.046743550654927e-05,0.3899115353461556,-2.537461520067085e-06,0.3899115353461556,-1.1463100510069218e-05
0.3907056525260867,-3.1000728300925617e-06,0.3907056525260867,-1.9795999524098884e-05,0.3907056525260867,-1.0365528518268498e-06,0.3907056525260867,-7.040764187016498e-06
0.3914997697060178,-2.8538547466129527e-06,0.3914997697060178,-1.9638548958939945e-05,0.3914997697060178,-1.51064e-06,0.3914997697060178,1.6569230229265857e-07
0.3922938868859488,-4.234969532987336e-06,0.3922938868859488,-2.1356710232085e-05,0.3922938868859488,-8.005061080773689e-07,0.3922938868859488,3.66255930399401e-06
0.3930880040658799,-5.212357424191618e-06,0.3930880040658799,-2.123927098330716e-05,0.3930880040658799,-5.815231413142374e-07,0.3930880040658799,2.9133547745552496e-06
0.393882121245811,-6.0541329727687e-06,0.393882121245811,-1.8987306144327987e-05,0.393882121245811,-1.7143699052805889e-07,0.393882121245811,-1.216022039411692e-07
0.394676238425742,-5.419789397088428e-06,0.394676238425742,-1.807850234339392e-05,0.394676238425742,5.800869783801569e-06,0.394676238425742,-9.56096020324998e-06
0.3954703556056732,-7.236762389804651e-06,0.3954703556056732,-2.0268489905485336e-05,0.3954703556056732,1.900114222693904e-05,0.3954703556056732,-2.1725227006548344e-05
0.3962644727856042,-4.651293510378641e-06,0.3962644727856042,-2.188924838002081e-05,0.3962644727856042,2.2857847344451703e-05,0.3962644727856042,-3.886801993705818e-05
0.3970585899655353,-1.9057048294826117e-06,0.3970585899655353,-2.228538443212688e-05,0.3970585899655353,1.973734138247102e-05,0.3970585899655353,-5.251631102310433e-05
0.3978527071454664,-3.050398167442572e-06,0.3978527071454664,-2.14951545713562e-05,0.3978527071454664,1.7328753048605645e-05,0.3978527071454664,-5.873611158565726e-05
0.3986468243253974,-3.742259406374358e-06,0.3986468243253974,-2.2007820465724787e-05,0.3986468243253974,1.207739406374358e-05,0.3986468243253974,-6.422532951796741e-05
0.3994409415053285,-3.573455071713865e-06,0.3994409415053285,-2.4910764493579265e-05,0.3994409415053285,6.6141951003994105e-06,0.3994409415053285,-6.724914991394337e-05
0.4002350586852595,-4.74882968017692e-06,0.4002350586852595,-2.2740186889226523e-05,0.4002350586852595,9.131811186571056e-06,0.4002350586852595,-6.424847811316628e-05
0.4010291758651906,-4.324969225857831e-06,0.4010291758651906,-2.2106746667356428e-05,0.4010291758651906,3.704090072796614e-06,0.4010291758651906,-4.880865672574037e-05
0.4018232930451217,-3.110564263117271e-06,0.4018232930451217,-2.409908048362337e-05,0.4018232930451217,-2.972003793056349e-06,0.4018232930451217,-1.2091629740389264e-05
0.4026174102250527,-9.726468505265312e-06,0.4026174102250527,-2.487146182552944e-05,0.4026174102250527,-4.413699113227232e-06,0.4026174102250527,3.368500868364457e-05
0.4034115274049838,-1.0614025702345412e-05,0.4034115274049838,-2.372583092570475e-05,0.4034115274049838,-6.003073709203511e-06,0.4034115274049838,7.052623642929052e-05
0.4042056445849149,-1.15816e-05,0.4042056445849149,-2.206707372128849e-05,0.4042056445849149,-5.184182916890945e-06,0.4042056445849149,9.094332861793346e-05
0.404999761764846,-9.903958106665387e-06,0.404999761764846,-2.4337098402493e-05,0.404999761764846,-2.350490669553429e-06,0.404999761764846,8.98017026986631e-05
0.4057938789447771,-8.22461e-06,0.4057938789447771,-2.3350290278616477e-05,0.4057938789447771,-8.104072506029952e-06,0.4057938789447771,7.010090994889454e-05
0.4065879961247081,-7.927896212119427e-06,0.4065879961247081,-2.193009364702584e-05,0.4065879961247081,-8.344466588608955e-06,0.4065879961247081,6.16007e-05
0.4073821133046392,-5.421831055694391e-06,0.4073821133046392,-2.0389139096142364e-05,0.4073821133046392,-7.338355268773049e-06,0.4073821133046392,6.42863e-05
0.4081762304845703,-5.636217687502512e-06,0.4081762304845703,-2.061595734494249e-05,0.4081762304845703,-4.464545323580908e-06,0.4081762304845703,6.152556022166836e-05
0.4089703476645013,-6.704354525808779e-06,0.4089703476645013,-2.1435690152267635e-05,0.4089703476645013,-1.788650326711017e-06,0.4089703476645013,4.6661261267612965e-05
0.4097644648444324,-6.289276970549271e-06,0.4097644648444324,-1.8848677270612883e-05,0.4097644648444324,-6.872073713231599e-08,0.4097644648444324,2.140237731187739e-05
0.4105585820243635,-7.651790966722377e-06,0.4105585820243635,-1.92422275813756e-05,0.4105585820243635,-2.7346762967329777e-06,0.4105585820243635,-5.971299690074153e-06
0.4113526992042945,-9.537220281582272e-06,0.4113526992042945,-2.1416447266579865e-05,0.4113526992042945,-7.394311512214528e-06,0.4113526992042945,-2.311056059277652e-05
0.4121468163842256,-1.078242023380521e-05,0.4121468163842256,-2.06455e-05,0.4121468163842256,-6.607104638037573e-06,0.4121468163842256,-3.2867959442447706e-05
0.4129409335641567,-8.540865704328144e-06,0.4129409335641567,-2.2442420104957853e-05,0.4129409335641567,-9.02721598243295e-07,0.4129409335641567,-2.715066551335232e-05
0.4137350507440878,-8.22461e-06,0.4137350507440878,-2.0114179820331908e-05,0.4137350507440878,5.57677488801433e-06,0.4137350507440878,-1.2652730546382349e-05
0.4145291679240188,-1.051471867141526e-05,0.4145291679240188,-1.965813047452675e-05,0.4145291679240188,7.6321627812158e-06,0.4145291679240188,3.4627317007236966e-06
0.4153232851039499,-1.1186622941210362e-05,0.4153232851039499,-2.119737486189987e-05,0.4153232851039499,5.1437414730479645e-06,0.4153232851039499,7.868040417535358e-06
0.416117402283881,-1.1502767942790777e-05,0.416117402283881,-2.220469103384784e-05,0.416117402283881,-4.450873577560938e-07,0.416117402283881,-1.7431107799206166e-05
0.416911519463812,-1.3260009544174834e-05,0.416911519463812,-2.236333089016681e-05,0.416911519463812,-2.971887743682108e-06,0.416911519463812,-5.054196741972758e-05
0.4177056366437431,-2.086185618941205e-05,0.4177056366437431,-2.387232815807002e-05,0.4177056366437431,-6.21042e-06,0.4177056366437431,-7.65464424039399e-05
0.4184997538236742,-2.4337390631823516e-05,0.4184997538236742,-2.366717769591076e-05,0.4184997538236742,-4.868339362893732e-06,0.4184997538236742,-8.81184172113823e-05
0.4192938710036052,-2.5482903423270056e-05,0.4192938710036052,-2.113910771500908e-05,0.4192938710036052,-4.1575248650949154e-06,0.4192938710036052,-8.51427760371096e-05
0.4200879881835363,-2.662806229338984e-05,0.4200879881835363,-2.200769120307282e-05,0.4200879881835363,1.2109579489491411e-06,0.4200879881835363,-7.741144964276209e-05
0.4208821053634674,-2.1940675928180052e-05,0.4208821053634674,-2.163320965021604e-05,0.4208821053634674,4.3134117452646646e-06,0.4208821053634674,-7.3334254764206e-05
0.4216762225433985,-5.925545214439851e-06,0.4216762225433985,-2.19883e-05,0.4216762225433985,4.651193485755908e-06,0.4216762225433985,-6.735176315113274e-05
0.4224703397233295,9.323327485182142e-06,0.4224703397233295,-2.263894952098818e-05,0.4224703397233295,2.9924560258198667e-06,0.4224703397233295,-5.59412073955971e-05
0.4232644569032606,1.82956e-05,0.4232644569032606,-2.5068656228178403e-05,0.4232644569032606,-6.409543850545983e-07,0.4232644569032606,-3.03494484983146e-05
0.4240585740831917,1.6716098712608102e-05,0.4240585740831917,-2.5581851768706648e-05,0.4240585740831917,-3.44563161971818e-06,0.4240585740831917,4.963040939575199e-06
0.4248526912631227,1.3951660922385072e-05,0.4248526912631227,-2.220819903434165e-05,0.4248526912631227,4.027424551170857e-07,0.4248526912631227,3.5765025241838846e-05
0.4256468084430538,1.0063312246779824e-05,0.4256468084430538,-1.9125072083494505e-05,0.4256468084430538,3.1128268097931187e-06,0.4256468084430538,5.837724167956302e-05
0.4264409256229849,7.078827843987193e-06,0.4264409256229849,-2.034932424056135e-05,0.4264409256229849,-6.443681593806238e-06,0.4264409256229849,6.526156993860691e-05
0.4272350428029159,7.296731654637563e-06,0.4272350428029159,-1.7566707573830864e-05,0.4272350428029159,-8.956365913591314e-06,0.4272350428029159,6.760360597066374e-05
0.428029159982847,5.02632589010036e-06,0.428029159982847,-1.6202431445384883e-05,0.428029159982847,-2.9331959692401222e-06,0.428029159982847,5.461410633118099e-05
0.4288232771627781,1.056398736326307e-06,0.4288232771627781,-1.5590070645443164e-05,0.4288232771627781,-1.273556236729568e-06,0.4288232771627781,3.0438963499450135e-05
0.4296173943427092,2.072706441868186e-07,0.4296173943427092,-1.7693193392498265e-05,0.4296173943427092,2.054228079609184e-06,0.4296173943427092,1.3021109325313513e-05
0.4304115115226402,-1.747505093760995e-06,0.4304115115226402,-1.8581995608770625e-05,0.4304115115226402,5.183512485239522e-06,0.4304115115226402,9.777095239567835e-07
0.4312056287025713,-6.229483883007305e-06,0.4312056287025713,-1.9412263184589858e-05,0.4312056287025713,5.0458444574924e-06,0.4312056287025713,-1.0197349231778737e-05
0.4319997458825024,-1.0573035503411202e-05,0.4319997458825024,-1.7289321842427207e-05,0.4319997458825024,1.1764044965887972e-06,0.4319997458825024,-2.164893874489509e-05
0.4327938630624334,-1.1424599328918184e-05,0.4327938630624334,-1.9322574296951505e-05,0.4327938630624334,-1.3126337267514716e-06,0.4327938630624334,-3.503492426488651e-05
0.4335879802423645,-8.22461e-06,0.4335879802423645,-2.050371266973716e-05,0.4335879802423645,1.624522752942123e-06,0.4335879802423645,-4.07874e-05
0.4343820974222956,-1.0348111909961132e-05,0.4343820974222956,-2.4949461243143124e-05,0.4343820974222956,8.716528231579213e-06,0.4343820974222956,-4.075619778752119e-05
0.4351762146022266,-8.522795541434707e-06,0.4351762146022266,-2.536475012357694e-05,0.4351762146022266,1.0455225072821844e-05,0.4351762146022266,-4.455504312921604e-05
0.4359703317821577,-8.402064032769013e-06,0.4359703317821577,-2.2127766312325136e-05,0.4359703317821577,7.495591089475668e-06,0.4359703317821577,-5.799945888476335e-05
0.4367644489620888,-8.066921290436027e-06,0.4367644489620888,-2.3468508733305942e-05,0.4367644489620888,6.496538293690609e-06,0.4367644489620888,-6.980375737063755e-05
0.4375585661420199,-6.2896419021412364e-06,0.4375585661420199,-2.6154193284138742e-05,0.4375585661420199,5.934136426605928e-06,0.4375585661420199,-7.459387262232346e-05
0.438352683321951,-8.618405209888968e-06,0.438352683321951,-2.5187785390447195e-05,0.438352683321951,1.8866962428522744e-06,0.438352683321951,-6.469499844461292e-05
0.439146800501882,-9.874545634003947e-06,0.439146800501882,-2.5187117643475136e-05,0.439146800501882,1.1940040701986691e-06,0.439146800501882,-3.939903155084374e-05
0.4399409176818131,-8.696339228635927e-06,0.4399409176818131,-2.617466485359542e-05,0.4399409176818131,5.03548e-07,0.4399409176818131,-2.242267295593706e-06
0.4407350348617442,-1.2449095747908114e-05,0.4407350348617442,-2.3135479721194248e-05,0.4407350348617442,5.03548e-07,0.4407350348617442,3.196832007953948e-05
0.4415291520416752,-1.0921024067411656e-05,0.4415291520416752,-2.234366436602499e-05,0.4415291520416752,1.490688242018825e-06,0.4415291520416752,4.351290351596235e-05
0.4423232692216063,-5.450131573948805e-06,0.4423232692216063,-2.29953e-05,0.4423232692216063,1.0564101776122258e-06,0.4423232692216063,3.035999295964088e-05
0.4431173864015373,-8.442596160703192e-06,0.4431173864015373,-2.266897746976935e-05,0.4431173864015373,3.169984662386166e-06,0.4431173864015373,9.22944364300433e-06
0.4439115035814684,-1.0515296119144242e-05,0.4439115035814684,-2.174136279351394e-05,0.4439115035814684,4.344398208502426e-06,0.4439115035814684,-3.623240900275262e-06
0.4447056207613995,-1.1008831375487791e-05,0.4447056207613995,-1.7863947153732772e-05,0.4447056207613995,3.5836625638702763e-06,0.4447056207613995,-1.5094290260731417e-05
0.4454997379413306,-1.2252433649600892e-05,0.4454997379413306,-1.7623691484998103e-05,0.4454997379413306,4.53193e-06,0.4454997379413306,-2.4335834654639332e-05
0.4462938551212617,-9.490065577002029e-06,0.4462938551212617,-1.94804820119606e-05,0.4462938551212617,1.0976041668724754e-06,0.4462938551212617,-2.986398294729148e-05
0.4470879723011927,-8.500349361335083e-06,0.4470879723011927,-2.03098e-05,0.4470879723011927,1.5285919391789818e-06,0.4470879723011927,-3.117202127732983e-05
0.4478820894811238,-6.725624700304922e-06,0.4478820894811238,-2.1493770566341877e-05,0.4478820894811238,3.821480884272569e-06,0.4478820894811238,-2.967025088427257e-05
0.4486762066610549,-7.195362670880123e-06,0.4486762066610549,-2.3745727215831285e-05,0.4486762066610549,2.144554144819716e-06,0.4486762066610549,-2.909754318430016e-05
0.4494703238409859,-1.077114493617373e-05,0.4494703238409859,-2.30367333708788e-05,0.4494703238409859,3.644932932140632e-07,0.4494703238409859,-2.9443153961509807e-05
0.450264441020917,-1.0081122731687864e-05,0.450264441020917,-1.9687908089703883e-05,0.450264441020917,2.675419616831898e-06,0.450264441020917,-2.726149279631109e-05
0.4510585582008481,-1.0830955755950228e-05,0.4510585582008481,-1.8069948426536216e-05,0.4510585582008481,2.241473625646992e-06,0.4510585582008481,-2.5059030972103583e-05
0.4518526753807791,-1.4957507576496014e-05,0.4518526753807791,-1.967531951435091e-05,0.4518526753807791,2.399108226510892e-06,0.4518526753807791,-2.43381e-05
0.4526467925607102,-1.580840935371687e-05,0.4526467925607102,-2.378479934326961e-05,0.4526467925607102,3.070892338429217e-06,0.4526467925607102,-2.228584925478191e-05
0.4534409097406413,-1.3527802268271868e-05,0.4534409097406413,-2.3242310000769736e-05,0.4534409097406413,2.4788858067384955e-06,0.4534409097406413,-2.027094580673849e-05
0.4542350269205724,-1.1010215228642058e-05,0.4542350269205724,-2.0577496596885032e-05,0.4542350269205724,1.0769138722168906e-06,0.4542350269205724,-1.96384e-05
0.4550291441005034,-7.1195359005750816e-06,0.4550291441005034,-2.1336584245890213e-05,0.4550291441005034,1.2339141791478609e-06,0.4550291441005034,-1.853332119791198e-05
0.4558232612804345,-3.7814124886691047e-06,0.4558232612804345,-2.2579897687607075e-05,0.4558232612804345,2.280700413374615e-06,0.4558232612804345,-1.5550740103343653e-05
0.4566173784603656,2.275168160678564e-07,0.4566173784603656,-2.108001174248681e-05,0.4566173784603656,-7.507851949593793e-07,0.4566173784603656,-1.497803322764575e-05
0.4574114956402966,1.76727862224252e-06,0.4574114956402966,-2.161313829074212e-05,0.4574114956402966,6.891789606004087e-08,0.4574114956402966,-1.4543707585171651e-05
0.4582056128202277,3.2678511682750456e-06,0.4582056128202277,-2.1022304633907983e-05,0.4582056128202277,4.926429631986141e-06,0.4582056128202277,-9.982749083065734e-06
0.4589997300001588,3.86053e-06,0.4589997300001588,-1.9974274641515783e-05,0.4589997300001588,4.5327080109158254e-06,0.4589997300001588,-7.889299008354907e-06
0.4597938471800898,4.009053231109115e-06,0.4597938471800898,-1.977646937366378e-05,0.4597938471800898,1.0976385648180545e-06,0.4597938471800898,-6.526793231109115e-06
0.4605879643600209,1.3038481852797111e-06,0.4605879643600209,-1.827621842840267e-05,0.4605879643600209,-1.1659830055977692e-06,0.4605879643600209,-1.082610116039295e-05
0.461382081539952,1.0968541650076105e-06,0.461382081539952,-1.9834534950021157e-05,0.461382081539952,2.513907590022944e-06,0.461382081539952,-1.6359486765427486e-05
0.4621761987198831,2.2749772732610226e-07,0.4621761987198831,-2.46738e-05,0.4621761987198831,6.00165060931212e-06,0.4621761987198831,-1.805700437995499e-05
0.4629703158998141,-1.7072677740403583e-06,0.4629703158998141,-2.3806242793313292e-05,0.4629703158998141,2.973322329014992e-06,0.4629703158998141,-2.03098e-05
0.4637644330797452,-2.0243718245902087e-06,0.4637644330797452,-2.311358163726581e-05,0.4637644330797452,1.0172737032696891e-06,0.4637644330797452,-1.7408061386065732e-05
0.4645585502596763,-1.194756941562726e-06,0.4645585502596763,-2.413997277758973e-05,0.4645585502596763,-7.59978587939294e-07,0.4645585502596763,-1.2451169415627258e-05
0.4653526674396073,-2.616164986994328e-06,0.4653526674396073,-2.327323828393648e-05,0.4653526674396073,1.312474047964083e-06,0.4653526674396073,-1.0021737506502836e-05
0.4661467846195384,-2.950609013371488e-06,0.4661467846195384,-2.14750029025855e-05,0.4661467846195384,2.281256142885732e-06,0.4661467846195384,-5.699404236678543e-06
0.4669409017994695,-6.920662727234048e-06,0.4669409017994695,-2.276810913165117e-05,0.4669409017994695,8.004034463259491e-07,0.4669409017994695,-1.058412628244508e-06
0.4677350189794005,-6.527335267083544e-06,0.4677350189794005,-2.314404695681908e-05,0.4677350189794005,-8.86206552506616e-08,0.4677350189794005,2.1215973322102126e-06
0.4685291361593316,-1.0356718695443336e-05,0.4685291361593316,-2.23239e-05,0.4685291361593316,6.414328065181934e-07,0.4685291361593316,8.716238827584305e-06
0.4693232533392627,-1.0120293413202592e-05,0.4693232533392627,-2.143647478338929e-05,0.4693232533392627,-4.04864115197244e-07,0.4693232533392627,1.495827338560243e-05
0.4701173705191938,-1.0752445332189764e-05,0.4701173705191938,-1.8414950032421147e-05,0.4701173705191938,-1.51064e-06,0.4701173705191938,1.308215584263778e-05
0.4709114876991248,-1.4039892490882368e-05,0.4709114876991248,-1.8414062961667703e-05,0.4709114876991248,-8.39246e-07,0.4709114876991248,1.3121840474400445e-05
0.4717056048790559,-1.5985540271618876e-05,0.4717056048790559,-2.03098e-05,0.4717056048790559,-2.6646861568644136e-07,0.4717056048790559,1.25299203621585e-05
0.472499722058987,-1.4938800224888537e-05,0.472499722058987,-2.114855058169924e-05,0.472499722058987,-8.390457763043428e-07,0.472499722058987,8.729861905588165e-06
0.473293839238918,-1.9655287795801947e-05,0.473293839238918,-2.1691853652582717e-05,0.473293839238918,-1.037286671023339e-06,0.473293839238918,-1.544414440685252e-06
0.4740879564188491,-2.550991535738932e-05,0.4740879564188491,-1.967715287016442e-05,0.4740879564188491,9.949945919100594e-07,0.4740879564188491,-1.4770230009923484e-05
0.4748820735987802,-3.000596235029995e-05,0.4748820735987802,-2.070445590408674e-05,0.4748820735987802,2.7519647353272064e-06,0.4748820735987802,-2.8397777694600893e-05
0.4756761907787112,-2.6672800882946145e-05,0.4756761907787112,-2.1020703354641096e-05,0.4756761907787112,5.63610327413241e-06,0.4756761907787112,-3.815442598844198e-05
0.4764703079586423,-1.601296762219981e-05,0.4764703079586423,-2.153378416515653e-05,0.4764703079586423,5.735635326328652e-06,0.4764703079586423,-4.578921618890009e-05
0.4772644251385734,-2.493931726364692e-07,0.4772644251385734,-2.2718735682117715e-05,0.4772644251385734,6.388463266012456e-06,0.4772644251385734,-5.332508366993772e-05
0.4780585423185045,7.01929384472323e-06,0.4780585423185045,-2.29953e-05,0.4780585423185045,4.927097433241589e-06,0.4780585423185045,-5.905257325423545e-05
0.4788526594984356,1.0198344097105272e-05,0.4788526594984356,-2.3509316209538264e-05,0.4788526594984356,3.229595902894727e-06,0.4788526594984356,-5.611359183226417e-05
0.4796467766783666,1.1226891413369784e-05,0.4796467766783666,-2.1712159389266744e-05,0.4796467766783666,1.3522942933151082e-06,0.4796467766783666,-3.551844495327993e-05
0.4804408938582977,7.850079317155955e-06,0.4804408938582977,-2.0783790506805635e-05,0.4804408938582977,4.254476891809886e-06,0.4804408938582977,1.2688989313694365e-06
0.4812350110382288,9.7821593457366e-06,0.4812350110382288,-2.0585999625305214e-05,0.4812350110382288,5.459795462518031e-06,0.4812350110382288,4.0061651353863297e-05
0.4820291282181598,1.4009412629884895e-05,0.4820291282181598,-2.140583864447781e-05,0.4820291282181598,6.3682769588761e-06,0.4820291282181598,5.875521134201759e-05
0.4828232453980909,1.79599e-05,0.4828232453980909,-2.06455e-05,0.4828232453980909,6.54612e-06,0.4828232453980909,6.0830470081955775e-05
0.483617362578022,1.7071134081019402e-05,0.483617362578022,-2.1238577933861323e-05,0.483617362578022,4.768596987040479e-06,0.483617362578022,4.968213381367329e-05
0.484411479757953,1.4524079515947251e-05,0.484411479757953,-1.8433787893614746e-05,0.484411479757953,3.2483036014883955e-06,0.484411479757953,3.683870517226487e-05
0.4852055969378841,9.66807905199032e-06,0.4852055969378841,-2.058378141095606e-05,0.4852055969378841,2.4002289384814485e-06,0.4852055969378841,2.809161570619323e-05
0.4859997141178152,-1.6414199822401473e-07,0.4859997141178152,-2.0981569829092265e-05,0.4859997141178152,-3.351831384547717e-07,0.4859997141178152,1.980939212612069e-05
0.4867938312977463,-5.043895232832531e-06,0.4867938312977463,-1.956932342661898e-05,0.4867938312977463,6.411929780923818e-07,0.4867938312977463,7.461631509526905e-06
0.4875879484776773,-5.883657097647115e-06,0.4875879484776773,-2.072298519426809e-05,0.4875879484776773,3.4648408568339173e-06,0.4875879484776773,-5.886178170105213e-06
0.4883820656576084,-8.911596087474619e-06,0.4883820656576084,-2.2974855298130935e-05,0.4883820656576084,3.1188686290135008e-06,0.4883820656576084,-1.8186222456762357e-05
0.4891761828375395,-1.2961798267832732e-05,0.4891761828375395,-2.216591885391489e-05,0.4891761828375395,4.274589480349819e-06,0.4891761828375395,-3.2324509705475124e-05
0.4899703000174705,-1.7079813747620184e-05,0.4899703000174705,-2.1198079028641368e-05,0.4899703000174705,3.5056729855589057e-06,0.4899703000174705,-4.930901279358152e-05
0.4907644171974016,-1.76242e-05,0.4907644171974016,-2.16526e-05,0.4907644171974016,1.4522288817943889e-06,0.4907644171974016,-6.477680679928521e-05
0.4915585343773327,-1.4149612483491545e-05,0.4915585343773327,-2.212578178366049e-05,0.4915585343773327,-1.4114986117737052e-06,0.4915585343773327,-7.186850114686901e-05
0.4923526515572637,-1.2015702054939571e-05,0.4923526515572637,-2.3094939723852884e-05,0.4923526515572637,4.630511129438802e-07,0.4923526515572637,-6.707309924420206e-05
0.4931467687371948,-1.710901323770774e-05,0.4931467687371948,-2.129742334598948e-05,0.4931467687371948,-5.605219364771005e-07,0.4931467687371948,-5.526894704916904e-05
0.4939408859171259,-1.8947590102410397e-05,0.4939408859171259,-2.079353472937096e-05,0.4939408859171259,-4.986955256025983e-06,0.4939408859171259,-3.401296141448928e-05
0.494735003097057,-1.7349001290965317e-05,0.494735003097057,-2.1563332870284945e-05,0.494735003097057,-2.1445597050959456e-06,0.494735003097057,-1.48602107069937e-06
0.495529120276988,-1.410038798635686e-05,0.495529120276988,-2.14549487397145e-05,0.495529120276988,-1.0170915831261232e-06,0.495529120276988,2.5340995076091223e-05
0.4963232374569191,-1.1818570938092349e-05,0.4963232374569191,-2.409886516485865e-05,0.4963232374569191,1.3625546423862304e-06,0.4963232374569191,3.6443056407138526e-05
0.4971173546368502,-1.4257478955754622e-05,0.4971173546368502,-2.420009778113563e-05,0.4971173546368502,2.5769156400302927e-06,0.4971173546368502,3.691680170674745e-05
0.4979114718167812,-1.375402594976183e-05,0.4979114718167812,-2.147486423127928e-05,0.4979114718167812,1.878020154720673e-07,0.4979114718167812,2.3609014509714387e-05
0.4987055889967123,-1.12459e-05,0.4987055889967123,-1.9658983136045027e-05,0.4987055889967123,-2.379256886865916e-06,0.4987055889967123,-2.4619540819888094e-06
0.4994997061766434,-1.0910411666310745e-05,0.4994997061766434,-1.9973719897877428e-05,0.4994997061766434,-2.85344e-06,0.4994997061766434,-2.8022227545940945e-05
0.5002938233565745,-1.0673532686447194e-05,0.5002938233565745,-1.9885192790811463e-05,0.5002938233565745,3.440849277923036e-07,0.5002938233565745,-4.068331164395051e-05
0.5010879405365055,-1.0988040245838052e-05,0.5010879405365055,-1.959966767589634e-05,0.5010879405365055,1.381710122919026e-06,0.5010879405365055,-5.255702480977027e-05
0.5018820577164366,-1.1690866537148836e-05,0.5018820577164366,-1.906562945051648e-05,0.5018820577164366,1.885366183672562e-06,0.5018820577164366,-6.899358077548662e-05
0.5026761748963677,-1.0417798201433512e-05,0.5026761748963677,-2.1178653742429917e-05,0.5026761748963677,3.0101417985664863e-06,0.5026761748963677,-8.222777865710991e-05
0.5034702920762988,-9.291696426966165e-06,0.5034702920762988,-2.1792169034978147e-05,0.5034702920762988,3.968393573033836e-06,0.5034702920762988,-9.707859889161728e-05
0.5042644092562298,-7.395586148856853e-06,0.5042644092562298,-2.09812e-05,0.5042644092562298,5.20333e-06,0.5042644092562298,-9.731045909480316e-05
0.5050585264361609,-4.986634252793883e-06,0.5050585264361609,-2.09812e-05,0.5050585264361609,2.36054667460549e-06,0.5050585264361609,-6.498344979337366e-05
0.505852643616092,-3.52483e-06,0.505852643616092,-2.222432142852517e-05,0.505852643616092,2.36868911950818e-06,0.505852643616092,-1.381015165966632e-05
0.506646760796023,-3.307361207778414e-06,0.506646760796023,-2.350856627832338e-05,0.506646760796023,4.512955811452112e-06,0.506646760796023,4.188133681803561e-05
0.507440877975954,-4.906438329151681e-06,0.507440877975954,-2.4120555946581244e-05,0.507440877975954,1.1555361822367522e-06,0.507440877975954,7.621033748118256e-05
0.5082349951558852,-5.282575978904169e-06,0.5082349951558852,-2.6845168056824697e-05,0.5082349951558852,1.6086034796588783e-06,0.5082349951558852,7.956990804219166e-05
0.5090291123358163,-3.880538965092137e-06,0.5090291123358163,-2.585891391534748e-05,0.5090291123358163,5.301143920196066e-06,0.5090291123358163,8.709151781181015e-05
0.5098232295157473,-4.156752216239986e-06,0.5098232295157473,-2.315481039664332e-05,0.5098232295157473,9.52789330447797e-06,0.5098232295157473,9.546668506905984e-05
0.5106173466956784,-6.710744171830757e-07,0.5106173466956784,-2.30735912470476e-05,0.5106173466956784,1.1798931520898244e-05,0.5106173466956784,9.418280543730528e-05
0.5114114638756094,2.9573099170603723e-08,0.5114114638756094,-2.303480280137919e-05,0.5114114638756094,8.205432457575332e-06,0.5114114638756094,6.89692924617987e-05
0.5122055810555405,-1.0913892065932985e-07,0.5122055810555405,-2.06455e-05,0.5122055810555405,2.875214806810428e-07,0.5122055810555405,3.18898586158593e-05
0.5129996982354716,5.037653857267021e-07,0.5129996982354716,-2.114870724770707e-05,0.5129996982354716,-4.530190910301003e-06,0.5129996982354716,-1.5676229491245837e-07
0.5137938154154027,-1.0373210687981257e-06,0.5137938154154027,-1.928288734123046e-05,0.5137938154154027,-5.973758419460899e-06,0.5137938154154027,-1.8169539513477528e-05
0.5145879325953338,-3.224746049912709e-06,0.5145879325953338,-1.8334322051073425e-05,0.5145879325953338,-6.288243046797008e-06,0.5145879325953338,-3.057195624958404e-05
0.5153820497752648,-3.548367557089449e-06,0.5153820497752648,-1.9558937627493545e-05,0.5153820497752648,-6.8037790986821726e-06,0.5153820497752648,-3.665742270395348e-05
0.5161761669551959,-1.5889823182164588e-06,0.5161761669551959,-1.965813810592667e-05,0.5161761669551959,-7.866581050398985e-06,0.5161761669551959,-3.816147178785569e-05
0.5169702841351269,-3.5752663053089887e-06,0.5169702841351269,-2.0565272945614912e-05,0.5169702841351269,-6.4121446511014e-06,0.5169702841351269,-3.749994401191006e-05
0.5177644013150581,-1.8258848194420424e-06,0.5177644013150581,-2.1563910785619985e-05,0.5177644013150581,4.042805016805974e-07,0.5177644013150581,-3.967951711755734e-05
0.5185585184949891,-4.748591349294976e-06,0.5185585184949891,-2.055749553654825e-05,0.5185585184949891,2.438380505529912e-06,0.5185585184949891,-4.642402151658974e-05
0.5193526356749202,-4.19623e-06,0.5193526356749202,-2.03098e-05,0.5193526356749202,4.728688245769538e-06,0.5193526356749202,-5.015651035290739e-05
0.5201467528548512,-7.000038996502286e-06,0.5201467528548512,-2.043807577850489e-05,0.5201467528548512,7.690392464442373e-06,0.5201467528548512,-5.115608602098628e-05
0.5209408700347823,-5.577826285274165e-06,0.5209408700347823,-2.1277268100056203e-05,0.5209408700347823,8.511814498944741e-06,0.5209408700347823,-4.70104125475025e-05
0.5217349872147133,-6.21042e-06,0.5217349872147133,-2.2264401944620012e-05,0.5217349872147133,7.849286510981729e-06,0.5217349872147133,-4.14026967874899e-05
0.5225291043946444,-8.855969186970912e-06,0.5225291043946444,-2.2797642930883437e-05,0.5225291043946444,6.507240914657725e-06,0.5225291043946444,-3.622655760885978e-05
0.5233232215745756,-1.0969431293100912e-05,0.5233232215745756,-2.4849969096807825e-05,0.5233232215745756,4.14692835925554e-06,0.5233232215745756,-3.4053712241394525e-05
0.5241173387545066,-1.035718567814273e-05,0.5241173387545066,-2.5692248324995767e-05,0.5241173387545066,1.2811390229510365e-07,0.5241173387545066,-3.120994757085698e-05
0.5249114559344377,-7.928489567254331e-06,0.5249114559344377,-2.308420736000972e-05,0.5249114559344377,5.81468549286617e-06,0.5249114559344377,-3.3974240338765074e-05
0.5257055731143687,-8.856100932216708e-06,0.5257055731143687,-2.457444570403869e-05,0.5257055731143687,7.100140054867892e-06,0.5257055731143687,-4.053854148709964e-05
0.5264996902942998,-9.735148446133525e-06,0.5264996902942998,-2.4338400515974217e-05,0.5264996902942998,5.0355915538664765e-06,0.5264996902942998,-5.0015084060806846e-05
0.5272938074742308,-1.1383511695050697e-05,0.5272938074742308,-2.437770477147818e-05,0.5272938074742308,6.328747923762675e-06,0.5272938074742308,-6.331251695050698e-05
0.528087924654162,-1.0221027692979768e-05,0.528087924654162,-2.56809e-05,0.528087924654162,4.729794717414646e-06,0.528087924654162,-7.002865282585354e-05
0.528882041834093,-8.010030215141071e-06,0.528882041834093,-2.4497055564103617e-05,0.528882041834093,4.750585847064232e-06,0.528882041834093,-7.477092943529052e-05
0.5296761590140241,-5.964236262850129e-06,0.5296761590140241,-2.12972543671709e-05,0.5296761590140241,1.6523582908304569e-06,0.5296761590140241,-7.426021003426701e-05
0.5304702761939551,-6.682646932852076e-06,0.5304702761939551,-1.884816361909585e-05,0.5304702761939551,-2.2202959511651464e-06,0.5304702761939551,-6.332793321523005e-05
0.5312643933738862,-1.0989005484149324e-05,0.5312643933738862,-1.9933975680285097e-05,0.5312643933738862,-5.025240968298651e-06,0.5312643933738862,-4.105353829920801e-05
0.5320585105538173,-1.029833681989375e-05,0.5320585105538173,-2.1790121511217087e-05,0.5320585105538173,-3.012204261879118e-06,0.5320585105538173,-1.0954911239747417e-05
0.5328526277337483,-1.00014711917447e-05,0.5328526277337483,-2.29953e-05,0.5328526277337483,-7.611766764581604e-07,0.5328526277337483,1.0252859285949794e-05
0.5336467449136795,-7.950307413487307e-06,0.5336467449136795,-2.29953e-05,0.5336467449136795,-7.589121481865352e-07,0.5336467449136795,3.072619074907767e-05
0.5344408620936105,-4.20592634927427e-06,0.5344408620936105,-2.173182395626729e-05,0.5344408620936105,-2.39168792157804e-06,0.5344408620936105,4.915438317677664e-05
0.5352349792735416,-5.261629028857758e-06,0.5352349792735416,-1.8376546445288285e-05,0.5352349792735416,1.3311696010304464e-06,0.5352349792735416,5.472818515934729e-05
0.5360290964534726,-4.947752093387162e-06,0.5360290964534726,-1.69528e-05,0.5360290964534726,3.7804079066128384e-06,0.5360290964534726,5.814354076031684e-05
0.5368232136334037,-4.443226040343832e-07,0.5368232136334037,-1.754442429512936e-05,0.5368232136334037,1.0258453434338338e-05,0.5368232136334037,5.567708168352887e-05
0.5376173308133347,1.0170707903374068e-06,0.5376173308133347,-1.880838757539853e-05,0.5376173308133347,1.0139905754368256e-05,0.5376173308133347,3.305522696113248e-05
0.5384114479932659,1.4515163813361215e-06,0.5384114479932659,-1.7880930475092817e-05,0.5384114479932659,7.414931809331939e-06,0.5384114479932659,1.0813004718573591e-05
0.539205565173197,-9.565763119380149e-07,0.539205565173197,-1.9124543022432005e-05,0.539205565173197,7.494547959317988e-06,0.539205565173197,4.353486221959322e-06
0.539999682353128,-3.021175585777961e-06,0.539999682353128,-1.963819453939318e-05,0.539999682353128,3.5268894491802336e-06,0.539999682353128,7.887308214524377e-06
0.5407937995330591,5.311186948733631e-07,0.5407937995330591,-2.133669211270878e-05,0.5407937995330591,-7.594749912243428e-07,0.5407937995330591,1.2231050801581509e-05
0.5415879167129901,1.0193672188798674e-06,0.5415879167129901,-2.0587447742481008e-05,0.5415879167129901,-1.0548629136977043e-06,0.5415879167129901,8.962850875347294e-06
0.5423820338929212,-1.869969517371389e-06,0.5423820338929212,-1.884919092212996e-05,0.5423820338929212,-3.821521015368544e-06,0.5423820338929212,-6.037896052886095e-06
0.5431761510728523,2.159642046632006e-06,0.5431761510728523,-1.782158860727427e-05,0.5431761510728523,-1.868737597793199e-06,0.5431761510728523,-1.9354868331554207e-05
0.5439702682527834,-2.768935047506047e-06,0.5439702682527834,-2.0386992412903457e-05,0.5439702682527834,1.1940593633246129e-06,0.5439702682527834,-1.6286759459635875e-05
0.5447643854327144,-8.738410473123438e-06,0.5447643854327144,-1.93428500022905e-05,0.5447643854327144,2.1032402365617183e-06,0.5447643854327144,3.217331722335603e-06
0.5455585026126455,-6.329527446528182e-06,0.5455585026126455,-1.8787984460763853e-05,0.5455585026126455,-6.804361107185355e-07,0.5455585026126455,4.263570410039859e-05
0.5463526197925765,-6.525804286244782e-06,0.5463526197925765,-2.0052766212655e-05,0.5463526197925765,-9.3921319825057e-07,0.5463526197925765,7.983740477074638e-05
0.5471467369725076,-6.88182e-06,0.5471467369725076,-2.133627091846476e-05,0.5471467369725076,1.1158397559878008e-06,0.5471467369725076,8.743518460275557e-05
0.5479408541524387,-7.630767284630287e-06,0.5479408541524387,-2.3192658226821692e-05,0.5479408541524387,-1.51064e-06,0.5479408541524387,6.533727908425928e-05
0.5487349713323698,-9.665312938017826e-06,0.5487349713323698,-2.28381781718118e-05,0.5487349713323698,-9.977708653967965e-07,0.5487349713323698,2.952749903913522e-05
0.5495290885123009,-9.745276346149618e-06,0.5495290885123009,-2.09812e-05,0.5495290885123009,-3.457201148264198e-07,0.5495290885123009,2.2672472853560287e-06
0.5503232056922319,-1.0475679406714714e-05,0.5503232056922319,-2.09812e-05,0.5503232056922319,1.4118194067147157e-06,0.5503232056922319,-2.3290534134384e-05
0.551117322872163,-1.2174053282516615e-05,0.551117322872163,-2.315179003682221e-05,0.551117322872163,3.4064110996271388e-06,0.551117322872163,-4.649491756130463e-05
0.551911440052094,-1.2134775694727156e-05,0.551911440052094,-2.3074367240940646e-05,0.551911440052094,3.0904369618408947e-06,0.551911440052094,-5.466922430527284e-05
0.5527055572320251,-7.337346271026323e-06,0.5527055572320251,-2.263897577183363e-05,0.5527055572320251,2.2806255113781123e-06,0.5527055572320251,-5.279515937484076e-05
0.5534996744119562,-5.538795450844879e-06,0.5534996744119562,-2.1653442325754028e-05,0.5534996744119562,2.51774e-06,0.5534996744119562,-4.649678004070633e-05
0.5542937915918873,-9.644469239706429e-06,0.5542937915918873,-2.0240684906580445e-05,0.5542937915918873,1.2739956185020042e-06,0.5542937915918873,-4.51514e-05
0.5550879087718184,-9.528524275163157e-06,0.5550879087718184,-2.1691285469213155e-05,0.5550879087718184,1.3127638165578974e-06,0.5550879087718184,-4.637409526623159e-05
0.5558820259517494,-5.67970490375943e-06,0.5558820259517494,-2.35076827977141e-05,0.5558820259517494,2.771934711278288e-07,0.5558820259517494,-5.0912632516178e-05
0.5566761431316805,-5.024263150032999e-06,0.5566761431316805,-2.425915481036486e-05,0.5566761431316805,-7.198686334353151e-07,0.5566761431316805,-5.6087688400088e-05
0.5574702603116115,-6.723522546369038e-06,0.5574702603116115,-2.36667e-05,0.5574702603116115,2.865752528469912e-08,0.5574702603116115,-5.773059745363096e-05
0.5582643774915427,-9.841536165570156e-06,0.5582643774915427,-2.4209275823820077e-05,0.5582643774915427,3.750950213636095e-07,0.5582643774915427,-5.5835529786363904e-05
0.5590584946714737,-1.5766986346072355e-05,0.5590584946714737,-2.36394614949562e-05,0.5590584946714737,2.3985980372581894e-06,0.5590584946714737,-5.265594243595176e-05
0.5598526118514048,-1.939936712906812e-05,0.5598526118514048,-2.1059861076139864e-05,0.5598526118514048,4.097885275197499e-06,0.5598526118514048,-4.88847658255925e-05
0.5606467290313358,-2.5955114379689444e-05,0.5606467290313358,-2.170178066912833e-05,0.5606467290313358,3.425540073867924e-06,0.5606467290313358,-4.637599820253882e-05
0.5614408462112669,-2.679112520974701e-05,0.5614408462112669,-2.279795202645272e-05,0.5614408462112669,4.53193e-06,0.5614408462112669,-4.797266862764758e-05
0.5622349633911979,-1.684102906896029e-05,0.5622349633911979,-2.1495475847906912e-05,0.5622349633911979,5.301223414754191e-06,0.5622349633911979,-4.9930468861748605e-05
0.563029080571129,2.828151339440649e-06,0.563029080571129,-2.2126246017061528e-05,0.563029080571129,7.177405837137934e-06,0.563029080571129,-5.2930048980703794e-05
0.5638231977510602,1.8058283702578213e-05,0.5638231977510602,-2.4770111365741192e-05,0.5638231977510602,8.382669370997573e-06,0.5638231977510602,-6.26269073732514e-05
0.5646173149309912,2.3429837209697804e-05,0.5646173149309912,-2.2581411492277152e-05,0.5646173149309912,6.072115458776743e-06,0.5646173149309912,-7.639152270611629e-05
0.5654114321109223,1.6638392447300354e-05,0.5654114321109223,-2.37258572377568e-05,0.5654114321109223,3.268334850346862e-06,0.5654114321109223,-8.359840205982717e-05
0.5662055492908533,4.642478643532686e-06,0.5662055492908533,-2.6037234501196674e-05,0.5662055492908533,2.320580443271185e-06,0.5662055492908533,-8.804094930474755e-05
0.5669996664707844,1.1753004047993668e-06,0.5669996664707844,-2.5009931467274257e-05,0.5669996664707844,-1.0050577132942003e-06,0.5669996664707844,-8.845732073802594e-05
0.5677937836507154,-2.237039512429325e-06,0.5677937836507154,-2.88602919025167e-05,0.5677937836507154,-5.775661599373476e-06,0.5677937836507154,-7.730981781830017e-05
0.5685879008306466,-1.0256496312326802e-05,0.5685879008306466,-3.030333808209591e-05,0.5685879008306466,-4.334048083544202e-06,0.5685879008306466,-4.380123053749432e-05
0.5693820180105776,-1.094919751860415e-05,0.5693820180105776,-2.785414802137679e-05,0.5693820180105776,-5.093976277906226e-06,0.5693820180105776,5.141619866951919e-06
0.5701761351905087,-1.262592664649978e-05,0.5701761351905087,-2.4417267335211744e-05,0.5701761351905087,-6.919048424714575e-06,0.5701761351905087,4.911914173026892e-05
0.5709702523704397,-1.4621993651315987e-05,0.5709702523704397,-2.151601535493983e-05,0.5709702523704397,-7.635143853463679e-06,0.5709702523704397,8.588794082391334e-05
0.5717643695503708,-1.62814e-05,0.5717643695503708,-1.83760027348848e-05,0.5717643695503708,5.6537653244336935e-08,0.5717643695503708,0.0001265930068018
0.5725584867303019,-1.691307438865514e-05,0.5725584867303019,-1.4190427745819284e-05,0.5725584867303019,7.314866923614045e-06,0.5725584867303019,0.0001613367402725
0.573352603910233,-1.88279665175502e-05,0.573352603910233,-1.2095688120750624e-05,0.573352603910233,1.263612565618063e-05,0.573352603910233,0.0001608928927374
0.5741467210901641,-1.6777939355525194e-05,0.5741467210901641,-1.3121244739515282e-05,0.5741467210901641,1.2494262554171452e-05,0.5741467210901641,0.0001368920908086
