X [s],R BICEPS BRACHII: EMG 1 [V],X [s].1,R DELTOID ANTERIOR: EMG 2 [V],X [s].5,R DELTOID MEDIUS: EMG 6 [V],X [s].6,R DELTOID POSTERIOR: EMG 7 [V]
0.0,-5.87472e-06,0.0,-1.46029e-05,0.0,2.18204e-06,0.0,-1.71206e-05
0.000794117179931,-3.870403669146322e-06,0.000794117179931,-1.6636847367550196e-05,0.000794117179931,5.677252273094048e-06,0.000794117179931,-1.485961200425084e-05
0.0015882343598621,-3.4063525313182773e-06,0.0015882343598621,-1.4721372263422896e-05,0.0015882343598621,2.1721670944013102e-06,0.0015882343598621,-1.438565181827577e-05
0.0023823515397932,-3.366867232242214e-06,0.0023823515397932,-1.1542078534148417e-05,0.0023823515397932,3.72228493016886e-06,0.0023823515397932,-1.6794836055864912e-05
0.0031764687197242,-1.3526650265631447e-06,0.0031764687197242,-1.825611129826495e-05,0.0031764687197242,4.650413351042097e-06,0.0031764687197242,-1.3951250053126287e-05
0.0039705858996553,-1.757480350023305e-06,0.0039705858996553,-2.1692083855910007e-05,0.0039705858996553,2.6362387942247087e-06,0.0039705858996553,-1.3121857899860167e-05
0.0047647030795864,-2.4683625142653986e-07,0.0047647030795864,-1.869045668470806e-05,0.0047647030795864,1.0861338991051489e-07,0.0047647030795864,-1.3990732031891116e-05
0.0055588202595174,-1.7673343194664349e-06,0.0055588202595174,-3.030162062353993e-05,0.0055588202595174,1.0366804120874903e-06,0.0055588202595174,-1.1038582053902792e-05
0.0063529374394485,-5.618006774231014e-06,0.0063529374394485,-4.015546894980249e-05,0.0063529374394485,5.400790125273111e-06,0.0063529374394485,-1.0219053476315208e-05
0.0071470546193796,-5.173724219325374e-06,0.0071470546193796,-4.3236028280679526e-05,0.0071470546193796,6.190690655973886e-06,0.0071470546193796,-1.1147155248864684e-05
0.0079411717993107,-2.7744567552104824e-06,0.0079411717993107,-4.665216707459704e-05,0.0079411717993107,2.705346886578158e-06,0.0079411717993107,-1.2647937433592138e-05
0.0087352889792417,-4.838197355322101e-07,0.0087352889792417,-4.562534077643489e-05,0.0087352889792417,-2.103007297089628e-06,0.0087352889792417,-1.4109213573343637e-05
0.0095294061591728,-1.668614973436855e-06,0.0095294061591728,-3.788459774445005e-05,0.0095294061591728,-7.513715187909664e-06,0.0095294061591728,-1.2381336148722929e-05
0.0103235233391039,-1.1157169877612229e-06,0.0103235233391039,-2.493034531799638e-05,0.0103235233391039,-8.046939551926605e-06,0.0103235233391039,-1.09102e-05
0.0111176405190349,-1.4316600065241173e-06,0.0111176405190349,-2.9716442101086266e-06,0.0111176405190349,-6.328891048936335e-06,0.0111176405190349,-1.09102e-05
0.011911757698966,-5.361575763303945e-06,0.011911757698966,3.584073357802931e-06,0.011911757698966,-5.28224019322937e-06,0.011911757698966,-1.3042980919810147e-05
0.0127058748788971,-9.72525052734703e-06,0.0127058748788971,-1.8354747815466175e-05,0.0127058748788971,-1.3923739800911194e-06,0.0127058748788971,-1.3497091306453778e-05
0.0134999920588282,-1.3595754185153629e-05,0.0134999920588282,-2.5680910269073088e-05,0.0134999920588282,1.1749285464248827e-06,0.0134999920588282,-1.4434979956857685e-05
0.0142941092387592,-1.675535970548437e-05,0.0142941092387592,-1.2282833740485133e-05,0.0142941092387592,2.695539263710925e-06,0.0142941092387592,-1.2687256102575584e-05
0.0150882264186903,-1.647890668366413e-05,0.0150882264186903,-7.987444195044814e-06,0.0150882264186903,4.314549923511416e-06,0.0150882264186903,-9.48852416756422e-06
0.0158823435986214,-1.320101104066148e-05,0.0158823435986214,-2.1257041689718463e-05,0.0158823435986214,6.54612e-06,0.0158823435986214,-7.108888343900778e-06
0.0166764607785524,-8.580021382271475e-06,0.0166764607785524,-2.9383692016487303e-05,0.0166764607785524,5.440270333335144e-06,0.0166764607785524,-1.0041383808861548e-05
0.0174705779584835,-5.855001536627419e-06,0.0174705779584835,-2.3074158840217068e-05,0.0174705779584835,3.070693718770043e-06,0.0174705779584835,-1.1986405713289694e-05
0.0182646951384146,-7.869071722689095e-06,0.0182646951384146,-2.0132131541029723e-05,0.0182646951384146,5.628750957906927e-07,0.0182646951384146,-1.3121797035784217e-05
0.0190588123183456,-8.89601e-06,0.0190588123183456,-2.0961535317566545e-05,0.0190588123183456,-4.936725491607405e-07,0.0190588123183456,-1.3605672509090424e-05
0.0198529294982767,-7.395217983120804e-06,0.0198529294982767,-2.2561001670515424e-05,0.0198529294982767,6.908058548974104e-08,0.0198529294982767,-1.5353373389597314e-05
0.0206470466782078,-7.335968141513149e-06,0.0206470466782078,-1.9480363921707443e-05,0.0206470466782078,9.773377433384694e-07,0.0206470466782078,-1.5373103716973703e-05
0.0214411638581389,-6.822618836666611e-06,0.0214411638581389,-1.926312436735688e-05,0.0214411638581389,4.2461346825827217e-07,0.0214411638581389,-1.5708668605555648e-05
0.0222352810380699,-6.003079650354555e-06,0.0222352810380699,-2.1079947106934447e-05,0.0222352810380699,1.214497699476248e-06,0.0222352810380699,-1.754521930070911e-05
0.023029398218001,-8.323311906139356e-06,0.023029398218001,-2.323220154770012e-05,0.023029398218001,3.919757361377534e-06,0.023029398218001,-1.7130529055448987e-05
0.0238235153979321,-1.0120365076224178e-05,0.0238235153979321,-2.440725518775891e-05,0.0238235153979321,5.993156687801556e-06,0.0238235153979321,-1.604452662439689e-05
0.0246176325778631,-8.678798229503725e-06,0.0246176325778631,-2.769514680854e-05,0.0246176325778631,8.323334717521493e-06,0.0246176325778631,-1.3309434303401525e-05
0.0254117497577942,-8.501030993806519e-06,0.0254117497577942,-3.237514431347736e-05,0.0254117497577942,7.237168367432682e-06,0.0254117497577942,-1.185802099380652e-05
0.0262058669377253,-8.659012966690426e-06,0.0262058669377253,-2.757675322188204e-05,0.0262058669377253,5.598138926548221e-06,0.0262058669377253,-1.1344602966690426e-05
0.0269999841176564,-7.553265814505182e-06,0.0269999841176564,-1.5610246454695073e-05,0.0269999841176564,7.217497092576813e-06,0.0269999841176564,-1.15816e-05
0.0277941012975874,-8.22461e-06,0.0277941012975874,-1.1897581684574953e-05,0.0277941012975874,3.9789411111171725e-06,0.0277941012975874,-1.0771951748227224e-05
0.0285882184775185,-8.570078973700181e-06,0.0285882184775185,-1.447438707541864e-05,0.0285882184775185,3.801205178960145e-06,0.0285882184775185,-9.01465964207971e-06
0.0293823356574496,-6.566035823222118e-06,0.0293823356574496,-1.9272889463367286e-05,0.0293823356574496,4.117283661843889e-06,0.0293823356574496,-7.296465162309549e-06
0.0301764528373806,-4.749147497352072e-06,0.0301764528373806,-1.9707518295204416e-05,0.0301764528373806,2.6954619892637795e-06,0.0301764528373806,-7.059541989263779e-06
0.0309705700173117,-9.11313547112887e-06,0.0309705700173117,-2.1139222170866376e-05,0.0309705700173117,2.7151584588373384e-06,0.0309705700173117,-6.21042e-06
0.0317646871972428,-8.501223392695793e-06,0.0317646871972428,-2.809001768512021e-05,0.0317646871972428,5.5884356642327565e-06,0.0317646871972428,-7.88866828697842e-06
0.0325588043771738,-7.533463371465682e-06,0.0325588043771738,-2.4574958569575457e-05,0.0325588043771738,3.939556514137272e-06,0.0325588043771738,-1.180864148566306e-05
0.0333529215571049,-9.330467902127338e-06,0.0333529215571049,-1.8967e-05,0.0333529215571049,2.320224195745326e-06,0.0333529215571049,-1.1364371048936332e-05
0.034147038737036,-8.540682756027951e-06,0.034147038737036,-2.204749141834024e-05,0.034147038737036,2.438548545064686e-06,0.034147038737036,-1.1601227243972047e-05
0.0349411559169671,-6.565847994255332e-06,0.0349411559169671,-2.6727591036252743e-05,0.0349411559169671,3.821074599156724e-06,0.0349411559169671,-1.2272727994255331e-05
0.0357352730968981,-7.908666648300528e-06,0.0357352730968981,-2.131691943494126e-05,0.0357352730968981,2.0339289176600994e-06,0.0357352730968981,-1.3872267869266557e-05
0.0365293902768292,-5.953802954145475e-06,0.0365293902768292,-1.6706057903993292e-05,0.0365293902768292,8.590133265873193e-07,0.0365293902768292,-1.49386e-05
0.0373235074567603,-3.465619146810161e-06,0.0373235074567603,-1.6241899293594835e-05,0.0373235074567603,-2.0139454810271813e-06,0.0373235074567603,-1.3753862148865065e-05
0.0381176246366913,-4.077725766628421e-06,0.0381176246366913,-2.5443916947754295e-05,0.0381176246366913,-5.993161258235826e-06,0.0381176246366913,-1.2332003606714075e-05
0.0389117418166224,-3.702520559397649e-06,0.0389117418166224,-3.827924862481505e-05,0.0389117418166224,-5.381016442143442e-06,0.0389117418166224,-1.278618377624094e-05
0.0397058589965535,-3.070638619917315e-06,0.0397058589965535,-3.627548122764633e-05,0.0397058589965535,-4.245578619917315e-06,0.0397058589965535,-1.118681104066148e-05
0.0404999761764846,-3.18914e-06,0.0404999761764846,-1.6282093157844934e-05,0.0404999761764846,-3.52487295141848e-06,0.0404999761764846,-1.02388e-05
0.0412940933564156,-2.18204e-06,0.0412940933564156,-1.701159255578866e-05,0.0412940933564156,-2.665803068627631e-07,0.0412940933564156,-1.491887879321414e-05
0.0420882105363467,-2.85344e-06,0.0420882105363467,-2.98870606856683e-05,0.0420882105363467,-3.556119505534192e-07,0.0420882105363467,-1.5886363725248552e-05
0.0428823277162778,-4.393566035435328e-06,0.0428823277162778,-2.6885914019504368e-05,0.0428823277162778,1.253874884444518e-06,0.0428823277162778,-1.5540995346666447e-05
0.0436764448962088,-4.492463126020108e-06,0.0436764448962088,-1.5551622106147888e-05,0.0436764448962088,2.6756990654607118e-06,0.0436764448962088,-1.2243149555595163e-05
0.0444705620761399,-3.2285364158504462e-06,0.0444705620761399,2.458700240798289e-06,0.0444705620761399,6.41843482126586e-07,0.0444705620761399,-1.1265600854639958e-05
0.045264679256071,-3.880424091816098e-06,0.045264679256071,1.14436013591838e-05,0.045264679256071,-1.67849e-07,0.045264679256071,-1.3674752065011903e-05
0.046058796436002,-2.2215647107802238e-06,0.046058796436002,2.3597197061616598e-06,0.046058796436002,-1.67849e-07,0.046058796436002,-1.1719936487730785e-05
0.0468529136159331,-5.341578038181028e-06,0.0468529136159331,-1.710956375176006e-05,0.0468529136159331,-8.39246e-07,0.0468529136159331,-1.0228967190083653e-05
0.0476470307958642,-5.657463159750088e-06,0.0476470307958642,-3.354014797535725e-05,0.0476470307958642,-9.576805709706748e-07,0.0476470307958642,-1.2489873375603111e-05
0.0484411479757953,-6.467231517898658e-06,0.0484411479757953,-4.030363851962536e-05,0.0484411479757953,-2.498017732600466e-06,0.0484411479757953,-1.2647866802198602e-05
0.0492352651557263,-3.919790765012415e-06,0.0492352651557263,-3.593959431430333e-05,0.0492352651557263,-2.695455693995034e-06,0.0492352651557263,-1.5649462775980137e-05
0.0500293823356574,-4.1566679731976265e-06,0.0500293823356574,-2.7656230321559755e-05,0.0500293823356574,-1.2342872750425226e-06,0.0500293823356574,-1.4030405067005936e-05
0.0508234995155885,-4.690009329432445e-06,0.0508234995155885,-1.8730258014264283e-05,0.0508234995155885,6.219603694307337e-07,0.0508234995155885,-1.181842756075674e-05
0.0516176166955195,-5.341492348935841e-06,0.0516176166955195,-1.3319357617231168e-05,0.0516176166955195,2.3597098791486725e-06,0.0516176166955195,-1.4109169879148671e-05
0.0524117338754506,-7.622330975307426e-06,0.0524117338754506,-1.4504084052280303e-05,0.0524117338754506,4.294969024692573e-06,0.0524117338754506,-1.300336585184456e-05
0.0532058510553817,-5.677339913914625e-06,0.0532058510553817,-1.902606045100735e-05,0.0532058510553817,1.451576299982493e-06,0.0532058510553817,-1.379318302595767e-05
0.0539999682353128,-6.881705463566448e-06,0.0539999682353128,-2.33308562390948e-05,0.0539999682353128,1.1748941856995306e-06,0.0539999682353128,-1.4938554185153629e-05
0.0547940854152438,-8.22461e-06,0.0547940854152438,-2.8464988906169254e-05,0.0547940854152438,1.5501297812666228e-06,0.0547940854152438,-1.4563411983475608e-05
0.0555882025951749,-6.822472271536963e-06,0.0555882025951749,-3.444812015178026e-05,0.0555882025951749,4.965934970087808e-06,0.0555882025951749,-1.4405376135768482e-05
0.056382319775106,-1.039664686146586e-05,0.056382319775106,-4.479527147138543e-05,0.056382319775106,8.481386569267071e-06,0.056382319775106,-1.3556338284633536e-05
0.057176436955037,-1.0475810820142226e-05,0.057176436955037,-4.854837552157226e-05,0.057176436955037,6.783129055092926e-06,0.057176436955037,-1.3536547294964443e-05
0.0579705541349681,-9.56741e-06,0.0579705541349681,-3.5988836918495466e-05,0.0579705541349681,6.15110675423545e-06,0.0579705541349681,-1.27073264915291e-05
0.0587646713148992,-6.704371153678402e-06,0.0587646713148992,-1.3498659911545976e-05,0.0587646713148992,1.0376778028936668e-05,0.0587646713148992,-1.02388e-05
0.0595587884948302,-5.193445958877047e-06,0.0595587884948302,7.3161306155195615e-06,0.0595587884948302,1.1601368082245906e-05,0.0595587884948302,-1.1186595753262282e-05
0.0603529056747613,-6.21042e-06,0.0603529056747613,1.5699186118294567e-05,0.0603529056747613,9.587153978527558e-06,0.0603529056747613,-1.15816e-05
0.0611470228546924,-5.993150960945763e-06,0.0611470228546924,2.7352871726852305e-06,0.0611470228546924,1.0811361921891525e-05,0.0611470228546924,-9.528217762206302e-06
0.0619411400346235,-4.74933134406376e-06,0.0619411400346235,-2.180961041545637e-05,0.0619411400346235,7.65231268812752e-06,0.0619411400346235,-8.086074818111201e-06
0.0627352572145545,-2.340035759716571e-06,0.0627352572145545,-2.48121290150082e-05,0.0627352572145545,2.8337291662046688e-06,0.0627352572145545,-1.3042814840992e-05
0.0635293743944856,-2.655901303020837e-06,0.0635293743944856,-2.372593532518132e-05,0.0635293743944856,3.7815531161631937e-06,0.0635293743944856,-1.1305277393958324e-05
0.0643234915744167,-4.887135216486371e-06,0.0643234915744167,-1.8503197558608503e-05,0.0643234915744167,1.3922387314415968e-06,0.0643234915744167,-1.1147004653333547e-05
0.0651176087543477,-8.027044891697547e-06,0.0651176087543477,9.374197256421068e-07,0.0651176087543477,-6.416806562894021e-07,0.0651176087543477,-1.1364439771205906e-05
0.0659117259342788,-9.360068483794016e-06,0.0659117259342788,1.7761855838695677e-05,0.0659117259342788,-4.3147192901173774e-06,0.0659117259342788,-8.777520709882623e-06
0.0667058431142099,-1.1778971572246077e-05,0.0667058431142099,3.1312380850823136e-06,0.0667058431142099,-4.591393962446327e-06,0.0667058431142099,-8.520667358369116e-06
0.067499960294141,-9.903300439952894e-06,0.067499960294141,-3.0378979938670112e-05,0.067499960294141,-2.8534972677049976e-06,0.067499960294141,-1.1245728195179064e-05
0.068294077474072,-9.468666945318996e-06,0.068294077474072,-5.1055175141382345e-05,0.068294077474072,-5.262529195343123e-06,0.068294077474072,-1.1680343054681005e-05
0.0690881946540031,-8.066991662413373e-06,0.0690881946540031,-4.846999463965082e-05,0.0690881946540031,-6.4673087732619605e-06,0.0690881946540031,-1.32795520445634e-05
0.0698823118339342,-5.578484813175889e-06,0.0698823118339342,-2.9197395732584853e-05,0.0698823118339342,-4.887357994255334e-06,0.0698823118339342,-1.5452176045957333e-05
0.0706764290138652,-5.321845098562815e-06,0.0706764290138652,-1.3319582589210253e-05,0.0706764290138652,-4.620817647837032e-06,0.0706764290138652,-1.3437875295674064e-05
0.0714705461937963,-4.86763e-06,0.0714705461937963,-1.385245941272958e-05,0.0714705461937963,-3.663168364883228e-06,0.0714705461937963,-1.3951177952136753e-05
0.0722646633737274,-3.5742714345720667e-06,0.0722646633737274,-2.0921608293593043e-05,0.0722646633737274,-3.5447699063212964e-06,0.0722646633737274,-1.252969694349846e-05
0.0730587805536585,-4.136909161727031e-06,0.0730587805536585,-2.4890947486335254e-05,0.0730587805536585,7.994755934642473e-07,0.0730587805536585,-9.982195236406818e-06
0.0738528977335895,-4.19623e-06,0.0738528977335895,-3.237424359107544e-05,0.0738528977335895,5.045305923060744e-06,0.0738528977335895,-1.0278282955827506e-05
0.0746470149135206,-4.19623e-06,0.0746470149135206,-4.05897844590864e-05,0.0746470149135206,7.34572955751462e-06,0.0746470149135206,-1.069292523408996e-05
0.0754411320934517,-5.53903e-06,0.0754411320934517,-4.236721241569388e-05,0.0754411320934517,8.481467332403862e-06,0.0754411320934517,-1.241068650950349e-05
0.0762352492733827,-3.998851640284447e-06,0.0762352492733827,-4.019511132988793e-05,0.0762352492733827,6.190734426856299e-06,0.0762352492733827,-1.5965385573143702e-05
0.0770293664533138,-5.301861589299149e-06,0.0770293664533138,-3.780528141422332e-05,0.0770293664533138,7.4938035472513405e-06,0.0770293664533138,-1.652819754620145e-05
0.0778234836332449,-6.21042e-06,0.0778234836332449,-4.325547445979286e-05,0.0778234836332449,6.5071782889556575e-06,0.0778234836332449,-1.76242e-05
0.078617600813176,-8.579859305815923e-06,0.078617600813176,-3.5120752104158496e-05,0.078617600813176,2.2733954431179265e-07,0.078617600813176,-1.6439475935697695e-05
0.079411717993107,-1.0436266595673556e-05,0.079411717993107,-1.185932012339996e-05,0.079411717993107,-1.105827415602769e-06,0.079411717993107,-1.489907048234029e-05
0.0802058351730381,-9.94276276172939e-06,0.0802058351730381,4.867172041124739e-06,0.0802058351730381,-1.51064e-06,0.0802058351730381,-1.5452299703663803e-05
0.0809999523529692,-7.553391804650353e-06,0.0809999523529692,8.895917578342208e-06,0.0809999523529692,1.1746651129688624e-06,0.0809999523529692,-1.2253206166808702e-05
0.0817940695329002,-6.309168781536794e-06,0.0817940695329002,7.0994571038998364e-06,0.0817940695329002,3.02129e-06,0.0817940695329002,-1.0199346344610382e-05
0.0825881867128313,-6.624914046170673e-06,0.0825881867128313,-6.011513849760036e-06,0.0825881867128313,1.5797223410284456e-06,0.0825881867128313,-8.293692341028446e-06
0.0833823038927624,-7.316519605234978e-06,0.0833823038927624,-2.4692337910303607e-05,0.0833823038927624,2.714990133110154e-06,0.0833823038927624,-1.0021450784964604e-05
0.0841764210726934,-4.433286634988615e-06,0.0841764210726934,-3.484309945133895e-05,0.0841764210726934,3.643358317494308e-06,0.0841764210726934,-9.804464869598126e-06
0.0849705382526245,-4.19623e-06,0.0849705382526245,-3.962225704900317e-05,0.0849705382526245,2.3597232504425814e-06,0.0849705382526245,-9.251376500885165e-06
0.0857646554325556,-7.197557186426142e-06,0.0857646554325556,-3.8734234236311485e-05,0.0857646554325556,3.445897466907416e-06,0.0857646554325556,-1.1512230107685182e-05
0.0865587726124866,-6.329096626542283e-06,0.0865587726124866,-3.328364278870175e-05,0.0865587726124866,3.18914e-06,0.0865587726124866,-1.3082313178034944e-05
0.0873528897924177,-6.1906416606788414e-06,0.0873528897924177,-3.010442246319024e-05,0.0873528897924177,3.2089183393211585e-06,0.0873528897924177,-1.0712775825438096e-05
0.0881470069723488,-6.704190739148744e-06,0.0881470069723488,-2.8050641230494244e-05,0.0881470069723488,3.228253515865339e-06,0.0881470069723488,-1.136431950723417e-05
0.0889411241522799,-4.857777456583927e-06,0.0889411241522799,-2.627347917756448e-05,0.0889411241522799,5.1245096526714105e-06,0.0889411241522799,-9.56741e-06
0.0897352413322109,-5.341506666075316e-06,0.0897352413322109,-2.512802779189821e-05,0.0897352413322109,2.833774980709832e-06,0.0897352413322109,-1.0850855685720296e-05
0.090529358512142,-4.758935791054998e-06,0.090529358512142,-2.726055020233468e-05,0.090529358512142,2.0240976835780004e-06,0.090529358512142,-1.2292630734312002e-05
0.0913234756920731,-6.88182e-06,0.0913234756920731,-2.4733312445513325e-05,0.0913234756920731,2.2611054355673013e-06,0.0913234756920731,-9.5970048548109e-06
0.0921175928720041,-7.029907644609889e-06,0.0921175928720041,-1.9006659464812904e-05,0.0921175928720041,1.2539894215604464e-06,0.0921175928720041,-1.003147057969213e-05
0.0929117100519352,-9.211908462025367e-06,0.0929117100519352,-1.76242e-05,0.0929117100519352,1.5698617376355127e-06,0.0929117100519352,-1.2628126081724297e-05
0.0937058272318663,-1.02388e-05,0.0937058272318663,-1.5580528002705976e-05,0.0937058272318663,9.775936866655292e-07,0.0937058272318663,-1.464257700276568e-05
0.0944999444117974,-8.89617035076813e-06,0.0944999444117974,-1.2253251592290603e-05,0.0944999444117974,-1.8460593854989832e-06,0.0944999444117974,-1.2253200439952863e-05
0.0952940615917284,-5.025699600214131e-06,0.0952940615917284,-1.2608366979947036e-05,0.0952940615917284,-3.761775491607407e-06,0.0952940615917284,-1.1157071562237308e-05
0.0960881787716595,-4.670088955201088e-06,0.0960881787716595,-1.454338983819757e-05,0.0960881787716595,-4.265309477600544e-06,0.0960881787716595,-1.0772041044798912e-05
0.0968822959515906,-6.9212645347990684e-06,0.0968822959515906,-1.62814e-05,0.0968822959515906,-4.19623e-06,0.0968822959515906,-1.0396578139196276e-05
0.0976764131315216,-6.6646597712058855e-06,0.0976764131315216,-1.73375773614053e-05,0.0976764131315216,-3.366947891247744e-06,0.0976764131315216,-1.3240180686382342e-05
0.0984705303114527,-6.54612e-06,0.0984705303114527,-2.113896545168672e-05,0.0984705303114527,-1.471333076381255e-06,0.0984705303114527,-1.4405567425549684e-05
0.0992646474913838,-6.092026263616923e-06,0.0992646474913838,-2.536465207462498e-05,0.0992646474913838,-1.5496046564083164e-06,0.0992646474913838,-1.3812604103121025e-05
0.1000587646713148,-4.91675309745474e-06,0.1000587646713148,-2.70237e-05,0.1000587646713148,-5.440782634433798e-06,0.1000587646713148,-1.624210105377352e-05
0.1008528818512459,-5.1243404970353815e-06,0.1008528818512459,-2.461532141172186e-05,0.1008528818512459,-4.314712715132749e-06,0.1008528818512459,-1.4622648145398244e-05
0.101646999031177,-6.5064117998179045e-06,0.101646999031177,-2.2047140319985483e-05,0.101646999031177,-5.440119912993438e-06,0.101646999031177,-1.49386e-05
0.1024411162111081,-5.480301535038786e-06,0.1024411162111081,-2.0585806830238546e-05,0.1024411162111081,-3.4269498082089677e-06,0.1024411162111081,-1.4306352309974144e-05
0.1032352333910391,-5.301806927286602e-06,0.1032352333910391,-1.825668276135016e-05,0.1032352333910391,-2.1029656424288677e-06,0.1032352333910391,-1.5451851284857735e-05
0.1040293505709702,-7.375537138786939e-06,0.1040293505709702,-1.637991007061767e-05,0.1040293505709702,-1.90533999153464e-06,0.1040293505709702,-1.446454858363918e-05
0.1048234677509013,-6.644187229114206e-06,0.1048234677509013,-1.6241676199956864e-05,0.1048234677509013,7.798377187938405e-07,0.1048234677509013,-1.663785181087003e-05
0.1056175849308323,-4.6497825078681886e-06,0.1056175849308323,-1.79005023556086e-05,0.1056175849308323,1.096372597594441e-06,0.1056175849308323,-1.8888431661421206e-05
0.1064117021107634,-5.9150909743267895e-06,0.1064117021107634,-2.0192216168593024e-05,0.1064117021107634,5.717495708556263e-06,0.1064117021107634,-1.5491018936917892e-05
0.1072058192906945,-9.18232264958478e-06,0.1072058192906945,-2.5421766518257026e-05,0.1072058192906945,7.651991758480102e-06,0.1072058192906945,-1.423745059833912e-05
0.1079999364706256,-8.224724414222029e-06,0.1079999364706256,-2.635238218424272e-05,0.1079999364706256,7.217611530014331e-06,0.1079999364706256,-1.2253205938783194e-05
0.1087940536505566,-6.220752501674082e-06,0.1087940536505566,-2.5147168725480505e-05,0.1087940536505566,7.237070356425394e-06,0.1087940536505566,-1.1906982223739837e-05
0.1095881708304877,-6.88182e-06,0.1095881708304877,-2.4457209290889476e-05,0.1095881708304877,6.389446075139526e-06,0.1095881708304877,-1.338875993498144e-05
0.1103822880104188,-5.085752676789697e-06,0.1103822880104188,-2.24819589946348e-05,0.1103822880104188,4.154472140541663e-06,0.1103822880104188,-1.3240497942044475e-05
0.1111764051903498,-4.19623e-06,0.1111764051903498,-2.048818207796639e-05,0.1111764051903498,6.930669666954745e-06,0.1111764051903498,-1.2401741554202528e-05
0.1119705223702809,-5.350568353750724e-06,0.1119705223702809,-2.3448039059068086e-05,0.1119705223702809,7.92788002916213e-06,0.1119705223702809,-8.6404886118403e-06
0.112764639550212,-7.444630108322706e-06,0.112764639550212,-3.1961161728573724e-05,0.112764639550212,8.086415395618975e-06,0.112764639550212,-7.642038843671295e-06
0.1135587567301431,-4.965968830155109e-06,0.1135587567301431,-3.871317872545414e-05,0.1135587567301431,4.965968830155109e-06,0.1135587567301431,-1.0831529053051266e-05
0.1143528739100741,-4.19623e-06,0.1143528739100741,-2.6179644885954392e-05,0.1143528739100741,6.388104392568135e-06,0.1143528739100741,-9.705660262992497e-06
0.1151469910900052,-5.341190420963705e-06,0.1151469910900052,-1.2310693841763713e-05,0.1151469910900052,8.205140565949748e-06,0.1151469910900052,-1.1185927895307625e-05
0.1159411082699363,-8.974291104919945e-06,0.1159411082699363,-7.982415675360117e-07,0.1159411082699363,5.894290421973373e-06,0.1159411082699363,-1.2846118312106508e-05
0.1167352254498673,-9.982180078282235e-06,0.1167352254498673,2.7940783112147955e-06,0.1167352254498673,6.98027976515329e-06,0.1167352254498673,-1.1068360156564472e-05
0.1175293426297984,-9.23171e-06,0.1175293426297984,9.861140412027405e-07,0.1175293426297984,5.578379034620062e-06,0.1175293426297984,-1.09102e-05
0.1183234598097295,-9.715924364180008e-06,0.1183234598097295,-5.062284063300488e-06,0.1183234598097295,3.5441744834390622e-06,0.1183234598097295,-9.665490111788212e-06
0.1191175769896605,-1.2036911389269576e-05,0.1191175769896605,-1.4146966867071852e-05,0.1191175769896605,1.6677996092123775e-06,0.1191175769896605,-8.263899902303095e-06
0.1199116941695916,-1.2272152336215908e-05,0.1199116941695916,-2.2720871654778327e-05,0.1199116941695916,7.011363555775943e-07,0.1199116941695916,-8.293665233621591e-06
0.1207058113495227,-7.325994128733074e-06,0.1207058113495227,-2.496890901760908e-05,0.1207058113495227,2.912812929087365e-06,0.1207058113495227,-8.22461e-06
0.1214999285294538,-8.559975339934255e-06,0.1214999285294538,-2.76948226281808e-05,0.1214999285294538,3.86053e-06,0.1214999285294538,-8.560258513600086e-06
0.1222940457093848,-9.093754324126873e-06,0.1222940457093848,-3.211953172994801e-05,0.1222940457093848,3.86053e-06,0.1222940457093848,-8.620098648253744e-06
0.1230881628893159,-7.139198181010578e-06,0.1230881628893159,-3.276961996895322e-05,0.1230881628893159,2.9131254540070523e-06,0.1230881628893159,-7.622223636498236e-06
0.123882280069247,-5.460656583887215e-06,0.123882280069247,-3.517915351294024e-05,0.123882280069247,4.649490124169178e-06,0.123882280069247,-8.974383416112786e-06
0.124676397249178,-4.315241774467463e-06,0.124676397249178,-3.784537329441953e-05,0.124676397249178,3.6056794380448993e-06,0.124676397249178,-9.843595885357488e-06
0.1254705144291091,-2.0044543908756664e-06,0.1254705144291091,-3.6484340569041466e-05,0.1254705144291091,6.616614488775081e-07,0.1254705144291091,-1.0632918364736792e-05
0.1262646316090402,-2.952208683552759e-06,0.1262646316090402,-3.007444614790288e-05,0.1262646316090402,1.2539171054824135e-06,0.1262646316090402,-1.302316868355276e-05
0.1270587487889713,-1.7080004243301123e-06,0.1270587487889713,-2.6323995129972507e-05,0.1270587487889713,1.194613616220075e-06,0.1270587487889713,-1.0672868081100376e-05
0.1278528659689023,-1.0762322444618644e-06,0.1278528659689023,-2.106271636691445e-05,0.1278528659689023,1.17494e-06,0.1278528659689023,-1.15816e-05
0.1286469831488334,3.056881364277163e-07,0.1286469831488334,-9.249506450407296e-06,0.1286469831488334,-4.747593482837927e-06,0.1286469831488334,-9.311177257020606e-06
0.1294411003287645,1.8854693779193492e-06,0.1294411003287645,9.155089012340792e-06,0.1294411003287645,-1.1601164688959674e-05,0.1294411003287645,-9.013397550955278e-06
0.1302352175086955,2.0045115979866656e-06,0.1302352175086955,7.970920270311537e-06,0.1302352175086955,-1.1275802718246069e-05,0.1302352175086955,-1.0140357396979998e-05
0.1310293346886266,-5.697528432306251e-06,0.1310293346886266,-1.6720814566777632e-05,0.1310293346886266,-7.63196912783512e-06,0.1310293346886266,-6.644811453952902e-06
0.1318234518685577,-1.1700394387445592e-05,0.1318234518685577,-3.4758548667058694e-05,0.1318234518685577,-5.02513841883161e-06,0.1318234518685577,-6.763025612554406e-06
0.1326175690484888,-1.1660191270633624e-05,0.1326175690484888,-2.848838676869521e-05,0.1326175690484888,-4.19623e-06,0.1326175690484888,-6.358622182341595e-06
0.1334116862284198,-1.0100683799743116e-05,0.1334116862284198,-1.1498427347945214e-05,0.1334116862284198,-2.991556200256884e-06,0.1334116862284198,-9.745806912733351e-06
0.1342058034083509,-9.231503678147936e-06,0.1342058034083509,-1.860624523985495e-05,0.1342058034083509,-2.9127899972033213e-06,0.1342058034083509,-1.177912646960605e-05
0.134999920588282,-5.539316033850982e-06,0.134999920588282,-2.064570546060682e-05,0.134999920588282,-3.86053e-06,0.134999920588282,-1.292428558577796e-05
0.135794037768213,-4.86763e-06,0.135794037768213,-1.950070045542852e-05,0.135794037768213,-5.633579294266323e-07,0.135794037768213,-1.612271052461433e-05
0.1365881549481441,-4.36408e-06,0.1365881549481441,-2.316109411277313e-05,0.1365881549481441,3.0286528289513394e-06,0.1365881549481441,-1.5591392300086164e-05
0.1373822721280752,-3.18914e-06,0.1373822721280752,-2.4960216948201867e-05,0.1373822721280752,5.639635316886428e-06,0.1373822721280752,-1.4384742925128056e-05
0.1381763893080062,-5.122450517147785e-06,0.1381763893080062,-1.2327596063933962e-05,0.1381763893080062,2.7557846590177096e-06,0.1381763893080062,-1.6655241960275826e-05
0.1389705064879373,-7.0399401115867605e-06,0.1389705064879373,-1.9853896878568963e-06,0.1389705064879373,2.51774e-06,0.1389705064879373,-1.797935977682648e-05
0.1397646236678684,-4.53193e-06,0.1397646236678684,-1.513680245045296e-05,0.1397646236678684,1.84634e-06,0.1397646236678684,-1.746625723045737e-05
0.1405587408477994,-6.744065141581843e-06,0.1405587408477994,-2.680463485280109e-05,0.1405587408477994,2.478381301532433e-06,0.1405587408477994,-1.647872195494231e-05
0.1413528580277305,-9.21191025747838e-06,0.1413528580277305,-2.511755933869104e-05,0.1413528580277305,3.7321337445002033e-06,0.1413528580277305,-1.5392799914173874e-05
0.1421469752076616,-8.718440718670915e-06,0.1421469752076616,-2.858431825071318e-05,0.1421469752076616,6.21042e-06,0.1421469752076616,-1.4465081916455774e-05
0.1429410923875927,-8.146374758848206e-06,0.1429410923875927,-3.20984012624142e-05,0.1429410923875927,5.8356026707401e-06,0.1429410923875927,-1.2885282088108107e-05
0.1437352095675237,-6.88182e-06,0.1437352095675237,-3.13878e-05,0.1437352095675237,5.20333e-06,0.1437352095675237,-1.2766216960591126e-05
0.1445293267474548,-7.80006528174425e-06,0.1445293267474548,-2.7594906672815372e-05,0.1445293267474548,3.52483e-06,0.1445293267474548,-1.3437800023346371e-05
0.1453234439273859,-6.486728526988307e-06,0.1453234439273859,-2.315425671981957e-05,0.1453234439273859,3.62296587713622e-06,0.1453234439273859,-1.3378882946023386e-05
0.146117561107317,-7.247815210843241e-06,0.146117561107317,-2.6214164231741203e-05,0.146117561107317,2.8141386316694973e-06,0.146117561107317,-1.3635101368330502e-05
0.146911678287248,-7.434303618636982e-06,0.146911678287248,-2.4436163573900065e-05,0.146911678287248,3.4653797520957733e-06,0.146911678287248,-1.29244e-05
0.1477057954671791,-5.775965440048687e-06,0.1477057954671791,-2.7039179720578958e-05,0.1477057954671791,2.7152550035786345e-06,0.1477057954671791,-1.533363000715727e-05
0.1484999126471102,-5.53903e-06,0.1484999126471102,-3.273009148499827e-05,0.1484999126471102,3.18914e-06,0.1484999126471102,-1.59457629278221e-05
0.1492940298270412,-7.000228185954572e-06,0.1492940298270412,-2.998472990823411e-05,0.1492940298270412,2.616623628090857e-06,0.1492940298270412,-1.2846301768545142e-05
0.1500881470069723,-6.467832579092799e-06,0.1500881470069723,-2.960205449138141e-05,0.1500881470069723,3.543414924157013e-06,0.1500881470069723,-1.3200391613938134e-05
0.1508822641869034,-5.480267136956538e-06,0.1508822641869034,-2.559228146443303e-05,0.1508822641869034,6.842644757971025e-06,0.1508822641869034,-1.351744951594205e-05
0.1516763813668344,-5.449754007016092e-06,0.1516763813668344,-1.9025315242453183e-05,0.1516763813668344,4.889032199003592e-06,0.1516763813668344,-1.29244e-05
0.1524704985467655,-5.894173045735906e-06,0.1524704985467655,-1.825484464912366e-05,0.1524704985467655,3.208583045735906e-06,0.1524704985467655,-1.5332645006212874e-05
0.1532646157266966,-6.7238886718796185e-06,0.1532646157266966,-2.15637027360994e-05,0.1532646157266966,4.759100175789333e-06,0.1532646157266966,-1.612346867187962e-05
0.1540587329066277,-5.578399578105879e-06,0.1540587329066277,-2.10306581120536e-05,0.1540587329066277,1.9644499070958465e-06,0.1540587329066277,-1.513593055531676e-05
0.1548528500865587,-6.407800941355417e-06,0.1548528500865587,-2.212546755171101e-05,0.1548528500865587,-1.4803247047958036e-07,0.1548528500865587,-1.4820094352812436e-05
0.1556469672664898,-6.427746212127672e-06,0.1556469672664898,-2.315316662288772e-05,0.1556469672664898,3.056422726937603e-07,0.1556469672664898,-1.720896893936164e-05
0.1564410844464209,-3.643797525130569e-06,0.1564410844464209,-2.0822761070543303e-05,0.1564410844464209,1.086951195758296e-06,0.1564410844464209,-1.8908340331203228e-05
0.157235201626352,-3.623240634941668e-06,0.157235201626352,-2.129633741001577e-05,0.157235201626352,-1.2338015434962448e-06,0.157235201626352,-1.7703297240415535e-05
0.158029318806283,-4.354224255942524e-06,0.158029318806283,-2.003260465095616e-05,0.158029318806283,-1.67849e-07,0.158029318806283,-1.4681745952459806e-05
0.1588234359862141,-4.86763e-06,0.1588234359862141,-1.7111777226368605e-05,0.1588234359862141,-7.79860601501907e-07,0.1588234359862141,-1.2371771504601218e-05
0.1596175531661451,-5.460415797311543e-06,0.1596175531661451,-2.0426957065621498e-05,0.1596175531661451,-7.99939132835702e-07,0.1596175531661451,-1.29244e-05
0.1604116703460762,-5.95340888423669e-06,0.1604116703460762,-2.805261437927704e-05,0.1604116703460762,-1.4905427173788404e-06,0.1604116703460762,-1.27862723337157e-05
0.1612057875260073,-5.262634133435266e-06,0.1612057875260073,-3.054331048229172e-05,0.1612057875260073,6.911189351700107e-07,0.1612057875260073,-1.329954469367313e-05
0.1619999047059384,-7.217314054400319e-06,0.1619999047059384,-1.4940942232556798e-05,0.1619999047059384,-1.5102624355211755e-06,0.1619999047059384,-1.158180594559968e-05
0.1627940218858694,-8.816636597238621e-06,0.1627940218858694,-1.2778017231816458e-05,0.1627940218858694,-3.3270542235567924e-06,0.1627940218858694,-1.0199768083313652e-05
0.1635881390658005,-8.206063740740692e-06,0.1635881390658005,-1.62814e-05,0.1635881390658005,-4.945900221866111e-06,0.1635881390658005,-1.0593050369776851e-05
0.1643822562457316,-5.499860490984732e-06,0.1643822562457316,-1.7860968735138367e-05,0.1643822562457316,-5.124990981969463e-06,0.1643822562457316,-1.2057152454923658e-05
0.1651763734256627,-4.650976098734046e-06,0.1651763734256627,-2.1811073266610144e-05,0.1651763734256627,-3.427230424365638e-06,0.1651763734256627,-9.193623473732662e-06
0.1659704906055937,-3.1308246075518434e-06,0.1659704906055937,-2.3863309220021725e-05,0.1659704906055937,-1.7880324917526537e-06,0.1659704906055937,-7.44499417202042e-06
0.1667646077855248,-1.3130042488355986e-06,0.1667646077855248,-2.6737458668196013e-05,0.1667646077855248,2.438780056650893e-06,0.1667646077855248,-9.6560572230199e-06
0.1675587249654559,-6.645531389985375e-06,0.1675587249654559,-2.841599015057684e-05,0.1675587249654559,1.8660308152611992e-06,0.1675587249654559,-1.15816e-05
0.1683528421453869,-6.66463138020129e-06,0.1683528421453869,-2.228603316061064e-05,0.1683528421453869,3.3864880094712816e-06,0.1683528421453869,-8.461632760402581e-06
0.169146959325318,-6.88182e-06,0.169146959325318,-2.023086155204097e-05,0.169146959325318,6.82166091286212e-06,0.169146959325318,-7.159304558286237e-06
0.1699410765052491,-5.6970968373311606e-06,0.1699410765052491,-2.3785881274032787e-05,0.1699410765052491,1.0525631857494064e-05,0.1699410765052491,-2.892534397546663e-06
0.1707351936851801,-7.591791023704218e-06,0.1707351936851801,-2.789144212123286e-05,0.1707351936851801,9.350364441689968e-06,0.1707351936851801,-5.064412233240133e-06
0.1715293108651112,-9.74511617101031e-06,0.1715293108651112,-3.164494641057657e-05,0.1715293108651112,1.0535054140925724e-05,0.1715293108651112,-7.691480899452551e-06
0.1723234280450423,-8.955390031589486e-06,0.1723234280450423,-3.317456992977558e-05,0.1723234280450423,9.190543158610516e-06,0.1723234280450423,-9.074148325926287e-06
0.1731175452249733,-9.23171e-06,0.1731175452249733,-3.22375470286293e-05,0.1731175452249733,3.207253167080413e-06,0.1731175452249733,-1.1236798100741516e-05
0.1739116624049044,-8.688809901052999e-06,0.1739116624049044,-3.010386896343107e-05,0.1739116624049044,2.1226067985960026e-06,0.1739116624049044,-1.1384033399298e-05
0.1747057795848355,-9.942564834210747e-06,0.1747057795848355,-3.152514512502476e-05,0.1747057795848355,-1.67849e-07,0.1747057795848355,-1.052514168960129e-05
0.1754998967647666,-7.553591844006206e-06,0.1754998967647666,-3.038103387348602e-05,0.1754998967647666,8.390228933747416e-07,0.1754998967647666,-1.0910088457210277e-05
0.1762940139446976,-7.40487735882261e-06,0.1762940139446976,-3.194152371131994e-05,0.1762940139446976,1.17494e-06,0.1762940139446976,-1.148270490588174e-05
0.1770881311246287,-6.88182e-06,0.1770881311246287,-2.526089841544192e-05,0.1770881311246287,-2.461019676515672e-07,0.1770881311246287,-1.4798503108796207e-05
0.1778822483045598,-8.40084699200702e-06,0.1778822483045598,6.563731850351446e-06,0.1778822483045598,-2.87302188800078e-06,0.1778822483045598,-1.750670867199532e-05
0.1786763654844909,-9.597174385039064e-06,0.1786763654844909,3.2117587015374675e-05,0.1786763654844909,-2.054690695273444e-06,0.1786763654844909,-1.6340928770078128e-05
0.1794704826644219,-8.540884547440124e-06,0.1794704826644219,2.093118356361394e-05,0.1794704826644219,-1.865765452559876e-06,0.1794704826644219,-1.5659904011382405e-05
0.180264599844353,-8.274028666042997e-06,0.180264599844353,-5.638231159880145e-06,0.180264599844353,-2.438785777361997e-06,0.180264599844353,-1.5491556906403044e-05
0.181058717024284,-7.256912509819155e-06,0.181058717024284,-3.706215479427989e-05,0.181058717024284,-1.2340296448247265e-06,0.181058717024284,-1.400043498530888e-05
0.1818528342042151,-5.163919252590258e-06,0.1818528342042151,-4.941933142009554e-05,0.1818528342042151,1.5301987016753218e-06,0.1818528342042151,-1.1660692244016363e-05
0.1826469513841462,-2.4789660689304137e-06,0.1826469513841462,-3.863369684916623e-05,0.1826469513841462,1.8269530344652067e-06,0.1826469513841462,-1.2371362321844931e-05
0.1834410685640773,-1.6083487845242046e-06,0.1834410685640773,-2.508662618607542e-05,0.1834410685640773,1.2335652707145228e-06,0.1834410685640773,-1.1464350040690612e-05
0.1842351857440083,-4.985271583664892e-06,0.1842351857440083,-1.5770023199054697e-05,0.1842351857440083,1.925448681837744e-06,0.1842351857440083,-1.008058499285361e-05
0.1850293029239394,-6.901554370959327e-06,0.1850293029239394,-1.57092492871597e-05,0.1850293029239394,2.9522149955710253e-06,0.1850293029239394,-1.1087917185479664e-05
0.1858234201038705,-6.151045689121603e-06,0.1858234201038705,-1.845239855945613e-05,0.1858234201038705,4.689507067364807e-06,0.1858234201038705,-1.1028948621756796e-05
0.1866175372838016,-5.578347396130419e-06,0.1866175372838016,-1.201887890225156e-05,0.1866175372838016,2.6750130982453025e-06,0.1866175372838016,-1.1877981432628371e-05
0.1874116544637326,-6.605541735376564e-06,0.1874116544637326,3.5485048207195893e-06,0.1874116544637326,2.843792169220705e-06,0.1874116544637326,-9.646123281977384e-06
0.1882057716436637,-7.21752e-06,0.1882057716436637,7.647350599139962e-06,0.1882057716436637,4.2554912109928245e-06,0.1882057716436637,-9.804362638577465e-06
0.1889998888235948,-6.881900089955414e-06,0.1889998888235948,-9.564389741932958e-06,0.1889998888235948,6.210179732519516e-06,0.1889998888235948,-1.09098796425641e-05
0.1897940060035258,-5.598930362420422e-06,0.1897940060035258,-2.2088543069818796e-05,0.1897940060035258,6.447219172868031e-06,0.1897940060035258,-1.3753161835575369e-05
0.1905881231834569,-5.2908082334276906e-06,0.1905881231834569,-2.108308837719089e-05,0.1905881231834569,8.992734753247546e-06,0.1905881231834569,-1.3319842784144116e-05
0.191382240363388,-8.06797899450794e-06,0.191382240363388,-1.8670550732033785e-05,0.191382240363388,1.1464125871036385e-05,0.191382240363388,-1.3100605361148282e-05
0.192176357543319,-4.948669662081454e-06,0.192176357543319,-3.116455205599944e-05,0.192176357543319,1.0022168981578494e-05,0.192176357543319,-1.5953951433442757e-05
0.1929704747232501,-6.743091016706502e-06,0.1929704747232501,-4.339123974502626e-05,0.1929704747232501,7.4949732557441476e-06,0.1929704747232501,-1.4899771977724664e-05
0.1937645919031812,-7.138571498073101e-06,0.1937645919031812,-4.534886925627531e-05,0.1937645919031812,4.295084494219304e-06,0.1937645919031812,-1.2667648501926898e-05
0.1945587090831123,-4.985843100830258e-06,0.1945587090831123,-3.3194265295320266e-05,0.1945587090831123,2.418847397608717e-06,0.1945587090831123,-1.3872393156134153e-05
0.1953528262630433,-3.584091423114344e-06,0.1953528262630433,-4.45954006490359e-06,0.1953528262630433,-1.2811386549307513e-07,0.1953528262630433,-1.3161445692457372e-05
0.1961469434429744,-3.959516822337569e-06,0.1961469434429744,2.477927416150898e-06,0.1961469434429744,-2.8728062408282064e-06,0.1961469434429744,-1.1482613177662431e-05
0.1969410606229055,-1.403192566937427e-06,0.1969410606229055,-1.2966917657984558e-05,0.1969410606229055,-4.19623e-06,0.1969410606229055,-1.2885327952217736e-05
0.1977351778028366,-4.917810318660446e-08,0.1977351778028366,-3.2823584700703565e-05,0.1977351778028366,-4.452815597451168e-06,0.1977351778028366,-1.2509585597451168e-05
0.1985292949827676,-1.7871057393147873e-06,0.1985292949827676,-4.825327734471808e-05,0.1985292949827676,-3.840784187618446e-06,0.1985292949827676,-1.4662119205018469e-05
0.1993234121626987,-4.433704360669189e-06,0.1993234121626987,-5.137292451117509e-05,0.1993234121626987,-7.000557180334594e-06,0.1993234121626987,-1.429687545257692e-05
0.2001175293426297,-7.317275369099969e-06,0.2001175293426297,-3.614138451660055e-05,0.2001175293426297,-6.664092901156008e-06,0.2001175293426297,-1.4879607692362064e-05
0.2009116465225608,-8.68879270201186e-06,0.2009116465225608,-2.047474522721076e-05,0.2009116465225608,-3.4750877788358715e-06,0.2009116465225608,-1.5333710269349148e-05
0.2017057637024919,-9.073737151327485e-06,0.2017057637024919,-2.252471237521302e-05,0.2017057637024919,-3.0509061983141147e-06,0.2017057637024919,-1.5412530860530994e-05
0.202499880882423,-6.8820774294434445e-06,0.202499880882423,-3.272913609317624e-05,0.202499880882423,-3.52483e-06,0.202499880882423,-1.5106357107447589e-05
0.203293998062354,-9.843176705695522e-06,0.203293998062354,-3.145414881224718e-05,0.203293998062354,4.82599971536721e-07,0.203293998062354,-1.456391968043703e-05
0.2040881152422851,-9.705378764909042e-06,0.2040881152422851,-1.8499500030745512e-05,0.2040881152422851,1.5703942501714936e-06,0.2040881152422851,-1.3832606987483178e-05
0.2048822324222162,-9.410800760103428e-06,0.2048822324222162,-9.330760422389972e-06,0.2048822324222162,2.769698849253803e-07,0.2048822324222162,-1.4197186606378609e-05
0.2056763496021472,-7.396138860887316e-06,0.2056763496021472,-1.1997455918555324e-05,0.2056763496021472,3.844681090834369e-07,0.2056763496021472,-1.549091957699933e-05
0.2064704667820783,-5.500220149555782e-06,0.2064704667820783,-1.51064e-05,0.2064704667820783,3.2599724404093444e-07,0.2064704667820783,-1.561e-05
0.2072645839620094,-5.02551556243159e-06,0.2072645839620094,-1.4760884762736626e-05,0.2072645839620094,-6.813611430445606e-07,0.2072645839620094,-1.545211443756841e-05
0.2080587011419405,-6.171004558467606e-06,0.2080587011419405,-1.3339630253017964e-05,0.2080587011419405,4.641321475170537e-07,0.2080587011419405,-1.4306616028604613e-05
0.2088528183218715,-5.983305710378795e-06,0.2088528183218715,-1.759173380611593e-05,0.2088528183218715,-1.0365288607402649e-06,0.2088528183218715,-1.3161457158484816e-05
0.2096469355018026,-8.22461e-06,0.2096469355018026,-2.3242457828301493e-05,0.2096469355018026,5.422522568609564e-07,0.2096469355018026,-1.0663854377165388e-05
0.2104410526817337,-8.185550000023215e-06,0.2104410526817337,-2.425896708504018e-05,0.2104410526817337,2.824144563683836e-06,0.2104410526817337,-1.02388e-05
0.2112351698616647,-6.013748382689817e-06,0.2112351698616647,-2.200896817268009e-05,0.2112351698616647,2.478179938370022e-06,0.2112351698616647,-9.982220123259955e-06
0.2120292870415958,-4.986082159760136e-06,0.2120292870415958,-2.1119715490279192e-05,0.2120292870415958,3.0114113730981285e-06,0.2120292870415958,-1.0870685492392514e-05
0.2128234042215269,-6.980068522175227e-06,0.2128234042215269,-2.6427239648224503e-05,0.2128234042215269,3.6824431599623536e-06,0.2128234042215269,-1.073211139163142e-05
0.2136175214014579,-4.541063978712937e-06,0.2136175214014579,-2.72031831871349e-05,0.2136175214014579,1.3715901669952233e-06,0.2136175214014579,-1.0199469966600956e-05
0.214411638581389,-3.998680598339115e-06,0.214411638581389,-2.054545491828596e-05,0.214411638581389,4.3150276066435415e-06,0.214411638581389,-1.1167148204982656e-05
0.2152057557613201,-3.742044418360388e-06,0.2152057557613201,-1.8651667402407843e-05,0.2152057557613201,7.405719331208655e-07,0.2152057557613201,-1.3556286510162326e-05
0.2159998729412512,-4.867355405867132e-06,0.2159998729412512,-1.6953128736970884e-05,0.2159998729412512,-2.8530738744895094e-06,0.2159998729412512,-1.4602808468622378e-05
0.2167939901211822,-4.038873026057828e-06,0.2167939901211822,-1.95206466635924e-05,0.2167939901211822,-3.52483e-06,0.2167939901211822,-1.5747875413681242e-05
0.2175881073011133,-4.886061599668192e-06,0.2175881073011133,-2.2559956200535745e-05,0.2175881073011133,-3.465070173966617e-06,0.2175881073011133,-1.50581314323979e-05
0.2183822244810444,-7.849764589157418e-06,0.2183822244810444,-2.307442336250516e-05,0.2183822244810444,-4.117936846079091e-06,0.2183822244810444,-1.4642046576960457e-05
0.2191763416609755,-6.310526694951458e-06,0.2191763416609755,-2.161299923925101e-05,0.2191763416609755,-3.248684158427336e-06,0.2191763416609755,-1.4524327767237647e-05
0.2199704588409065,-6.21042e-06,0.2199704588409065,-2.109991824105524e-05,0.2199704588409065,-1.8269488717067475e-06,0.2199704588409065,-1.42672e-05
0.2207645760208376,-4.166737348738234e-06,0.2207645760208376,-1.9816099827717857e-05,0.2207645760208376,-1.51064e-06,0.2207645760208376,-1.3437925878990586e-05
0.2215586932007686,-3.52483e-06,0.2215586932007686,-2.135568600479643e-05,0.2215586932007686,-5.626887721537068e-07,0.2215586932007686,-1.29244e-05
0.2223528103806997,-2.083408624512208e-06,0.2223528103806997,-2.5105452846267227e-05,0.2223528103806997,8.39246e-07,0.2223528103806997,-1.0041543718064862e-05
0.2231469275606308,-3.3268169658913905e-06,0.2231469275606308,-3.255331508970447e-05,0.2231469275606308,1.4116302456076374e-06,0.2231469275606308,-1.004078696589139e-05
0.2239410447405619,-3.663393744811751e-06,0.2239410447405619,-3.4369806458115175e-05,0.2239410447405619,2.498215442136284e-06,0.2239410447405619,-1.2331098231454862e-05
0.2247351619204929,-3.958854825127212e-06,0.2247351619204929,-3.894866106730807e-05,0.2247351619204929,2.43861415602896e-06,0.2247351619204929,-1.385237415602896e-05
0.225529279100424,-2.3795430428389263e-06,0.225529279100424,-4.309740758367217e-05,0.225529279100424,7.454371818310151e-06,0.225529279100424,-1.3299637390451902e-05
0.2263233962803551,-5.1848550998749376e-06,0.2263233962803551,-3.942705951822755e-05,0.2263233962803551,1.069321429749018e-05,0.2263233962803551,-1.063385714874509e-05
0.2271175134602862,-9.410066934348997e-06,0.2271175134602862,-4.038153959334224e-05,0.2271175134602862,1.18386284671745e-05,0.2271175134602862,-1.2095656934348996e-05
0.2279116306402172,-9.824335121411572e-06,0.2279116306402172,-4.117220590892041e-05,0.2279116306402172,1.0850812662705688e-05,0.2279116306402172,-1.2529312662705686e-05
0.2287057478201483,-1.0989264318570816e-05,0.2287057478201483,-3.115934861841531e-05,0.2287057478201483,9.11332105196998e-06,0.2287057478201483,-1.061403068887874e-05
0.2294998650000794,-6.882598013812818e-06,0.2294998650000794,-1.2592280125062077e-05,0.2294998650000794,3.861502517990272e-06,0.2294998650000794,-9.064103127324822e-06
0.2302939821800104,-5.065466052346188e-06,0.2302939821800104,2.6799136541719055e-07,0.2302939821800104,2.6166580261730936e-06,0.2302939821800104,-7.751053105726403e-06
0.2310880993599415,-3.980088474116342e-06,0.2310880993599415,1.9047466770657263e-06,0.2310880993599415,3.869733522217071e-06,0.2310880993599415,-8.026871408886829e-06
0.2318822165398726,-1.5302104219733732e-06,0.2318822165398726,2.458599181367095e-06,0.2318822165398726,2.126333192858469e-06,0.2318822165398726,-1.035622253184024e-05
0.2326763337198036,-2.645009214771101e-06,0.2326763337198036,2.6976425949182302e-06,0.2326763337198036,-1.3915377585276214e-06,0.2326763337198036,-1.2074345041232372e-05
0.2334704508997347,-3.386054241660678e-06,0.2334704508997347,1.6332570387982718e-05,0.2334704508997347,4.8448986260924656e-08,0.2334704508997347,-1.3358536208382884e-05
0.2342645680796658,-6.427237027308904e-06,0.2342645680796658,2.42002141584054e-05,0.2342645680796658,8.891813045566195e-08,0.2342645680796658,-1.0930174640825573e-05
0.2350586852595969,-1.0120483705435436e-05,0.2350586852595969,5.215633929994952e-06,0.2350586852595969,2.3599848035173693e-06,0.2350586852595969,-1.0851041559010832e-05
0.2358528024395279,-8.264456740488544e-06,0.2358528024395279,-2.286506897655e-05,0.2358528024395279,6.980439909460374e-06,0.2358528024395279,-1.2470159954730189e-05
0.236646919619459,-6.88182e-06,0.236646919619459,-4.906240177869625e-05,0.236646919619459,5.20333e-06,0.236646919619459,-1.0673521220419804e-05
0.2374410367993901,-6.764707632336389e-06,0.2374410367993901,-5.905264594136491e-05,0.2374410367993901,7.047729429788675e-06,0.2374410367993901,-1.0594018824850028e-05
0.2382351539793211,-4.611061564682144e-06,0.2382351539793211,-4.6342475247875766e-05,0.2382351539793211,1.0376673445505384e-05,0.2382351539793211,-1.0397063129364287e-05
0.2390292711592522,-3.52483e-06,0.2390292711592522,-2.0562595603848943e-05,0.2390292711592522,6.802980025696081e-06,0.2390292711592522,-1.0327696507213622e-05
0.2398233883391833,-3.30784108807786e-06,0.2398233883391833,1.5608404431125037e-05,0.2398233883391833,5.016006802094852e-06,0.2398233883391833,-9.053655715898044e-06
0.2406175055191144,-5.045964002294234e-06,0.2406175055191144,3.024480337225308e-05,0.2406175055191144,6.744124752007454e-06,0.2406175055191144,-7.780081077215342e-06
0.2414116226990454,-4.53193e-06,0.2414116226990454,1.404604096240354e-05,0.2414116226990454,4.965822399291466e-06,0.2414116226990454,-8.14582792254125e-06
0.2422057398789765,-6.170872112080135e-06,0.2422057398789765,-8.050627276236876e-06,0.2422057398789765,1.7574334267334456e-06,0.2422057398789765,-1.049540422416027e-05
0.2429998570589076,-5.539441888131917e-06,0.2429998570589076,-3.306186207843449e-05,0.2429998570589076,3.860066625468168e-06,0.2429998570589076,-1.258849405440034e-05
0.2437939742388386,-3.998382481626408e-06,0.2437939742388386,-4.153887247750501e-05,0.2437939742388386,3.959453759186797e-06,0.2437939742388386,-9.726325849143418e-06
0.2445880914187697,-8.776432703492512e-06,0.2445880914187697,-4.446054204212114e-05,0.2445880914187697,2.103872972380616e-06,0.2445880914187697,-7.948702757746621e-06
0.2453822085987008,-7.911531444088348e-06,0.2453822085987008,-4.197283199918604e-05,0.2453822085987008,1.9863653779558752e-06,0.2453822085987008,-1.003703016542011e-05
0.2461763257786318,-5.262887373633647e-06,0.2461763257786318,-3.469404468877642e-05,0.2461763257786318,-8.771552607816741e-07,0.2461763257786318,-1.5528798384564475e-05
0.2469704429585629,-6.21042e-06,0.2469704429585629,-2.8704310053450096e-05,0.2469704429585629,9.167186356248996e-07,0.2469704429585629,-1.6775265877275563e-05
0.247764560138494,-6.88182e-06,0.247764560138494,-2.4989861982746354e-05,0.247764560138494,3.54482987474594e-06,0.247764560138494,-1.5037523142752505e-05
0.2485586773184251,-6.88182e-06,0.2485586773184251,-2.3212676049938972e-05,0.2485586773184251,9.378717141664244e-07,0.2485586773184251,-1.3951225213343431e-05
0.2493527944983561,-8.658918443432958e-06,0.2493527944983561,-2.516705843197749e-05,0.2493527944983561,7.406367315261536e-07,0.2493527944983561,-1.35958e-05
0.2501469116782872,-6.645152686447222e-06,0.2501469116782872,-2.208674621493944e-05,0.2501469116782872,-1.5698068283881943e-06,0.2501469116782872,-1.3950800970329166e-05
0.2509410288582183,-7.315084877915624e-06,0.2509410288582183,-1.4118481005694657e-05,0.2509410288582183,-2.941248331997486e-06,0.2509410288582183,-1.7069878551017674e-05
0.2517351460381494,-9.665690501201456e-06,0.2517351460381494,-1.3545306300280846e-05,0.2517351460381494,-5.775167287718376e-06,0.2517351460381494,-1.81973118561797e-05
0.2525292632180804,-9.745150494254444e-06,0.2525292632180804,-1.938236155629137e-05,0.2525292632180804,-5.934099439430308e-06,0.2525292632180804,-1.4958391578070346e-05
0.2533233803980115,-7.92788323120531e-06,0.2533233803980115,-2.5835169340234763e-05,0.2533233803980115,-2.616057170708488e-06,0.2533233803980115,-1.3358417170708488e-05
0.2541174975779426,-6.24976723244015e-06,0.2541174975779426,-3.400204158810024e-05,0.2541174975779426,-6.215887596443715e-07,0.2541174975779426,-1.077123616220075e-05
0.2549116147578736,-6.88182e-06,0.2549116147578736,-4.152917067954417e-05,0.2549116147578736,7.604403120897618e-07,0.2549116147578736,-9.804339782878464e-06
0.2557057319378047,-4.512351476714092e-06,0.2557057319378047,-4.7043210671006624e-05,0.2557057319378047,1.17494e-06,0.2557057319378047,-9.764830334887558e-06
0.2564998491177358,-3.860203922705074e-06,0.2564998491177358,-5.454943849938848e-05,0.2564998491177358,2.517305225956342e-06,0.2564998491177358,-1.25879391454236e-05
0.2572939662976669,-8.825441755457512e-06,0.2572939662976669,-5.616834460400131e-05,0.2572939662976669,4.235141523398469e-06,0.2572939662976669,-1.446505898440102e-05
0.2580880834775979,-1.016065428074384e-05,0.2580880834775979,-4.257300003957797e-05,0.2580880834775979,5.134355028570291e-06,0.2580880834775979,-1.2984200114281162e-05
0.258882200657529,-8.59943937791935e-06,0.258882200657529,-3.0440847955708115e-05,0.258882200657529,4.750241866241952e-06,0.258882200657529,-1.2549570622080652e-05
0.2596763178374601,-9.448283811310506e-06,0.2596763178374601,-2.5501220207945573e-05,0.2596763178374601,1.0991757497158682e-06,0.2596763178374601,-1.1700726188689492e-05
0.2604704350173911,-8.502244876225143e-06,0.2604704350173911,-1.0998607139245565e-05,0.2604704350173911,-1.84634e-06,0.2604704350173911,-1.3456985206039974e-05
0.2612645521973222,-7.11857734420857e-06,0.2612645521973222,2.794022233691757e-06,0.2612645521973222,-7.603265718097405e-07,0.2612645521973222,-1.5254279593485456e-05
0.2620586693772533,-8.836817160928641e-06,0.2620586693772533,1.0802328992756028e-06,0.2620586693772533,-1.4514476311329044e-06,0.2620586693772533,-1.5017523785428478e-05
0.2628527865571843,-7.138874025014259e-06,0.2628527865571843,-7.354462130279737e-06,0.2628527865571843,-2.093420289540303e-06,0.2628527865571843,-1.2727206045188917e-05
0.2636469037371154,-4.74930207623734e-06,0.2636469037371154,-8.639284403565219e-06,0.2636469037371154,-2.270126094001751e-07,0.2636469037371154,-9.765491829760907e-06
0.2644410209170465,-4.244998397056576e-06,0.2644410209170465,-9.538135793996184e-06,0.2644410209170465,-9.973460881506887e-07,0.2644410209170465,-9.60642413655027e-06
0.2652351380969776,-5.420315490843479e-06,0.2652351380969776,-1.5360426897887302e-05,0.2652351380969776,-1.095798408426593e-06,0.2652351380969776,-1.0751913987791304e-05
0.2660292552769086,-5.381081509746297e-06,0.2660292552769086,-1.892720004094545e-05,0.2660292552769086,-4.432915492439313e-06,0.2660292552769086,-1.0278410744034046e-05
0.2668233724568397,-3.2484782189625126e-06,0.2668233724568397,-1.55527972378313e-05,0.2668233724568397,-8.915510033470497e-06,0.2668233724568397,-1.02388e-05
0.2676174896367708,-4.710218138184505e-06,0.2676174896367708,-1.9400316316978125e-05,0.2676174896367708,-5.557504344553113e-06,0.2676174896367708,-1.02388e-05
0.2684116068167018,-3.939350591181846e-06,0.2684116068167018,-2.224527008243843e-05,0.2684116068167018,-3.6435399944066423e-06,0.2684116068167018,-1.1305252939212104e-05
0.2692057239966329,-2.991728190668037e-06,0.2692057239966329,-1.877415946170417e-05,0.2692057239966329,-4.472806381336075e-06,0.2692057239966329,-1.3338979463169968e-05
0.269999841176564,-2.1821544142220383e-06,0.269999841176564,-1.359662184242728e-05,0.269999841176564,-2.8536688250358483e-06,0.269999841176564,-1.39315e-05
0.270793958356495,-6.574443983239826e-06,0.270793958356495,-1.821773907992004e-05,0.270793958356495,1.078088674224756e-07,0.270793958356495,-1.3320140900856794e-05
0.2715880755364261,-6.003503685231403e-06,0.2715880755364261,-2.099092384395435e-05,0.2715880755364261,2.2766081305393413e-07,0.2715880755364261,-1.110795579015427e-05
0.2723821927163572,-6.21042e-06,0.2723821927163572,-2.223469809674435e-05,0.2723821927163572,-6.436287078197038e-07,0.2723821927163572,-1.1738094579622485e-05
0.2731763098962882,-7.038813554832486e-06,0.2731763098962882,-2.812026575711733e-05,0.2731763098962882,2.219896989400257e-06,0.2731763098962882,-1.264826881505584e-05
0.2739704270762193,-8.047087318697799e-06,0.2739704270762193,-2.9828038787115948e-05,0.2739704270762193,2.714608043906603e-06,0.2739704270762193,-1.0989312218675483e-05
0.2747645442561504,-6.329423107112937e-06,0.2747645442561504,-3.3401516407369775e-05,0.2747645442561504,6.1903767106412425e-06,0.2747645442561504,-1.2075128355320622e-05
0.2755586614360815,-1.6882695264115244e-06,0.2755586614360815,-4.2125838749179615e-05,0.2755586614360815,7.21752e-06,0.2755586614360815,-1.100888339685424e-05
0.2763527786160125,-1.727782755689042e-06,0.2763527786160125,-4.322344834646071e-05,0.2763527786160125,9.636063785408108e-06,0.2763527786160125,-1.011029276265194e-05
0.2771468957959436,-2.260467667621542e-06,0.2771468957959436,-1.985508979784005e-05,0.2771468957959436,1.2825344381498025e-05,0.2771468957959436,-1.1463277809250988e-05
0.2779410129758747,-3.4858273293064087e-06,0.2779410129758747,-3.801106357933057e-06,0.2779410129758747,1.3221096748382197e-05,0.2779410129758747,-1.1659606503235609e-05
0.2787351301558057,-2.3403374536309422e-06,0.2787351301558057,-5.616190270591188e-06,0.2787351301558057,1.2973488698386686e-05,0.2787351301558057,-1.3950605092738116e-05
0.2795292473357368,-2.458291912377268e-06,0.2795292473357368,-6.704027715009041e-06,0.2795292473357368,1.1641043382744284e-05,0.2795292473357368,-1.408944276954262e-05
0.2803233645156679,-7.297158093825864e-06,0.2803233645156679,-8.893492391514385e-06,0.2803233645156679,9.23171e-06,0.2803233645156679,-1.470126293639729e-05
0.2811174816955989,-9.083539349233783e-06,0.2811174816955989,-1.7543181643499258e-05,0.2811174816955989,9.23171e-06,0.2811174816955989,-1.3003117396935134e-05
0.2819115988755301,-7.276861473184726e-06,0.2819115988755301,-2.3470065058317617e-05,0.2819115988755301,6.427437053630548e-06,0.2819115988755301,-1.408957242224698e-05
0.2827057160554611,-9.23171e-06,0.2827057160554611,-3.301975294062511e-05,0.2827057160554611,2.695639141738735e-06,0.2827057160554611,-1.3872399313390988e-05
0.2834998332353922,-7.88939053973249e-06,0.2834998332353922,-3.910814493227005e-05,0.2834998332353922,8.394862677190609e-07,0.2834998332353922,-1.2588820134933125e-05
0.2842939504153233,-6.88182e-06,0.2842939504153233,-2.844236509629168e-05,0.2842939504153233,-7.597473096999924e-07,0.2842939504153233,-1.1779481916455774e-05
0.2850880675952543,-7.652100761583998e-06,0.2850880675952543,-1.549580187541397e-05,0.2850880675952543,-1.1657966842063736e-06,0.2850880675952543,-1.3575005213814724e-05
0.2858821847751854,-5.640013693912628e-06,0.2858821847751854,-1.248939890604596e-05,0.2858821847751854,2.18204e-06,0.2858821847751854,-1.42672e-05
0.2866763019551165,-4.136655464233078e-06,0.2866763019551165,-2.1180441017542144e-05,0.2866763019551165,2.491707982686804e-07,0.2866763019551165,-1.5371701856932313e-05
0.2874704191350475,-6.37827e-06,0.2874704191350475,-3.170875509884268e-05,0.2874704191350475,-4.925626475582545e-06,0.2874704191350475,-1.3952566195978971e-05
0.2882645363149786,-8.026668391130421e-06,0.2882645363149786,-3.618646962667964e-05,0.2882645363149786,-5.381213086101627e-06,0.2882645363149786,-1.2331908456949186e-05
0.2890586534949096,-9.883358175712309e-06,0.2890586534949096,-3.318687571936663e-05,0.2890586534949096,-2.0240211233643026e-06,0.2890586534949096,-1.4484445525692545e-05
0.2898527706748408,-8.244598931973898e-06,0.2898527706748408,-2.1423862624157734e-05,0.2898527706748408,4.926223245029832e-06,0.2898527706748408,-1.4287188931973896e-05
0.2906468878547718,-7.612378228867642e-06,0.2906468878547718,1.9909008152474483e-08,0.2906468878547718,6.723594686602925e-06,0.2906468878547718,-1.2134683542264715e-05
0.2914410050347029,-8.107635223982394e-06,0.2914410050347029,1.96487182342252e-05,0.2914410050347029,6.468137009572741e-06,0.2914410050347029,-1.1601095892795172e-05
0.292235122214634,-5.697336537160721e-06,0.292235122214634,1.378928774827151e-05,0.292235122214634,4.69023889505311e-06,0.292235122214634,-1.2173845552473443e-05
0.293029239394565,-7.335800539449534e-06,0.293029239394565,-1.4387769944030773e-05,0.293029239394565,2.735149460550466e-06,0.293029239394565,-1.1779188853505456e-05
0.2938233565744961,-9.84377322211888e-06,0.2938233565744961,-3.219079739477585e-05,0.2938233565744961,2.557538140855086e-06,0.2938233565744961,-9.962428545189588e-06
0.2946174737544272,-7.789405416280099e-06,0.2946174737544272,-3.3185382933632254e-05,0.2946174737544272,4.710172274074979e-06,0.2946174737544272,-1.142414227407498e-05
0.2954115909343582,-7.671874130638531e-06,0.2954115909343582,-3.397505391776564e-05,0.2954115909343582,3.1493308586255656e-06,0.2954115909343582,-1.165067191659072e-05
0.2962057081142893,-8.659004438638525e-06,0.2962057081142893,-3.650501616235957e-05,0.2962057081142893,-3.208598130510224e-06,0.2962057081142893,-1.4049655509108196e-05
0.2969998252942204,-8.224861711288413e-06,0.2969998252942204,-2.769758607334181e-05,0.2969998252942204,-4.196481711288413e-06,0.2969998252942204,-1.6952422433067384e-05
0.2977939424741515,-4.118510147449694e-06,0.2977939424741515,-2.5621969796354364e-05,0.2977939424741515,-2.44001719997602e-06,0.2977939424741515,-1.3242466912416157e-05
0.2985880596540825,-5.4193568664633314e-06,0.2985880596540825,-2.348715783676637e-05,0.2985880596540825,4.8180509987237386e-08,0.2985880596540825,-1.1857465487636548e-05
0.2993821768340136,-5.226133734067252e-06,0.2993821768340136,-6.717180562417515e-06,0.2993821768340136,1.51064e-06,0.2993821768340136,-1.2096551284487025e-05
0.3001762940139447,-1.7489610259121544e-06,0.3001762940139447,1.19173e-05,0.3001762940139447,6.822873495888616e-07,0.3001762940139447,-1.09102e-05
0.3009704111938757,-1.016754067203696e-06,0.3009704111938757,3.8901488311572864e-06,0.3009704111938757,1.0360774894049483e-06,0.3009704111938757,-1.1176440420850718e-05
0.3017645283738068,-2.734356803272217e-06,0.3017645283738068,-1.7702241328032798e-05,0.3017645283738068,2.2903495768332523e-06,0.3017645283738068,-1.2253e-05
0.3025586455537379,-6.901559497780694e-06,0.3025586455537379,-2.5284891633767823e-05,0.3025586455537379,5.084841715878088e-06,0.3025586455537379,-1.2253e-05
0.3033527627336689,-5.894732599030782e-06,0.3033527627336689,-2.7898464993227584e-05,0.3033527627336689,7.21752e-06,0.3033527627336689,-1.0772341536601395e-05
0.3041468799136,-5.401480625412997e-06,0.3041468799136,-3.752910373778492e-05,0.3041468799136,6.782741449443109e-06,0.3041468799136,-7.633059900691442e-06
0.3049409970935311,-3.2476098987617983e-06,0.3049409970935311,-4.619849950034136e-05,0.3049409970935311,5.183839840218515e-06,0.3049409970935311,-4.86763e-06
0.3057351142734621,-5.735461348636911e-06,0.3057351142734621,-4.86867007999928e-05,0.3057351142734621,4.86763e-06,0.3057351142734621,-5.124169831762352e-06
0.3065292314533932,-5.578699392056065e-06,0.3065292314533932,-4.122115957769176e-05,0.3065292314533932,2.5970840795745027e-06,0.3065292314533932,-6.338595312481562e-06
0.3073233486333243,-4.19623e-06,0.3073233486333243,-3.3543908395223694e-05,0.3073233486333243,-8.783279981731535e-07,0.3073233486333243,-8.856922355254458e-06
0.3081174658132554,-4.788889671010033e-06,0.3081174658132554,-3.061890695938604e-05,0.3081174658132554,2.874179622262698e-06,0.3081174658132554,-1.1424119342020064e-05
0.3089115829931864,-3.1099348953982462e-06,0.3089115829931864,-2.777379741184825e-05,0.3089115829931864,2.675480260115793e-06,0.3089115829931864,-1.2648018541129811e-05
0.3097057001731175,-1.2339990586263029e-06,0.3097057001731175,-3.047701240232929e-05,0.3097057001731175,-2.30014670521034e-06,0.3097057001731175,-1.4849607065118844e-05
0.3104998173530486,-3.188745270934009e-06,0.3104998173530486,-3.205908186015109e-05,0.3104998173530486,-3.189534725146528e-06,0.3104998173530486,-1.6952207886803705e-05
0.3112939345329796,-4.6470361988602587e-07,0.3112939345329796,-3.0220965966203468e-05,0.3112939345329796,-1.7085448485106883e-06,0.3112939345329796,-1.5532314545532066e-05
0.3120880517129107,-2.683015483200332e-06,0.3120880517129107,-1.2866875147746228e-05,0.3120880517129107,-1.1059806032366745e-06,0.3120880517129107,-1.316118404859725e-05
0.3128821688928418,-7.077351064400151e-06,0.3128821688928418,9.667900223142334e-07,0.3128821688928418,-5.426542128800303e-07,0.3128821688928418,-1.42672e-05
0.3136762860727728,-8.836424022810837e-06,0.3136762860727728,-3.527241011485197e-06,0.3136762860727728,-1.529526122013281e-06,0.3136762860727728,-1.42672e-05
0.314470403252704,-8.382804480831073e-06,0.314470403252704,-1.8802499280126154e-05,0.314470403252704,-1.016748346594859e-06,0.314470403252704,-1.42672e-05
0.315264520432635,-9.626192727411066e-06,0.315264520432635,-1.6747104015557114e-05,0.315264520432635,-3.326819742938053e-06,0.315264520432635,-1.4424994031053976e-05
0.3160586376125661,-1.09102e-05,0.3160586376125661,2.734359795140664e-06,0.3160586376125661,-4.2357377568239065e-06,0.3160586376125661,-1.5254546121588048e-05
0.3168527547924971,-1.09102e-05,0.3168527547924971,1.0201420545233665e-05,0.3168527547924971,-1.7477888867041264e-06,0.3168527547924971,-1.3566497773408252e-05
0.3176468719724282,-9.56741e-06,0.3176468719724282,2.754831933094434e-06,0.3176468719724282,-3.852433607049773e-07,0.3176468719724282,-1.3061919966831466e-05
0.3184409891523593,-9.805678446572908e-06,0.3184409891523593,-1.4564522430046775e-05,0.3184409891523593,-8.489884455486487e-07,0.3184409891523593,-1.4899631146464413e-05
0.3192351063322903,-6.4288788644081945e-06,0.3192351063322903,-2.9685009060205963e-05,0.3192351063322903,-1.1353594137588263e-06,0.3192351063322903,-1.42672e-05
0.3200292235122214,-4.127191588886008e-06,0.3200292235122214,-3.2888272195515626e-05,0.3200292235122214,-3.4562286302739374e-07,0.3200292235122214,-1.4829837540359394e-05
0.3208233406921525,-3.0111886886978646e-06,0.3208233406921525,-2.686977574110985e-05,0.3208233406921525,7.111564496117102e-07,0.3208233406921525,-1.7130751311302136e-05
0.3216174578720835,-1.5893917950174245e-06,0.3216174578720835,-2.678545194849244e-05,0.3216174578720835,2.1229761537369314e-06,0.3216174578720835,-1.6478279487543562e-05
0.3224115750520147,-4.709851225307547e-06,0.3224115750520147,-3.3422828168364533e-05,0.3224115750520147,4.650544150205031e-06,0.3224115750520147,-1.3299515277000853e-05
0.3232056922319457,-5.1442981095554095e-06,0.3232056922319457,-3.563517396662646e-05,0.3232056922319457,3.939835103951005e-06,0.3232056922319457,-1.2727034054777704e-05
0.3239998094118768,-4.531792702933546e-06,0.3239998094118768,-2.501307501455888e-05,0.3239998094118768,1.6881007578429173e-07,0.3239998094118768,-1.0910749188265816e-05
0.3247939265918079,-6.21042e-06,0.3247939265918079,-1.1619738169474165e-05,0.3247939265918079,-1.0653781752434731e-08,0.3247939265918079,-1.100915815726902e-05
0.3255880437717389,-2.9731489973046203e-06,0.3255880437717389,-1.3828995240988646e-05,0.3255880437717389,2.574974197172623e-06,0.3255880437717389,-1.079048511116359e-05
0.32638216095167,-4.212435250905435e-06,0.32638216095167,-1.8611122268551232e-05,0.32638216095167,3.622581782126968e-06,0.32638216095167,-1.5243258318736e-05
0.3271762781316011,-7.434036604199506e-06,0.3271762781316011,-2.0586706449300574e-05,0.3271762781316011,6.158775738795788e-06,0.3271762781316011,-1.6005291697900247e-05
0.3279703953115321,-6.171826093621735e-06,0.3279703953115321,-2.6130650669174392e-05,0.3279703953115321,6.1525264967060845e-06,0.3279703953115321,-1.328127774728932e-05
0.3287645124914632,-4.86763e-06,0.3287645124914632,-3.332297945944457e-05,0.3287645124914632,3.03135741036821e-06,0.3287645124914632,-1.0831308705184105e-05
0.3295586296713942,-5.499510777148637e-06,0.3295586296713942,-3.255426172416293e-05,0.3295586296713942,1.885859222851363e-06,0.3295586296713942,-1.1522321165722956e-05
0.3303527468513254,-5.53903e-06,0.3303527468513254,-2.9473054809306765e-05,0.3303527468513254,1.8788976293436602e-07,0.3303527468513254,-1.0377420705463006e-05
0.3311468640312564,-5.302431482611724e-06,0.3311468640312564,-2.87022e-05,0.3311468640312564,-2.241189629347069e-06,0.3311468640312564,-8.89601e-06
0.3319409812111875,-4.274144775016273e-06,0.3319409812111875,-3.19803668376419e-05,0.3319409812111875,-1.3937685337649122e-06,0.3319409812111875,-9.645324194775172e-06
0.3327350983911186,-6.052079139083931e-06,0.3327350983911186,-3.284948774605582e-05,0.3327350983911186,7.60074862020878e-07,0.3327350983911186,-1.1423256780680304e-05
0.3335292155710496,-6.21042e-06,0.3335292155710496,-3.1683854136400376e-05,0.3335292155710496,1.7276596034437132e-06,0.3335292155710496,-1.1423680113301796e-05
0.3343233327509807,-5.479718616943739e-06,0.3343233327509807,-2.3279362869035908e-05,0.3343233327509807,2.231267233887477e-06,0.3343233327509807,-1.0672956234572184e-05
0.3351174499309118,-6.684913020507786e-06,0.3351174499309118,-9.924841940873802e-06,0.3351174499309118,1.530330815261198e-06,0.3351174499309118,-9.56741e-06
0.3359115671108428,-7.533373567282321e-06,0.3359115671108428,-1.450553940091807e-05,0.3359115671108428,7.799490974558806e-07,0.3359115671108428,-1.042649643271768e-05
0.3367056842907739,-6.526285859396129e-06,0.3367056842907739,-2.9278527751463604e-05,0.3367056842907739,1.17494e-06,0.3367056842907739,-1.12459e-05
0.337499801470705,-6.88182e-06,0.337499801470705,-2.6354611431826565e-05,0.337499801470705,-8.38387899299172e-07,0.337499801470705,-1.0910343017777536e-05
0.338293918650636,-6.645083890282721e-06,0.338293918650636,-2.088316172857357e-05,0.338293918650636,1.153596305604162e-06,0.338293918650636,-9.765334832579434e-06
0.3390880358305671,-4.591798910445663e-06,0.3390880358305671,-3.0097856004677277e-05,0.3390880358305671,-1.5469966420065684e-06,0.3390880358305671,-1.0041015544777169e-05
0.3398821530104982,-5.695408754767524e-06,0.3398821530104982,-3.583116204841472e-05,0.3398821530104982,-5.835626184743773e-06,0.3398821530104982,-9.56741e-06
0.3406762701904293,-7.4340251627773246e-06,0.3406762701904293,-1.9950639235000077e-05,0.3406762701904293,-3.330217573572898e-06,0.3406762701904293,-9.56741e-06
0.3414703873703603,-8.737804077746702e-06,0.3414703873703603,8.664697742304066e-06,0.3414703873703603,1.5492191386172305e-06,0.3414703873703603,-9.64651296112665e-06
0.3422645045502914,-9.409638851790378e-06,0.3422645045502914,1.848424376277869e-05,0.3422645045502914,3.18914e-06,0.3422645045502914,-9.981985574104813e-06
0.3430586217302225,-8.26414068887874e-06,0.3430586217302225,4.69003369093985e-06,0.3430586217302225,1.767434049977165e-06,0.3430586217302225,-1.055473465556063e-05
0.3438527389101535,-6.66470590937948e-06,0.3438527389101535,-1.939998997759753e-05,0.3438527389101535,-1.490584391359493e-06,0.3438527389101535,-1.3338570453102598e-05
0.3446468560900846,-8.816074104615365e-06,0.3446468560900846,-3.519873081606411e-05,0.3446468560900846,-1.1557622419881577e-06,0.3446468560900846,-1.42288388459173e-05
0.3454409732700157,-1.0121962815628044e-05,0.3454409732700157,-3.267106454684617e-05,0.3454409732700157,-5.101187363507696e-08,0.3454409732700157,-1.128484592148076e-05
0.3462350904499467,-6.685481623651789e-06,0.3462350904499467,-2.6394288114517197e-05,0.3462350904499467,2.872430678516117e-06,0.3462350904499467,-1.3199913348145144e-05
0.3470292076298778,-6.5262483319741975e-06,0.3470292076298778,-2.437771504450856e-05,0.3470292076298778,3.86053e-06,0.3470292076298778,-1.35958e-05
0.3478233248098089,-7.000431324690355e-06,0.3478233248098089,-2.8047971363890145e-05,0.3478233248098089,4.808324337654822e-06,0.3478233248098089,-1.4682339636416243e-05
0.34861744198974,-8.738461719146188e-06,0.34861744198974,-2.7597730235750032e-05,0.34861744198974,2.45775037146208e-06,0.34861744198974,-1.7506037909391732e-05
0.349411559169671,-1.01005920715238e-05,0.349411559169671,-2.2540487387583178e-05,0.349411559169671,1.17494e-06,0.349411559169671,-1.430647928476199e-05
0.3502056763496021,-1.110754301316746e-05,0.3502056763496021,-1.7349910398133602e-05,0.3502056763496021,3.623501506583731e-06,0.3502056763496021,-1.3082057532918651e-05
0.3509997935295332,-1.0407220562556694e-05,0.3509997935295332,-1.510686744277161e-05,0.3509997935295332,1.5116811649896565e-06,0.3509997935295332,-1.4938302523022756e-05
0.3517939107094642,-8.857218869889348e-06,0.3517939107094642,-1.5116417967566748e-05,0.3517939107094642,2.121861506814202e-06,0.3517939107094642,-1.58079392465929e-05
0.3525880278893953,-7.55322e-06,0.3525880278893953,-1.7859982215875856e-05,0.3525880278893953,2.241920376473039e-06,0.3525880278893953,-1.2492521505892156e-05
0.3533821450693264,-7.779702705825015e-06,0.3533821450693264,-1.9361748361359837e-05,0.3533821450693264,1.096762437881263e-06,0.3533821450693264,-9.684676576060124e-06
0.3541762622492574,-6.568037060446555e-06,0.3541762622492574,-2.0181914305974923e-05,0.3541762622492574,-1.1530232946510874e-06,0.3541762622492574,-1.3059371746097848e-05
0.3549703794291886,-4.512653285928728e-06,0.3549703794291886,-2.559846472551681e-05,0.3549703794291886,5.806534543279909e-07,0.3549703794291886,-1.553087061407889e-05
0.3557644966091196,-4.038470293212626e-06,0.3557644966091196,-2.9156263821508493e-05,0.3557644966091196,3.031380293212626e-06,0.3557644966091196,-1.606400803152732e-05
0.3565586137890507,-2.577052643408522e-06,0.3565586137890507,-3.0182654803785843e-05,0.3565586137890507,2.51774e-06,0.3565586137890507,-1.597535367142578e-05
0.3573527309689818,-2.4976650728206146e-06,0.3573527309689818,-3.16240143716022e-05,0.3573527309689818,3.762013284786257e-06,0.3573527309689818,-1.30831414967519e-05
0.3581468481489128,-3.0708522073332385e-06,0.3581468481489128,-3.085476215502844e-05,0.3581468481489128,2.0829155853335227e-06,0.3581468481489128,-1.136418779266676e-05
0.3589409653288439,-2.93130833100706e-06,0.3589409653288439,-2.767524379567256e-05,0.3589409653288439,1.5714208853929178e-06,0.3589409653288439,-1.2569232772273347e-05
0.3597350825087749,-4.965780846753716e-06,0.3597350825087749,-2.2701732042200205e-05,0.3597350825087749,-1.963460765295339e-06,0.3597350825087749,-1.173996610216419e-05
0.360529199688706,-5.894607813303952e-06,0.360529199688706,-1.96384e-05,0.360529199688706,-2.913084032199892e-06,0.360529199688706,-1.1897416890552027e-05
0.3613233168686371,-3.02129e-06,0.3613233168686371,-2.141367276309395e-05,0.3613233168686371,5.628475883428049e-07,0.3613233168686371,-1.2825899766536346e-05
0.3621174340485681,-4.354662238987143e-06,0.3621174340485681,-2.23239e-05,0.3621174340485681,1.7281614144273402e-06,0.3621174340485681,-1.4820420710350548e-05
0.3629115512284993,-3.741990528781669e-06,0.3629115512284993,-2.2955910201954568e-05,0.3629115512284993,2.725060492234831e-06,0.3629115512284993,-1.52743e-05
0.3637056684084303,-3.445431702314626e-06,0.3637056684084303,-2.43381e-05,0.3637056684084303,1.7278228867850151e-06,0.3637056684084303,-1.3438171132149849e-05
0.3644997855883614,-7.887519876404505e-06,0.3644997855883614,-2.2995854743638392e-05,0.3644997855883614,3.5240577086023795e-06,0.3644997855883614,-1.0910817836798982e-05
0.3652939027682925,-9.9031e-06,0.3652939027682925,-2.451591283105163e-05,0.3652939027682925,6.150221523087012e-06,0.3652939027682925,-1.0436750712620277e-05
0.3660880199482235,-9.687187792956774e-06,0.3660880199482235,-2.0884112363982223e-05,0.3660880199482235,8.203730167668338e-06,0.3660880199482235,-1.118600815749955e-05
0.3668821371281546,-7.396885944761273e-06,0.3668821371281546,-2.068428330915323e-05,0.3668821371281546,9.30987586338005e-06,0.3668821371281546,-1.15816e-05
0.3676762543080857,-5.934328860033538e-06,0.3676762543080857,-2.117806758713007e-05,0.3676762543080857,9.9031e-06,0.3676762543080857,-1.15816e-05
0.3684703714880167,-5.816929468994728e-06,0.3684703714880167,-1.415339588355359e-05,0.3684703714880167,1.0555234727350976e-05,0.3684703714880167,-1.1226634727350976e-05
0.3692644886679478,-3.406521150518372e-06,0.3692644886679478,-8.06753868622766e-06,0.3692644886679478,8.264047066341287e-06,0.3692644886679478,-9.56741e-06
0.3700586058478789,-2.231482026166961e-06,0.3700586058478789,1.4838764056865195e-06,0.3700586058478789,9.18226797383304e-06,0.3700586058478789,-1.019924696818798e-05
0.3708527230278099,-3.48464928039697e-06,0.3708527230278099,7.201085855096353e-06,0.3708527230278099,9.8046012179756e-06,0.3708527230278099,-1.1364497375406857e-05
0.371646840207741,-6.565266178959099e-06,0.371646840207741,-5.380066277801833e-06,0.371646840207741,4.791042331054261e-06,0.371646840207741,-7.278360569666392e-06
0.3724409573876721,-7.572680914984155e-06,0.3724409573876721,-2.2304506096888856e-05,0.3724409573876721,3.843512729992932e-07,0.3724409573876721,-5.694720798245848e-06
0.3732350745676032,-8.145421228206852e-06,0.3732350745676032,-3.698942152279687e-05,0.3732350745676032,2.200984912827408e-06,0.3732350745676032,-1.0020180956362822e-05
0.3740291917475342,-4.947202907166273e-06,0.3740291917475342,-4.8567730109489737e-05,0.3740291917475342,2.201934550870176e-06,0.3740291917475342,-9.370339718578552e-06
0.3748233089274653,-2.85344e-06,0.3748233089274653,-5.318546300490543e-05,0.3748233089274653,7.799521323342367e-07,0.3748233089274653,-8.698962001097704e-06
0.3756174261073964,-2.260837659127012e-06,0.3756174261073964,-5.514703104998197e-05,0.3756174261073964,1.0961432797786674e-06,0.3756174261073964,-1.3280609363491952e-05
0.3764115432873274,-4.768973078668523e-06,0.3764115432873274,-3.523604886049155e-05,0.3764115432873274,1.7673818164892012e-06,0.3764115432873274,-1.46621612109928e-05
0.3772056604672585,-6.88182e-06,0.3772056604672585,-4.584769744110788e-06,0.3772056604672585,3.4851171827341617e-06,0.3772056604672585,-1.6478720081112627e-05
0.3779997776471896,-6.378510269866244e-06,0.3779997776471896,2.567270217320015e-05,0.3779997776471896,3.86069017991083e-06,0.3779997776471896,-1.661726017991083e-05
0.3787938948271206,-6.447138910676133e-06,0.3787938948271206,2.6596261021616835e-05,0.3787938948271206,2.478983267971599e-06,0.3787938948271206,-1.3991724357295464e-05
0.3795880120070517,-8.776203382944253e-06,0.3795880120070517,2.641573162871786e-06,0.3795880120070517,-1.1150402268010684e-06,0.3795880120070517,-1.35958e-05
0.3803821291869828,-9.785867821680555e-06,0.3803821291869828,-2.0729428402181047e-05,0.3803821291869828,-2.8143622192040066e-06,0.3803821291869828,-1.4208577508463324e-05
0.3811762463669139,-7.791676547149612e-06,0.3811762463669139,-3.796379620550958e-05,0.3811762463669139,-8.612340638047437e-07,0.3811762463669139,-1.362559841122715e-05
0.3819703635468449,-5.53903e-06,0.3819703635468449,-3.922767987923729e-05,0.3819703635468449,9.974662564494253e-07,0.3819703635468449,-1.154309233754636e-05
0.382764480726776,-5.894948701485865e-06,0.382764480726776,-4.351219191886165e-05,0.382764480726776,-4.246798229656933e-07,0.382764480726776,-1.0060836823942975e-05
0.3835585979067071,-2.9721346715905225e-06,0.3835585979067071,-4.175836304068695e-05,0.3835585979067071,-1.67849e-07,0.3835585979067071,-1.231199895731903e-05
0.3843527150866381,-3.938917990905963e-06,0.3843527150866381,-3.900116424799388e-05,0.3843527150866381,-1.7277368915794149e-06,0.3843527150866381,-1.29244e-05
0.3851468322665692,-5.647735359954877e-06,0.3851468322665692,-3.2839911190604016e-05,0.3851468322665692,-1.6289163266393446e-06,0.3851468322665692,-1.2253e-05
0.3859409494465003,-5.183874238300726e-06,0.3859409494465003,-1.4898858437223238e-05,0.3859409494465003,-3.5345578808496373e-06,0.3859409494465003,-1.2272455761699274e-05
0.3867350666264313,-5.380641014991476e-06,0.3867350666264313,7.524535635947684e-06,0.3867350666264313,-2.538412857183912e-06,0.3867350666264313,-1.2075688985008523e-05
0.3875291838063624,-4.907441984584848e-06,0.3875291838063624,1.011032629835688e-05,0.3875291838063624,-1.51064e-06,0.3875291838063624,-1.0436508988438636e-05
0.3883233009862935,-3.0905922347319293e-06,0.3883233009862935,-6.343526387171038e-07,0.3883233009862935,-2.1427807349438084e-06,0.3883233009862935,-9.626696734096292e-06
0.3891174181662246,-5.381411749691063e-06,0.3891174181662246,-1.159884058620371e-05,0.3891174181662246,-5.598889235762237e-06,0.3891174181662246,-9.9031e-06
0.3899115353461556,-6.486870255034609e-06,0.3899115353461556,-1.616316896768142e-05,0.3899115353461556,-6.684345127517304e-06,0.3899115353461556,-1.102869948993078e-05
0.3907056525260867,-4.986152846228687e-06,0.3907056525260867,-2.363984401134197e-05,0.3907056525260867,-4.394229939736936e-06,0.3907056525260867,-1.2884662922627876e-05
0.3914997697060178,-6.545290501832162e-06,0.3914997697060178,-3.239251665696091e-05,0.3914997697060178,-1.5113036024878143e-06,0.3914997697060178,-1.2421380676886493e-05
0.3922938868859488,-8.08688364467511e-06,0.3922938868859488,-3.47248948839575e-05,0.3922938868859488,1.0264618305620511e-06,0.3922938868859488,-1.1009186822337554e-05
0.3930880040658799,-7.433386343275181e-06,0.3930880040658799,-3.10521e-05,0.3930880040658799,1.7265104508895003e-06,0.3930880040658799,-1.1926310993734338e-05
0.393882121245811,-8.14646706833323e-06,0.393882121245811,-3.381512279588164e-05,0.393882121245811,4.61007409556453e-06,0.393882121245811,-1.2885327952217736e-05
0.394676238425742,-6.17282150727893e-06,0.394676238425742,-3.744982708428288e-05,0.394676238425742,4.099011205823144e-06,0.394676238425742,-1.2864779698544214e-05
0.3954703556056732,-7.176885090459486e-06,0.3954703556056732,-2.987454037805865e-05,0.3954703556056732,2.872682389804652e-06,0.3954703556056732,-1.5471013584706976e-05
0.3962644727856042,-9.76457612495662e-06,0.3962644727856042,-1.861200099274751e-05,0.3962644727856042,4.689655382520791e-06,0.3962644727856042,-1.5817243091637238e-05
0.3970585899655353,-9.774838910840834e-06,0.3970585899655353,-2.2277660245540485e-05,0.3970585899655353,4.887418276494204e-06,0.3970585899655353,-1.5629788276494205e-05
0.3978527071454664,-7.909042991123155e-06,0.3978527071454664,-3.501807257186282e-05,0.3978527071454664,3.959012317131452e-06,0.3978527071454664,-1.4819991158565726e-05
0.3986468243253974,-7.080137625497432e-06,0.3986468243253974,-3.938517115641547e-05,0.3986468243253974,3.82230996134992e-06,0.3986468243253974,-1.62814e-05
0.3994409415053285,-4.06008037858839e-06,0.3994409415053285,-3.8437462901337736e-05,0.3994409415053285,3.2280394779838807e-06,0.3994409415053285,-1.4899699942628907e-05
0.4002350586852595,-1.333340426430773e-06,0.4002350586852595,-3.2279843334056824e-05,0.4002350586852595,2.8345384936058644e-06,0.4002350586852595,-1.4010700213215389e-05
0.4010291758651906,-5.824931712368775e-07,0.4010291758651906,-2.4930516463710875e-05,0.4010291758651906,3.1094655617968877e-06,0.4010291758651906,-1.3773608716857295e-05
0.4018232930451217,-3.090569352057873e-06,0.4018232930451217,-2.084467106359176e-05,0.4018232930451217,7.651780647942128e-06,0.4018232930451217,-1.3615401880973969e-05
0.4026174102250527,-5.529524843814502e-06,0.4026174102250527,-2.532315809364669e-05,0.4026174102250527,5.064680303980959e-06,0.4026174102250527,-1.173924118236369e-05
0.4034115274049838,-6.427643442123972e-06,0.4034115274049838,-2.801108969143175e-05,0.4034115274049838,6.526369815035251e-06,0.4034115274049838,-1.3042876557876027e-05
0.4042056445849149,-5.262221359522364e-06,0.4042056445849149,-2.4598250511746608e-05,0.4042056445849149,6.822925701884412e-06,0.4042056445849149,-1.49386e-05
0.404999761764846,-6.21042e-06,0.404999761764846,-1.6284481863199938e-05,0.404999761764846,4.532616480219968e-06,0.404999761764846,-1.225437297066462e-05
0.4057938789447771,-4.82890766605373e-06,0.4057938789447771,-1.5081341503866794e-06,0.4057938789447771,5.005344889297514e-06,0.4057938789447771,-1.055517408882738e-05
0.4065879961247081,-5.005516879708647e-06,0.4065879961247081,1.7560129647212756e-05,0.4065879961247081,5.134386560145677e-06,0.4065879961247081,-1.0376686879708646e-05
0.4073821133046392,-7.350613449768474e-06,0.4073821133046392,1.843593457685417e-05,0.4073821133046392,2.0257754391620426e-06,0.4073821133046392,-1.2253e-05
0.4081762304845703,-9.80591231249749e-06,0.4081762304845703,7.188817223763571e-07,0.4081762304845703,2.871005114827164e-07,0.4081762304845703,-1.0872630110834184e-05
0.4089703476645013,-7.040054525808779e-06,0.4089703476645013,-2.4601358838298184e-05,0.4089703476645013,-1.776838211286831e-06,0.4089703476645013,-1.0790427370956104e-05
0.4097644648444324,-6.734242117802914e-06,0.4097644648444324,-3.823939091754847e-05,0.4097644648444324,-1.2537969705492714e-06,0.4097644648444324,-1.15816e-05
0.4105585820243635,-4.285302453151631e-06,0.4105585820243635,-3.95050724186244e-05,0.4105585820243635,-2.142451980984216e-06,0.4105585820243635,-1.15816e-05
0.4113526992042945,-3.7217752355584926e-06,0.4113526992042945,-3.622420546684027e-05,0.4113526992042945,-5.320814224990535e-06,0.4113526992042945,-1.0258943723343964e-05
0.4121468163842256,-5.56766834982068e-06,0.4121468163842256,-4.238614370582226e-05,0.4121468163842256,-7.316690278776144e-06,0.4121468163842256,-1.0040465919514716e-05
0.4129409335641567,-7.672459260820355e-06,0.4129409335641567,-4.1024466117878526e-05,0.4129409335641567,-4.770409100857146e-06,0.4129409335641567,-1.300217718268743e-05
0.4137350507440878,-5.342863244132729e-06,0.4137350507440878,-1.9471867505089625e-05,0.4137350507440878,-1.906669669632352e-06,0.4137350507440878,-1.375421186785294e-05
0.4145291679240188,-3.1201563595269366e-06,0.4145291679240188,-8.046854244648655e-06,0.4145291679240188,-3.257340921141656e-07,0.4145291679240188,-1.3911571124863198e-05
0.4153232851039499,-2.478423528173427e-06,0.4153232851039499,-1.8739008093123595e-05,0.4153232851039499,-2.093124411815543e-06,0.4153232851039499,-1.3911537647262172e-05
0.416117402283881,-5.9345089739121545e-06,0.416117402283881,-3.2175129493420235e-05,0.416117402283881,1.432474047940448e-06,0.416117402283881,-1.0475296171627666e-05
0.416911519463812,-5.341566593544722e-06,0.416911519463812,-3.411283089016681e-05,0.416911519463812,3.18914e-06,0.416911519463812,-1.1305126812910556e-05
0.4177056366437431,-6.072005683030337e-06,0.4177056366437431,-3.22783537446574e-05,0.4177056366437431,2.320454316969663e-06,0.4177056366437431,-1.1147257158484831e-05
0.4184997538236742,-6.3783586710220604e-06,0.4184997538236742,-2.8032392319702517e-05,0.4184997538236742,1.1752946840882428e-06,0.4184997538236742,-1.09102e-05
0.4192938710036052,-8.263318083915761e-06,0.4192938710036052,-1.471870618151983e-05,0.4192938710036052,1.4503492057486534e-06,0.4192938710036052,-9.726698492814185e-06
0.4200879881835363,-7.55322e-06,0.4200879881835363,1.1724867429930315e-05,0.4200879881835363,5.221331626201827e-06,0.4200879881835363,-1.0118930479506908e-05
0.4208821053634674,-6.21042e-06,0.4208821053634674,2.283872530801579e-05,0.4208821053634674,5.265607091271986e-06,0.4208821053634674,-1.2253e-05
0.4216762225433985,-6.762556514244092e-06,0.4216762225433985,3.3952468247493545e-06,0.4216762225433985,3.4652000334623164e-06,0.4216762225433985,-1.2253e-05
0.4224703397233295,-6.457390123259951e-06,0.4224703397233295,-1.410171660794673e-05,0.4224703397233295,5.558244220700037e-06,0.4224703397233295,-1.1986783938479068e-05
0.4232644569032606,-6.624971249838187e-06,0.4232644569032606,-2.297461850996244e-05,0.4232644569032606,6.743248124595468e-06,0.4232644569032606,-1.3318656249190937e-05
0.4240585740831917,-6.88182e-06,0.4240585740831917,-2.779152351280785e-05,0.4240585740831917,9.122812005935747e-06,0.4240585740831917,-1.428699974252162e-05
0.4248526912631227,-5.647563379790378e-06,0.4248526912631227,-2.6551425352250872e-05,0.4248526912631227,6.36936508518939e-06,0.4248526912631227,-1.2944560922385071e-05
0.4256468084430538,-5.775544732434263e-06,0.4256468084430538,-2.757613958252749e-05,0.4256468084430538,5.331124296233382e-06,0.4256468084430538,-1.247044087240176e-05
0.4264409256229849,-7.53378143734187e-06,0.4264409256229849,-3.650217778460839e-05,0.4264409256229849,5.53903e-06,0.4264409256229849,-1.126533856265813e-05
0.4272350428029159,-5.037376704822788e-06,0.4272350428029159,-3.855645965726826e-05,0.4272350428029159,4.769564963912692e-06,0.4272350428029159,-1.3120530072174617e-05
0.428029159982847,-2.655679525161425e-06,0.428029159982847,-4.590166025992471e-05,0.428029159982847,-5.617288529173798e-07,0.428029159982847,-1.2826341107956672e-05
0.4288232771627781,-4.53193e-06,0.4288232771627781,-4.0816305952992986e-05,0.4288232771627781,-6.566046262867171e-06,0.4288232771627781,-9.685950910552822e-06
0.4296173943427092,-5.568895008651022e-06,0.4296173943427092,-2.7124248887038088e-05,0.4296173943427092,-6.150671157013167e-06,0.4296173943427092,-1.2016469430289962e-05
0.4304115115226402,-7.5335140249228034e-06,0.4304115115226402,-3.008489127602107e-05,0.4304115115226402,-3.1299205350851284e-06,0.4304115115226402,-1.2253e-05
0.4312056287025713,-4.393504217003041e-06,0.4312056287025713,-3.284021624264331e-05,0.4312056287025713,-3.9193784340060805e-06,0.4312056287025713,-1.288461132550456e-05
0.4319997458825024,-6.880721628921693e-06,0.4319997458825024,-2.568418736970884e-05,0.4319997458825024,-6.209687754432184e-06,0.4319997458825024,-1.3260283062755246e-05
0.4327938630624334,-7.0001679893106495e-06,0.4327938630624334,-1.1658944731656016e-05,0.4327938630624334,-1.0079482842287951e-05,0.4327938630624334,-1.13062160855148e-05
0.4335879802423645,-9.120816617336092e-06,0.4335879802423645,-6.647202070661906e-07,0.4335879802423645,-1.0358702452376972e-05,0.4335879802423645,-1.165952624104376e-05
0.4343820974222956,-1.13863257562942e-05,0.4343820974222956,4.0595797568813627e-07,0.4343820974222956,-6.530327524714988e-06,0.4343820974222956,-1.217489030251768e-05
0.4351762146022266,-7.970678692102181e-06,0.4351762146022266,-9.212577186618164e-06,0.4351762146022266,-1.9281004686128624e-06,0.4351762146022266,-1.2133725072821844e-05
0.4359703317821577,-6.032965967230987e-06,0.4359703317821577,-2.1605725607013948e-05,0.4359703317821577,5.419613163773311e-07,0.4359703317821577,-1.4660524196614076e-05
0.4367644489620888,-5.696718709563972e-06,0.4367644489620888,-2.60166e-05,0.4367644489620888,3.139555945000436e-06,0.4367644489620888,-1.6360245529127072e-05
0.4375585661420199,-5.894525475535309e-06,0.4375585661420199,-2.9566299631040565e-05,0.4375585661420199,3.52483e-06,0.4375585661420199,-1.66171e-05
0.438352683321951,-6.624393331315106e-06,0.438352683321951,-3.6045858438211226e-05,0.438352683321951,2.4584269797623104e-06,0.438352683321951,-1.374466089107459e-05
0.439146800501882,-1.3633920367507063e-05,0.439146800501882,-4.118170586085081e-05,0.439146800501882,5.567616753038859e-06,0.439146800501882,-1.4621960183753532e-05
0.4399409176818131,-1.2058672282430872e-05,0.4399409176818131,-4.211074637103167e-05,0.4399409176818131,5.87472e-06,0.4399409176818131,-1.3498635851777996e-05
0.4407350348617442,-8.383044750697294e-06,0.4407350348617442,-2.2612630537784244e-05,0.4407350348617442,6.259443936977029e-06,0.4407350348617442,-1.1660817375348647e-05
0.4415291520416752,-9.251661757981177e-06,0.4415291520416752,2.280272013275589e-06,0.4415291520416752,4.7986688184858815e-06,0.4415291520416752,-1.1897348242018824e-05
0.4423232692216063,-5.914093678596625e-06,0.4423232692216063,8.344165897923584e-06,0.4423232692216063,4.3541331478976106e-06,0.4423232692216063,-1.2805868765265074e-05
0.4431173864015373,-4.235657494632068e-06,0.4431173864015373,-2.137589912235096e-06,0.4431173864015373,2.0434762986743524e-06,0.4431173864015373,-1.1660454989264137e-05
0.4439115035814684,-3.663078059572122e-06,0.4439115035814684,-1.383323537669668e-05,0.4439115035814684,3.307541879914062e-06,0.4439115035814684,-1.4504015523423029e-05
0.4447056207613995,-7.406152121283864e-07,0.4447056207613995,-1.798044204392365e-05,0.4447056207613995,3.939258438719479e-06,0.4447056207613995,-1.8018725501951168e-05
0.4454997379413306,-1.1745624375661229e-06,0.4454997379413306,-1.8630791484998103e-05,0.4454997379413306,4.53193e-06,0.4454997379413306,-1.762495513386548e-05
0.4462938551212617,-2.6554204912152462e-06,0.4462938551212617,-2.1612824910755165e-05,0.4462938551212617,3.4258231949598543e-06,0.4462938551212617,-1.3755148771961884e-05
0.4470879723011927,-2.85344e-06,0.4470879723011927,-1.9890421430452917e-05,0.4470879723011927,3.989425478998688e-06,0.4470879723011927,-1.2037221277329835e-05
0.4478820894811238,-3.938628231454863e-06,0.4478820894811238,-2.597578225073713e-05,0.4478820894811238,3.641977347182294e-06,0.4478820894811238,-9.005286326408854e-06
0.4486762066610549,-6.464319486579961e-06,0.4486762066610549,-2.408110765177712e-05,0.4486762066610549,4.807986815699839e-06,0.4486762066610549,-9.940585855180284e-06
0.4494703238409859,-7.159925413571874e-06,0.4494703238409859,-1.7903244494505067e-05,0.4494703238409859,3.52483e-06,0.4494703238409859,-1.209474831205791e-05
0.450264441020917,-5.53903e-06,0.450264441020917,-2.518370034047819e-05,0.450264441020917,4.334830478960127e-06,0.450264441020917,-1.116706019158405e-05
0.4510585582008481,-5.53903e-06,0.4510585582008481,-4.204209194013824e-05,0.4510585582008481,2.5870786397752726e-06,0.4510585582008481,-9.646654244049772e-06
0.4518526753807791,-2.7650976733490978e-06,0.4518526753807791,-4.381590643143742e-05,0.4518526753807791,3.386006439906349e-06,0.4518526753807791,-8.678941773489108e-06
0.4526467925607102,-2.645509153926956e-06,0.4526467925607102,-2.3531642520532183e-05,0.4526467925607102,5.775521800720904e-06,0.4526467925607102,-9.841987770145598e-06
0.4534409097406413,-4.590211289892257e-06,0.4534409097406413,1.4507952932916416e-06,0.4534409097406413,4.337659612396578e-06,0.4534409097406413,-1.2992391944687132e-05
0.4542350269205724,-7.077883783578754e-06,0.4542350269205724,1.021756116213434e-05,0.4542350269205724,6.619923041696628e-07,0.4542350269205724,-1.4227576652283485e-05
0.4550291441005034,-7.415309501768236e-06,0.4550291441005034,-4.333316668592193e-06,0.4550291441005034,2.18204e-06,0.4550291441005034,-1.2470757998508556e-05
0.4558232612804345,-6.427600206687307e-06,0.4558232612804345,-3.166514305701684e-05,0.4558232612804345,7.503565080681863e-07,0.4558232612804345,-9.448890206687308e-06
0.4566173784603656,-5.5784620529889855e-06,0.4566173784603656,-4.483444702866594e-05,0.4566173784603656,6.319638898199247e-07,0.4566173784603656,-1.0081068264073758e-05
0.4574114956402966,-5.144137585171654e-06,0.4574114956402966,-3.887157292431072e-05,0.4574114956402966,1.38232068887874e-06,0.4574114956402966,-1.0515307585171653e-05
0.4582056128202277,-4.433304357525937e-06,0.4582056128202277,-2.649616621867794e-05,0.4582056128202277,-9.179590496480792e-07,0.4582056128202277,-8.817295893814842e-06
0.4589997300001588,-5.538251983290188e-06,0.4589997300001588,-2.500897607545264e-05,0.4589997300001588,-5.041315078971691e-07,0.4589997300001588,-8.560115495822547e-06
0.4597938471800898,-9.644710025086546e-06,0.4597938471800898,-2.805065375089081e-05,0.4597938471800898,3.068409050274393e-06,0.4597938471800898,-9.094040974812154e-06
0.4605879643600209,-9.15381815703856e-06,0.4605879643600209,-2.830835528520801e-05,0.4605879643600209,5.479053788547195e-06,0.4605879643600209,-1.0394589579162447e-05
0.461382081539952,-8.22461e-06,0.461382081539952,-2.6570067645765764e-05,0.461382081539952,5.9918501481412285e-06,0.461382081539952,-1.3267901037431192e-05
0.4621761987198831,-7.948558905011254e-06,0.4621761987198831,-2.6707876331505283e-05,0.4621761987198831,7.709965061817747e-06,0.4621761987198831,-1.46029e-05
0.4629703158998141,-7.356587511708564e-06,0.4629703158998141,-3.002426790501503e-05,0.4629703158998141,6.3806585450501634e-06,0.4629703158998141,-1.3912314817306426e-05
0.4637644330797452,-6.811855134027576e-06,0.4637644330797452,-2.5900042063138535e-05,0.4637644330797452,7.209953381125266e-07,0.4637644330797452,-1.2648468951286111e-05
0.4645585502596763,-7.750794822027092e-06,0.4645585502596763,-1.993559083361541e-05,0.4645585502596763,2.2309888228772413e-06,0.4645585502596763,-1.159150551919638e-05
0.4653526674396073,-7.612538753251418e-06,0.4653526674396073,-2.4453670317460224e-05,0.4653526674396073,1.856446259754254e-06,0.4653526674396073,-1.2805762493497165e-05
0.4661467846195384,-7.572242263421519e-06,0.4661467846195384,-2.5740457256463742e-05,0.4661467846195384,9.512836160736125e-09,0.4661467846195384,-1.0753910022349945e-05
0.4669409017994695,-7.592062148700725e-06,0.4669409017994695,-1.6884322807851846e-05,0.4669409017994695,5.715223098329256e-07,0.4669409017994695,-8.915431363617023e-06
0.4677350189794005,-8.481081183229114e-06,0.4677350189794005,-8.730326613622872e-06,0.4677350189794005,2.0631967748436706e-06,0.4677350189794005,-1.000111590979508e-05
0.4685291361593316,-8.580284640825591e-06,0.4685291361593316,-1.212429839915787e-05,0.4685291361593316,3.7026673204127953e-06,0.4685291361593316,-1.0554525359174408e-05
0.4693232533392627,-8.619564175945263e-06,0.4693232533392627,-1.823267780750959e-05,0.4693232533392627,7.009101226241356e-07,0.4693232533392627,-1.1759362527835788e-05
0.4701173705191938,-1.0081045332189764e-05,0.4701173705191938,-1.881032504863172e-05,0.4701173705191938,-2.399423118021665e-06,0.4701173705191938,-1.4070005196702776e-05
0.4709114876991248,-8.481493272253448e-06,0.4709114876991248,-1.320070387601779e-05,0.4709114876991248,8.785282630560398e-07,0.4709114876991248,-1.3181247983518075e-05
0.4717056048790559,-6.496810045269812e-06,0.4717056048790559,-1.5524260163951667e-05,0.4717056048790559,5.03548e-07,0.4717056048790559,-1.2548859728381123e-05
0.472499722058987,-6.210520112444269e-06,0.472499722058987,-1.8966730306177e-05,0.472499722058987,1.1745395549944451e-06,0.472499722058987,-1.4266599325334388e-05
0.473293839238918,-3.2495219319854348e-06,0.473293839238918,-1.35958e-05,0.473293839238918,1.6482975591603892e-06,0.473293839238918,-1.2175727322518831e-05
0.4740879564188491,-2.5387862487595643e-06,0.4740879564188491,-2.1743175799858945e-05,0.4740879564188491,-3.925254672532261e-07,0.4740879564188491,-1.1383758214640124e-05
0.4748820735987802,-1.51064e-06,0.4748820735987802,-3.363539880108422e-05,0.4748820735987802,-1.354490447785584e-06,0.4748820735987802,-1.2479362288915534e-05
0.4756761907787112,-4.064659035697821e-07,0.4756761907787112,-4.497371341856437e-05,0.4756761907787112,-1.272023096430218e-06,0.4756761907787112,-1.1958200075137896e-05
0.4764703079586423,-1.7456018659872384e-06,0.4764703079586423,-3.835073466090783e-05,0.4764703079586423,-9.591604038420548e-07,0.4764703079586423,-1.09102e-05
0.4772644251385734,-6.011997853783692e-06,0.4772644251385734,-1.2672338442324708e-05,0.4772644251385734,6.523728181638149e-07,0.4772644251385734,-1.1739256733987545e-05
0.4780585423185045,-8.816719892181957e-06,0.4780585423185045,2.336011638331429e-06,0.4780585423185045,-1.451172448660856e-06,0.4780585423185045,-1.2884754650847093e-05
0.4788526594984356,-5.599715621444258e-06,0.4788526594984356,-4.128395585240568e-06,0.4788526594984356,-2.053281901208724e-06,0.4788526594984356,-1.4918370281450468e-05
0.4796467766783666,-2.4185123910868107e-06,0.4796467766783666,-1.5431251182880903e-05,0.4796467766783666,-2.18204e-06,0.4796467766783666,-1.4959683314115748e-05
0.4804408938582977,-2.123793108190114e-06,0.4804408938582977,-1.6330737671966064e-05,0.4804408938582977,-2.201455630603295e-06,0.4804408938582977,-1.229183126120659e-05
0.4812350110382288,-1.94433638755409e-06,0.4812350110382288,-1.6311141325212346e-05,0.4812350110382288,-2.77420546251803e-06,0.4812350110382288,-1.2539663607613704e-05
0.4820291282181598,-1.51064e-06,0.4820291282181598,-1.643915799586484e-05,0.4820291282181598,-2.7155691233717016e-06,0.4820291282181598,-1.17394569588761e-05
0.4828232453980909,-2.18204e-06,0.4828232453980909,-2.2693134341703903e-05,0.4828232453980909,5.03548e-07,0.4828232453980909,-1.1522351544765827e-05
0.483617362578022,-3.663307706632656e-06,0.483617362578022,-2.917590735537956e-05,0.483617362578022,-6.814679303064598e-07,0.483617362578022,-1.03571340810194e-05
0.484411479757953,-5.6772911398983614e-06,0.484411479757953,-2.5898052404251733e-05,0.484411479757953,3.652831532582448e-07,0.484411479757953,-1.1423408448320538e-05
0.4852055969378841,-4.05775835289335e-06,0.4852055969378841,-2.481079070547803e-05,0.4852055969378841,5.224470038013101e-07,0.4852055969378841,-1.3793028352893348e-05
0.4859997141178152,-7.2158724413375216e-06,0.4859997141178152,-2.7022775427269344e-05,0.4859997141178152,4.530488386937184e-06,0.4859997141178152,-1.4938188108800678e-05
0.4867938312977463,-1.0552714275830108e-05,0.4867938312977463,-2.56809e-05,0.4867938312977463,8.22417289483917e-07,0.4867938312977463,-1.1130042580901445e-05
0.4875879484776773,-1.1641595036747208e-05,0.4875879484776773,-3.065189817993831e-05,0.4875879484776773,-4.256906083302494e-07,0.4875879484776773,-1.159946240813198e-05
0.4883820656576084,-1.0004609662584356e-05,0.4883820656576084,-3.350191747577428e-05,0.4883820656576084,1.3310676667453035e-06,0.4883820656576084,-1.2846336166627348e-05
0.4891761828375395,-7.396499262108033e-06,0.4891761828375395,-2.6431296456007703e-05,0.4891761828375395,2.51774e-06,0.4891761828375395,-1.1700920692866906e-05
0.4899703000174705,-9.605729314290289e-06,0.4899703000174705,-3.0493764458261885e-05,0.4899703000174705,5.10254276406408e-06,0.4899703000174705,-1.1226737700150804e-05
0.4907644171974016,-8.147197208323283e-06,0.4907644171974016,-2.983134015482277e-05,0.4907644171974016,5.658663824029927e-06,0.4907644171974016,-1.34761585239786e-05
0.4915585343773327,-3.6537140586773606e-06,0.4915585343773327,-1.2462666170004604e-05,0.4915585343773327,4.17640159240986e-06,0.4915585343773327,-1.464255681518028e-05
0.4923526515572637,-4.077581027469787e-06,0.4923526515572637,-4.62643993409859e-06,0.4923526515572637,6.54612e-06,0.4923526515572637,-1.2253e-05
0.4931467687371948,-3.870025693794515e-06,0.4931467687371948,-1.502547843621888e-05,0.4931467687371948,5.18433861241097e-06,0.4931467687371948,-1.4740121850118707e-05
0.4939408859171259,-4.906449795179214e-06,0.4939408859171259,-2.489069657963948e-05,0.4939408859171259,2.953355358436376e-06,0.4939408859171259,-1.62814e-05
0.494735003097057,-7.077780811290181e-06,0.494735003097057,-2.8680866932740137e-05,0.494735003097057,1.3334205163861266e-06,0.494735003097057,-1.5768480516386127e-05
0.495529120276988,-6.606117273161885e-06,0.495529120276988,-3.0045e-05,0.495529120276988,2.1620424763299936e-06,0.495529120276988,-1.3635795047340011e-05
0.4963232374569191,-5.89448464238623e-06,0.4963232374569191,-2.8861689890094237e-05,0.4963232374569191,2.458497265476913e-06,0.4963232374569191,-1.4346199141661612e-05
0.4971173546368502,-9.330708615047928e-06,0.4971173546368502,-1.616973343406893e-05,0.4971173546368502,3.663279041734791e-06,0.4971173546368502,-1.62814e-05
0.4979114718167812,-8.461595495813487e-06,0.4979114718167812,-6.44737399367002e-06,0.4979114718167812,4.275342974880917e-06,0.4979114718167812,-1.2213796941388805e-05
0.4987055889967123,-8.935884669701126e-06,0.4987055889967123,-1.2876132378097604e-05,0.4987055889967123,4.35357221716479e-06,0.4987055889967123,-1.1699067547463665e-05
0.4994997061766434,-7.5536433263162675e-06,0.4994997061766434,-2.43337288822038e-05,0.4994997061766434,5.53903e-06,0.4994997061766434,-1.5608730002135533e-05
0.5002938233565745,-9.369344627105612e-06,0.5002938233565745,-3.042034586359955e-05,0.5002938233565745,5.951926831352178e-06,0.5002938233565745,-1.4278099652388468e-05
0.5010879405365055,-1.0118792888202638e-05,0.5010879405365055,-3.022577070358536e-05,0.5010879405365055,6.803979754161948e-06,0.5010879405365055,-1.3320106502774632e-05
0.5018820577164366,-1.2510647632654875e-05,0.5018820577164366,-2.30581639321843e-05,0.5018820577164366,3.86053e-06,0.5018820577164366,-1.3517747632654876e-05
0.5026761748963677,-1.1089198201433512e-05,0.5026761748963677,-8.264122731014842e-06,0.5026761748963677,6.068793240206703e-06,0.5026761748963677,-1.1820264268578018e-05
0.5034702920762988,-8.078449995349715e-06,0.5034702920762988,-4.609199460630952e-06,0.5034702920762988,6.862669141572931e-06,0.5034702920762988,-1.1068474570786463e-05
0.5042644092562298,-8.539877702286294e-06,0.5042644092562298,-1.0039427488684749e-05,0.5042644092562298,4.888062297713706e-06,0.5042644092562298,-1.0081168496694969e-05
0.5050585264361609,-8.935678281207738e-06,0.5050585264361609,-1.9335320177661927e-05,0.5050585264361609,3.544664140603869e-06,0.5050585264361609,-1.0830864028413854e-05
0.505852643616092,-5.884852058315951e-06,0.505852643616092,-2.859733244400992e-05,0.505852643616092,5.301720588912066e-06,0.505852643616092,-1.1927399731045405e-05
0.506646760796023,-4.04006041512581e-06,0.506646760796023,-3.6817297669940255e-05,0.506646760796023,4.314454729515963e-06,0.506646760796023,-1.19173e-05
0.507440877975954,-1.096367952829722e-07,0.507440877975954,-3.444941013354689e-05,0.507440877975954,5.164521670848319e-06,0.507440877975954,-1.162040832915168e-05
0.5082349951558852,1.0956954374672151e-06,0.5082349951558852,-2.1423701704422776e-05,0.5082349951558852,4.019021957808337e-06,0.5082349951558852,-1.1740091957808336e-05
0.5090291123358163,8.992720674560108e-07,0.5090291123358163,-6.5468258075148265e-06,0.5090291123358163,1.570670656861574e-06,0.5090291123358163,-1.02388e-05
0.5098232295157473,-2.053669548341897e-06,0.5098232295157473,-1.965972797482491e-06,0.5098232295157473,-5.62784660895594e-07,0.5098232295157473,-1.25887e-05
0.5106173466956784,-2.5769242395508782e-06,0.5106173466956784,-4.1922821784837685e-06,0.5106173466956784,-3.20918260293912e-06,0.5106173466956784,-1.1848046275950854e-05
0.5114114638756094,-2.300333101437264e-06,0.5114114638756094,-2.0980969589244622e-05,0.5114114638756094,-6.407843275359316e-06,0.5114114638756094,-1.2253e-05
0.5122055810555405,-4.048325934371173e-06,0.5122055810555405,-3.615605340957647e-05,0.5122055810555405,-3.999024579161564e-06,0.5122055810555405,-1.0851489158323129e-05
0.5129996982354716,-3.1894660740571096e-06,0.5129996982354716,-2.2332097878210476e-05,0.5129996982354716,-3.3570886935109146e-06,0.5129996982354716,-1.1580513064890854e-05
0.5137938154154027,-2.952478419460899e-06,0.5137938154154027,2.0450224166682123e-06,0.5137938154154027,-1.6701320973044946e-06,0.5137938154154027,-1.30234384194609e-05
0.5145879325953338,-6.228230971917695e-06,0.5145879325953338,8.844491219473594e-06,0.5145879325953338,-1.588463046797008e-06,0.5145879325953338,-1.2450858984400996e-05
0.5153820497752648,-8.107549810384018e-06,0.5153820497752648,-4.388169599199731e-06,0.5153820497752648,-2.556760450658913e-06,0.5153820497752648,-1.2744781802635654e-05
0.5161761669551959,-6.527449469639236e-06,0.5161761669551959,-2.8040481145641408e-05,0.5161761669551959,-1.7493271514227766e-06,0.5161761669551959,-1.434550120588221e-05
0.5169702841351269,-5.786010145748816e-06,0.5169702841351269,-4.161328755611e-05,0.5169702841351269,-3.644074829734661e-07,0.5169702841351269,-1.185988174898579e-05
0.5177644013150581,-6.724197590278979e-06,0.5177644013150581,-4.076837836456667e-05,0.5177644013150581,-4.590283676634848e-06,0.5177644013150581,-1.1836972298115304e-05
0.5185585184949891,-4.631128777087502e-06,0.5185585184949891,-3.8399052353262326e-05,0.5185585184949891,-6.822300379147433e-06,0.5185585184949891,-1.4869157487338132e-05
0.5193526356749202,-5.518742219043822e-06,0.5193526356749202,-3.9502282428426805e-05,0.5193526356749202,-4.78952865807141e-06,0.5193526356749202,-1.5491339561442384e-05
0.5201467528548512,-3.723357535557627e-06,0.5201467528548512,-4.2840424021172425e-05,0.5201467528548512,-4.86763e-06,0.5201467528548512,-1.4702162006995427e-05
0.5209408700347823,-5.568127069493071e-06,0.5209408700347823,-4.27231169664606e-05,0.5209408700347823,-2.046251614699917e-06,0.5209408700347823,-1.4228403136875624e-05
0.5217349872147133,-5.914345849807656e-06,0.5217349872147133,-3.8182710489682456e-05,0.5217349872147133,1.4500836266338898e-06,0.5217349872147133,-1.2826455098845931e-05
0.5225291043946444,-4.551950406514544e-06,0.5225291043946444,-3.741079280183742e-05,0.5225291043946444,3.998349390228183e-06,0.5225291043946444,-1.2253e-05
0.5233232215745756,-4.689850347643547e-06,0.5233232215745756,-3.291337543537456e-05,0.5233232215745756,5.065095646550456e-06,0.5233232215745756,-1.100897482759635e-05
0.5241173387545066,-7.395372429143026e-06,0.5241173387545066,-2.361106191822246e-05,0.5241173387545066,5.647678336439291e-06,0.5241173387545066,-9.014394502632077e-06
0.5249114559344377,-5.28247325373588e-06,0.5249114559344377,-1.9381726148819127e-05,0.5249114559344377,4.86763e-06,0.5249114559344377,-9.754815517436938e-06
0.5257055731143687,-5.933414972566055e-06,0.5257055731143687,-1.3308593355233217e-05,0.5257055731143687,4.9662269774055694e-06,0.5257055731143687,-1.2844581864433417e-05
0.5264996902942998,-7.888240683447188e-06,0.5264996902942998,8.330359794158276e-07,0.5264996902942998,5.87427379118014e-06,0.5264996902942998,-1.5944584461335234e-05
0.5272938074742308,-1.0060033664831128e-05,0.5272938074742308,3.741716275448856e-06,0.5272938074742308,5.87472e-06,0.5272938074742308,-1.5334776609898605e-05
0.528087924654162,-1.0496694152243936e-05,0.528087924654162,-8.527653761127406e-06,0.528087924654162,4.583071228365905e-06,0.528087924654162,-1.4129364717414643e-05
0.528882041834093,-8.22461e-06,0.528882041834093,-2.528077821652751e-05,0.528882041834093,1.0969114944614722e-06,0.528882041834093,-1.568802943529051e-05
0.5296761590140241,-8.91466622858312e-06,0.5296761590140241,-4.120206569618424e-05,0.5296761590140241,1.883653879329088e-06,0.5296761590140241,-1.517731003426701e-05
0.5304702761939551,-6.488741358149146e-06,0.5304702761939551,-3.246936437887818e-05,0.5304702761939551,4.925008641850854e-06,0.5304702761939551,-1.2569572024417426e-05
0.5312643933738862,-6.061494678671965e-06,0.5312643933738862,-1.6201151360570192e-05,0.5312643933738862,6.3885090317013485e-06,0.5312643933738862,-1.35958e-05
0.5320585105538173,-6.90166560663125e-06,0.5320585105538173,-2.511880916302332e-05,0.5320585105538173,5.243020622091615e-06,0.5320585105538173,-1.2016528033156252e-05
0.5328526277337483,-5.213479257357059e-06,0.5328526277337483,-3.156615730165966e-05,0.5328526277337483,4.709929257357058e-06,0.5328526277337483,-9.686072636683926e-06
0.5336467449136795,-7.35466953255835e-06,0.5336467449136795,-3.10521e-05,0.5336467449136795,3.978743263488586e-06,0.5336467449136795,-1.1600539790465758e-05
0.5344408620936105,-8.20521730145146e-06,0.5344408620936105,-3.050982063932526e-05,0.5344408620936105,4.967605555080112e-06,0.5344408620936105,-1.1148937084936736e-05
0.5352349792735416,-7.632475059366559e-06,0.5352349792735416,-1.9320537376335648e-05,0.5352349792735416,2.834767320345625e-06,0.5352349792735416,-8.028762160998335e-06
0.5360290964534726,-6.21042e-06,0.5360290964534726,-7.346623410757465e-06,0.5360290964534726,2.873471847936632e-06,0.5360290964534726,-7.35531752645442e-06
0.5368232136334037,-5.97351947468217e-06,0.5368232136334037,-5.4879320055891946e-08,0.5368232136334037,1.4514144276102772e-06,0.5368232136334037,-9.80431052531783e-06
0.5376173308133347,-3.090244578686822e-06,0.5376173308133347,1.818542218445092e-06,0.5376173308133347,1.0268326371825877e-06,0.5376173308133347,-1.1798897122815872e-05
0.5384114479932659,-1.5797840953340303e-06,0.5384114479932659,-6.141007572488049e-06,0.5384114479932659,1.382372286002091e-06,0.5384114479932659,-1.1127652762672244e-05
0.539205565173197,-1.51064e-06,0.539205565173197,-1.3849044179456032e-05,0.539205565173197,-8.39246e-07,0.539205565173197,-8.669497959317987e-06
0.539999682353128,-3.5234570361519965e-06,0.539999682353128,-1.8964739933324976e-05,0.539999682353128,-1.5101823472017205e-06,0.539999682353128,-7.553334414222038e-06
0.5407937995330591,-8.202663752129184e-06,0.5407937995330591,-2.619456106142324e-05,0.5407937995330591,-3.070814942744178e-06,0.5407937995330591,-9.270260343534932e-06
0.5415879167129901,-9.291750900856842e-06,0.5415879167129901,-2.7462890969924028e-05,0.5415879167129901,-6.995105932958996e-06,0.5415879167129901,-9.666345225214211e-06
0.5423820338929212,-7.771884208124834e-06,0.5423820338929212,-1.85368997672345e-05,0.5423820338929212,-1.0754165223493376e-05,0.5423820338929212,-8.521301015368544e-06
0.5431761510728523,-5.363735983154268e-06,0.5431761510728523,-8.846452620748652e-06,0.5431761510728523,-6.807250514904647e-06,0.5431761510728523,-7.396567909959613e-06
0.5439702682527834,-5.006805198759272e-06,0.5439702682527834,-1.4855301790968297e-05,0.5439702682527834,-4.373638267080243e-06,0.5439702682527834,-7.414039516514274e-06
0.5447643854327144,-2.85344e-06,0.5447643854327144,-1.66762099995419e-05,0.5447643854327144,-4.710030473123437e-06,0.5447643854327144,-1.1619397870944534e-05
0.5455585026126455,-4.748522553471818e-06,0.5455585026126455,-1.9555461918684727e-05,0.5455585026126455,-2.3011474465281816e-06,0.5455585026126455,-1.39315e-05
0.5463526197925765,-6.507099761462682e-06,0.5463526197925765,-2.8911689103719923e-05,0.5463526197925765,1.6870398494568935e-06,0.5463526197925765,-1.272768761834029e-05
0.5471467369725076,-3.505910929800728e-06,0.5471467369725076,-4.252233771629289e-05,0.5471467369725076,2.6170249390503417e-06,0.5471467369725076,-9.212787408575512e-06
0.5479408541524387,-4.548255595071331e-06,0.5479408541524387,-5.1469728474341015e-05,0.5479408541524387,1.2137139310694708e-06,0.5479408541524387,-1.0929586965534737e-05
0.5487349713323698,-8.066086079055286e-06,0.5487349713323698,-5.3446304229082406e-05,0.5487349713323698,2.61565057688762e-06,0.5487349713323698,-1.047658942311238e-05
0.5495290885123009,-7.868872009170984e-06,0.5495290885123009,-4.245704663430984e-05,0.5495290885123009,3.3469636538503813e-06,0.5495290885123009,-1.1185770131923611e-05
0.5503232056922319,-7.158300148321321e-06,0.5503232056922319,-3.311297362330673e-05,0.5503232056922319,3.46561191239197e-06,0.5503232056922319,-1.3200880148321322e-05
0.551117322872163,-7.474273282516618e-06,0.551117322872163,-2.1104825973795145e-05,0.551117322872163,2.004233434966764e-06,0.551117322872163,-1.322062664125831e-05
0.551911440052094,-7.829803727794805e-06,0.551911440052094,-4.473467237817914e-06,0.551911440052094,1.0762428422721226e-06,0.551911440052094,-1.185818784736358e-05
0.5527055572320251,-4.473287954487551e-06,0.5527055572320251,2.0945616964829577e-05,0.5527055572320251,8.885399303749231e-07,0.5527055572320251,-1.403942011762817e-05
0.5534996744119562,-5.537622705069276e-06,0.5534996744119562,2.534646358273163e-05,0.5534996744119562,-1.670280786557645e-07,0.5534996744119562,-1.51064e-05
0.5542937915918873,-9.171187525991984e-06,0.5542937915918873,2.6650661296037434e-06,0.5542937915918873,-3.800010476710437e-06,0.5542937915918873,-1.6132801818654723e-05
0.5550879087718184,-1.1737142899347384e-05,0.5550879087718184,-1.893399956493865e-05,0.5550879087718184,-2.4222460364407968e-06,0.5550879087718184,-1.573010473376841e-05
0.5558820259517494,-1.2393683741911003e-05,0.5558820259517494,-3.29249483931423e-05,0.5558820259517494,9.562550577443425e-07,0.5558820259517494,-1.50166065032356e-05
0.5566761431316805,-9.530152971900618e-06,0.5566761431316805,-3.756837113781084e-05,0.5566761431316805,4.054420178132384e-06,0.5566761431316805,-1.6714044200044e-05
0.5574702603116115,-9.05430745363096e-06,0.5574702603116115,-4.43758355936196e-05,0.5574702603116115,6.54612e-06,0.5574702603116115,-1.82956e-05
0.5582643774915427,-6.023699154883986e-06,0.5582643774915427,-4.681097082183966e-05,0.5582643774915427,5.006344893181953e-06,0.5582643774915427,-1.5887429786363907e-05
0.5590584946714737,-3.762179754305196e-06,0.5590584946714737,-4.302206595873776e-05,0.5590584946714737,3.890315608987941e-06,0.5590584946714737,-1.2707842435951765e-05
0.5598526118514048,-2.497407087203752e-06,0.5598526118514048,-3.595968781757234e-05,0.5598526118514048,4.728619449605003e-06,0.5598526118514048,-1.20156447248025e-05
0.5606467290313358,-8.122949436505709e-06,0.5606467290313358,-1.4904102268920032e-05,0.5606467290313358,7.236421871329105e-06,0.5606467290313358,-1.2016596405077635e-05
0.5614408462112669,-1.0377625264528991e-05,0.5614408462112669,1.1480848624179986e-05,0.5614408462112669,7.21752e-06,0.5614408462112669,-1.2430493502949924e-05
0.5622349633911979,-9.9031e-06,0.5622349633911979,1.5988674325430198e-05,0.5622349633911979,7.730374637803412e-06,0.5622349633911979,-1.1819406585245808e-05
0.563029080571129,-8.580364730781128e-06,0.563029080571129,-5.611742923033786e-07,0.563029080571129,7.908969432080937e-06,0.563029080571129,-9.271814162862064e-06
0.5638231977510602,-9.66624524003002e-06,0.5638231977510602,-6.802023788580398e-06,0.5638231977510602,8.007338261935111e-06,0.5638231977510602,-8.737952392902665e-06
0.5646173149309912,-4.709455840773553e-06,0.5646173149309912,-7.985628180194044e-06,0.5646173149309912,7.967868183510697e-06,0.5646173149309912,-1.0752284809001596e-05
0.5654114321109223,-3.9787354929576674e-06,0.5654114321109223,-1.4622249440972184e-05,0.5654114321109223,5.341629656695471e-06,0.5654114321109223,-1.2539001373218118e-05
0.5662055492908533,-4.482640110817796e-06,0.5662055492908533,-2.401554431437929e-05,0.5662055492908533,6.111840221635593e-06,0.5662055492908533,-1.3694379778364408e-05
0.5669996664707844,-4.36408e-06,0.5669996664707844,-2.8029937065451485e-05,0.5669996664707844,5.87472e-06,0.5669996664707844,-1.5273338920535023e-05
0.5677937836507154,-2.696601779415915e-06,0.5677937836507154,-3.215797720257265e-05,0.5677937836507154,7.965944841794694e-06,0.5677937836507154,-1.44763226788905e-05
0.5685879008306466,-4.471866167088404e-06,0.5685879008306466,-3.1568776164191824e-05,0.5685879008306466,5.9948517712174e-06,0.5685879008306466,-1.3002154250632604e-05
0.5693820180105776,-3.368841087261044e-06,0.5693820180105776,-2.7558239411885783e-05,0.5693820180105776,5.7967261244693454e-06,0.5693820180105776,-1.449350208629446e-05
0.5701761351905087,-2.18204e-06,0.5701761351905087,-2.6213937340901502e-05,0.5701761351905087,3.547306245985468e-06,0.5701761351905087,-1.49386e-05
0.5709702523704397,-5.418908843904343e-06,0.5709702523704397,-2.7044555371349065e-05,0.5709702523704397,2.3594368256579945e-06,0.5709702523704397,-1.154341269736802e-05
0.5717643695503708,-5.282118322016034e-06,0.5717643695503708,-2.647049945302304e-05,0.5717643695503708,2.005617784484628e-06,0.5717643695503708,-1.3140218254112236e-05
0.5725584867303019,-6.802369368993494e-06,0.5725584867303019,-2.631391387290964e-05,0.5725584867303019,-2.6647440561317672e-06,0.5725584867303019,-1.49386e-05
0.573352603910233,-5.342359947050018e-06,0.573352603910233,-2.437743968502528e-05,0.573352603910233,-8.67728825580641e-06,0.573352603910233,-1.3221090749532224e-05
0.5741467210901641,-3.2884413919886984e-06,0.5741467210901641,-2.6430517704635898e-05,0.5741467210901641,-7.614745005303816e-06,0.5741467210901641,-1.248939212889496e-05
