X [s].2,L DELTOID ANTERIOR: EMG 3 [V],X [s].3,L BICEPS BRACHII: EMG 4 [V],X [s].4,L DELTOID POSTERIOR: EMG 5 [V],X [s].7,L DELTOID MEDIUS: EMG 8 [V]
0.0,-6.21042e-06,0.0,-2.56809e-05,0.0,-1.12459e-05,0.0,-8.89601e-06
0.000794117179931,3.1891302932724034e-06,0.000794117179931,-4.582277919988418e-05,0.000794117179931,-1.0910200346670317e-05,0.000794117179931,-1.0574498266658736e-05
0.0015882343598621,1.93025855557461e-05,0.0015882343598621,-6.126489032398442e-05,0.0015882343598621,-8.896024305496225e-06,0.0015882343598621,-1.2420786886918472e-05
0.0023823515397932,3.6926448505533055e-06,0.0023823515397932,-6.663620195256607e-05,0.0023823515397932,-1.1245898047240037e-05,0.0023823515397932,-1.5609995443560083e-05
0.0031764687197242,-1.4434970774658091e-05,0.0031764687197242,-6.764319837652037e-05,0.0031764687197242,-1.0238801623640854e-05,0.0031764687197242,-1.3260103788495327e-05
0.0039705858996553,-9.567435133224955e-06,0.0039705858996553,-5.807584940013773e-05,0.0039705858996553,-1.2252989599916653e-05,0.0039705858996553,-1.19173069333889e-05
0.0047647030795864,2.5176346831258098e-06,0.0047647030795864,-2.6352576456631352e-05,0.0047647030795864,-1.3931485372595844e-05,0.0047647030795864,-1.2588694149038338e-05
0.0055588202595174,-8.89601241353688e-06,0.0055588202595174,9.231713730013324e-06,0.0055588202595174,-1.762419978058726e-05,0.0055588202595174,-1.2924401535889184e-05
0.0063529374394485,-1.6281376186633048e-05,0.0063529374394485,2.064546319750622e-05,0.0063529374394485,-1.6952802164854472e-05,0.0063529374394485,-1.7624184846018696e-05
0.0071470546193796,-1.8295586352634944e-05,0.0071470546193796,1.0574568236825289e-05,0.0071470546193796,-1.7288497725439156e-05,0.0071470546193796,-1.661710682368253e-05
0.0079411717993107,-1.2253062400500089e-05,0.0079411717993107,-4.867470532778208e-06,0.0079411717993107,-2.0309768799749954e-05,0.0079411717993107,-1.4267224266861144e-05
0.0087352889792417,-4.196240356265791e-06,0.0087352889792417,-1.057449266432298e-05,0.0087352889792417,-2.03098e-05,0.0087352889792417,-1.96383930957971e-05
0.0095294061591728,-6.5461086345623855e-06,0.0095294061591728,-1.174985461750457e-06,0.0095294061591728,-1.6952816236408544e-05,0.0095294061591728,-1.896700324728171e-05
0.0103235233391039,-1.1581590133563549e-05,0.0103235233391039,1.4267624253828316e-05,0.0103235233391039,-1.3595661870183595e-05,0.0103235233391039,-1.4267180267127098e-05
0.0111176405190349,-1.1246311047294252e-05,0.0111176405190349,2.8701994476352875e-05,0.0111176405190349,-8.895907238686624e-06,0.0111176405190349,-1.3596005523647124e-05
0.011911757698966,-1.9302270875131884e-05,0.011911757698966,2.4674014562434057e-05,0.011911757698966,-6.881927280684404e-06,0.011911757698966,-1.7623985437565943e-05
0.0127058748788971,-2.433794070671025e-05,0.0127058748788971,6.882382843671878e-06,0.0127058748788971,-8.224567521262155e-06,0.0127058748788971,-1.6617131859290644e-05
0.0134999920588282,-2.3666706714145256e-05,0.0134999920588282,1.679161411625377e-07,0.0134999920588282,-8.22461e-06,0.0134999920588282,-1.4267223499508393e-05
0.0142941092387592,-1.3259877380688011e-05,0.0142941092387592,-1.3595960129186608e-05,0.0142941092387592,-9.567476395394648e-06,0.0142941092387592,-1.4938549226962184e-05
0.0150882264186903,5.874848419051637e-06,0.0150882264186903,-2.7359455834514903e-05,0.0150882264186903,-1.52743e-05,0.0150882264186903,-1.0574466499623702e-05
0.0158823435986214,9.734985837599982e-06,0.0158823435986214,-2.9037780798647746e-05,0.0158823435986214,-1.52743e-05,0.0158823435986214,-9.567481520101188e-06
0.0166764607785524,-2.852818230655642e-06,0.0166764607785524,-4.4143653873823305e-05,0.0166764607785524,-1.896681761360125e-05,0.0166764607785524,-1.0910133678167091e-05
0.0174705779584835,-1.3259811146495996e-05,0.0174705779584835,-4.3473018635781566e-05,0.0174705779584835,-2.0645453410546087e-05,0.0174705779584835,-1.5945560231638255e-05
0.0182646951384146,-1.829556917200208e-05,0.0182646951384146,-2.182053256008496e-05,0.0182646951384146,-2.0309802055199865e-05,0.0182646951384146,-1.8966981503201245e-05
0.0190588123183456,-1.426718177300568e-05,0.0190588123183456,3.1893378840397287e-06,0.0190588123183456,-1.963836875505365e-05,0.0190588123183456,-1.963841041498212e-05
0.0198529294982767,-1.30922e-05,0.0198529294982767,1.5945749874447293e-05,0.0198529294982767,-1.7624175062776354e-05,0.0198529294982767,-2.030982493722365e-05
0.0206470466782078,-1.30922e-05,0.0206470466782078,1.728840984575356e-05,0.0206470466782078,-1.695284507712322e-05,0.0206470466782078,-2.0981154922876785e-05
0.0214411638581389,-1.0574614588041402e-05,0.0214411638581389,1.1917544459343044e-05,0.0214411638581389,-1.762416944258212e-05,0.0214411638581389,-1.863140695096258e-05
0.0222352810380699,-9.567434047815271e-06,0.0222352810380699,1.5609911823801796e-05,0.0222352810380699,-1.9638351903891888e-05,0.0222352810380699,-1.8463404009202936e-05
0.023029398218001,-8.224613013308388e-06,0.023029398218001,2.4002381167046973e-05,0.023029398218001,-1.6281407533270973e-05,0.023029398218001,-1.3595810923130706e-05
0.0238235153979321,-5.538990943817064e-06,0.0238235153979321,1.4938287551699931e-05,0.0238235153979321,-1.2924380471908531e-05,0.0238235153979321,-9.567357925283325e-06
0.0246176325778631,-3.524761148806871e-06,0.0246176325778631,-1.175449500223825e-06,0.0246176325778631,-1.1917182952684543e-05,0.0246176325778631,-6.881682297203545e-06
0.0254117497577942,-1.846446183631216e-06,0.0254117497577942,-1.3595014238978114e-05,0.0254117497577942,-9.064040512615898e-06,0.0254117497577942,-3.5250423678950463e-06
0.0262058669377253,-3.692603127817382e-06,0.0262058669377253,-3.642234957930353e-05,0.0262058669377253,-9.231703011581912e-06,0.0262058669377253,-1.8464098837645304e-06
0.0269999841176564,-1.191713550404128e-05,0.0269999841176564,-5.3879250866446815e-05,0.0269999841176564,-9.903086571909495e-06,0.0269999841176564,-2.8534198575642366e-06
0.0277941012975874,-1.1749400822900202e-05,0.0277941012975874,-6.059361042236768e-05,0.0277941012975874,-9.903102742728337e-06,0.0277941012975874,-8.224618228168665e-06
0.0285882184775185,-1.2252996093710194e-05,0.0285882184775185,-6.697187656691429e-05,0.0285882184775185,-1.1581576569240844e-05,0.0285882184775185,-1.3260076569240845e-05
0.0293823356574496,-1.2085113602510967e-05,0.0293823356574496,-6.596478159886269e-05,0.0293823356574496,-1.057458159076114e-05,0.0293823356574496,-1.2253081590761138e-05
0.0301764528373806,-9.90322959178359e-06,0.0301764528373806,-5.723711837307349e-05,0.0301764528373806,-1.1749330221179405e-05,0.0301764528373806,-1.2253e-05
0.0309705700173117,-8.560360699476078e-06,0.0309705700173117,-4.31378323446876e-05,0.0309705700173117,-1.493847958595975e-05,0.0309705700173117,-1.2924374650073176e-05
0.0317646871972428,-7.553236236656243e-06,0.0317646871972428,-3.172368401726462e-05,0.0317646871972428,-1.5609989175455023e-05,0.0317646871972428,-1.3092197294669872e-05
0.0325588043771738,-4.8676235235354905e-06,0.0325588043771738,-2.030977409414196e-05,0.0325588043771738,-1.6281409252092154e-05,0.0325588043771738,-1.561001572828106e-05
0.0333529215571049,-3.692566101073444e-06,0.0333529215571049,-1.5609817761033503e-05,0.0333529215571049,-1.7959863552152416e-05,0.0333529215571049,-1.8463450117147588e-05
0.034147038737036,5.032243115528134e-07,0.034147038737036,-8.896527903459374e-06,0.034147038737036,-1.661720358084615e-05,0.034147038737036,-2.0309657572479644e-05
0.0349411559169671,3.3570731789078293e-07,0.0349411559169671,2.5171063862024206e-06,0.0349411559169671,-1.4938693178907828e-05,0.0349411559169671,-1.7960030450470962e-05
0.0357352730968981,4.19609921006739e-06,0.0357352730968981,1.46024905700919e-05,0.0357352730968981,-1.4602911373090646e-05,0.0357352730968981,-1.6784939807511195e-05
0.0365293902768292,7.217483006524935e-06,0.0365293902768292,1.9806136289416503e-05,0.0365293902768292,-1.225302877279806e-05,0.0365293902768292,-1.896697328178959e-05
0.0373235074567603,8.560265868111089e-06,0.0373235074567603,1.6281283365507527e-05,0.0373235074567603,-1.2588759893532688e-05,0.0373235074567603,-2.0309825217390533e-05
0.0381176246366913,3.860467518285788e-06,0.0381176246366913,3.860238418460203e-06,0.0381176246366913,-1.8967e-05,0.0381176246366913,-2.299525834841913e-05
0.0389117418166224,1.8464875602835811e-06,0.0389117418166224,-5.538341384854886e-06,0.0389117418166224,-1.8967e-05,0.0389117418166224,-2.1652698366684755e-05
0.0397058589965535,1.0071433342556565e-06,0.0397058589965535,-1.4266749319920174e-05,0.0397058589965535,-1.527449067299683e-05,0.0397058589965535,-1.7120834010350597e-05
0.0404999761764846,-2.853324181294352e-06,0.0404999761764846,-2.568055758159204e-05,0.0404999761764846,-1.1581710783396712e-05,0.0404999761764846,-1.4938665461416208e-05
0.0412940933564156,-4.531915957448861e-06,0.0412940933564156,-2.870217472325736e-05,0.0412940933564156,-1.023881123410784e-05,0.0412940933564156,-1.7288480340311276e-05
0.0420882105363467,1.7288437649556275e-05,0.0420882105363467,-2.970931781441249e-05,0.0420882105363467,-1.2252937649821607e-05,0.0420882105363467,-1.5274237649556277e-05
0.0428823277162778,1.2589127749984312e-05,0.0428823277162778,-3.105197778571877e-05,0.0428823277162778,-7.553647748164022e-06,0.0428823277162778,-1.0574927749984312e-05
0.0436764448962088,-5.537772089601557e-06,0.0436764448962088,-3.457665540883649e-05,0.0436764448962088,-4.532139651848727e-06,0.0436764448962088,-6.882076240608732e-06
0.0444705620761399,-1.1077835470450244e-05,0.0444705620761399,-3.508047594955809e-05,0.0444705620761399,-4.53193e-06,0.0444705620761399,-5.539094127666579e-06
0.045264679256071,-1.4267116692527514e-05,0.045264679256071,-3.323424823009202e-05,0.045264679256071,-9.231587229690808e-06,0.045264679256071,-8.224539845761512e-06
0.046058796436002,-1.6281390960074833e-05,0.046058796436002,-2.7023727873327e-05,0.046058796436002,-1.1917287946811326e-05,0.046058796436002,-8.896006986691611e-06
0.0468529136159331,-1.728848273406411e-05,0.0468529136159331,-1.8966775543176308e-05,0.0468529136159331,-9.567456042324264e-06,0.0468529136159331,-1.4938579855550916e-05
0.0476470307958642,-1.6281487755584395e-05,0.0476470307958642,-5.875860820854391e-06,0.0476470307958642,-1.2252765985979647e-05,0.0476470307958642,-1.3763702385871972e-05
0.0484411479757953,-1.4267331957125166e-05,0.0484411479757953,6.880984275471414e-06,0.0484411479757953,-1.3092145021140183e-05,0.0484411479757953,-7.8892948710176e-06
0.0492352651557263,-8.560560412336878e-06,0.0492352651557263,9.567292159132594e-06,0.0492352651557263,-1.6952630600928398e-05,0.0492352651557263,-1.0910067428969318e-05
0.0500293823356574,-4.532019609223365e-06,0.0500293823356574,6.881879739556391e-06,0.0500293823356574,-1.6617107467472354e-05,0.0500293823356574,-1.4267125325276452e-05
0.0508234995155885,5.03544928291945e-07,0.0508234995155885,2.182042866927843e-06,0.0508234995155885,-1.4938601023907158e-05,0.0508234995155885,-8.56031348127824e-06
0.0516176166955195,1.8463541140416192e-06,0.0516176166955195,8.393941966802163e-07,0.0516176166955195,-1.59457e-05,0.0516176166955195,-8.89605939893545e-06
0.0524117338754506,2.5176840996947505e-06,0.0524117338754506,7.88832304979222e-06,0.0524117338754506,-1.59457e-05,0.0524117338754506,-1.124570434976422e-05
0.0532058510553817,-5.033617819067652e-07,0.0532058510553817,1.527384479902492e-05,0.0532058510553817,-1.4267303454907143e-05,0.0532058510553817,-1.0238862072944286e-05
0.0539999682353128,-6.881564863600356e-06,0.0539999682353128,1.1749540999050383e-05,0.0539999682353128,-1.393151342829051e-05,0.0539999682353128,-1.4267038860513896e-05
0.0547940854152438,-1.0238738344371468e-05,0.0547940854152438,3.860674890120958e-06,0.0547940854152438,-1.2924418496798758e-05,0.0547940854152438,-1.6281363006402483e-05
0.0555882025951749,-1.695284168389469e-05,0.0555882025951749,-3.189152066419804e-06,0.0555882025951749,-1.3595804387812783e-05,0.0555882025951749,-1.493860877562557e-05
0.056382319775106,-2.9708011421732413e-05,0.056382319775106,-6.881446989597683e-06,0.056382319775106,-1.493846435911906e-05,0.056382319775106,-1.762392871823812e-05
0.057176436955037,-4.5821520721559046e-05,0.057176436955037,-1.0406420153722596e-05,0.057176436955037,-1.7623986785603314e-05,0.057176436955037,-1.4938813214396687e-05
0.0579705541349681,-5.320777343960942e-05,0.0579705541349681,-8.2247360315166e-06,0.0579705541349681,-1.6281477556434653e-05,0.0579705541349681,-1.8966767330696044e-05
0.0587646713148992,-4.196270623318836e-05,0.0587646713148992,-3.1893218951825064e-06,0.0587646713148992,-1.4938648505670984e-05,0.0587646713148992,-1.8967e-05
0.0595587884948302,2.098028805484274e-05,0.0595587884948302,8.391876354809594e-07,0.0595587884948302,-1.6281380545092707e-05,0.0595587884948302,-2.047757811395371e-05
0.0603529056747613,8.442789777001246e-05,0.0603529056747613,3.18914e-06,0.0603529056747613,-1.795989280401389e-05,0.0603529056747613,-2.366668560874231e-05
0.0611470228546924,4.2134308653008574e-05,0.0611470228546924,3.18914e-06,0.0611470228546924,-1.6952897825534187e-05,0.0611470228546924,-2.1652795641354784e-05
0.0619411400346235,1.3262280086155425e-05,0.0619411400346235,4.196153950974667e-06,0.0619411400346235,-1.896684790043906e-05,0.0619411400346235,-1.997422674963412e-05
0.0627352572145545,1.7288282953169197e-05,0.0627352572145545,-1.676138670647594e-07,0.0627352572145545,-1.8967e-05,0.0627352572145545,-1.89670542617077e-05
0.0635293743944856,1.963832422818516e-05,0.0635293743944856,-8.895728563088132e-06,0.0635293743944856,-1.6952864947269864e-05,0.0635293743944856,-1.8631310824544974e-05
0.0643234915744167,8.56042754107789e-06,0.0643234915744167,-1.4267143010441137e-05,0.0643234915744167,-1.4938621371124362e-05,0.0643234915744167,-1.628142493297842e-05
0.0651176087543477,-5.036275576652708e-07,0.0651176087543477,-1.8967048103719148e-05,0.0651176087543477,-1.6281394448892537e-05,0.0651176087543477,-1.7624229602967037e-05
0.0659117259342788,-7.720396906356242e-06,0.0659117259342788,-2.333059302089258e-05,0.0659117259342788,-1.577784696486675e-05,0.0659117259342788,-2.030954954557954e-05
0.0667058431142099,-1.258835130464892e-05,0.0667058431142099,-2.853402725158037e-05,0.0667058431142099,-1.2253252500985794e-05,0.0667058431142099,-1.5946012624702708e-05
0.067499960294141,-1.9134472687918877e-05,0.067499960294141,-3.2394706970823966e-05,0.067499960294141,-5.539365705762718e-06,0.067499960294141,-8.224996062852151e-06
0.068294077474072,-2.467364287732679e-05,0.068294077474072,-3.440904286396672e-05,0.068294077474072,-4.196268090688858e-06,0.068294077474072,-7.888919522672216e-06
0.0690881946540031,-2.9709266100280536e-05,0.0690881946540031,-3.44091e-05,0.0690881946540031,-8.895978360396477e-06,0.0690881946540031,-7.553222259913976e-06
0.0698823118339342,-2.97093e-05,0.0698823118339342,-3.340211180061049e-05,0.0698823118339342,-1.1245639133018989e-05,0.0698823118339342,-7.888872734239963e-06
0.0706764290138652,-2.3667240159699865e-05,0.0706764290138652,-3.172365004436107e-05,0.0706764290138652,-1.1581569991127785e-05,0.0706764290138652,-6.881910025722724e-06
0.0714705461937963,-2.1149170592971814e-05,0.0714705461937963,-2.5681309431263253e-05,0.0714705461937963,-1.1917277253818709e-05,0.0714705461937963,-7.553174507637416e-06
0.0722646633737274,-1.5610255475285032e-05,0.0722646633737274,-2.43381619339615e-05,0.0722646633737274,-1.0910246450471124e-05,0.0722646633737274,-8.22457903348048e-06
0.0730587805536585,-4.867893064847613e-06,0.0730587805536585,-2.3331024662398335e-05,0.0730587805536585,-1.09102e-05,0.0730587805536585,-8.895993558401109e-06
0.0738528977335895,1.913473149558267e-05,0.0738528977335895,-2.433809712567441e-05,0.0738528977335895,-1.0238801916217055e-05,0.0738528977335895,-1.1581592335160308e-05
0.0746470149135206,2.3330550440840215e-05,0.0746470149135206,-2.836606841806413e-05,0.0746470149135206,-1.1581456139354711e-05,0.0746470149135206,-1.695222455741885e-05
0.0754411320934517,5.708377107209558e-06,0.0754411320934517,-2.652035788422129e-05,0.0754411320934517,-1.2924285172002191e-05,0.0754411320934517,-2.0477298580781448e-05
0.0762352492733827,-3.5242402847094232e-06,0.0762352492733827,-1.527501838114175e-05,0.0762352492733827,-1.4938471334148826e-05,0.0762352492733827,-2.1316846386034708e-05
0.0770293664533138,-5.538944910294364e-06,0.0770293664533138,-8.224907813547277e-06,0.0770293664533138,-1.2924485089705636e-05,0.0770293664533138,-1.7624355997793665e-05
0.0778234836332449,-1.1917168541011222e-05,0.0778234836332449,-1.0406655026152103e-05,0.0778234836332449,-1.1917320756780069e-05,0.0778234836332449,-1.7959893081073313e-05
0.078617600813176,-2.0645501031162867e-05,0.078617600813176,-1.5777804984005047e-05,0.078617600813176,-1.0910198968837133e-05,0.078617600813176,-1.2252995875358772e-05
0.079411717993107,-2.1652496009642558e-05,0.079411717993107,-2.0644997374776156e-05,0.079411717993107,-9.903203990357446e-06,0.079411717993107,-8.225025960397208e-06
0.0802058351730381,-1.56104932922803e-05,0.0802058351730381,-2.165251778461995e-05,0.0802058351730381,-1.292415335385985e-05,0.0802058351730381,-7.721111106873667e-06
0.0809999523529692,-2.0980877721027745e-05,0.0809999523529692,-1.5274682706279557e-05,0.0809999523529692,-1.2253040284871533e-05,0.0809999523529692,-7.72107e-06
0.0817940695329002,-1.4267457594896746e-05,0.0817940695329002,-1.023899319617256e-05,0.0817940695329002,-1.359574848102065e-05,0.0817940695329002,-8.224590680766412e-06
0.0825881867128313,-6.881943574851601e-06,0.0825881867128313,-5.539108638252914e-06,0.0825881867128313,-1.560996629767648e-05,0.0825881867128313,-1.091015506373596e-05
0.0833823038927624,-4.196554986950624e-06,0.0833823038927624,4.530711299237687e-06,0.0833823038927624,-1.963791251775889e-05,0.0833823038927624,-1.4938112517758892e-05
0.0841764210726934,-2.182240194675138e-06,0.0841764210726934,1.2252232586250368e-05,0.0841764210726934,-1.695306692755875e-05,0.0841764210726934,-1.6281266536220628e-05
0.0849705382526245,1.174678969016008e-06,0.0849705382526245,1.0574630516269572e-05,0.0849705382526245,-1.678491305551484e-05,0.0849705382526245,-1.561005220650783e-05
0.0857646554325556,-1.6777363836536535e-07,0.0857646554325556,1.325994927549602e-05,0.0857646554325556,-1.8966877533534358e-05,0.0857646554325556,-1.5777790582524662e-05
0.0865587726124866,2.181958955274813e-06,0.0865587726124866,1.930249159830255e-05,0.0865587726124866,-2.0477547901300075e-05,0.0865587726124866,-1.4938628942955764e-05
0.0873528897924177,4.867595478679283e-06,0.0873528897924177,1.93027e-05,0.0873528897924177,-1.795993236321597e-05,0.0873528897924177,-1.4267208630362316e-05
0.0881470069723488,4.196308643622504e-06,0.0881470069723488,1.3932129148980032e-05,0.0881470069723488,-1.8966882034566243e-05,0.0881470069723488,-1.762380678188748e-05
0.0889411241522799,-8.387650412112187e-07,0.0889411241522799,8.392989056234091e-06,0.0889411241522799,-1.7624328256288297e-05,0.0889411241522799,-1.6952864128144152e-05
0.0897352413322109,-1.1916481557820264e-05,0.0897352413322109,4.53221521440572e-06,0.0897352413322109,-1.4267448013811577e-05,0.0897352413322109,-1.3596048013811576e-05
0.090529358512142,-1.4267077229168357e-05,0.090529358512142,-6.881223687144276e-06,0.090529358512142,-1.6952659690478123e-05,0.090529358512142,-1.628125969047812e-05
0.0913234756920731,-1.0910302759993116e-05,0.0913234756920731,-2.534463482371113e-05,0.0913234756920731,-1.5945730827997936e-05,0.0913234756920731,-1.426726165599587e-05
0.0921175928720041,-9.903109039925169e-06,0.0921175928720041,-3.407332165398189e-05,0.0921175928720041,-1.0910245199625834e-05,0.0921175928720041,-1.6281381920149666e-05
0.0929117100519352,-6.546500198758992e-06,0.0929117100519352,-3.038111822112653e-05,0.0929117100519352,-3.5256664388553724e-06,0.0929117100519352,-1.7288385939692762e-05
0.0937058272318663,-2.1824399067583344e-06,0.0937058272318663,-2.031072285681576e-05,0.0937058272318663,-1.510824572279511e-06,0.0937058272318663,-8.561109816265749e-06
0.0944999444117974,-4.867442004632904e-06,0.0944999444117974,-1.091085798623489e-05,0.0944999444117974,-3.5246890036496822e-06,0.0944999444117974,-9.231663000983225e-06
0.0952940615917284,-7.553090105943894e-06,0.0952940615917284,-2.0645029132293315e-05,0.0952940615917284,-8.560066448705263e-06,0.0952940615917284,-1.1749278226770984e-05
0.0960881787716595,-3.5249376892512627e-06,0.0960881787716595,-6.059253208428717e-05,0.0960881787716595,-1.023875512963458e-05,0.0960881787716595,-1.3931441666840802e-05
0.0968822959515906,1.5943149159309432e-05,0.0968822959515906,-0.0001089276669079,0.0968822959515906,-1.2252736118979866e-05,0.0968822959515906,-1.9805430353575127e-05
0.0976764131315216,1.5610036723017467e-05,0.0976764131315216,-9.819297511468045e-05,0.0976764131315216,-1.560963276982534e-05,0.0976764131315216,-2.3162832769825337e-05
0.0984705303114527,-9.56520048340703e-06,0.0984705303114527,-5.052678334881839e-05,0.0984705303114527,-1.930237593640796e-05,0.0984705303114527,-2.4673667432918424e-05
0.0992646474913838,-2.4337123311306025e-05,0.0992646474913838,-7.556061282812992e-06,0.0992646474913838,-1.829566659290688e-05,0.0992646474913838,-1.8631699550828928e-05
0.1000587646713148,-2.903650758182768e-05,0.1000587646713148,2.130834659778609e-05,0.1000587646713148,-1.3261591876613197e-05,0.1000587646713148,-1.1751438912851623e-05
0.1008528818512459,-3.105180028309778e-05,0.1008528818512459,4.88400038987633e-05,0.1008528818512459,-1.1749624795116767e-05,0.1008528818512459,-9.567734684382628e-06
0.101646999031177,-3.4409095903855545e-05,0.101646999031177,6.932167501364084e-05,0.101646999031177,-1.2924398566288431e-05,0.101646999031177,-7.217522867288917e-06
0.1024411162111081,-4.246639132124531e-05,0.1024411162111081,7.603506126335409e-05,0.1024411162111081,-1.493889480152888e-05,0.1024411162111081,-4.867826532888971e-06
0.1032352333910391,-4.5823194707163e-05,0.1032352333910391,7.166785031134582e-05,0.1032352333910391,-1.6952405292837e-05,0.1032352333910391,-6.2112587497819456e-06
0.1040293505709702,-4.7155829829592416e-05,0.1040293505709702,5.890681016512341e-05,0.1040293505709702,-1.5609111798681406e-05,0.1040293505709702,-9.062897786314552e-06
0.1048234677509013,-2.5024333414157665e-05,0.1048234677509013,4.01285859170202e-05,0.1048234677509013,-1.3597148498282476e-05,0.1048234677509013,-6.883280866444392e-06
0.1056175849308323,5.685808075371866e-05,0.1056175849308323,1.662938421771156e-05,0.1056175849308323,-1.1247128426998729e-05,0.1056175849308323,-5.539731953057416e-06
0.1064117021107634,9.414942002811508e-05,0.1064117021107634,-3.271208595884371e-05,0.1064117021107634,-1.3259344321788109e-05,0.1064117021107634,-1.2250481083882286e-05
0.1072058192906945,4.264542782909039e-05,0.1072058192906945,-7.736833842443398e-05,0.1072058192906945,-1.5609465177837645e-05,0.1072058192906945,-1.3931117984169747e-05
0.1079999364706256,2.8703314684482946e-05,0.1079999364706256,-8.845571362120586e-05,0.1079999364706256,-1.6281346280073082e-05,0.1079999364706256,-1.4602846280073083e-05
0.1087940536505566,4.985017926099599e-05,0.1087940536505566,-8.241263901240898e-05,0.1087940536505566,-1.4434943295280663e-05,0.1087940536505566,-1.5777856711476332e-05
0.1095881708304877,3.473988862347742e-05,0.1095881708304877,-6.226812756721992e-05,0.1095881708304877,-1.3595944452883463e-05,0.1095881708304877,-1.6616305509140953e-05
0.1103822880104188,1.1910176504825397e-05,0.1103822880104188,-4.380650814640207e-05,0.1103822880104188,-1.426677378810817e-05,0.1103822880104188,-1.2923182307184038e-05
0.1111764051903498,-7.725775167180793e-06,0.1111764051903498,-3.776242143226379e-05,0.1111764051903498,-1.309057460057256e-05,0.1111764051903498,-9.565699031506091e-06
0.1119705223702809,-1.6947253649551855e-05,0.1119705223702809,-3.0552936216977696e-05,0.1119705223702809,-9.90501598608432e-06,0.1119705223702809,-6.2124368530698935e-06
0.112764639550212,-2.232146169791411e-05,0.112764639550212,-2.366982415541041e-05,0.112764639550212,-1.3258576032823384e-05,0.112764639550212,-4.868239582330977e-06
0.1135587567301431,-2.702226005078911e-05,0.1135587567301431,-2.6015880025394557e-05,0.1135587567301431,-1.225330856054519e-05,0.1135587567301431,-6.210008589003598e-06
0.1143528739100741,-2.970887351750023e-05,0.1143528739100741,-3.2561760440966634e-05,0.1143528739100741,-1.0574766551562356e-05,0.1143528739100741,-3.1896197896361747e-06
0.1151469910900052,-2.9205805650103734e-05,0.1151469910900052,-3.306629434989626e-05,0.1151469910900052,-1.158158869867036e-05,0.1151469910900052,-9.735186541694002e-06
0.1159411082699363,-2.568062534344369e-05,0.1159411082699363,-1.8964894303825743e-05,0.1159411082699363,-1.158192043264903e-05,0.1159411082699363,-1.124658664139078e-05
0.1167352254498673,-2.3666890638590626e-05,0.1167352254498673,-3.520969574218749e-06,0.1167352254498673,-1.3930642126342204e-05,0.1167352254498673,-1.6282162554362485e-05
0.1175293426297984,-2.433766595915721e-05,0.1175293426297984,1.0076136128423985e-05,0.1175293426297984,-1.091077872112372e-05,0.1175293426297984,-1.8966131918314415e-05
0.1183234598097295,-2.3331684308957743e-05,0.1183234598097295,2.1980202377974245e-05,0.1183234598097295,-1.225208758805634e-05,0.1183234598097295,-1.6954168617915492e-05
0.1191175769896605,-1.896932495859091e-05,0.1191175769896605,2.165277884706668e-05,0.1191175769896605,-1.4937169223466602e-05,0.1191175769896605,-1.628175769413335e-05
0.1199116941695916,-1.628243443091266e-05,0.1199116941695916,1.8632463734776745e-05,0.1199116941695916,-1.628088278454367e-05,0.1199116941695916,-2.2489407897773315e-05
0.1207058113495227,-1.561015952132297e-05,0.1207058113495227,1.9973780957354063e-05,0.1207058113495227,-1.695264047867703e-05,0.1207058113495227,-2.635138276427268e-05
0.1214999285294538,-1.4267320869835568e-05,0.1214999285294538,1.5610392826965602e-05,0.1214999285294538,-1.5945790652376677e-05,0.1214999285294538,-2.4673951087294464e-05
0.1222940457093848,-1.3595742022768882e-05,0.1222940457093848,2.5171409048235483e-06,0.1222940457093848,-1.896686471979406e-05,0.1222940457093848,-2.1652677297217973e-05
0.1230881628893159,-1.2588562262107404e-05,0.1230881628893159,-7.88952981846518e-06,0.1230881628893159,-1.6616893393161108e-05,0.1230881628893159,-2.299488680683724e-05
0.123882280069247,-1.191576064911907e-05,0.123882280069247,-1.091114729719112e-05,0.123882280069247,-1.5609763175702222e-05,0.123882280069247,-2.098037111495777e-05
0.124676397249178,-7.555065174962154e-06,0.124676397249178,-1.3596974208608265e-05,0.124676397249178,-1.4937425791391736e-05,0.124676397249178,-1.8629203173929585e-05
0.1254705144291091,-1.1243644581236166e-05,0.1254705144291091,-1.5944264725740344e-05,0.1254705144291091,-1.2590135274259654e-05,0.1254705144291091,-1.4437563020288432e-05
0.1262646316090402,-1.1581444245786907e-05,0.1262646316090402,-2.1649952178377474e-05,0.1262646316090402,-1.2924244245786907e-05,0.1262646316090402,-1.3260645116547393e-05
0.1270587487889713,-8.896859684920113e-06,0.1270587487889713,-3.037793854536573e-05,0.1270587487889713,-1.3595587577979003e-05,0.1270587487889713,-1.460247515595801e-05
0.1278528659689023,-7.553446669543572e-06,0.1278528659689023,-3.608663664726561e-05,0.1278528659689023,-1.560965999315257e-05,0.1278528659689023,-1.6281116660960472e-05
0.1286469831488334,-3.5249154950515266e-06,0.1286469831488334,-3.9108835878552185e-05,0.1286469831488334,-1.6281385750789373e-05,0.1286469831488334,-1.7624171501578746e-05
0.1294411003287645,-8.389914901852766e-07,0.1294411003287645,-4.078714548841626e-05,0.1294411003287645,-1.628135758140271e-05,0.1294411003287645,-1.7624412092986453e-05
0.1302352175086955,1.175123923599766e-06,0.1302352175086955,-3.877200449660152e-05,0.1302352175086955,-1.5944320573001757e-05,0.1302352175086955,-1.930205626740082e-05
0.1310293346886266,1.8468346445306648e-06,0.1310293346886266,-3.440493087429115e-05,0.1310293346886266,-1.0909917345982476e-05,0.1310293346886266,-1.6951952037947434e-05
0.1318234518685577,3.020479903096705e-06,0.1318234518685577,-2.4512827925139808e-05,0.1318234518685577,-1.0239262912516168e-05,0.1318234518685577,-1.4939988737548504e-05
0.1326175690484888,1.1759421250916287e-06,0.1326175690484888,-1.7627935166385338e-05,0.1326175690484888,-1.1245353386313655e-05,0.1326175690484888,-1.1247904250183258e-05
0.1334116862284198,8.393786589884406e-07,0.1334116862284198,-1.0241718549909227e-05,0.1334116862284198,-1.2923736693202448e-05,0.1334116862284198,-1.2252602015921467e-05
0.1342058034083509,2.181707528857906e-06,0.1342058034083509,-6.2114174129310895e-06,0.1342058034083509,-1.174969092592904e-05,0.1342058034083509,-1.560916881843082e-05
0.134999920588282,-8.389438268112713e-07,0.134999920588282,-4.8677642988171565e-06,0.134999920588282,-9.567628231202232e-06,0.134999920588282,-1.4267334299817304e-05
0.135794037768213,-2.182167745510552e-06,0.135794037768213,-1.6759350902646298e-07,0.135794037768213,-1.0238831936496554e-05,0.135794037768213,-1.29244718547389e-05
0.1365881549481441,-4.867367954196521e-06,0.1365881549481441,5.202281820884206e-06,0.1365881549481441,-1.091013448854913e-05,0.1365881549481441,-1.4434705208228525e-05
0.1373822721280752,-3.5243122574867265e-06,0.1373822721280752,-1.6974739184293805e-07,0.1373822721280752,-1.0574960218613847e-05,0.1373822721280752,-1.292301934758576e-05
0.1381763893080062,-2.0149297537693103e-06,0.1381763893080062,-5.7074453678515406e-06,0.1381763893080062,-1.1917546561737309e-05,0.1381763893080062,-8.895352441638052e-06
0.1389705064879373,-3.5238922401731607e-06,0.1389705064879373,-6.881090626417581e-06,0.1389705064879373,-1.2420487442360314e-05,0.1389705064879373,-7.554053563600779e-06
0.1397646236678684,-2.853758218677347e-06,0.1397646236678684,-6.88182e-06,0.1397646236678684,-1.5272947526779056e-05,0.1397646236678684,-5.875515558542618e-06
0.1405587408477994,-2.85344e-06,0.1405587408477994,-7.888581297746088e-06,0.1405587408477994,-1.0911624390577103e-05,0.1405587408477994,-1.0908556478938794e-05
0.1413528580277305,-4.699449862619699e-06,0.1413528580277305,-5.035990211502255e-06,0.1413528580277305,-1.158147994939332e-05,0.1413528580277305,-1.09102e-05
0.1421469752076616,-6.881751866657467e-06,0.1421469752076616,-2.182129097544003e-06,0.1421469752076616,-1.2588668553697797e-05,0.1421469752076616,-1.158157903579853e-05
0.1429410923875927,-4.86763e-06,0.1429410923875927,-8.39402243709238e-07,0.1429410923875927,-1.2924517183305536e-05,0.1429410923875927,-1.3595487511185236e-05
0.1437352095675237,-4.866921168203797e-06,0.1437352095675237,-2.1827488317962034e-06,0.1437352095675237,-1.3930968374173306e-05,0.1437352095675237,-1.0910377208608896e-05
0.1445293267474548,-2.1814881075196496e-06,0.1445293267474548,-4.870389462401751e-06,0.1445293267474548,-1.1917162026263408e-05,0.1445293267474548,-1.158297973736592e-05
0.1453234439273859,-8.401852339242389e-07,0.1453234439273859,-1.1576903830378805e-05,0.1453234439273859,-1.1581834809530251e-05,0.1453234439273859,-1.4936251904697469e-05
0.146117561107317,3.350485361151922e-07,0.146117561107317,-2.433104869708977e-05,0.146117561107317,-1.2252628875884928e-05,0.146117561107317,-1.6280657751769853e-05
0.146911678287248,1.174599956104078e-06,0.146911678287248,-3.608283934007696e-05,0.146911678287248,-1.3595255924580222e-05,0.146911678287248,-1.9301475830305503e-05
0.1477057954671791,-8.387271496922597e-07,0.1477057954671791,-3.9108121719128834e-05,0.1477057954671791,-1.5106010872444317e-05,0.1477057954671791,-1.5610951232175874e-05
0.1484999126471102,-4.53152374481303e-06,0.1484999126471102,-2.6353703433090426e-05,0.1484999126471102,-1.3931629258073309e-05,0.1484999126471102,-1.2924695459597985e-05
0.1492940298270412,-8.560297389247169e-06,0.1492940298270412,-6.881252518752136e-06,0.1492940298270412,-1.7288487389247167e-05,0.1492940298270412,-1.2924551329033986e-05
0.1500881470069723,-8.224641076977719e-06,0.1500881470069723,8.224796461866309e-06,0.1500881470069723,-1.6953048615821745e-05,0.1500881470069723,-1.6952240614401077e-05
0.1508822641869034,-8.392627545737043e-06,0.1508822641869034,9.228359099899233e-06,0.1508822641869034,-1.829504151420986e-05,0.1508822641869034,-1.3931164908525916e-05
0.1516763813668344,-8.89536585462684e-06,0.1516763813668344,-8.431108837519217e-07,0.1516763813668344,-1.6615972737202103e-05,0.1516763813668344,-1.29244e-05
0.1524704985467655,-7.554066976589519e-06,0.1524704985467655,-8.890928125324669e-06,0.1524704985467655,-1.426868222006994e-05,0.1524704985467655,-1.29244e-05
0.1532646157266966,-4.868929748792038e-06,0.1532646157266966,-9.902612597227808e-06,0.1532646157266966,-1.695150024636825e-05,0.1532646157266966,-1.2588862469203967e-05
0.1540587329066277,-5.538804147997271e-06,0.1540587329066277,-1.3594557813984984e-05,0.1540587329066277,-1.930190951799045e-05,0.1540587329066277,-1.4266635369993174e-05
0.1548528500865587,-7.217203087894272e-06,0.1548528500865587,-1.35958e-05,0.1548528500865587,-1.7624516913993806e-05,0.1548528500865587,-1.577751478684597e-05
0.1556469672664898,-1.258847856728563e-05,0.1556469672664898,-9.231889914338087e-06,0.1556469672664898,-1.6281455358384722e-05,0.1556469672664898,-1.963824084258262e-05
0.1564410844464209,-1.4938528592787153e-05,0.1564410844464209,-3.6915553417154553e-06,0.1564410844464209,-1.7624057185574306e-05,0.1564410844464209,-2.4338135703606423e-05
0.157235201626352,-1.426600654721316e-05,0.157235201626352,6.882416725123732e-06,0.157235201626352,-1.6280206544673786e-05,0.157235201626352,-2.4672777063685564e-05
0.158029318806283,-9.56741e-06,0.158029318806283,9.228411814662202e-06,0.158029318806283,-1.1580926897677885e-05,0.158029318806283,-2.0644423036284616e-05
0.1588234359862141,-9.56741e-06,0.1588234359862141,1.0129349602810098e-06,0.1588234359862141,-9.904290814012054e-06,0.1588234359862141,-1.7961805302419285e-05
0.1596175531661451,-9.56741e-06,0.1596175531661451,-1.7110398400415282e-05,0.1596175531661451,-1.191616648268211e-05,0.1596175531661451,-1.5611322436870874e-05
0.1604116703460762,-7.218495630300833e-06,0.1604116703460762,-4.312649835360477e-05,0.1604116703460762,-1.359510311824811e-05,0.1604116703460762,-1.561e-05
0.1612057875260073,-4.197038495653972e-06,0.1612057875260073,-5.387672536603117e-05,0.1612057875260073,-8.561657494540619e-06,0.1612057875260073,-1.4938779666295548e-05
0.1619999047059384,1.5099550745322385e-06,0.1619999047059384,-5.555789855027403e-05,0.1619999047059384,-5.875042318361372e-06,0.1619999047059384,-8.225415797703697e-06
0.1627940218858694,-1.6791377255379485e-07,0.1627940218858694,-4.985093165829152e-05,0.1627940218858694,-5.53904850623918e-06,0.1627940218858694,-8.22469327904105e-06
0.1635881390658005,-2.516034909665765e-06,0.1635881390658005,-4.011476527433995e-05,0.1635881390658005,-6.2107727770085564e-06,0.1635881390658005,-1.1245664814159991e-05
0.1643822562457316,7.220770183423283e-06,0.1643822562457316,-3.30663e-05,0.1643822562457316,-8.22569339339867e-06,0.1643822562457316,-9.90299166356468e-06
0.1651763734256627,1.728455789793719e-05,0.1651763734256627,-3.307047860967969e-05,0.1651763734256627,-1.1581994187190108e-05,0.1651763734256627,-9.568356100925218e-06
0.1659704906055937,8.901387468503968e-06,0.1659704906055937,-4.195659990863126e-05,0.1659704906055937,-1.242026228454624e-05,0.1659704906055937,-1.158030941242873e-05
0.1667646077855248,1.8962025203958e-05,0.1667646077855248,-4.246565123525227e-05,0.1667646077855248,-1.5943958794957748e-05,0.1667646077855248,-1.5272475906306698e-05
0.1675587249654559,6.550422482453735e-06,0.1675587249654559,-3.911006283496799e-05,0.1675587249654559,-1.7623618582516004e-05,0.1675587249654559,-1.3596381417483994e-05
0.1683528421453869,-2.515938020008795e-06,0.1683528421453869,-2.501230309235668e-05,0.1683528421453869,-1.4939133922353652e-05,0.1683528421453869,-8.225677842719214e-06
0.169146959325318,-1.0238404468942238e-05,0.169146959325318,2.7692400071986636e-05,0.169146959325318,-1.728837962035878e-05,0.169146959325318,-7.553254393670929e-06
0.1699410765052491,-1.5105542834803577e-05,0.1699410765052491,8.577328041527789e-05,0.1699410765052491,-1.7120777908428153e-05,0.1699410765052491,-5.53903e-06
0.1707351936851801,-6.208454666231483e-06,0.1707351936851801,0.0001094371401256,0.1707351936851801,-1.8967e-05,0.1707351936851801,-5.53903e-06
0.1715293108651112,1.844502267128786e-06,0.1715293108651112,0.0001059108998031,0.1715293108651112,-1.896503099211601e-05,0.1715293108651112,-5.539817599243341e-06
0.1723234280450423,-2.8500587893445225e-06,0.1723234280450423,0.0001005458641133,0.1723234280450423,-1.3935122741118872e-05,0.1723234280450423,-7.551770910746853e-06
0.1731175452249733,-4.866476343437222e-06,0.1731175452249733,8.712149119648906e-05,0.1731175452249733,-1.3092680721259237e-05,0.1731175452249733,-4.533660487707991e-06
0.1739116624049044,-8.223182670045537e-06,0.1739116624049044,5.7249303269758976e-05,0.1739116624049044,-8.226679615253308e-06,0.1739116624049044,-4.53193e-06
0.1747057795848355,-1.0238240858916692e-05,0.1747057795848355,2.0655657724590752e-05,0.1747057795848355,-7.04999616447526e-06,0.1747057795848355,-1.1579643004820416e-05
0.1754998967647666,-6.210943766687005e-06,0.1754998967647666,-2.248619132338376e-05,0.1754998967647666,-1.0238385351914531e-05,0.1754998967647666,-1.6448567118612033e-05
0.1762940139446976,-7.553420455555946e-06,0.1762940139446976,-8.493265216116854e-05,0.1762940139446976,-1.292448254066767e-05,0.1762940139446976,-2.2491903174956457e-05
0.1770881311246287,-1.8969217542068307e-05,0.1770881311246287,-0.0001391490512582,0.1770881311246287,-1.762456034501248e-05,0.1770881311246287,-2.836611192724802e-05
0.1778822483045598,-3.239584483950444e-05,0.1778822483045598,-0.0001515625410523,0.1778822483045598,-1.98048877385468e-05,0.1778822483045598,-2.6014815334430883e-05
0.1786763654844909,-3.5418514964973454e-05,0.1786763654844909,-0.000134107833017,0.1786763654844909,-1.5607839366024776e-05,0.1786763654844909,-2.0307330704028317e-05
0.1794704826644219,-4.044842321597077e-05,0.1794704826644219,-0.0001250538982763,0.1794704826644219,-1.0913258331760613e-05,0.1794704826644219,-1.4942095236297842e-05
0.180264599844353,-4.447796984005954e-05,0.180264599844353,-0.0001297446318244,0.180264599844353,-7.89043265271368e-06,0.180264599844353,-8.563524494661928e-06
0.181058717024284,7.199095386986101e-06,0.181058717024284,-0.0001190088283691,0.181058717024284,-7.553339637428306e-06,0.181058717024284,-8.56031e-06
0.1818528342042151,8.004888884647004e-05,0.1818528342042151,-0.0001186690701604,0.1818528342042151,-8.22446980650885e-06,0.1818528342042151,-6.882170486860035e-06
0.1826469513841462,4.213252265608932e-05,0.1826469513841462,-7.335287483251251e-05,0.1826469513841462,-9.567327781651854e-06,0.1826469513841462,-1.0909953346180142e-05
0.1834410685640773,8.385502761626586e-07,0.1834410685640773,1.9813794965463925e-05,0.1834410685640773,-1.1245986965846667e-05,0.1834410685640773,-1.0238510115571496e-05
0.1842351857440083,-7.217755593115098e-06,0.1842351857440083,0.000107767834771,0.1842351857440083,-1.2253078531818146e-05,0.1842351857440083,-6.882919440775378e-06
0.1850293029239394,-8.22461e-06,0.1850293029239394,0.0001455282620526,0.1850293029239394,-1.2589595397440676e-05,0.1850293029239394,-1.1582751225280868e-05
0.1858234201038705,-8.22461e-06,0.1858234201038705,0.0001540797553575,0.1858234201038705,-1.4936885914572756e-05,0.1858234201038705,-1.460069617587926e-05
0.1866175372838016,-6.211593801435367e-06,0.1866175372838016,0.0001399942170005,0.1866175372838016,-1.4267591269087676e-05,0.1866175372838016,-1.158336071089454e-05
0.1874116544637326,-6.881527817317508e-06,0.1874116544637326,0.0001079409515707,0.1874116544637326,-1.2253876548047472e-05,0.1874116544637326,-1.2588261725976263e-05
0.1882057716436637,-5.707207918485287e-06,0.1882057716436637,7.235323404517677e-05,0.1882057716436637,-1.0910586192554613e-05,0.1882057716436637,-1.7287148326058852e-05
0.1889998888235948,-1.2252083406547449e-05,0.1889998888235948,3.0386575589002056e-05,0.1889998888235948,-1.22528119802558e-05,0.1889998888235948,-1.9805847469980664e-05
0.1897940060035258,-2.098122538190932e-05,0.1897940060035258,-9.567582601293175e-06,0.1897940060035258,-1.5274312691332713e-05,0.1897940060035258,-1.82956304584424e-05
0.1905881231834569,-2.4338152081469132e-05,0.1905881231834569,-3.239646244407404e-05,0.1905881231834569,-1.6952904162938272e-05,0.1905881231834569,-2.23239e-05
0.191382240363388,-2.4673698375328263e-05,0.191382240363388,-4.246905033455144e-05,0.191382240363388,-1.76242e-05,0.191382240363388,-2.23239e-05
0.192176357543319,-2.4337043200891656e-05,0.192176357543319,-5.287476466589074e-05,0.192176357543319,-1.762404902227395e-05,0.192176357543319,-2.232223928998746e-05
0.1929704747232501,-2.1989852572712945e-05,0.1929704747232501,-5.790467291688824e-05,0.1929704747232501,-1.7288721805540784e-05,0.1929704747232501,-1.863373979487608e-05
0.1937645919031812,-1.762644304197336e-05,0.1937645919031812,-5.7908e-05,0.1937645919031812,-1.493980779183181e-05,0.1937645919031812,-1.2927333208734396e-05
0.1945587090831123,-1.1583813972777997e-05,0.1945587090831123,-5.723684599697533e-05,0.1945587090831123,-1.3596291993950666e-05,0.1945587090831123,-1.1246514992438333e-05
0.1953528262630433,-6.882848369614629e-06,0.1953528262630433,-6.193537162600912e-05,0.1953528262630433,-1.493830617885975e-05,0.1953528262630433,-8.896524184807315e-06
0.1961469434429744,1.1743661128699334e-06,0.1961469434429744,-6.29434282637526e-05,0.1961469434429744,-1.3931571736247412e-05,0.1961469434429744,-1.0574380440299954e-05
0.1969410606229055,3.189024659959452e-06,0.1969410606229055,-6.764404582696403e-05,0.1969410606229055,-1.5274389705102864e-05,0.1969410606229055,-1.1917479417840851e-05
0.1977351778028366,1.6783772385159114e-06,0.1977351778028366,-7.87209993027091e-05,0.1977351778028366,-1.6449463121326195e-05,0.1977351778028366,-1.4267500697290902e-05
0.1985292949827676,1.1755628032395791e-06,0.1985292949827676,-7.73704658567618e-05,0.1985292949827676,-1.7622954393520843e-05,0.1985292949827676,-1.5609875439352086e-05
0.1993234121626987,2.8521988869054104e-06,0.1993234121626987,-5.574191032194931e-05,0.1993234121626987,-1.426968222618918e-05,0.1993234121626987,-1.527454822261892e-05
0.2001175293426297,5.049409395327608e-07,0.2001175293426297,-3.0731224818010604e-05,0.2001175293426297,-1.3931698992039272e-05,0.2001175293426297,-1.560980100796073e-05
0.2009116465225608,-2.8519455169754348e-06,0.2009116465225608,-4.208036400223531e-06,0.2009116465225608,-1.2589297795346716e-05,0.2009116465225608,-1.3596696693020076e-05
0.2017057637024919,-8.223011518782909e-06,0.2017057637024919,1.6610905871519597e-05,0.2017057637024919,-1.5105650722624627e-05,0.2017057637024919,-1.6280600754927396e-05
0.202499880882423,-8.22461e-06,0.202499880882423,2.668648914205736e-05,0.202499880882423,-1.5945574086420153e-05,0.202499880882423,-1.695269927513701e-05
0.203293998062354,-1.0574494265422164e-05,0.203293998062354,2.937359344616887e-05,0.203293998062354,-1.59457e-05,0.203293998062354,-2.0309791807711088e-05
0.2040881152422851,-1.1245510209661712e-05,0.2040881152422851,3.27306e-05,0.2040881152422851,-1.3595994895894853e-05,0.2040881152422851,-2.400166915490845e-05
0.2048822324222162,-8.559671266281327e-06,0.2048822324222162,3.272725894527835e-05,0.2048822324222162,-1.4938403465647414e-05,0.2048822324222162,-1.896670519847112e-05
0.2056763496021472,-6.37716282099332e-06,0.2056763496021472,2.1312766515291017e-05,0.2056763496021472,-1.4266314253276649e-05,0.2056763496021472,-1.7959457126638323e-05
0.2064704667820783,-3.862218684389919e-06,0.2064704667820783,1.1923604446762366e-05,0.2064704667820783,-1.225435095287765e-05,0.2064704667820783,-1.6953475476438826e-05
0.2072645839620094,-3.1894917931316115e-06,0.2072645839620094,1.1246251798371384e-05,0.2072645839620094,-1.4433856681491866e-05,0.2072645839620094,-1.4604131294299849e-05
0.2080587011419405,-3.367720228450872e-07,0.2080587011419405,8.225747200083841e-06,0.2080587011419405,-1.242155813589853e-05,0.2080587011419405,-9.569305335982371e-06
0.2088528183218715,1.6780291260627171e-06,0.2088528183218715,-8.220846192060208e-06,0.2088528183218715,-9.064628114076256e-06,0.2088528183218715,-8.224917251122033e-06
0.2096469355018026,-8.390414793029671e-07,0.2096469355018026,-2.9036209295105465e-05,0.2096469355018026,-1.0910050018133846e-05,0.2096469355018026,-1.0238636383344897e-05
0.2104410526817337,-2.853729555794101e-06,0.2104410526817337,-4.313776773948371e-05,0.2104410526817337,-1.107817795436896e-05,0.2104410526817337,-6.881864547249399e-06
0.2112351698616647,-7.216909559107433e-06,0.2112351698616647,-5.018718726730912e-05,0.2112351698616647,-1.225314363365456e-05,0.2112351698616647,-7.5537227135123295e-06
0.2120292870415958,-4.363534570419673e-06,0.2120292870415958,-5.15282455114909e-05,0.2120292870415958,-1.2923430340993932e-05,0.2120292870415958,-9.903706036878792e-06
0.2128234042215269,-2.8545720840158227e-06,0.2128234042215269,-4.750431891069304e-05,0.2128234042215269,-1.0240812607128696e-05,0.2128234042215269,-1.1580342120544564e-05
0.2136175214014579,-5.034164734052105e-06,0.2136175214014579,-3.50879868725072e-05,0.2136175214014579,-1.0909795300930587e-05,0.2136175214014579,-1.2420294156301684e-05
0.214411638581389,-8.22315834894878e-06,0.214411638581389,-3.1725028063321014e-05,0.214411638581389,-1.3594577549343188e-05,0.214411638581389,-1.4266359542414084e-05
0.2152057557613201,-8.22461e-06,0.2152057557613201,-2.501156526259042e-05,0.2152057557613201,-1.2924606526259042e-05,0.2152057557613201,-1.762316736870479e-05
0.2159998729412512,-8.22461e-06,0.2159998729412512,-8.227295978743258e-06,0.2159998729412512,-1.3595692560146163e-05,0.2159998729412512,-1.628161487970767e-05
0.2167939901211822,-1.4938516465638156e-05,0.2167939901211822,5.203162931773981e-06,0.2167939901211822,-1.2924408353448624e-05,0.2167939901211822,-1.5610008353448627e-05
0.2175881073011133,-1.628076486930426e-05,0.2175881073011133,5.203829028558141e-06,0.2175881073011133,-1.4602763900565198e-05,0.2175881073011133,-1.2253090732956534e-05
0.2183822244810444,-1.1581410180638258e-05,0.2183822244810444,8.894965999164852e-06,0.2183822244810444,-1.35958e-05,0.2183822244810444,-1.2923830541914771e-05
0.2191763416609755,-1.090818021205112e-05,0.2191763416609755,5.19957896646569e-06,0.2191763416609755,-1.3595655728818276e-05,0.2191763416609755,-1.0910632813545169e-05
0.2199704588409065,-6.213619155577649e-06,0.2199704588409065,-3.518888713014947e-06,0.2199704588409065,-1.3260328512085124e-05,0.2199704588409065,-1.1916614463744632e-05
0.2207645760208376,-2.855232556131568e-06,0.2207645760208376,8.369156759610044e-07,0.2207645760208376,-1.2924579256681114e-05,0.2207645760208376,-1.728563189310217e-05
0.2215586932007686,-4.866851722992767e-06,0.2215586932007686,-1.5097320110598207e-06,0.2215586932007686,-1.2588829713478537e-05,0.2215586932007686,-1.8630781146085864e-05
0.2223528103806997,-3.5251506811037203e-06,0.2223528103806997,-1.04045754852997e-05,0.2223528103806997,-1.158184051082779e-05,0.2223528103806997,-1.762444051082779e-05
0.2231469275606308,-2.853501253234341e-06,0.2231469275606308,-7.049976273470384e-06,0.2231469275606308,-1.3763400928584976e-05,0.2231469275606308,-1.6952861254146678e-05
0.2239410447405619,1.124741328470551e-05,0.2239410447405619,-5.874890244599805e-06,0.2239410447405619,-1.42672e-05,0.2239410447405619,-1.6281324335482983e-05
0.2247351619204929,3.809960930138054e-05,0.2247351619204929,-8.907237287599417e-06,0.2247351619204929,-1.4267405377995572e-05,0.2247351619204929,-1.493928459331858e-05
0.225529279100424,2.7357278661242365e-05,0.225529279100424,-6.397723474655542e-05,0.225529279100424,-1.5274889270517947e-05,0.225529279100424,-1.8296837450534204e-05
0.2263233962803551,2.1321488648999032e-05,0.2263233962803551,-0.0001397603866166,0.2263233962803551,-1.695152535418372e-05,0.2263233962803551,-2.18177232817556e-05
0.2271175134602862,1.997492282812051e-05,0.2271175134602862,-0.0001794067263253,0.2271175134602862,-1.69528e-05,0.2271175134602862,-1.9807434242180763e-05
0.2279116306402172,8.901163401657161e-06,0.2279116306402172,-0.0001207113284372,0.2279116306402172,-1.7623887672344904e-05,0.2279116306402172,-1.628303969692981e-05
0.2287057478201483,-1.649702561484186e-07,0.2287057478201483,-5.624997119174975e-05,0.2287057478201483,-1.8295386758750114e-05,0.2287057478201483,-1.6952586758750114e-05
0.2294998650000794,-5.705928227461938e-06,0.2294998650000794,-6.386745959813583e-06,0.2294998650000794,-1.5778228089168887e-05,0.2294998650000794,-1.5610228309689406e-05
0.2302939821800104,-1.3595622946284535e-05,0.2302939821800104,6.294194418990396e-05,0.2302939821800104,-1.22530791081853e-05,0.2302939821800104,-1.091030547907662e-05
0.2310880993599415,-2.081357305213157e-05,0.2310880993599415,0.0001144781041477,0.2310880993599415,-1.2253e-05,0.2310880993599415,-1.1581642008982845e-05
0.2318822165398726,-2.2995483104370875e-05,0.2318822165398726,0.0001552634716635,0.2318822165398726,-1.2251992928687391e-05,0.2318822165398726,-1.1915926722672846e-05
0.2326763337198036,-2.3665009027062688e-05,0.2326763337198036,0.0001643208999738,0.2326763337198036,-8.561296421169145e-06,0.2326763337198036,-6.88266550325959e-06
0.2334704508997347,-1.9641182315218285e-05,0.2334704508997347,0.0001569441007615,0.2334704508997347,-1.090857694940588e-05,0.2334704508997347,-8.894618814763173e-06
0.2342645680796658,-1.96384e-05,0.2342645680796658,0.0001582812694344,0.2342645680796658,-1.5271926015704875e-05,0.2342645680796658,-9.567044771646904e-06
0.2350586852595969,-1.7624998425843737e-05,0.2350586852595969,0.0001418395203588,0.2350586852595969,-1.4938733070973956e-05,0.2350586852595969,-9.56741e-06
0.2358528024395279,-1.5274884694399546e-05,0.2358528024395279,9.484649393775428e-05,0.2358528024395279,-1.1750193526268793e-05,0.2358528024395279,-7.050296455797062e-06
0.236646919619459,-9.232321721225545e-06,0.236646919619459,3.0387225006833687e-05,0.236646919619459,-1.3595613079810009e-05,0.236646919619459,-8.895823085884104e-06
0.2374410367993901,-7.553328909509806e-06,0.2374410367993901,-2.266156038322669e-05,0.2374410367993901,-1.258873111726764e-05,0.2374410367993901,-1.3931577793169103e-05
0.2382351539793211,-9.90368591652782e-06,0.2382351539793211,-6.496108527610121e-05,0.2382351539793211,-1.326023020367285e-05,0.2382351539793211,-1.5609479185308606e-05
0.2390292711592522,-1.29249725041571e-05,0.2390292711592522,-8.241777849332878e-05,0.2390292711592522,-1.3930698494180058e-05,0.2390292711592522,-1.2923369492517217e-05
0.2398233883391833,-1.4601608587822874e-05,0.2398233883391833,-9.348347675656944e-05,0.2398233883391833,-1.1583407977047975e-05,0.2398233883391833,-9.905424541918826e-06
0.2406175055191144,-1.8293300290218827e-05,0.2406175055191144,-0.0001089243831563,0.2406175055191144,-1.124610906452556e-05,0.2406175055191144,-7.051447036011832e-06
0.2414116226990454,-1.8966680957354063e-05,0.2414116226990454,-0.0001206784165161,0.2414116226990454,-1.1581440478677031e-05,0.2414116226990454,-7.2174402393385155e-06
0.2422057398789765,-1.594668980308339e-05,0.2422057398789765,-0.0001119578596932,0.2422057398789765,-9.735864876385987e-06,0.2422057398789765,-5.539579887325801e-06
0.2429998570589076,-1.3596223044424493e-05,0.2429998570589076,-9.584480078604038e-05,0.2429998570589076,-5.539785432871778e-06,0.2429998570589076,-9.566684784587116e-06
0.2437939742388386,-1.225304356686077e-05,0.2437939742388386,-7.939323369079995e-05,0.2437939742388386,-6.210398216894063e-06,0.2437939742388386,-1.2252912866602909e-05
0.2445880914187697,-1.09102e-05,0.2445880914187697,-6.831282204309277e-05,0.2445880914187697,-6.210651907773099e-06,0.2445880914187697,-9.73512471979406e-06
0.2453822085987008,-1.0909229863664336e-05,0.2453822085987008,-5.287011876964178e-05,0.2453822085987008,-8.225668333652855e-06,0.2453822085987008,-8.56145652834286e-06
0.2461763257786318,-7.21696974145046e-06,0.2461763257786318,-4.3808975088296326e-05,0.2461763257786318,-1.2253412693912152e-05,0.2461763257786318,-1.2925638081736465e-05
0.2469704429585629,-5.875660874517796e-06,0.2469704429585629,-4.447952963280921e-05,0.2469704429585629,-1.3259394344111654e-05,0.2469704429585629,-1.594358303233496e-05
0.247764560138494,1.5065486453754085e-06,0.247764560138494,-4.783514028328007e-05,0.247764560138494,-1.6279726254952056e-05,0.247764560138494,-1.4603643886687977e-05
0.2485586773184251,2.332213220638566e-05,0.2485586773184251,-4.716587285693878e-05,0.2485586773184251,-1.493914571387756e-05,0.2485586773184251,-1.628071785765305e-05
0.2493527944983561,2.467345245893281e-05,0.2493527944983561,-4.011782456472093e-05,0.2493527944983561,-1.6952278688399214e-05,0.2493527944983561,-1.5945786885266796e-05
0.2501469116782872,3.191529876536051e-06,0.2501469116782872,-2.971045760399037e-05,0.2501469116782872,-1.510660538691495e-05,0.2501469116782872,-1.2589073420642054e-05
0.2509410288582183,-6.210639619763843e-06,0.2509410288582183,-1.7624163396584873e-05,0.2509410288582183,-1.4603058614798874e-05,0.2509410288582183,-9.903197609107e-06
0.2517351460381494,-1.2253123488682004e-05,0.2517351460381494,-1.661901405617836e-05,0.2517351460381494,-1.8967e-05,0.2517351460381494,-1.258950267643303e-05
0.2525292632180804,-1.2922510498114568e-05,0.2525292632180804,-2.7027590164573797e-05,0.2525292632180804,-1.896611081952599e-05,0.2525292632180804,-1.6952410966988027e-05
0.2533233803980115,-7.221967791441631e-06,0.2533233803980115,-3.87640427502342e-05,0.2533233803980115,-1.6283493085660755e-05,0.2533233803980115,-1.577871576394526e-05
0.2541174975779426,-5.540092103777241e-06,0.2541174975779426,-4.447638888892043e-05,0.2541174975779426,-1.6952375155958012e-05,0.2541174975779426,-1.3764874532125969e-05
0.2549116147578736,-8.415262956947378e-07,0.2549116147578736,-4.0453654497301815e-05,0.2549116147578736,-1.4939577272910487e-05,0.2549116147578736,-1.493802989987597e-05
0.2557057319378047,5.2012899670180446e-06,0.2557057319378047,-3.306879338354783e-05,0.2557057319378047,-1.309282336276745e-05,0.2557057319378047,-1.6448690006609344e-05
0.2564998491177358,7.888399664494909e-06,0.2564998491177358,-1.6620225809244326e-05,0.2564998491177358,-1.560952154739955e-05,0.2564998491177358,-1.4771018962066034e-05
0.2572939662976669,7.88891e-06,0.2572939662976669,1.510505345596276e-05,0.2572939662976669,-1.5777792877517e-05,0.2572939662976669,-1.829545038116611e-05
0.2580880834775979,3.524441768296092e-06,0.2580880834775979,3.69269235342287e-05,0.2580880834775979,-1.561045882189571e-05,0.2580880834775979,-2.198875881138216e-05
0.258882200657529,-1.6890946013064024e-07,0.258882200657529,3.8103242232307886e-05,0.258882200657529,-1.997418483719458e-05,0.258882200657529,-2.6351960651221676e-05
0.2596763178374601,-4.365623422704071e-06,0.2596763178374601,4.380507629313917e-05,0.2596763178374601,-2.0308994731808703e-05,0.2596763178374601,-2.500849343475066e-05
0.2604704350173911,-8.221866437344658e-06,0.2604704350173911,3.4751241441344e-05,0.2604704350173911,-1.829703143140978e-05,0.2604704350173911,-2.2493589253728727e-05
0.2612645521973222,-1.225072805563056e-05,0.2612645521973222,3.575133201249768e-05,0.2612645521973222,-1.5276003962506952e-05,0.2612645521973222,-1.7626945244728705e-05
0.2620586693772533,-1.5608602140351883e-05,0.2620586693772533,4.0114182782457446e-05,0.2620586693772533,-1.2925378501753685e-05,0.2620586693772533,-1.4939718287718494e-05
0.2628527865571843,-1.6281219514475538e-05,0.2628527865571843,3.5753073155909005e-05,0.2628527865571843,-1.762293660132876e-05,0.2628527865571843,-1.6952258543426614e-05
0.2636469037371154,-1.863101510308244e-05,0.2636469037371154,2.736041748899128e-05,0.2636469037371154,-1.7120661055401373e-05,0.2636469037371154,-1.76241186008807e-05
0.2644410209170465,-1.7288508843642977e-05,0.2644410209170465,1.6281161222166516e-05,0.2644410209170465,-1.62814397950762e-05,0.2644410209170465,-1.91347602049238e-05
0.2652351380969776,-1.7623616131544432e-05,0.2652351380969776,7.215534855947352e-06,0.2652351380969776,-1.7792233547382224e-05,0.2652351380969776,-1.7623966452617774e-05
0.2660292552769086,-1.4265259706043764e-05,0.2660292552769086,-4.199787201840232e-06,0.2660292552769086,-1.913302141031849e-05,0.2660292552769086,-1.6280753234277577e-05
0.2668233724568397,-8.229379793741905e-06,0.2668233724568397,-1.526555538734907e-05,0.2668233724568397,-1.360017227869778e-05,0.2668233724568397,-1.426878993387851e-05
0.2676174896367708,-8.895578440967119e-06,0.2676174896367708,-1.3596878897582202e-05,0.2676174896367708,-1.0911926236131524e-05,0.2676174896367708,-1.560913688193424e-05
0.2684116068167018,-1.0909202587068913e-05,0.2684116068167018,-4.200884601931633e-06,0.2684116068167018,-1.3930003873175473e-05,0.2684116068167018,-1.7958736345803145e-05
0.2692057239966329,-1.3594866455110138e-05,0.2692057239966329,4.5288959930124015e-06,0.2692057239966329,-1.39315e-05,0.2692057239966329,-1.4939650238001091e-05
0.269999841176564,-2.1650988402192345e-05,0.269999841176564,7.216982802731077e-06,0.269999841176564,-1.3595867149908653e-05,0.269999841176564,-1.2924802899451912e-05
0.270793958356495,-2.635205351136009e-05,0.270793958356495,7.553202393293951e-06,0.270793958356495,-1.4602847179881856e-05,0.270793958356495,-1.4267129573175808e-05
0.2715880755364261,-1.1071952248196565e-05,0.2715880755364261,1.0572998991321272e-05,0.2715880755364261,-1.2253e-05,0.2715880755364261,-1.2252489017957791e-05
0.2723821927163572,5.354870727797744e-05,0.2723821927163572,-5.207363225689966e-06,0.2723821927163572,-1.225234816483407e-05,0.2723821927163572,-6.882145916369386e-06
0.2731763098962882,7.332785424112206e-05,0.2731763098962882,-2.1819026009513217e-05,0.2731763098962882,-9.568195144660284e-06,0.2731763098962882,-8.224937145232646e-06
0.2739704270762193,1.6322527063350128e-05,0.2739704270762193,-1.829814017829207e-05,0.2739704270762193,-1.1580148456163725e-05,0.2739704270762193,-9.063255187065472e-06
0.2747645442561504,-1.500427641308679e-06,0.2747645442561504,-1.2591975673268244e-05,0.2747645442561504,-1.15816e-05,0.2747645442561504,-6.547565144231436e-06
0.2755586614360815,-7.550643426243425e-06,0.2755586614360815,-1.96353939873346e-05,0.2755586614360815,-1.0910486286920512e-05,0.2755586614360815,-7.217233713079485e-06
0.2763527786160125,-1.2922902401453591e-05,0.2763527786160125,-2.8364066421182517e-05,0.2763527786160125,-1.0406840386445458e-05,0.2763527786160125,-5.20389159875785e-06
0.2771468957959436,-1.6448737407483948e-05,0.2771468957959436,-3.373699508711921e-05,0.2771468957959436,-8.224896376107396e-06,0.2771468957959436,-8.559869432074292e-06
0.2779410129758747,-1.9302716458442598e-05,0.2779410129758747,-4.515152343913657e-05,0.2779410129758747,-9.5674319444267e-06,0.2779410129758747,-1.0910224686846769e-05
0.2787351301558057,-2.03098e-05,0.2787351301558057,-5.270456241842851e-05,0.2787351301558057,-1.0909869825538574e-05,0.2787351301558057,-1.242110266962182e-05
0.2795292473357368,-2.031084437903772e-05,0.2795292473357368,-5.1863937825791215e-05,0.2795292473357368,-8.895905558985086e-06,0.2795292473357368,-1.4267513323044738e-05
0.2803233645156679,-2.366401665741581e-05,0.2803233645156679,-4.716935679152706e-05,0.2803233645156679,-8.560578342251933e-06,0.2803233645156679,-1.5273494973244203e-05
0.2811174816955989,-2.4337661725976275e-05,0.2811174816955989,-4.246896785288845e-05,0.2811174816955989,-1.1579627773421e-05,0.2811174816955989,-1.695170431494069e-05
0.2819115988755301,-2.366703918761852e-05,0.2819115988755301,-3.709741350094814e-05,0.2819115988755301,-1.1917130406190742e-05,0.2819115988755301,-1.69528e-05
0.2827057160554611,-1.527730122940568e-05,0.2827057160554611,-3.1725420809706856e-05,0.2827057160554611,-1.2588459898786644e-05,0.2827057160554611,-1.6281640101213356e-05
0.2834998332353922,-8.897349638577102e-06,0.2834998332353922,-2.635342811846519e-05,0.2834998332353922,-1.3595588477787777e-05,0.2834998332353922,-1.4267623044424444e-05
0.2842939504153233,1.0064815585545938e-06,0.2842939504153233,-2.702365807159706e-05,0.2842939504153233,-1.6449021807409964e-05,0.2842939504153233,-1.4434989521021726e-05
0.2850880675952543,1.6953685940521155e-05,0.2850880675952543,-1.9301471105506246e-05,0.2850880675952543,-1.795987142099889e-05,0.2850880675952543,-1.8295399946992232e-05
0.2858821847751854,2.736311079303958e-05,0.2858821847751854,-4.870754881166189e-06,0.2858821847751854,-1.7623457827429224e-05,0.2858821847751854,-1.5944684411352023e-05
0.2866763019551165,4.330184864605791e-05,0.2866763019551165,-1.8302485222346883e-05,0.2866763019551165,-1.4434489980716395e-05,0.2866763019551165,-1.1582365028925406e-05
0.2874704191350475,3.47510545638392e-05,0.2874704191350475,-3.641005503698378e-05,0.2874704191350475,-1.3093181113783776e-05,0.2874704191350475,-1.3594328329324332e-05
0.2882645363149786,9.246609291791058e-06,0.2882645363149786,-3.7765315823366864e-05,0.2882645363149786,-1.527302568377185e-05,0.2882645363149786,-1.6279831646733732e-05
0.2890586534949096,-3.015942736937066e-06,0.2890586534949096,-2.8370602026759683e-05,0.2890586534949096,-1.762317449331008e-05,0.2890586534949096,-1.393252550668992e-05
0.2898527706748408,-1.2921539757836485e-05,0.2898527706748408,-2.433926349303719e-05,0.2898527706748408,-1.393256653528409e-05,0.2898527706748408,-9.904263493037189e-06
0.2906468878547718,-1.426701034179802e-05,0.2906468878547718,-3.373637239258614e-05,0.2906468878547718,-1.1581931901853463e-05,0.2906468878547718,-1.2923973269045545e-05
0.2914410050347029,-1.4602902128652086e-05,0.2914410050347029,-3.239485104100204e-05,0.2914410050347029,-1.493859574269583e-05,0.2914410050347029,-1.82956e-05
0.292235122214634,-1.49386e-05,0.292235122214634,-2.467175896943591e-05,0.292235122214634,-1.42672e-05,0.292235122214634,-1.82951349533078e-05
0.293029239394565,-1.4939711965170312e-05,0.293029239394565,-1.1411627725363529e-05,0.293029239394565,-1.4267503263228268e-05,0.293029239394565,-1.5273592385800713e-05
0.2938233565744961,-1.862831134923501e-05,0.2938233565744961,-4.537499693496621e-06,0.2938233565744961,-1.527348491342773e-05,0.2938233565744961,-1.2926301868668628e-05
0.2946174737544272,-1.6282957461550993e-05,0.2946174737544272,1.4925695364971938e-05,0.2946174737544272,-1.6280732516478145e-05,0.2946174737544272,-1.6279175054927156e-05
0.2954115909343582,-1.3764897160545084e-05,0.2954115909343582,4.815557792387349e-05,0.2954115909343582,-1.62814e-05,0.2954115909343582,-1.561034590260941e-05
0.2962057081142893,-1.2253555318078843e-05,0.2962057081142893,8.206583581844693e-05,0.2962057081142893,-1.6616976591897877e-05,0.2962057081142893,-1.661672977569363e-05
0.2969998252942204,-1.0910495459597985e-05,0.2969998252942204,0.0001015447158138,0.2969998252942204,-1.292521251389446e-05,0.2969998252942204,-1.8966482945703527e-05
0.2977939424741515,-1.3595605426424673e-05,0.2977939424741515,0.000101883975729,0.2977939424741515,-1.510624191259258e-05,0.2977939424741515,-1.8295648643393832e-05
0.2985880596540825,-1.5609924335483008e-05,0.2985880596540825,8.560094357253534e-05,0.2985880596540825,-1.762414955698867e-05,0.2985880596540825,-1.7288071234403702e-05
0.2993821768340136,-1.4602974764708292e-05,0.2993821768340136,5.689263853314068e-05,0.2993821768340136,-1.695265047058342e-05,0.2993821768340136,-1.1580441151475733e-05
0.3001762940139447,-1.4937358484512796e-05,0.3001762940139447,1.9793846976376663e-05,0.3001762940139447,-1.6280530939158958e-05,0.3001762940139447,-6.377959624826488e-06
0.3009704111938757,-1.1584086317181251e-05,0.3009704111938757,-1.357106125514204e-05,0.3009704111938757,-1.3933240422026877e-05,0.3009704111938757,-5.539651571888947e-06
0.3017645283738068,-1.0239597606614916e-05,0.3017645283738068,-3.25515338362637e-05,0.3017645283738068,-1.3595999401653729e-05,0.3017645283738068,-7.552023596017503e-06
0.3025586455537379,-8.22550914624269e-06,0.3025586455537379,-4.179037891491436e-05,0.3025586455537379,-1.3931350141548875e-05,0.3025586455537379,-8.224310287561808e-06
0.3033527627336689,-3.861834092254292e-06,0.3033527627336689,-5.253358994192974e-05,0.3033527627336689,-1.091110283723669e-05,0.3033527627336689,-6.882221258005843e-06
0.3041468799136,-5.035302297839208e-06,0.3041468799136,-6.797656450101096e-05,0.3041468799136,-6.546780033572381e-06,0.3041468799136,-9.734828439121928e-06
0.3049409970935311,-5.539028156734995e-06,0.3049409970935311,-6.81467993853953e-05,0.3049409970935311,-8.224603855819922e-06,0.3049409970935311,-1.02387981567716e-05
0.3057351142734621,-8.896783028309062e-06,0.3057351142734621,-5.723495731178492e-05,0.3057351142734621,-8.560454943077803e-06,0.3057351142734621,-1.3931451685640732e-05
0.3065292314533932,-1.4266515858705977e-05,0.3065292314533932,-4.581928158817294e-05,0.3065292314533932,-9.56750773155921e-06,0.3065292314533932,-1.35961909378823e-05
0.3073233486333243,-1.1919225341573731e-05,0.3073233486333243,-3.374760167473198e-05,0.3073233486333243,-9.902824959397043e-06,0.3073233486333243,-1.493749980481501e-05
0.3081174658132554,-1.258824829599454e-05,0.3081174658132554,-3.776338977596724e-05,0.3081174658132554,-9.064424623279031e-06,0.3081174658132554,-1.594502244399181e-05
0.3089115829931864,-1.292422369119985e-05,0.3089115829931864,-8.842997747621689e-05,0.3089115829931864,-1.4935514601249356e-05,0.3089115829931864,-1.4435793415860548e-05
0.3097057001731175,-9.568677652199065e-06,0.3097057001731175,-0.000112953745998,0.3097057001731175,-1.6952039406414868e-05,0.3097057001731175,-1.1582677488698151e-05
0.3104998173530486,-5.539956664138624e-06,0.3104998173530486,-0.0001012157028988,0.3104998173530486,-1.6449315845094112e-05,0.3104998173530486,-1.3595336665630349e-05
0.3112939345329796,-3.5249960751541684e-06,0.3112939345329796,-6.764596790274571e-05,0.3112939345329796,-1.5274396873050658e-05,0.3112939345329796,-1.6952523208076388e-05
0.3120880517129107,-1.5104213611999329e-06,0.3120880517129107,-3.9778113606788965e-05,0.3120880517129107,-1.4267287456041062e-05,0.3120880517129107,-2.0309887456041063e-05
0.3128821688928418,1.8467327375435407e-06,0.3128821688928418,-6.204421811137817e-06,0.3128821688928418,-1.5609285927871538e-05,0.3128821688928418,-2.1652314371148612e-05
0.3136762860727728,3.6945523660895614e-06,0.3136762860727728,2.1997118202219388e-05,0.3136762860727728,-1.2252154412064222e-05,0.3136762860727728,-2.031076635022832e-05
0.314470403252704,8.892104247663132e-06,0.314470403252704,4.647580524583448e-05,0.314470403252704,-9.90486389493198e-06,0.314470403252704,-2.299328419514029e-05
0.315264520432635,6.547539308004164e-06,0.315264520432635,6.662403445105094e-05,0.315264520432635,-1.443226278168592e-05,0.315264520432635,-2.0982416494495996e-05
0.3160586376125661,-5.003304797275482e-07,0.3160586376125661,5.136887130274752e-05,0.3160586376125661,-1.6280557289473625e-05,0.3160586376125661,-1.7290185375412014e-05
0.3168527547924971,-2.8527142932628384e-06,0.3168527547924971,3.743470240343333e-05,0.3168527547924971,-1.62814e-05,0.3168527547924971,-1.3932536727439668e-05
0.3176468719724282,4.1950932844686985e-06,0.3176468719724282,3.5248651850081046e-05,0.3176468719724282,-1.6952691740917276e-05,0.3176468719724282,-1.2924562388624087e-05
0.3184409891523593,6.71445156324713e-07,0.3184409891523593,3.2059243569535105e-05,0.3184409891523593,-1.2924455036065106e-05,0.3184409891523593,-8.896065035928485e-06
0.3192351063322903,-1.1078212385463564e-05,0.3192351063322903,2.8028552170200893e-05,0.3192351063322903,-9.902965130747732e-06,0.3192351063322903,-1.0909660520312536e-05
0.3200292235122214,-1.1917866287190504e-05,0.3200292235122214,1.1227212607057576e-05,0.3200292235122214,-8.89657628437903e-06,0.3200292235122214,-6.8821975219821946e-06
0.3208233406921525,-1.3929829587589431e-05,0.3208233406921525,-5.516727663924666e-05,0.3208233406921525,-1.0908529595882611e-05,0.3208233406921525,-8.223496400019469e-06
0.3216174578720835,-1.5105597800895423e-05,0.3216174578720835,-0.000120974075348,0.3216174578720835,-1.3761651753404544e-05,0.3216174578720835,-6.882736831164894e-06
0.3224115750520147,4.951935718473019e-07,0.3224115750520147,-0.0001109533899888,0.3224115750520147,-1.2253808471570018e-05,0.3224115750520147,-7.217340333704451e-06
0.3232056922319457,1.5939714356329106e-05,0.3232056922319457,-6.195539773900299e-05,0.3232056922319457,-1.2253e-05,0.3232056922319457,-9.566499142225398e-06
0.3239998094118768,8.428720840258006e-07,0.3239998094118768,-5.888176788886904e-06,0.3239998094118768,-1.2253e-05,0.3239998094118768,-1.2252355363277254e-05
0.3247939265918079,-7.552444085948837e-06,0.3247939265918079,3.675505835729315e-05,0.3247939265918079,-1.3595675853248866e-05,0.3247939265918079,-1.3931344816561085e-05
0.3255880437717389,-4.195711819790154e-06,0.3255880437717389,7.637251038537641e-05,0.3255880437717389,-1.3595985065148205e-05,0.3255880437717389,-1.426718149348518e-05
0.32638216095167,5.202785604287892e-06,0.32638216095167,9.6512959751413e-05,0.32638216095167,-1.6952527801130397e-05,0.32638216095167,-1.3932044397739206e-05
0.3271762781316011,2.515273665403508e-06,0.3271762781316011,9.482740099970904e-05,0.3271762781316011,-1.5609765109991238e-05,0.3271762781316011,-1.6617217445004382e-05
0.3279703953115321,-4.5265679193067015e-06,0.3279703953115321,7.370188623447375e-05,0.3279703953115321,-1.4939110676524928e-05,0.3279703953115321,-1.695254466173754e-05
0.3287645124914632,-1.3590234869016248e-05,0.3287645124914632,4.0807599308370025e-05,0.3287645124914632,-1.49386e-05,0.3287645124914632,-1.4939836699867438e-05
0.3295586296713942,-1.6280147412464058e-05,0.3295586296713942,1.2601852122486488e-05,0.3295586296713942,-1.49386e-05,0.3295586296713942,-1.628077370623203e-05
0.3303527468513254,-2.366434536661616e-05,0.3303527468513254,-9.895929005843667e-06,0.3303527468513254,-1.4435160561300436e-05,0.3303527468513254,-1.561021406047878e-05
0.3311468640312564,-3.1889991559035935e-05,0.3311468640312564,-4.178903874862775e-05,0.3311468640312564,-1.3595943709029756e-05,0.3311468640312564,-1.1246647331478507e-05
0.3319409812111875,-3.77659609840846e-05,0.3319409812111875,-8.979816403880783e-05,0.3319409812111875,-1.4938568224663182e-05,0.3319409812111875,-9.903131775336816e-06
0.3327350983911186,-2.46651057815718e-05,0.3327350983911186,-0.0001149752527521,0.3327350983911186,-1.4938267205052802e-05,0.3327350983911186,-9.567014807239389e-06
0.3335292155710496,4.549597518213429e-05,0.3335292155710496,-0.0001008721756554,0.3335292155710496,-1.2253364111704948e-05,0.3335292155710496,-6.378224486036882e-06
0.3343233327509807,7.819022898018668e-05,0.3343233327509807,-8.310033261339879e-05,0.3343233327509807,-1.3594672978637565e-05,0.3343233327509807,-6.210560877670305e-06
0.3351174499309118,2.538182912829607e-05,0.3351174499309118,-7.402777930882713e-05,0.3351174499309118,-1.4098951184148716e-05,0.3351174499309118,-9.565084336991843e-06
0.3359115671108428,-1.4959981839525762e-06,0.3359115671108428,-5.389058137293958e-05,0.3359115671108428,-1.4938142413262493e-05,0.3359115671108428,-1.0238433957870016e-05
0.3367056842907739,-5.872984760303001e-06,0.3367056842907739,-3.743694050907039e-05,0.3367056842907739,-1.7287565635881106e-05,0.3367056842907739,-8.896543918377466e-06
0.337499801470705,-1.1915789132056169e-05,0.337499801470705,-2.7194160077765345e-05,0.337499801470705,-1.4939187561700663e-05,0.337499801470705,-8.392585906078715e-06
0.338293918650636,-1.3092079625481536e-05,0.338293918650636,-1.0240536901129125e-05,0.338293918650636,-1.3260271970916029e-05,0.338293918650636,-1.0909942044650509e-05
0.3390880358305671,-1.5610121192155e-05,0.3390880358305671,-5.5390754466068586e-06,0.3390880358305671,-1.292436970196125e-05,0.3390880358305671,-1.2924384850980625e-05
0.3398821530104982,-1.8296117537775837e-05,0.3398821530104982,-6.545570118040264e-06,0.3398821530104982,-1.2252805923334062e-05,0.3398821530104982,-1.258863530777802e-05
0.3406762701904293,-2.0975039060054356e-05,0.3406762701904293,-3.690569313149708e-06,0.3406762701904293,-1.1246584550393349e-05,0.3406762701904293,-1.2255624109841168e-05
0.3414703873703603,-2.867409312046653e-06,0.3414703873703603,2.5129542297271827e-06,0.3414703873703603,-1.3258547850792134e-05,0.3414703873703603,-1.9968150094703186e-05
0.3422645045502914,1.224357370113975e-05,0.3422645045502914,-5.869483171459809e-06,0.3422645045502914,-1.4266571577580014e-05,0.3422645045502914,-2.2322433743419244e-05
0.3430586217302225,-5.530553693665749e-06,0.3430586217302225,-1.2585501390779917e-05,0.3430586217302225,-9.905179102186387e-06,0.3430586217302225,-2.1149559734460435e-05
0.3438527389101535,-1.7620226051410826e-05,0.3438527389101535,-7.554875809445942e-06,0.3438527389101535,-1.0909868836795496e-05,0.3438527389101535,-2.2323513659369507e-05
0.3446468560900846,-1.4603447600790071e-05,0.3446468560900846,1.66449581377354e-07,0.3446468560900846,-1.158147831093554e-05,0.3446468560900846,-2.064580420453648e-05
0.3454409732700157,-1.5609966096011122e-05,0.3454409732700157,-5.538837878103317e-06,0.3454409732700157,-1.0910222602659252e-05,0.3454409732700157,-2.0981188698670372e-05
0.3462350904499467,-1.6617329451237724e-05,0.3462350904499467,-9.56679813231107e-06,0.3462350904499467,-1.2589311869967266e-05,0.3462350904499467,-2.2995529451237724e-05
0.3470292076298778,-1.8631738373270395e-05,0.3470292076298778,-4.193643610763144e-06,0.3470292076298778,-1.7960163023962237e-05,0.3470292076298778,-2.500967534930816e-05
0.3478233248098089,-2.0308374456936168e-05,0.3478233248098089,5.698459338388189e-06,0.3478233248098089,-1.89661446741617e-05,0.3478233248098089,-2.5680329782774468e-05
0.34861744198974,-1.963887184897804e-05,0.34861744198974,2.519981268590013e-06,0.34861744198974,-1.695421554693412e-05,0.34861744198974,-2.0649038797056925e-05
0.349411559169671,-1.896737276257288e-05,0.349411559169671,-3.388527774701375e-05,0.349411559169671,-1.86303680935678e-05,0.349411559169671,-1.259317315087454e-05
0.3502056763496021,-1.4940242057006023e-05,0.3502056763496021,-8.373647960569348e-05,0.3502056763496021,-1.4940105218922187e-05,0.3502056763496021,-1.2253136838083836e-05
0.3509997935295332,-6.212689661711251e-06,0.3509997935295332,-7.469525696179325e-05,0.3509997935295332,-9.56880671549932e-06,0.3509997935295332,-1.1246161884643694e-05
0.3517939107094642,1.0062883422827e-06,0.3517939107094642,-2.1658564731489885e-05,0.3517939107094642,-1.0238724497767265e-05,0.3517939107094642,-9.903251006714604e-06
0.3525880278893953,2.853522540316418e-06,0.3525880278893953,2.1989255106415144e-05,0.3525880278893953,-9.567415895761975e-06,0.3525880278893953,-1.124602970676348e-05
0.3533821450693264,5.20391267624815e-06,0.3533821450693264,4.917998400417967e-05,0.3533821450693264,-9.735536004442436e-06,0.3533821450693264,-1.4938722669453112e-05
0.3541762622492574,8.391740203308447e-06,0.3541762622492574,5.0185128184639296e-05,0.3541762622492574,-1.124645369230022e-05,0.3541762622492574,-1.5611439599980573e-05
0.3549703794291886,6.212123283438136e-06,0.3549703794291886,4.4819892716908445e-05,0.3549703794291886,-1.2923089775966109e-05,0.3549703794291886,-1.9970693417511883e-05
0.3557644966091196,1.8491067985808557e-06,0.3557644966091196,3.877703090603857e-05,0.3557644966091196,-1.5272810178551917e-05,0.3557644966091196,-2.131604867345824e-05
0.3565586137890507,-3.6899857554501624e-06,0.3565586137890507,3.54178328843286e-05,0.3565586137890507,-1.86296671156714e-05,0.3565586137890507,-2.0981363288432863e-05
0.3573527309689818,-1.1578926997254432e-05,0.3573527309689818,2.937564741414419e-05,0.3573527309689818,-2.0309231273848835e-05,0.3573527309689818,-1.8296509961841864e-05
0.3581468481489128,-1.8965587555391648e-05,0.3581468481489128,1.5276996466036574e-05,0.3581468481489128,-1.9638528404055307e-05,0.3581468481489128,-1.6281785212165913e-05
0.3589409653288439,-1.8967e-05,0.3589409653288439,6.2108157874036126e-06,0.3589409653288439,-1.72886026117755e-05,0.3589409653288439,-1.3595917270600577e-05
0.3597350825087749,-1.5105929066099402e-05,0.3597350825087749,-5.54025095009534e-06,0.3597350825087749,-1.1917334884377508e-05,0.3597350825087749,-5.202841620585357e-06
0.360529199688706,-1.0572897901278906e-05,0.360529199688706,-1.729229443706841e-05,0.360529199688706,-1.2252325431456431e-05,0.360529199688706,-5.043068879160436e-07
0.3613233168686371,-4.2017107500350055e-06,0.3613233168686371,-3.238191930110691e-05,0.3613233168686371,-9.569717686486542e-06,0.3613233168686371,-3.5222338585028133e-06
0.3621174340485681,-8.41638808440089e-07,0.3621174340485681,-4.581322879189991e-05,0.3621174340485681,-8.89648856396893e-06,0.3621174340485681,-2.182997120810009e-06
0.3629115512284993,8.382973106123207e-07,0.3629115512284993,-5.3875046269235325e-05,0.3629115512284993,-8.89601e-06,0.3629115512284993,-5.704877754094524e-06
0.3637056684084303,4.865947659730857e-06,0.3637056684084303,-5.471854949017078e-05,0.3637056684084303,-1.090935883070067e-05,0.3637056684084303,-6.881329315472599e-06
0.3644997855883614,6.545666740817013e-06,0.3644997855883614,-6.529054446363667e-05,0.3644997855883614,-1.2420392077806946e-05,0.3644997855883614,-7.553038695246646e-06
0.3652939027682925,4.867835544645785e-06,0.3652939027682925,-6.109761387079881e-05,0.3652939027682925,-1.2253020548464132e-05,0.3652939027682925,-7.721049445412963e-06
0.3660880199482235,-2.182200245787928e-06,0.3660880199482235,-3.977981082885895e-05,0.3660880199482235,-1.25887e-05,0.3660880199482235,-8.560419642119359e-06
0.3668821371281546,-8.560889770584058e-06,0.3668821371281546,-2.030774181002261e-05,0.3668821371281546,-1.258864202276889e-05,0.3668821371281546,-1.2924544934442504e-05
0.3676762543080857,-1.191762215556366e-05,0.3676762543080857,-8.387466611155182e-06,0.3676762543080857,-1.2253214770375772e-05,0.3676762543080857,-1.376376109377605e-05
0.3684703714880167,-1.2923603805763125e-05,0.3684703714880167,7.2051790446690864e-06,0.3684703714880167,-1.2923869203842082e-05,0.3684703714880167,-1.4266801863352504e-05
0.3692644886679478,-1.4266335243476454e-05,0.3692644886679478,1.0572338121571042e-05,0.3692644886679478,-1.3595367621738228e-05,0.3692644886679478,-1.2589780945654431e-05
0.3700586058478789,-1.2589533229641412e-05,0.3700586058478789,5.205996319960117e-06,0.3700586058478789,-1.393133335407172e-05,0.3700586058478789,-1.225316664592828e-05
0.3708527230278099,-9.56846392104279e-06,0.3708527230278099,-5.870855627494193e-06,0.3708527230278099,-1.309249277425577e-05,0.3708527230278099,-1.2588582897274324e-05
0.371646840207741,-5.53984071025218e-06,0.371646840207741,-9.566666847258422e-06,0.371646840207741,-1.225316888874526e-05,0.371646840207741,-1.6280656845245922e-05
0.3724409573876721,-4.867666032641035e-06,0.3724409573876721,-7.553328097386425e-06,0.3724409573876721,-1.1581636032641034e-05,0.3724409573876721,-1.493867206528207e-05
0.3732350745676032,-1.67849e-07,0.3732350745676032,-1.1245553206175068e-05,0.3732350745676032,-1.292458916129266e-05,0.3732350745676032,-1.493878916129266e-05
0.3740291917475342,-1.685777108169432e-07,0.3740291917475342,-7.553139031890258e-06,0.3740291917475342,-1.4938842904329224e-05,0.3740291917475342,-1.6953933553536377e-05
0.3748233089274653,-3.186513671409523e-06,0.3748233089274653,-7.217811815157104e-06,0.3748233089274653,-1.5944824554528685e-05,0.3748233089274653,-2.164851458780054e-05
0.3756174261073964,-2.1827679184396613e-06,0.3756174261073964,-1.0907530980176973e-05,0.3756174261073964,-1.6616614721040226e-05,0.3756174261073964,-2.232341479331889e-05
0.3764115432873274,5.02003236684004e-07,0.3764115432873274,-8.226154764466405e-06,0.3764115432873274,-1.4268551673941148e-05,0.3764115432873274,-2.0310958520143357e-05
0.3772056604672585,-5.031173424863836e-07,0.3772056604672585,-3.526839734493379e-06,0.3772056604672585,-9.737197962232258e-06,0.3772056604672585,-1.8967574212298813e-05
0.3779997776471896,-1.679430095920577e-07,0.3779997776471896,-8.894505847647242e-06,0.3779997776471896,-1.0238658987992265e-05,0.3779997776471896,-1.7288970049360494e-05
0.3787938948271206,-3.3567576679770026e-07,0.3787938948271206,-2.6685643281086062e-05,0.3787938948271206,-1.2252733199982889e-05,0.3787938948271206,-1.527456680001711e-05
0.3795880120070517,-5.035558685809155e-06,0.3795880120070517,-3.575209544576767e-05,0.3795880120070517,-1.3595860918397023e-05,0.3795880120070517,-1.3260145688797769e-05
0.3803821291869828,-1.023934619735689e-05,0.3803821291869828,-4.867687349908953e-05,0.3803821291869828,-1.76242e-05,0.3803821291869828,-1.6281782338149825e-05
0.3811762463669139,-1.359481171229557e-05,0.3811762463669139,-5.219818713734978e-05,0.3811762463669139,-1.7623159680842944e-05,0.3811762463669139,-1.863057177659006e-05
0.3819703635468449,-1.0409253097807328e-05,0.3819703635468449,-4.280912495777491e-05,0.3819703635468449,-1.4269887513511396e-05,0.3819703635468449,-1.6283281259457977e-05
0.382764480726776,4.522160188209219e-06,0.382764480726776,-3.4079108212284006e-05,0.382764480726776,-1.2925278186505231e-05,0.382764480726776,-1.2255634559515695e-05
0.3835585979067071,4.53193e-06,0.3835585979067071,-1.94778951236104e-05,0.3835585979067071,-1.4266519986305184e-05,0.3835585979067071,-8.394415034308451e-06
0.3843527150866381,-5.870985751086811e-06,0.3843527150866381,-6.886337233173835e-06,0.3843527150866381,-1.4938359079557751e-05,0.3843527150866381,-5.5400539047028935e-06
0.3851468322665692,-1.1580394414910186e-05,0.3851468322665692,-8.405225008408273e-07,0.3851468322665692,-1.359608366807408e-05,0.3851468322665692,-5.53903e-06
0.3859409494465003,-1.2252957252368168e-05,0.3859409494465003,1.174811757995876e-06,0.3859409494465003,-1.5945550383288587e-05,0.3859409494465003,-7.217413131557114e-06
0.3867350666264313,-1.158185352447998e-05,0.3867350666264313,3.1891822532408727e-06,0.3867350666264313,-1.6281343661226672e-05,0.3867350666264313,-1.2253112677546658e-05
0.3875291838063624,-1.4603676148375605e-05,0.3875291838063624,3.6928740370939008e-06,0.3875291838063624,-1.5610310459350242e-05,0.3875291838063624,-1.359568356618351e-05
0.3883233009862935,-1.7956948315707383e-05,0.3883233009862935,4.531192078926846e-06,0.3883233009862935,-1.6951619326282954e-05,0.3883233009862935,-1.3092642796607018e-05
0.3891174181662246,-2.1985348036296008e-05,0.3891174181662246,3.1901239805734497e-06,0.3891174181662246,-1.712047703815174e-05,0.3891174181662246,-1.4601792976971596e-05
0.3899115353461556,-2.5343235520793343e-05,0.3899115353461556,5.20215128321569e-06,0.3899115353461556,-1.8965919474989676e-05,0.3899115353461556,-1.6615921277363627e-05
0.3907056525260867,-2.8365177804868875e-05,0.3907056525260867,2.518915280184754e-06,0.3907056525260867,-1.8967e-05,0.3907056525260867,-1.7623759268289626e-05
0.3914997697060178,-3.105132106105965e-05,0.3914997697060178,-4.529885293982849e-06,0.3914997697060178,-1.8967e-05,0.3914997697060178,-1.846315659608328e-05
0.3922938868859488,-3.3737317406680474e-05,0.3922938868859488,-1.1580595696810075e-05,0.3922938868859488,-1.8967e-05,0.3922938868859488,-1.829562390495942e-05
0.3930880040658799,-1.0238392590122118e-05,0.3930880040658799,-1.2588694842887011e-05,0.3930880040658799,-1.661708280962337e-05,0.3930880040658799,-1.8967e-05
0.393882121245811,6.932236640912317e-05,0.393882121245811,-1.158134368879878e-05,0.393882121245811,-1.3259843688798782e-05,0.393882121245811,-1.896674368879878e-05
0.394676238425742,7.367653762477702e-05,0.394676238425742,-9.901036099804002e-06,0.394676238425742,-1.1580895252494392e-05,0.394676238425742,-1.7287241501960606e-05
0.3954703556056732,4.282663346323156e-05,0.3954703556056732,-3.0268681123552347e-06,0.3954703556056732,-9.233614724257493e-06,0.3954703556056732,-1.3095601348319158e-05
0.3962644727856042,4.380803128763481e-05,0.3962644727856042,-2.853551452060865e-06,0.3962644727856042,-1.0238131294274788e-05,0.3962644727856042,-1.4266419802374045e-05
0.3970585899655353,1.3275875792000996e-05,0.3970585899655353,-1.0906039358597057e-05,0.3970585899655353,-1.5271699586212755e-05,0.3970585899655353,-1.49382532781617e-05
0.3978527071454664,-1.056570897900869e-05,0.3978527071454664,-2.5675452057355427e-05,0.3978527071454664,-1.57776142918669e-05,0.3978527071454664,-1.2253990541732369e-05
0.3986468243253974,-1.9972020313609625e-05,0.3986468243253974,-3.809905184298415e-05,0.3986468243253974,-1.3931908498764048e-05,0.3986468243253974,-1.3595502901944232e-05
0.3994409415053285,-3.13869591427808e-05,0.3994409415053285,-4.179422795557502e-05,0.3994409415053285,-1.4938525806065915e-05,0.3994409415053285,-1.393147526868864e-05
0.4002350586852595,-4.1123124811891216e-05,0.4002350586852595,-4.31373e-05,0.4002350586852595,-1.6952948871347316e-05,0.4002350586852595,-2.030992405945609e-05
0.4010291758651906,-4.145716624556113e-05,0.4010291758651906,-4.313581476869194e-05,0.4010291758651906,-1.8967928258506837e-05,0.4010291758651906,-2.1987928692172983e-05
0.4018232930451217,-3.4079967477431736e-05,0.4018232930451217,-3.642927043402885e-05,0.4018232930451217,-2.3159468523194535e-05,0.4018232930451217,-2.0311292608507214e-05
0.4026174102250527,-1.0927405384203123e-05,0.4026174102250527,-6.929726341042395e-05,0.4026174102250527,-1.964101818480345e-05,0.4026174102250527,-1.443936374037769e-05
0.4034115274049838,-1.3594201509854791e-05,0.4034115274049838,-0.000109246222459,0.4034115274049838,-1.695439849014521e-05,0.4034115274049838,-1.3931799687141836e-05
0.4042056445849149,-2.332664227086106e-05,0.4042056445849149,-9.88678583547953e-05,0.4042056445849149,-1.2422828641266504e-05,0.4042056445849149,-1.460259946386886e-05
0.404999761764846,-1.4941118091570324e-05,0.404999761764846,-3.342164125826978e-05,0.404999761764846,-9.903855421470212e-06,0.404999761764846,-1.426730072486299e-05
0.4057938789447771,-8.225633631682628e-06,0.4057938789447771,3.64126542603833e-05,0.4057938789447771,-1.1916992910037824e-05,0.4057938789447771,-1.6281092910037823e-05
0.4065879961247081,-5.03585684343526e-07,0.4065879961247081,9.919859360985892e-05,0.4065879961247081,-9.231723107613452e-06,0.4065879961247081,-1.3595813107662258e-05
0.4073821133046392,5.2036174270417785e-06,0.4073821133046392,0.000130083,0.4073821133046392,-8.22508904602097e-06,0.4073821133046392,-1.3595368857296816e-05
0.4081762304845703,7.218298597172773e-06,0.4081762304845703,0.0001300804695983,0.4081762304845703,-1.158179465074278e-05,0.4081762304845703,-1.0573916050670832e-05
0.4089703476645013,9.90089635324732e-06,0.4089703476645013,0.0001213621617411,0.4089703476645013,-1.225244908420909e-05,0.4089703476645013,-8.56196273916725e-06
0.4097644648444324,1.3090050548336804e-05,0.4097644648444324,8.847877350368332e-05,0.4097644648444324,-9.904683831320227e-06,0.4097644648444324,-9.566731215148474e-06
0.4105585820243635,1.1582395206544689e-05,0.4105585820243635,4.668410136365153e-05,0.4105585820243635,-9.567586713150394e-06,0.4105585820243635,-1.4264725947460171e-05
0.4113526992042945,5.541319142450767e-06,0.4113526992042945,8.406957913553269e-06,0.4113526992042945,-1.2251982602092428e-05,0.4113526992042945,-1.628063694872805e-05
0.4121468163842256,-8.377709973717378e-07,0.4121468163842256,-5.722142300922845e-05,0.4121468163842256,-1.3595489471962447e-05,0.4121468163842256,-1.762388947196245e-05
0.4129409335641567,-9.566679694035833e-06,0.4129409335641567,-7.90551742359263e-05,0.4129409335641567,-1.4938487644772866e-05,0.4129409335641567,-1.96382314671593e-05
0.4137350507440878,-1.5777918002372356e-05,0.4137350507440878,-5.522055492835241e-05,0.4137350507440878,-1.4266942547250435e-05,0.4137350507440878,-1.4602438731768556e-05
0.4145291679240188,-1.7624909082932456e-05,0.4145291679240188,-2.6349605505979183e-05,0.4145291679240188,-1.023865818552576e-05,0.4145291679240188,-7.385405454146623e-06
0.4153232851039499,-2.0978181250263768e-05,0.4153232851039499,-1.3607271159073657e-05,0.4153232851039499,-9.568013740954843e-06,0.4153232851039499,-7.553069062513188e-06
0.416117402283881,-2.249066283379176e-05,0.416117402283881,1.4992680066895055e-06,0.416117402283881,-9.902847295561732e-06,0.416117402283881,-1.0236778319326406e-05
0.416911519463812,-1.7627145916811683e-05,0.416911519463812,-4.863769811647946e-06,0.416911519463812,-1.040639521659414e-05,0.416911519463812,-7.05160009114998e-06
0.4177056366437431,-1.7959746374438984e-05,0.4177056366437431,3.856535753718683e-06,0.4177056366437431,-9.56779408220764e-06,0.4177056366437431,-8.559618689551704e-06
0.4184997538236742,-1.3597153070659052e-05,0.4184997538236742,1.3760529595231196e-05,0.4184997538236742,-1.0909783673666904e-05,0.4184997538236742,-1.0238279591308512e-05
0.4192938710036052,-1.2253218156623232e-05,0.4192938710036052,4.5334298137876095e-06,0.4192938710036052,-1.2252781843376767e-05,0.4192938710036052,-1.02388e-05
0.4200879881835363,-1.1245914987859685e-05,0.4200879881835363,-1.2924140211473906e-05,0.4200879881835363,-7.5532899430475454e-06,0.4200879881835363,-7.888944971523774e-06
0.4208821053634674,-9.062679503066196e-06,0.4208821053634674,-3.0718538254701226e-05,0.4208821053634674,-8.89601e-06,0.4208821053634674,-8.224520906828197e-06
0.4216762225433985,-1.635262977127003e-07,0.4216762225433985,-4.683549132590656e-05,0.4216762225433985,-8.896808746047558e-06,0.4216762225433985,-7.5538777990958946e-06
0.4224703397233295,1.526147472864615e-05,0.4224703397233295,-6.678741077705255e-05,0.4224703397233295,-1.17470301549073e-05,0.4224703397233295,-9.901148338437286e-06
0.4232644569032606,1.4603359238225197e-05,0.4232644569032606,-8.81063192205501e-05,0.4232644569032606,-1.3091281523549609e-05,0.4232644569032606,-1.0909511142662206e-05
0.4240585740831917,7.053721697247006e-06,0.4240585740831917,-0.0001042253566245,0.4240585740831917,-1.4937609555673948e-05,0.4240585740831917,-1.6949558633619692e-05
0.4248526912631227,5.036263192356107e-06,0.4248526912631227,-0.0001196709951843,0.4248526912631227,-1.4267461065414828e-05,0.4248526912631227,-1.5946091598122238e-05
0.4256468084430538,7.384803075878889e-06,0.4256468084430538,-0.0001253816233955,0.4256468084430538,-1.393158098950481e-05,0.4256468084430538,-1.091141484257214e-05
0.4264409256229849,4.532197292632209e-06,0.4264409256229849,-9.383065590557264e-05,0.4264409256229849,-1.426716855369777e-05,0.4264409256229849,-8.896198676876636e-06
0.4272350428029159,1.1748314193524624e-06,0.4272350428029159,-5.219919983624223e-05,0.4272350428029159,-1.2253099530256664e-05,0.4272350428029159,-8.22461e-06
0.428029159982847,-8.399891020119318e-07,0.428029159982847,-1.6945774297932894e-05,0.428029159982847,-1.4099131122509152e-05,0.428029159982847,-8.224880220084259e-06
0.4288232771627781,-4.528572503844338e-06,0.4288232771627781,1.7928156353364167e-05,0.4288232771627781,-1.3260863025152932e-05,0.4288232771627781,-9.56618908701697e-06
0.4296173943427092,-8.221793251178006e-06,0.4296173943427092,4.4124426658272704e-05,0.4296173943427092,-9.73794872171911e-06,0.4296173943427092,-1.158006359085819e-05
0.4304115115226402,-1.0237560848597856e-05,0.4304115115226402,5.454459774749078e-05,0.4304115115226402,-9.56751326312952e-06,0.4304115115226402,-1.2588080421222875e-05
0.4312056287025713,-9.232180944492954e-06,0.4312056287025713,5.824197318637944e-05,0.4312056287025713,-1.3593916207999314e-05,0.4312056287025713,-1.2924243016943585e-05
0.4319997458825024,-6.5469795156302015e-06,0.4319997458825024,5.488777439853834e-05,0.4319997458825024,-1.6280540481169328e-05,0.4319997458825024,-1.359558512029233e-05
0.4327938630624334,-4.196635274834121e-06,0.4327938630624334,4.414625267559358e-05,0.4327938630624334,-1.4938831586605015e-05,0.4327938630624334,-1.35958e-05
0.4335879802423645,-3.524846706897253e-06,0.4335879802423645,2.8031200965534063e-05,0.4335879802423645,-1.3595833413794504e-05,0.4335879802423645,-1.1245958474140386e-05
0.4343820974222956,-3.5251801116816283e-06,0.4343820974222956,1.594339338114046e-05,0.4343820974222956,-1.5610247138523724e-05,0.4343820974222956,-1.4938764759015816e-05
0.4351762146022266,-6.378949638503321e-06,0.4351762146022266,-2.8574272175916965e-06,0.4351762146022266,-1.76242e-05,0.4351762146022266,-1.6281581237654058e-05
0.4359703317821577,-8.893893775106811e-06,0.4359703317821577,-1.7611784798270144e-05,0.4359703317821577,-1.76242e-05,0.4359703317821577,-1.6952235671120415e-05
0.4367644489620888,-1.023786810050785e-05,0.4367644489620888,-3.25524325756422e-05,0.4367644489620888,-1.661779892982413e-05,0.4367644489620888,-1.8630135116959785e-05
0.4375585661420199,-8.393468878265711e-06,0.4375585661420199,-4.246048874186058e-05,0.4375585661420199,-1.6952616566594563e-05,0.4375585661420199,-2.165094909935105e-05
0.438352683321951,-1.1244761937264288e-05,0.438352683321951,-4.3137032219594326e-05,0.438352683321951,-1.4939403341217012e-05,0.438352683321951,-2.450486195321784e-05
0.439146800501882,-1.4937672182997195e-05,0.439146800501882,-3.390781955506987e-05,0.439146800501882,-1.560983130599949e-05,0.439146800501882,-2.114984347000255e-05
0.4399409176818131,-1.2253278430381396e-05,0.4399409176818131,-2.1821652926348757e-05,0.4399409176818131,-1.4603004411393025e-05,0.4399409176818131,-1.7288900238489492e-05
0.4407350348617442,-1.1581585260595046e-05,0.4407350348617442,-1.527400521234001e-05,0.4407350348617442,-1.628141473940495e-05,0.4407350348617442,-1.7624170521190094e-05
0.4415291520416752,-1.1244808576005995e-05,0.4415291520416752,-8.55812715009952e-06,0.4415291520416752,-1.661658638600874e-05,0.4415291520416752,-1.695286420174891e-05
0.4423232692216063,-5.544275858228405e-06,0.4423232692216063,2.842948274351009e-06,0.4423232692216063,-1.3933968652143504e-05,0.4423232692216063,-1.728819141848206e-05
0.4431173864015373,-3.023235694450069e-06,0.4431173864015373,9.562221484042462e-06,0.4431173864015373,-1.6447254336461695e-05,0.4431173864015373,-1.82948217191288e-05
0.4439115035814684,-4.8664756456027e-06,0.4439115035814684,-8.327396311216822e-07,0.4439115035814684,-1.6952485143107727e-05,0.4439115035814684,-2.198599127870116e-05
0.4447056207613995,-4.86763e-06,0.4447056207613995,-1.2247548443207756e-05,0.4447056207613995,-1.829495863779256e-05,0.4447056207613995,-1.8297363746070463e-05
0.4454997379413306,-1.5117479701923095e-06,0.4454997379413306,-1.8964784053014404e-05,0.4454997379413306,-1.695324318939712e-05,0.4454997379413306,-1.561088637879424e-05
0.4462938551212617,-1.6784593729266622e-06,0.4462938551212617,-2.7022229918726476e-05,0.4462938551212617,-1.4267690033173408e-05,0.4462938551212617,-1.7623832475119943e-05
0.4470879723011927,-6.881638481064588e-06,0.4470879723011927,-3.273040091395078e-05,0.4470879723011927,-1.762408289055928e-05,0.4470879723011927,-1.5274381976608502e-05
0.4478820894811238,-6.881971327907068e-06,0.4478820894811238,-4.414462698228138e-05,0.4478820894811238,-1.5274186503224475e-05,0.4478820894811238,-1.6952497341931933e-05
0.4486762066610549,-8.22461e-06,0.4486762066610549,-4.6155663882464215e-05,0.4486762066610549,-1.426772359332923e-05,0.4486762066610549,-1.4266894557560396e-05
0.4494703238409859,-8.22461e-06,0.4494703238409859,-3.525757928311341e-05,0.4494703238409859,-1.627968689372816e-05,0.4494703238409859,-1.3093199354517631e-05
0.450264441020917,-6.882765329373915e-06,0.450264441020917,-2.9042272145714348e-05,0.450264441020917,-1.4939545336413954e-05,0.450264441020917,-1.258905446595504e-05
0.4510585582008481,-9.062645864708622e-06,0.4510585582008481,-2.0985682925978467e-05,0.4510585582008481,-1.1918981118107754e-05,0.4510585582008481,-1.225318679090086e-05
0.4518526753807791,-8.89607862384914e-06,0.4518526753807791,-1.5612195963172497e-05,0.4518526753807791,-1.4098407910403192e-05,0.4518526753807791,-1.3595251009206877e-05
0.4526467925607102,-6.882346224361617e-06,0.4526467925607102,-1.6281224591008597e-05,0.4526467925607102,-1.2421238522478502e-05,0.4526467925607102,-1.42670245910086e-05
0.4534409097406413,-1.0238418389342803e-05,0.4534409097406413,-1.7624047354827707e-05,0.4534409097406413,-1.091037172013499e-05,0.4534409097406413,-1.4938523677413851e-05
0.4542350269205724,-8.224655527638029e-06,0.4542350269205724,-1.8295150415591614e-05,0.4542350269205724,-1.1581543090452463e-05,0.4542350269205724,-1.7624177236180985e-05
0.4550291441005034,-9.567775089047774e-06,0.4550291441005034,-5.031251043555597e-06,0.4550291441005034,-9.902917456382403e-06,0.4550291441005034,-1.6952982545430182e-05
0.4558232612804345,-1.1579728400551356e-05,0.4558232612804345,1.8273920597131227e-05,0.4558232612804345,-8.896945795078287e-06,0.4558232612804345,-1.7958964195629642e-05
0.4566173784603656,-8.227237836696946e-06,0.4566173784603656,3.271930034682248e-05,0.4566173784603656,-8.89601e-06,0.4566173784603656,-1.5779508138080962e-05
0.4574114956402966,-7.21815971739752e-06,0.4574114956402966,1.4614414963972478e-05,0.4574114956402966,-1.090892055885282e-05,0.4574114956402966,-1.3597186036363573e-05
0.4582056128202277,-1.0572863029279583e-05,0.4582056128202277,-1.8383188249399397e-06,0.4582056128202277,-1.1581272603905388e-05,0.4582056128202277,-1.2924727396094613e-05
0.4589997300001588,-1.84930801236024e-06,0.4589997300001588,1.157703382661494e-05,0.4589997300001588,-1.1749342939580158e-05,0.4589997300001588,-1.2253228309689404e-05
0.4597938471800898,1.9969900254811742e-05,0.4597938471800898,2.6013821718636636e-05,0.4597938471800898,-1.493798617977665e-05,0.4597938471800898,-1.2588635388357902e-05
0.4605879643600209,9.232192189615694e-06,0.4605879643600209,1.2421410269556125e-05,0.4605879643600209,-1.6449132194266504e-05,0.4605879643600209,-1.5609864384044345e-05
0.461382081539952,-5.538857626184568e-06,0.461382081539952,-2.5355387236009717e-05,0.461382081539952,-1.49386e-05,0.461382081539952,-1.426709657571074e-05
0.4621761987198831,-3.860865649130859e-06,0.4621761987198831,-0.0001245654814943,0.4621761987198831,-1.4938683912282714e-05,0.4621761987198831,-1.3259680438586428e-05
0.4629703158998141,-5.202174516063383e-06,0.4629703158998141,-0.0002104090492001,0.4629703158998141,-1.5274011129015847e-05,0.4629703158998141,-1.158304435492077e-05
0.4637644330797452,-1.023520464743685e-05,0.4637644330797452,-0.0001452366195518,0.4637644330797452,-1.426791907479666e-05,0.4637644330797452,-1.2923441233604453e-05
0.4645585502596763,-1.2922878812829544e-05,0.4645585502596763,-6.080922234999236e-05,0.4645585502596763,-1.225414089037784e-05,0.4645585502596763,-1.1079145787858507e-05
0.4653526674396073,-1.3259959394806276e-05,0.4653526674396073,-3.213253669259973e-06,0.4653526674396073,-1.2253e-05,0.4653526674396073,-8.393584858303485e-06
0.4661467846195384,-1.4266926814026704e-05,0.4661467846195384,6.527482342434338e-05,0.4661467846195384,-1.3931044690044504e-05,0.4661467846195384,-7.553447652265148e-06
0.4669409017994695,-1.2756686840732246e-05,0.4669409017994695,0.0001283971944677,0.4669409017994695,-1.5106254690424098e-05,0.4669409017994695,-8.560185444871227e-06
0.4677350189794005,-9.902907415018658e-06,0.4677350189794005,0.0001851384975041,0.4677350189794005,-1.1581591975585938e-05,0.4677350189794005,-1.2252919756098415e-05
0.4685291361593316,-1.8458225465840585e-06,0.4685291361593316,0.0002059462279151,0.4685291361593316,-1.12459e-05,0.4685291361593316,-8.895923757193111e-06
0.4693232533392627,1.1721024262234315e-06,0.4693232533392627,0.0001781141688152,0.4693232533392627,-1.12459e-05,0.4693232533392627,-8.392932932093415e-06
0.4701173705191938,-1.5085108802726435e-06,0.4701173705191938,0.0001180456391708,0.4701173705191938,-1.3593937006364616e-05,0.4701173705191938,-1.426254252383951e-05
0.4709114876991248,-5.536430821508173e-06,0.4709114876991248,5.727580417934046e-05,0.4709114876991248,-1.5608700407528014e-05,0.4709114876991248,-2.131235142634804e-05
0.4717056048790559,-1.3927323626360813e-05,0.4717056048790559,1.9321577176801545e-05,0.4717056048790559,-1.695213177782909e-05,0.4717056048790559,-2.3329997716506976e-05
0.472499722058987,-2.46700396401212e-05,0.472499722058987,-1.6604526214611916e-05,0.472499722058987,-2.1650954827238262e-05,0.472499722058987,-2.0310857576055948e-05
0.473293839238918,-3.272896874069896e-05,0.473293839238918,-4.3131930458381056e-05,0.473293839238918,-1.829627969137544e-05,0.473293839238918,-1.426842344447578e-05
0.4740879564188491,-3.575173416658554e-05,0.4740879564188491,-5.387901037557074e-05,0.4740879564188491,-1.5442256623191388e-05,0.4740879564188491,-8.224941666280028e-06
0.4748820735987802,-6.874974227073223e-06,0.4748820735987802,-5.723840479225381e-05,0.4748820735987802,-1.6281524469070565e-05,0.4748820735987802,-5.87450218005345e-06
0.4756761907787112,6.697669322513079e-05,0.4756761907787112,-7.671265854772951e-05,0.4756761907787112,-1.7624522236042137e-05,0.4756761907787112,-3.525232795052669e-06
0.4764703079586423,8.692851278732469e-05,0.4764703079586423,-9.985013661336534e-05,0.4764703079586423,-1.8965831102974848e-05,0.4764703079586423,-5.201868878718559e-06
0.4772644251385734,3.3440766149544386e-05,0.4772644251385734,-0.0001117793715037,0.4772644251385734,-1.4438281198973836e-05,0.4772644251385734,-6.377419335409904e-06
0.4780585423185045,3.877558443538957e-06,0.4780585423185045,-0.0001136329359193,0.4780585423185045,-1.1415441553025771e-05,0.4780585423185045,-3.861981288423893e-06
0.4788526594984356,-1.191053378363015e-05,0.4788526594984356,-0.0001183319844365,0.4788526594984356,-7.219319503595033e-06,0.4788526594984356,-6.544968302775432e-06
0.4796467766783666,-2.097865067386329e-05,0.4796467766783666,-0.0001173272832303,0.4796467766783666,-4.532685353079742e-06,0.4796467766783666,-1.0237761391273238e-05
0.4804408938582977,-2.299503075566419e-05,0.4804408938582977,-0.0001069213912049,0.4804408938582977,-4.364102438141982e-06,0.4804408938582977,-1.0910110247432073e-05
0.4812350110382288,-2.098118366508966e-05,0.4812350110382288,-8.543497798400406e-05,0.4812350110382288,-2.182068001372817e-06,0.4812350110382288,-1.359580933383728e-05
0.4820291282181598,-1.9806822624158702e-05,0.4820291282181598,-6.227085473555452e-05,0.4820291282181598,-4.196879699963328e-06,0.4820291282181598,-1.42672e-05
0.4828232453980909,-2.3663035672113253e-05,0.4828232453980909,-5.455832875069197e-05,0.4828232453980909,-8.22078632297049e-06,0.4828232453980909,-1.42672e-05
0.483617362578022,-2.6350144004453324e-05,0.483617362578022,-3.308354788409353e-05,0.483617362578022,-1.2920627015821308e-05,0.483617362578022,-1.2254616996660004e-05
0.484411479757953,-2.2997499562407538e-05,0.484411479757953,-1.5621437658997522e-05,0.484411479757953,-1.5943720393833216e-05,0.484411479757953,-1.0911079824963011e-05
0.4852055969378841,-2.098222242746555e-05,0.4852055969378841,-1.6281059173923654e-05,0.4852055969378841,-1.4603581652152694e-05,0.4852055969378841,-1.1581259173923652e-05
0.4859997141178152,-1.5611933917369112e-05,0.4859997141178152,-2.8582747790206484e-06,0.4859997141178152,-1.4267320869835568e-05,0.4859997141178152,-1.560854956197317e-05
0.4867938312977463,-8.561807857167562e-06,0.4867938312977463,1.9969249801706635e-05,0.4867938312977463,-1.3260313979898896e-05,0.4867938312977463,-1.6616886020101103e-05
0.4875879484776773,1.00647917482961e-06,0.4875879484776773,4.145740586694432e-05,0.4875879484776773,-1.242085446182044e-05,0.4875879484776773,-1.795981286627846e-05
0.4883820656576084,8.224637759772218e-06,0.4883820656576084,6.63018851436791e-05,0.4883820656576084,-1.3596022078177751e-05,0.4883820656576084,-1.6953105357494408e-05
0.4891761828375395,8.560425808607566e-06,0.4891761828375395,8.425921911966273e-05,0.4891761828375395,-1.6281245588523248e-05,0.4891761828375395,-2.064557720573838e-05
0.4899703000174705,9.063416633707295e-06,0.4899703000174705,7.956463808539856e-05,0.4899703000174705,-1.5610591155056938e-05,0.4899703000174705,-2.098090442247153e-05
0.4907644171974016,6.547968042083255e-06,0.4907644171974016,6.496841857655412e-05,0.4907644171974016,-1.6951814373640888e-05,0.4907644171974016,-2.1316653593410222e-05
0.4915585343773327,2.3523507806111507e-06,0.4915585343773327,4.21435866516852e-05,0.4915585343773327,-1.762380627322565e-05,0.4915585343773327,-2.1652403136612822e-05
0.4923526515572637,-6.877768712478099e-06,0.4923526515572637,1.6628296290142886e-05,0.4923526515572637,-1.695309464036914e-05,0.4923526515572637,-2.16526e-05
0.4931467687371948,-1.7956673365419585e-05,0.4931467687371948,-4.985613890641799e-07,0.4931467687371948,-1.5945993330945968e-05,0.4931467687371948,-2.2994908921198336e-05
0.4939408859171259,-1.4939034104014475e-05,0.4939408859171259,-1.6279133019265546e-05,0.4939408859171259,-1.4938744701338158e-05,0.4939408859171259,-2.467355883110307e-05
0.494735003097057,1.8463072645755816e-06,0.494735003097057,-3.205923142615722e-05,0.494735003097057,-1.5610002618846435e-05,0.494735003097057,-2.232387315701907e-05
0.495529120276988,-6.547694445441325e-06,0.495529120276988,-4.011737127869706e-05,0.495529120276988,-1.628134921133977e-05,0.495529120276988,-1.5441617515292393e-05
0.4963232374569191,-1.6942818186379153e-05,0.4963232374569191,-4.917110624153941e-05,0.4963232374569191,-1.594602199460659e-05,0.4963232374569191,-1.225605890080393e-05
0.4971173546368502,-1.4940237141632677e-05,0.4971173546368502,-5.89071871487754e-05,0.4971173546368502,-1.3597709998571456e-05,0.4971173546368502,-1.292385428612244e-05
0.4979114718167812,-1.3596693254944797e-05,0.4979114718167812,-6.528915703901222e-05,0.4979114718167812,-1.32603233137362e-05,0.4979114718167812,-1.4601783431319004e-05
0.4987055889967123,-1.0911590164268762e-05,0.4987055889967123,-5.589866557494067e-05,0.4987055889967123,-1.4266678688399214e-05,0.4987055889967123,-1.4267373770533596e-05
0.4994997061766434,-1.2252503090676034e-05,0.4994997061766434,-3.777280823886808e-05,0.4994997061766434,-1.594507886334504e-05,0.4994997061766434,-1.3260472681992977e-05
0.5002938233565745,-1.0910498736513645e-05,0.5002938233565745,-2.5012337996879614e-05,0.5002938233565745,-1.527444936825682e-05,0.5002938233565745,-9.232606207316205e-06
0.5010879405365055,-6.882121689611864e-06,0.5010879405365055,-9.568566474349108e-06,0.5010879405365055,-1.0910526832035491e-05,0.5010879405365055,-7.049833415268836e-06
0.5018820577164366,-3.86065201138375e-06,0.5018820577164366,9.23258848123609e-06,0.5018820577164366,-1.15817464136605e-05,0.5018820577164366,-7.553342010656842e-06
0.5026761748963677,-5.5391777027324845e-06,0.5026761748963677,2.1314979835878304e-05,0.5026761748963677,-1.359587385246622e-05,0.5026761748963677,-9.232670079860894e-06
0.5034702920762988,-6.209822147303448e-06,0.5034702920762988,1.2596472200816286e-05,0.5034702920762988,-1.3931201069199374e-05,0.5034702920762988,-1.3591913908496556e-05
0.5042644092562298,-2.855937625971574e-06,0.5042644092562298,-8.209124693679907e-06,0.5042644092562298,-1.711822727839131e-05,0.5042644092562298,-1.7621202830977877e-05
0.5050585264361609,-4.53092890155118e-06,0.5050585264361609,-3.5232182314377575e-05,0.5050585264361609,-1.7623899638854668e-05,0.5050585264361609,-1.76242e-05
0.505852643616092,-2.8541933839116183e-06,0.505852643616092,-4.598587831423948e-05,0.505852643616092,-1.829529864463997e-05,0.505852643616092,-1.6953101355360033e-05
0.506646760796023,-1.6788439706709428e-06,0.506646760796023,-2.803621067947833e-05,0.506646760796023,-1.9302396596567764e-05,0.506646760796023,-1.7959596596567764e-05
0.507440877975954,-3.524546249525123e-06,0.507440877975954,-6.885070231873959e-06,0.507440877975954,-2.0980942043625726e-05,0.507440877975954,-1.997379045235087e-05
0.5082349951558852,-6.881799519338964e-06,0.5082349951558852,1.628125868350597e-05,0.5082349951558852,-1.863131433650543e-05,0.5082349951558852,-1.7792013312774374e-05
0.5090291123358163,-8.224918335674748e-06,0.5090291123358163,3.927776728916704e-05,0.5090291123358163,-1.4938125646119028e-05,0.5090291123358163,-9.902673084333184e-06
0.5098232295157473,-1.0404585200021327e-05,0.5098232295157473,4.6822579721185234e-05,0.5098232295157473,-1.1584853478787951e-05,0.5098232295157473,-6.884748111525905e-06
0.5106173466956784,-1.2586904647317609e-05,0.5106173466956784,3.2071353352825764e-05,0.5106173466956784,-1.3258718927828874e-05,0.5106173466956784,-1.3757937661694483e-05
0.5114114638756094,2.5075398350902225e-06,0.5114114638756094,1.193090020637531e-05,0.5114114638756094,-1.1918206684926484e-05,0.5114114638756094,-1.896348656214889e-05
0.5122055810555405,1.2918909052204522e-05,0.5122055810555405,-1.503554910495701e-06,0.5122055810555405,-1.2252822871970936e-05,0.5122055810555405,-1.8967e-05
0.5129996982354716,-3.854150785283255e-06,0.5129996982354716,-1.7953648358707986e-05,0.5129996982354716,-1.4937579321388691e-05,0.5129996982354716,-1.7624710339305652e-05
0.5137938154154027,-1.2586670924755182e-05,0.5137938154154027,-3.121691736748324e-05,0.5137938154154027,-1.628108783350476e-05,0.5137938154154027,-1.8295443916752384e-05
0.5145879325953338,-1.124601399368501e-05,0.5145879325953338,-4.078658779923893e-05,0.5145879325953338,-1.5945728498421253e-05,0.5145879325953338,-1.695291399368501e-05
0.5153820497752648,-8.224273285379055e-06,0.5153820497752648,-4.2465878955218654e-05,0.5153820497752648,-1.5609789552186488e-05,0.5153820497752648,-1.661691059696784e-05
0.5161761669551959,-2.852911257724765e-06,0.5161761669551959,-4.21293187495742e-05,0.5161761669551959,-1.2252788502417884e-05,0.5161761669551959,-1.3595236006447693e-05
0.5169702841351269,-3.379651233423824e-07,0.5169702841351269,-3.793767859593304e-05,0.5169702841351269,-1.1246806852218422e-05,0.5169702841351269,-1.0912618272582457e-05
0.5177644013150581,-1.5097540804999117e-06,0.5177644013150581,-3.575354525257348e-05,0.5177644013150581,-1.0910453121580622e-05,0.5177644013150581,-5.543079922669621e-06
0.5185585184949891,-1.686633080542089e-07,0.5185585184949891,-3.843587137297585e-05,0.5185585184949891,-8.226238620959854e-06,0.5185585184949891,-3.190565042581835e-06
0.5193526356749202,1.174323864345666e-06,0.5193526356749202,-4.26317745832497e-05,0.5193526356749202,-6.211344206464011e-06,0.5193526356749202,-3.18914e-06
0.5201467528548512,3.691896313316226e-06,0.5201467528548512,-3.239808698960886e-05,0.5201467528548512,-7.552802032108569e-06,0.5201467528548512,-7.551861610578168e-06
0.5209408700347823,-1.845433350201337e-06,0.5209408700347823,-1.6284037524603767e-05,0.5209408700347823,-8.895790206555826e-06,0.5209408700347823,-1.0909650515571143e-05
0.5217349872147133,-1.2252832428046948e-05,0.5217349872147133,-7.217665950004499e-06,0.5217349872147133,-1.2252945944484524e-05,0.5217349872147133,-6.881884866489751e-06
0.5225291043946444,-1.6281047343073044e-05,0.5225291043946444,1.68642474277543e-07,0.5225291043946444,-1.2252691425188914e-05,0.5225291043946444,-9.903144082115869e-06
0.5233232215745756,-1.3598429609207434e-05,0.5233232215745756,6.204503407678668e-06,0.5233232215745756,-9.905400908056504e-06,0.5233232215745756,-1.023847129884907e-05
0.5241173387545066,-1.309261939953458e-05,0.5241173387545066,7.552101712281505e-06,0.5241173387545066,-1.0238520428070375e-05,0.5241173387545066,-1.0574220428070376e-05
0.5249114559344377,-1.2253575037556611e-05,0.5249114559344377,-2.175369194323909e-06,0.5249114559344377,-1.1580679885091732e-05,0.5249114559344377,-1.0909969971272932e-05
0.5257055731143687,-1.3091748813070807e-05,0.5257055731143687,-1.3589663513673836e-05,0.5257055731143687,-1.4601275630279835e-05,0.5257055731143687,-1.09102e-05
0.5264996902942998,-1.1582189220945489e-05,0.5264996902942998,-2.366277176934999e-05,0.5264996902942998,-1.493846905767814e-05,0.5264996902942998,-1.09102e-05
0.5272938074742308,-5.540495176873162e-06,0.5272938074742308,-2.7861982498884936e-05,0.5272938074742308,-1.2924888394715811e-05,0.5272938074742308,-1.3259530206164886e-05
0.528087924654162,-6.881692577282335e-06,0.528087924654162,-2.5345438924119583e-05,0.528087924654162,-1.3595736288166697e-05,0.528087924654162,-1.057475484733321e-05
0.528882041834093,-8.3922565972653e-06,0.528882041834093,-2.0645588431160988e-05,0.528882041834093,-1.3260064625428097e-05,0.528882041834093,-1.0238906123715716e-05
0.5296761590140241,-4.532534311296541e-06,0.5296761590140241,-2.232376572815805e-05,0.5296761590140241,-1.258947216810048e-05,0.5296761590140241,-1.2254410064359006e-05
0.5304702761939551,-7.550469272999586e-06,0.5304702761939551,-2.165321118364519e-05,0.5304702761939551,-1.644568521605503e-05,0.5304702761939551,-1.929628161575525e-05
0.5312643933738862,-6.882332958152136e-06,0.5312643933738862,-2.5677822327488457e-05,0.5312643933738862,-1.5610641159489536e-05,0.5312643933738862,-2.1650804646467523e-05
0.5320585105538173,-4.197885480823403e-06,0.5320585105538173,-3.943611562918797e-05,0.5320585105538173,-1.8126148011770567e-05,0.5320585105538173,-2.5175227204150176e-05
0.5328526277337483,-3.1896121733242297e-06,0.5328526277337483,-3.239820524608905e-05,0.5328526277337483,-1.7624436065563903e-05,0.5328526277337483,-2.366740829046154e-05
0.5336467449136795,3.1870908665284783e-06,0.5336467449136795,-5.715443994174287e-06,0.5336467449136795,-1.493946279574605e-05,0.5336467449136795,-2.333110784946826e-05
0.5344408620936105,1.4600917593913649e-05,0.5344408620936105,-5.539059151395994e-06,0.5344408620936105,-1.49386e-05,0.5344408620936105,-2.4673566774937203e-05
0.5352349792735416,2.0981033501801188e-05,0.5352349792735416,-5.203338763063095e-06,0.5352349792735416,-1.5274291236936904e-05,0.5352349792735416,-2.366672628918929e-05
0.5360290964534726,1.863048542312529e-05,0.5360290964534726,4.870032986008128e-06,0.5360290964534726,-1.3596207288437354e-05,0.5360290964534726,-2.1987933440406385e-05
0.5368232136334037,1.19239410884622e-05,0.5368232136334037,2.465420891762476e-05,0.5368232136334037,-1.69494794557689e-05,0.5368232136334037,-1.896998848980799e-05
0.5376173308133347,7.221480995095538e-06,0.5376173308133347,-7.52605892689364e-06,0.5376173308133347,-1.5778790295128124e-05,0.5376173308133347,-1.4941995153101391e-05
0.5384114479932659,4.533797082827497e-06,0.5384114479932659,-5.317645962669369e-05,0.5384114479932659,-1.7287449727237776e-05,0.5384114479932659,-1.728686629644274e-05
0.539205565173197,-2.178363156031996e-06,0.539205565173197,-5.991852313960277e-05,0.539205565173197,-1.91337888907728e-05,0.539205565173197,-1.7624016156980138e-05
0.539999682353128,-1.0235576820387053e-05,0.539999682353128,-3.911722654866698e-05,0.539999682353128,-1.762480432917492e-05,0.539999682353128,-1.594637149908652e-05
0.5407937995330591,-1.527302865077949e-05,0.5407937995330591,-2.191363192270251e-06,0.5407937995330591,-1.82954304867706e-05,0.5407937995330591,-1.62813152433853e-05
0.5415879167129901,-1.5609964786587903e-05,0.5415879167129901,4.4475105362991386e-05,0.5415879167129901,-1.6449393679011307e-05,0.5415879167129901,-1.2589087347533063e-05
0.5423820338929212,-1.6952857319161842e-05,0.5423820338929212,8.442799938293356e-05,0.5423820338929212,-1.5945556702095396e-05,0.5423820338929212,-9.5672523727318e-06
0.5431761510728523,-1.829598275589834e-05,0.5431761510728523,7.972010699354169e-05,0.5431761510728523,-1.2587998282753328e-05,0.5431761510728523,-5.874209662602787e-06
0.5439702682527834,-2.0307946056297267e-05,0.5439702682527834,3.61277685961385e-05,0.5439702682527834,-8.899408887583974e-06,0.5439702682527834,-3.1916119065282405e-06
0.5447643854327144,-1.6955398365715137e-05,0.5447643854327144,2.568895493371692e-05,0.5447643854327144,-7.218819175117425e-06,0.5447643854327144,-3.860010334597116e-06
0.5455585026126455,-1.3094618405064082e-05,0.5455585026126455,2.131963375115258e-05,0.5455585026126455,-8.391723979473141e-06,0.5455585026126455,-2.8540708738424044e-06
0.5463526197925765,-1.158232335180584e-05,0.5463526197925765,5.135144873261212e-07,0.5463526197925765,-8.224690375083152e-06,0.5463526197925765,-4.8666655037906725e-06
0.5471467369725076,-1.2588366379108754e-05,0.5471467369725076,7.886463459385746e-06,0.5471467369725076,-7.553442410614808e-06,0.5471467369725076,-8.894675523060392e-06
0.5479408541524387,-1.2253061663761145e-05,0.5479408541524387,1.695113508028596e-05,0.5479408541524387,-8.895763346792291e-06,0.5479408541524387,-9.56728667247771e-06
0.5487349713323698,-8.224755446340874e-06,0.5487349713323698,2.400214547188216e-05,0.5487349713323698,-1.2252878794776113e-05,0.5487349713323698,-1.3763448495185143e-05
0.5495290885123009,-7.8887978743987e-06,0.5495290885123009,4.683001212671466e-05,0.5495290885123009,-1.3763805571210362e-05,0.5495290885123009,-1.5610373755715547e-05
0.5503232056922319,-6.882826213094579e-06,0.5503232056922319,4.783599377691413e-05,0.5503232056922319,-1.560815520771944e-05,0.5503232056922319,-1.896364592304709e-05
0.551117322872163,-6.88182e-06,0.551117322872163,2.318424196073696e-05,0.551117322872163,-1.762248227847691e-05,0.551117322872163,-1.8631586286920517e-05
0.551911440052094,-7.552746512564178e-06,0.551911440052094,-5.015593612322375e-06,0.551911440052094,-1.5779102125709713e-05,0.551911440052094,-1.56121306934612e-05
0.5527055572320251,-8.224235604545714e-06,0.5527055572320251,-4.982620885945799e-05,0.5527055572320251,-1.242267200515354e-05,0.5527055572320251,-1.3261410403607478e-05
0.5534996744119562,-8.895734685374593e-06,0.5534996744119562,-9.28029799459861e-05,0.5534996744119562,-1.0910819437404135e-05,0.5534996744119562,-9.233361883651834e-06
0.5542937915918873,-9.567233771779802e-06,0.5542937915918873,-0.0001090977264787,0.5542937915918873,-1.2252647543559605e-05,0.5542937915918873,-7.218048682035807e-06
0.5550879087718184,-9.903061430241427e-06,0.5550879087718184,-0.0001015498678166,0.5550879087718184,-1.2924322858184916e-05,0.5550879087718184,-7.888832859333886e-06
0.5558820259517494,-1.0238668333112955e-05,0.5558820259517494,-8.946344639113762e-05,0.5558820259517494,-1.2924290277376233e-05,0.5558820259517494,-4.531864166556478e-06
0.5566761431316805,-6.21042e-06,0.5566761431316805,-8.47639e-05,0.5566761431316805,-9.567772634464856e-06,0.5566761431316805,-2.5178004393775428e-06
0.5574702603116115,-6.21042e-06,0.5574702603116115,-8.47639e-05,0.5574702603116115,-1.157972594596816e-05,0.5574702603116115,-2.8531276561106502e-06
0.5582643774915427,-4.1978091565613165e-06,0.5582643774915427,-8.275127916440147e-05,0.5582643774915427,-1.1917036805933087e-05,0.5582643774915427,-3.6920220226728766e-06
0.5590584946714737,-5.202689047407076e-06,0.5590584946714737,-6.765281428889388e-05,0.5590584946714737,-6.885024750235944e-06,0.5590584946714737,-4.53139587283923e-06
0.5598526118514048,-3.525650538308756e-06,0.5598526118514048,-5.220864890355534e-05,0.5598526118514048,-6.88182e-06,0.5598526118514048,-6.2095994665797655e-06
0.5606467290313358,-4.867171742163411e-06,0.5606467290313358,-3.475075731774862e-05,0.5606467290313358,-8.224151745576114e-06,0.5606467290313358,-1.0908596104397344e-05
0.5614408462112669,-7.720517321256266e-06,0.5614408462112669,-4.537781887909392e-06,0.5614408462112669,-1.4937299576806016e-05,0.5614408462112669,-1.795853455361259e-05
0.5622349633911979,-1.0910052959409264e-05,0.5622349633911979,1.191654157858214e-05,0.5622349633911979,-1.7624076175568108e-05,0.5622349633911979,-2.4337805921584935e-05
0.563029080571129,-1.35970588149421e-05,0.563029080571129,1.7959968044598748e-05,0.563029080571129,-1.829583815609562e-05,0.563029080571129,-2.635231701621705e-05
0.5638231977510602,-2.60040659451171e-05,0.5638231977510602,1.863062247806515e-05,0.5638231977510602,-2.0643128673228023e-05,0.5638231977510602,-2.652003056906038e-05
0.5646173149309912,-3.4401858889602165e-05,0.5646173149309912,1.5612606799743223e-05,0.5646173149309912,-2.2322451864201168e-05,0.5646173149309912,-2.467539308742789e-05
0.5654114321109223,-2.468076293518733e-05,0.5654114321109223,1.1081341330619034e-05,0.5654114321109223,-1.9808000723338897e-05,0.5654114321109223,-2.2661040607280137e-05
0.5662055492908533,3.4040052518411447e-05,0.5662055492908533,-2.1745129642517146e-06,0.5662055492908533,-1.896747636664469e-05,0.5662055492908533,-2.500816609392473e-05
0.5669996664707844,8.272925293683085e-05,0.5669996664707844,-1.3591005513325428e-05,0.5669996664707844,-1.82958820296163e-05,0.5669996664707844,-2.769397188153481e-05
