X [s].2,L DELTOID ANTERIOR: EMG 3 [V],X [s].3,L BICEPS BRACHII: EMG 4 [V],X [s].4,L DELTOID POSTERIOR: EMG 5 [V],X [s].7,L DELTOID MEDIUS: EMG 8 [V]
0.0,-5.53903e-06,0.0,-1.10781e-05,0.0,-6.54612e-06,0.0,-1.35958e-05
0.000794117179931,-8.224607226658109e-06,0.000794117179931,-9.903101213397748e-06,0.000794117179931,-8.224608266658736e-06,0.000794117179931,-1.1245902426692226e-05
0.0015882343598621,-8.896005231477583e-06,0.0015882343598621,-9.73526119205958e-06,0.0015882343598621,-1.158157615745894e-05,0.0015882343598621,-1.2588690462955167e-05
0.0023823515397932,-7.553216094499459e-06,0.0023823515397932,-1.0238799349080013e-05,0.0023823515397932,-1.2253005207359906e-05,0.0023823515397932,-1.2253000650919988e-05
0.0031764687197242,-5.539033247265586e-06,0.0031764687197242,-9.903100541213618e-06,0.0031764687197242,-1.4938595670291057e-05,0.0031764687197242,-1.2588699458786384e-05
0.0039705858996553,-5.203331733347225e-06,0.0039705858996553,-1.0910194799958323e-05,0.0039705858996553,-1.3931505200041676e-05,0.0039705858996553,-1.3595794799958324e-05
0.0047647030795864,-5.539027074519169e-06,0.0047647030795864,-1.09102e-05,0.0047647030795864,-1.1581620478365817e-05,0.0047647030795864,-1.5106386835771988e-05
0.0055588202595174,-4.531929232058676e-06,0.0055588202595174,-8.896010219412741e-06,0.0055588202595174,-1.191730032911911e-05,0.0055588202595174,-1.4267199890293629e-05
0.0063529374394485,-2.1820475769584083e-06,0.0063529374394485,-9.567407835145528e-06,0.0063529374394485,-1.2924396752718292e-05,0.0063529374394485,-1.3931501082427236e-05
0.0071470546193796,-2.18204e-06,0.0071470546193796,-1.023879545094607e-05,0.0071470546193796,-1.1245911372804217e-05,0.0071470546193796,-1.4602895450878316e-05
0.0079411717993107,-2.853433066611101e-06,0.0079411717993107,-1.09101930666111e-05,0.0079411717993107,-1.158159653330555e-05,0.0079411717993107,-1.4267203466694448e-05
0.0087352889792417,-1.5106417260507254e-06,0.0087352889792417,-1.1581599136974636e-05,0.0087352889792417,-1.15816e-05,0.0087352889792417,-1.158160345210145e-05
0.0095294061591728,-1.678554945198879e-07,0.0095294061591728,-1.2924393505436584e-05,0.0095294061591728,-1.2924393505436584e-05,0.0095294061591728,-1.1245901623640856e-05
0.0103235233391039,-2.1819906680528714e-06,0.0103235233391039,-1.3595829599309351e-05,0.0103235233391039,-1.2924365466002893e-05,0.0103235233391039,-1.3260178931491606e-05
0.0111176405190349,-5.035993805036319e-07,0.0111176405190349,-1.4602968507882376e-05,0.0111176405190349,-1.1749340058153856e-05,0.0111176405190349,-1.594561436514703e-05
0.011911757698966,-1.510586359817585e-06,0.011911757698966,-1.5945628479188644e-05,0.011911757698966,-1.0574562578046811e-05,0.011911757698966,-1.4267289401014193e-05
0.0127058748788971,-3.860455661971512e-06,0.0127058748788971,-1.4938631859290643e-05,0.0127058748788971,-1.1581568140709356e-05,0.0127058748788971,-1.6617025661655164e-05
0.0134999920588282,-3.5248333570726275e-06,0.0134999920588282,-1.4267206714145254e-05,0.0134999920588282,-1.0238813428290509e-05,0.0134999920588282,-1.6281403357072625e-05
0.0142941092387592,-4.867631952809147e-06,0.0142941092387592,-1.4938560943817065e-05,0.0142941092387592,-1.1245939056182937e-05,0.0142941092387592,-1.527428828314512e-05
0.0150882264186903,-5.035463249645528e-06,0.0150882264186903,-1.15816e-05,0.0150882264186903,-1.4602866499291058e-05,0.0150882264186903,-1.4267144165485094e-05
0.0158823435986214,-4.5319657604056766e-06,0.0158823435986214,-1.15816e-05,0.0158823435986214,-1.3595871520811352e-05,0.0158823435986214,-1.2588819201352257e-05
0.0166764607785524,-5.538980258254888e-06,0.0166764607785524,-9.567509482996315e-06,0.0166764607785524,-1.37635917121787e-05,0.0166764607785524,-1.3595750258254888e-05
0.0174705779584835,-6.881782728714434e-06,0.0174705779584835,-1.0238781364496e-05,0.0174705779584835,-1.2924423293339128e-05,0.0174705779584835,-1.4938562728436868e-05
0.0182646951384146,-7.553215889600276e-06,0.0182646951384146,-8.224622331137947e-06,0.0182646951384146,-1.29244e-05,0.0182646951384146,-1.4267204110399722e-05
0.0190588123183456,-1.0910189585017882e-05,0.0190588123183456,-9.567472489737578e-06,0.0190588123183456,-1.5106389585017882e-05,0.0190588123183456,-1.560996875505365e-05
0.0198529294982767,-1.02388e-05,0.0198529294982767,-1.35958e-05,0.0198529294982767,-1.4435068579222137e-05,0.0198529294982767,-1.35958e-05
0.0206470466782078,-1.02388e-05,0.0206470466782078,-1.35958e-05,0.0206470466782078,-1.6281276034554198e-05,0.0206470466782078,-1.35958e-05
0.0214411638581389,-9.90311527870894e-06,0.0214411638581389,-1.258874583612682e-05,0.0214411638581389,-1.661708472129106e-05,0.0214411638581389,-1.35958e-05
0.0222352810380699,-1.0910175951945944e-05,0.0222352810380699,-1.3260083967963964e-05,0.0222352810380699,-1.7624175951945945e-05,0.0222352810380699,-1.5777747897076804e-05
0.023029398218001,-1.09102e-05,0.023029398218001,-1.2588701506654195e-05,0.023029398218001,-1.76242e-05,0.023029398218001,-1.3931504143186832e-05
0.0238235153979321,-1.0910180471908533e-05,0.0238235153979321,-1.0910239056182936e-05,0.0238235153979321,-1.6281468347350616e-05,0.0238235153979321,-1.5609986981272355e-05
0.0246176325778631,-9.902948527293078e-06,0.0246176325778631,-1.2924372459358667e-05,0.0246176325778631,-1.98062e-05,0.0246176325778631,-1.493854491871734e-05
0.0254117497577942,-6.210653604115199e-06,0.0254117497577942,-1.2253042473705531e-05,0.0254117497577942,-1.98062e-05,0.0254117497577942,-1.3595884947411064e-05
0.0262058669377253,-6.881792046327648e-06,0.0262058669377253,-1.3595744092655296e-05,0.0262058669377253,-2.098115107899164e-05,0.0262058669377253,-1.4938544092655296e-05
0.0269999841176564,-6.88182e-06,0.0269999841176564,-1.0910253713162034e-05,0.0269999841176564,-1.795996042730729e-05,0.0269999841176564,-1.6952759715128476e-05
0.0277941012975874,-7.721079599516492e-06,0.0277941012975874,-8.896014936894663e-06,0.0277941012975874,-1.4938601097091334e-05,0.0277941012975874,-1.4938601097091334e-05
0.0285882184775185,-1.359576094873474e-05,0.0285882184775185,-1.191733905126526e-05,0.0285882184775185,-1.561e-05,0.0285882184775185,-1.5610046861518312e-05
0.0293823356574496,-1.1917435984601895e-05,0.0293823356574496,-1.3595664015398104e-05,0.0293823356574496,-1.561e-05,0.0293823356574496,-1.7624036818477723e-05
0.0301764528373806,-1.0910259812962994e-05,0.0301764528373806,-1.1581719625925987e-05,0.0301764528373806,-2.0980880997530695e-05,0.0301764528373806,-1.829556012469134e-05
0.0309705700173117,-1.0238825349926825e-05,0.0309705700173117,-1.2252974650073176e-05,0.0309705700173117,-1.9974138024890232e-05,0.0309705700173117,-1.695285069985365e-05
0.0317646871972428,-1.02388e-05,0.0317646871972428,-1.2420797294669872e-05,0.0317646871972428,-1.6281459534997374e-05,0.0317646871972428,-1.628141082454498e-05
0.0325588043771738,-1.1581596299163136e-05,0.0325588043771738,-1.2252996299163136e-05,0.0325588043771738,-1.913479907506639e-05,0.0325588043771738,-1.6281392598326274e-05
0.0333529215571049,-1.0910145328500052e-05,0.0333529215571049,-1.158163189050948e-05,0.0333529215571049,-1.896692710430483e-05,0.0333529215571049,-1.49386e-05
0.034147038737036,-8.896165370497848e-06,0.034147038737036,-1.2756409370616517e-05,0.034147038737036,-1.62816071616923e-05,0.034147038737036,-1.49386e-05
0.0349411559169671,-7.888965907344698e-06,0.0349411559169671,-1.3260072043551992e-05,0.0349411559169671,-1.4267311814689394e-05,0.0349411559169671,-1.0910423629378788e-05
0.0357352730968981,-5.203420984047592e-06,0.0357352730968981,-1.1749451180601843e-05,0.0357352730968981,-1.4938577253818708e-05,0.0357352730968981,-1.2924331761456123e-05
0.0365293902768292,-5.874711779322997e-06,0.0365293902768292,-1.1581602054587648e-05,0.0365293902768292,-1.3763614387011244e-05,0.0365293902768292,-1.4267183558401108e-05
0.0373235074567603,-5.203326847708806e-06,0.0373235074567603,-1.2253e-05,0.0373235074567603,-1.225300472796728e-05,0.0373235074567603,-1.1749398424323912e-05
0.0381176246366913,-4.867447761382524e-06,0.0381176246366913,-1.2253e-05,0.0381176246366913,-1.2756546863069354e-05,0.0381176246366913,-1.1581579172658524e-05
0.0389117418166224,1.006669615168001e-06,0.0389117418166224,-1.2253e-05,0.0389117418166224,-1.4267089325574844e-05,0.0389117418166224,-1.0910249187005396e-05
0.0397058589965535,2.1819793318355405e-06,0.0397058589965535,-1.124595200172641e-05,0.0397058589965535,-1.225310400345282e-05,0.0397058589965535,-1.1581565332182394e-05
0.0404999761764846,1.8463500712178832e-06,0.0404999761764846,-1.0574520142435766e-05,0.0404999761764846,-1.4938519430256934e-05,0.0404999761764846,-1.2252979857564234e-05
0.0412940933564156,1.1749456170539204e-06,0.0412940933564156,-1.3092178936466107e-05,0.0412940933564156,-1.6281388765892158e-05,0.0412940933564156,-1.628136629767648e-05
0.0420882105363467,-2.85344890707358e-06,0.0420882105363467,-1.174941113467114e-05,0.0420882105363467,-1.7624204453603122e-05,0.0420882105363467,-1.5945624288746905e-05
0.0428823277162778,-3.5247688937695293e-06,0.0428823277162778,-1.2588623611523505e-05,0.0428823277162778,-1.7959869446429693e-05,0.0428823277162778,-1.0239319410695236e-05
0.0436764448962088,-2.8534865887600053e-06,0.0436764448962088,-1.359573011581912e-05,0.0436764448962088,-1.62815164736348e-05,0.0436764448962088,-1.057447670527304e-05
0.0444705620761399,8.390696482721883e-07,0.0444705620761399,-1.4938535871855853e-05,0.0444705620761399,-9.735572624225158e-06,0.0444705620761399,-1.1917235871855852e-05
0.045264679256071,-1.5105786149498946e-06,0.045264679256071,-1.3931526308035352e-05,0.045264679256071,-6.210512077862506e-06,0.045264679256071,-1.1581608769345116e-05
0.046058796436002,-1.1749415066541944e-06,0.046058796436002,-1.2253007533270971e-05,0.046058796436002,-4.196239039880285e-06,0.046058796436002,-1.1245901506654195e-05
0.0468529136159331,-8.392575105210617e-07,0.0468529136159331,-1.1581588489376072e-05,0.0468529136159331,-2.517699712970553e-06,0.0468529136159331,-1.0910176978923587e-05
0.0476470307958642,-1.5105814967998915e-06,0.0476470307958642,-1.091025850372293e-05,0.0476470307958642,-1.680537622460219e-07,0.0476470307958642,-9.56752700657449e-06
0.0484411479757953,-2.1819960142916108e-06,0.0484411479757953,-1.158155601429161e-05,0.0484411479757953,-6.713640108497351e-07,0.0484411479757953,-1.2252824057821576e-05
0.0492352651557263,-3.1890958095101764e-06,0.0492352651557263,-1.225297053967345e-05,0.0492352651557263,-4.19607533403156e-06,0.0492352651557263,-1.3595741079346902e-05
0.0500293823356574,-2.517754934944709e-06,0.0500293823356574,-1.2253e-05,0.0500293823356574,-9.231597988359571e-06,0.0500293823356574,-1.5609955195165873e-05
0.0508234995155885,-3.860529180880373e-06,0.0508234995155885,-1.2420799897639785e-05,0.0508234995155885,-1.2924397747410353e-05,0.0508234995155885,-1.359580122868859e-05
0.0516176166955195,-2.853355316170721e-06,0.0516176166955195,-1.2253056456166476e-05,0.0516176166955195,-1.5945735285104047e-05,0.0516176166955195,-1.2924470570208097e-05
0.0524117338754506,1.1746045998336911e-06,0.0524117338754506,-1.4938376398779002e-05,0.0524117338754506,-1.7624060249236877e-05,0.0524117338754506,-1.6281120498473753e-05
0.0532058510553817,-1.0069655092370663e-06,0.0532058510553817,-1.5609958618037142e-05,0.0532058510553817,-1.695284138196286e-05,0.0532058510553817,-1.62814e-05
0.0539999682353128,-1.8463064296737367e-06,0.0539999682353128,-1.4267253713162036e-05,0.0539999682353128,-1.5274367141452544e-05,0.0539999682353128,-1.4267280569743053e-05
0.0547940854152438,-3.8604930065861485e-06,0.0547940854152438,-1.3595812331199172e-05,0.0547940854152438,-1.4267218496798758e-05,0.0547940854152438,-1.594566917200207e-05
0.0555882025951749,-5.2033234183135e-06,0.0555882025951749,-1.4435010421218748e-05,0.0555882025951749,-1.258870877562557e-05,0.0555882025951749,-1.527430329085959e-05
0.056382319775106,-3.189343460311276e-06,0.056382319775106,-1.7623877847857093e-05,0.056382319775106,-1.5274028718238118e-05,0.056382319775106,-1.6281298269339293e-05
0.057176436955037,-3.5248033489943315e-06,0.057176436955037,-1.577794658886731e-05,0.057176436955037,-1.6616993392801657e-05,0.057176436955037,-1.728842004460124e-05
0.0579705541349681,-5.538913665348022e-06,0.0579705541349681,-1.1917522971861762e-05,0.0579705541349681,-1.4938696945543317e-05,0.0579705541349681,-1.3931693891086633e-05
0.0587646713148992,-4.196278505670984e-06,0.0587646713148992,-9.567494884562996e-06,0.0587646713148992,-1.107823945199794e-05,0.0587646713148992,-1.39315e-05
0.0595587884948302,-4.867620272546354e-06,0.0595587884948302,-8.896019727453646e-06,0.0595587884948302,-1.3595763522773244e-05,0.0595587884948302,-1.2924414591180468e-05
0.0603529056747613,-3.5248443919722184e-06,0.0603529056747613,-7.888912398662038e-06,0.0603529056747613,-1.49386e-05,0.0603529056747613,-1.3931514391972218e-05
0.0611470228546924,-5.538834348931631e-06,0.0611470228546924,-8.224577391488606e-06,0.0611470228546924,-1.49386e-05,0.0611470228546924,-1.594550434893163e-05
0.0619411400346235,-6.5460439509746665e-06,0.0619411400346235,-8.895959300146354e-06,0.0619411400346235,-1.6952647900439062e-05,0.0619411400346235,-1.59457e-05
0.0627352572145545,-6.881801912764099e-06,0.0627352572145545,-1.124577338988749e-05,0.0627352572145545,-1.79598457382923e-05,0.0627352572145545,-1.35959266106513e-05
0.0635293743944856,-6.546130824544977e-06,0.0635293743944856,-1.2420762115704812e-05,0.0635293743944856,-1.8966967526365067e-05,0.0635293743944856,-1.4267178350910044e-05
0.0643234915744167,-4.19625493287232e-06,0.0643234915744167,-1.091021602781276e-05,0.0643234915744167,-1.8967e-05,0.0643234915744167,-1.493859287629188e-05
0.0651176087543477,-5.53904480137329e-06,0.0651176087543477,-1.023878519862671e-05,0.0651176087543477,-1.527429259925824e-05,0.0651176087543477,-1.2588725902596156e-05
0.0659117259342788,-6.881694773722352e-06,0.0659117259342788,-8.896135226277647e-06,0.0659117259342788,-1.4602962613605116e-05,0.0659117259342788,-1.4938380852382095e-05
0.0667058431142099,-8.895865712392029e-06,0.0667058431142099,-8.89601e-06,0.0667058431142099,-1.0239112624702709e-05,0.0667058431142099,-1.49386e-05
0.067499960294141,-9.903049644410598e-06,0.067499960294141,-1.1077990893139563e-05,0.067499960294141,-9.567443570226263e-06,0.067499960294141,-1.5609966429273728e-05
0.068294077474072,-7.217596180810385e-06,0.068294077474072,-1.225296667206558e-05,0.068294077474072,-9.56741e-06,0.068294077474072,-1.3595857136033288e-05
0.0690881946540031,-6.546124519962595e-06,0.0690881946540031,-1.2253e-05,0.0690881946540031,-9.063863389971946e-06,0.0690881946540031,-1.628138192014962e-05
0.0698823118339342,-8.895749133018988e-06,0.0698823118339342,-1.0239023601220972e-05,0.0698823118339342,-1.3595296898362936e-05,0.0698823118339342,-1.5610074533740326e-05
0.0706764290138652,-9.56734998225557e-06,0.0706764290138652,-1.02388e-05,0.0706764290138652,-1.426713998225557e-05,0.0706764290138652,-8.560940185422587e-06
0.0714705461937963,-8.224700984725167e-06,0.0714705461937963,-1.3092006660846892e-05,0.0714705461937963,-1.42672e-05,0.0714705461937963,-1.0406574893292596e-05
0.0722646633737274,-9.231663549528876e-06,0.0722646633737274,-1.3595776772458288e-05,0.0722646633737274,-1.3763623227541713e-05,0.0722646633737274,-1.0574492260560963e-05
0.0730587805536585,-8.896018220799446e-06,0.0730587805536585,-1.3763595890824704e-05,0.0730587805536585,-1.4938571225977511e-05,0.0730587805536585,-1.225295889600277e-05
0.0738528977335895,-6.8818257486226325e-06,0.0738528977335895,-1.4602897604585975e-05,0.0738528977335895,-1.695279425134883e-05,0.0738528977335895,-1.4938592335131768e-05
0.0746470149135206,-5.706995878064627e-06,0.0746470149135206,-1.3092361848582687e-05,0.0746470149135206,-1.9302448243870748e-05,0.0746470149135206,-1.326027982580661e-05
0.0754411320934517,-5.20337305964404e-06,0.0754411320934517,-1.4602770814226777e-05,0.0754411320934517,-1.896702870699945e-05,0.0754411320934517,-1.3595771293000548e-05
0.0762352492733827,-5.539008555691472e-06,0.0762352492733827,-1.46029e-05,0.0762352492733827,-1.7288607221542645e-05,0.0762352492733827,-1.2253085777234116e-05
0.0770293664533138,-7.553134910716813e-06,0.0770293664533138,-1.6617014910294364e-05,0.0770293664533138,-1.4938699271323242e-05,0.0770293664533138,-1.393142909191197e-05
0.0778234836332449,-5.53907151335403e-06,0.0778234836332449,-1.4938634594633444e-05,0.0778234836332449,-1.4267213837853375e-05,0.0778234836332449,-1.4602886162146625e-05
0.078617600813176,-2.1820406874419106e-06,0.078617600813176,-1.42672e-05,0.078617600813176,-1.1917298968837134e-05,0.078617600813176,-1.4938601718604776e-05
0.079411717993107,-2.853370673095037e-06,0.079411717993107,-1.42672e-05,0.079411717993107,-1.0910303990357443e-05,0.079411717993107,-1.6616926682737593e-05
0.0802058351730381,-7.888498925548826e-06,0.0802058351730381,-1.5609890379493268e-05,0.0802058351730381,-1.3259908164113218e-05,0.0802058351730381,-1.762411778461995e-05
0.0809999523529692,-8.224589857564234e-06,0.0809999523529692,-1.577778993178218e-05,0.0809999523529692,-1.762393814833504e-05,0.0809999523529692,-1.76242e-05
0.0817940695329002,-7.553245759106007e-06,0.0817940695329002,-1.561000643795408e-05,0.0817940695329002,-1.5945764398724186e-05,0.0817940695329002,-1.5610077278469026e-05
0.0825881867128313,-6.210442468215682e-06,0.0825881867128313,-1.493861123410784e-05,0.0825881867128313,-1.0238895489916646e-05,0.0825881867128313,-1.2253056170539204e-05
0.0833823038927624,-5.874760623520093e-06,0.0833823038927624,-1.3595962494080369e-05,0.0833823038927624,-3.022163400841528e-06,0.0833823038927624,-1.1581681247040184e-05
0.0841764210726934,-5.706886682972422e-06,0.0841764210726934,-1.1246133561613904e-05,0.0841764210726934,-3.1891233170275784e-06,0.0841764210726934,-1.0910266731889684e-05
0.0849705382526245,-5.874706948373044e-06,0.0849705382526245,-9.567540515491996e-06,0.0849705382526245,-9.23124014376227e-06,0.0849705382526245,-9.567514412238082e-06
0.0857646554325556,-5.539048840001765e-06,0.0857646554325556,-8.22468536225199e-06,0.0857646554325556,-1.2252830435494254e-05,0.0857646554325556,-1.0238762319435236e-05
0.0865587726124866,-8.89589422196897e-06,0.0865587726124866,-6.881866311143434e-06,0.0865587726124866,-1.2253e-05,0.0865587726124866,-1.02388e-05
0.0873528897924177,-8.224618630362314e-06,0.0873528897924177,-5.539047260596087e-06,0.0873528897924177,-1.4267174108913057e-05,0.0873528897924177,-1.4267148217826109e-05
0.0881470069723488,-9.735083051849366e-06,0.0881470069723488,-6.881662713926329e-06,0.0881470069723488,-1.3260217965433756e-05,0.0881470069723488,-1.3595878643622504e-05
0.0889411241522799,-8.560422224252261e-06,0.0889411241522799,-8.224481744666842e-06,0.0889411241522799,-1.4938439679639626e-05,0.0889411241522799,-1.2253128256288298e-05
0.0897352413322109,-6.210593608929308e-06,0.0897352413322109,-1.0238651192451849e-05,0.0897352413322109,-1.4602924801381156e-05,0.0897352413322109,-1.3092138000241086e-05
0.090529358512142,-1.510885540618383e-06,0.090529358512142,-1.1245847383929296e-05,0.090529358512142,-1.5106373694576904e-05,0.090529358512142,-1.5441977229168358e-05
0.0913234756920731,1.6783923786187506e-06,0.0913234756920731,-1.0910210275999313e-05,0.0913234756920731,-1.4267225688467746e-05,0.0913234756920731,-1.6952753756472565e-05
0.0921175928720041,1.678625598069644e-07,0.0921175928720041,-1.3595775893532889e-05,0.0921175928720041,-1.7624169866916112e-05,0.0921175928720041,-1.8966981920149663e-05
0.0929117100519352,-8.391319402590459e-07,0.0929117100519352,-1.762374375877106e-05,0.0929117100519352,-1.8295523959795175e-05,0.0929117100519352,-2.0309647919590357e-05
0.0937058272318663,-5.53859933067581e-06,0.0937058272318663,-1.9134661574684894e-05,0.0937058272318663,-1.82956e-05,0.0937058272318663,-2.1652476951202757e-05
0.0944999444117974,-6.546049502174848e-06,0.0944999444117974,-1.628159974232123e-05,0.0944999444117974,-1.762424699901678e-05,0.0944999444117974,-1.9974217497541945e-05
0.0952940615917284,-7.217487526365056e-06,0.0952940615917284,-1.3595929894539777e-05,0.0952940615917284,-1.6281464947269886e-05,0.0952940615917284,-1.3931792262714496e-05
0.0960881787716595,-5.53907487036542e-06,0.0960881787716595,-1.2253035896506195e-05,0.0960881787716595,-1.5274326922379647e-05,0.0960881787716595,-1.2253044870632744e-05
0.0968822959515906,-3.5250938810201336e-06,0.0968822959515906,-1.1917343980170022e-05,0.0968822959515906,-1.1582083781870244e-05,0.0968822959515906,-1.359562407931991e-05
0.0976764131315216,-3.52483e-06,0.0976764131315216,-1.0910310169052398e-05,0.0976764131315216,-1.2252926553965069e-05,0.0976764131315216,-1.2253146892069864e-05
0.0984705303114527,-8.39481681208266e-07,0.0984705303114527,-8.896186761081715e-06,0.0984705303114527,-1.3931352698367256e-05,0.0984705303114527,-1.2924341079346902e-05
0.0992646474913838,-1.678434506307675e-06,0.0992646474913838,-9.567365604728748e-06,0.0992646474913838,-1.3595822197635626e-05,0.0992646474913838,-1.3931433407093122e-05
0.1000587646713148,-5.87347677541444e-06,0.1000587646713148,-1.191660379387656e-05,0.1000587646713148,-1.493820216623648e-05,0.1000587646713148,-1.359589945844088e-05
0.1008528818512459,-6.546020094365924e-06,0.1008528818512459,-1.1245999905634076e-05,0.1008528818512459,-1.628120018873185e-05,0.1008528818512459,-1.3931450047182964e-05
0.101646999031177,-8.224607951939973e-06,0.101646999031177,-1.2252998771156665e-05,0.101646999031177,-1.6617099590385553e-05,0.101646999031177,-1.2924401228843336e-05
0.1024411162111081,-8.22426606634659e-06,0.1024411162111081,-1.191700519847112e-05,0.1024411162111081,-1.930284740076444e-05,0.1024411162111081,-1.3931254332059268e-05
0.1032352333910391,-5.874423972567183e-06,0.1032352333910391,-9.90260661898568e-06,0.1032352333910391,-2.0309109262464742e-05,0.1032352333910391,-1.2253296030372253e-05
0.1040293505709702,-4.867333932893802e-06,0.1040293505709702,-8.224906067106198e-06,0.1040293505709702,-1.7958567698022106e-05,0.1040293505709702,-1.32603960671062e-05
0.1048234677509013,-4.196679499427492e-06,0.1048234677509013,-8.895560500572508e-06,0.1048234677509013,-1.4940622747423711e-05,0.1048234677509013,-1.3931050500572509e-05
0.1056175849308323,-4.867279020857507e-06,0.1056175849308323,-1.1580196088657596e-05,0.1056175849308323,-1.292545293742748e-05,0.1056175849308323,-1.6280171573001273e-05
0.1064117021107634,-5.538778107262703e-06,0.1064117021107634,-1.2923896214525404e-05,0.1064117021107634,-6.212938919869467e-06,0.1064117021107634,-1.359680757094919e-05
0.1072058192906945,-7.217137986445682e-06,0.1072058192906945,-1.22531528063321e-05,0.1072058192906945,-5.539182804056166e-06,0.1072058192906945,-1.0910811225328403e-05
0.1079999364706256,-7.553193140036541e-06,0.1079999364706256,-1.2253e-05,0.1079999364706256,-8.224395121892568e-06,0.1079999364706256,-1.6280970240584662e-05
0.1087940536505566,-7.217429267043466e-06,0.1087940536505566,-1.3595902071197602e-05,0.1087940536505566,-1.05745680497174e-05,0.1087940536505566,-1.2924263900565195e-05
0.1095881708304877,-5.874431096384591e-06,0.1095881708304877,-1.5106074991769797e-05,0.1095881708304877,-1.1581744452883463e-05,0.1095881708304877,-1.0910488905766926e-05
0.1103822880104188,-4.532295308932989e-06,0.1103822880104188,-1.3596408848221647e-05,0.1103822880104188,-1.225251292142268e-05,0.1103822880104188,-1.225275646071134e-05
0.1111764051903498,-5.53903e-06,0.1111764051903498,-1.527344451320468e-05,0.1111764051903498,-1.0911568778872512e-05,0.1111764051903498,-1.1581428902640935e-05
0.1119705223702809,-5.53903e-06,0.1119705223702809,-1.3596808429538909e-05,0.1119705223702809,-1.3594186512737748e-05,0.1119705223702809,-1.1246101685907782e-05
0.112764639550212,-4.5323871901529855e-06,0.112764639550212,-1.2253609586870644e-05,0.112764639550212,-1.191806198358831e-05,0.112764639550212,-1.4265828429541044e-05
0.1135587567301431,-6.377704308731002e-06,0.1135587567301431,-1.4602180025394557e-05,0.1135587567301431,-1.1581702853515063e-05,0.1135587567301431,-1.5609588585939745e-05
0.1143528739100741,-6.881740034531292e-06,0.1143528739100741,-1.4267253310312471e-05,0.1143528739100741,-1.2924186758750114e-05,0.1143528739100741,-1.561e-05
0.1151469910900052,-6.88182e-06,0.1151469910900052,-1.3595807534219758e-05,0.1151469910900052,-1.326009623289012e-05,0.1151469910900052,-1.1581645205318553e-05
0.1159411082699363,-6.209870689614579e-06,0.1159411082699363,-1.359543379125825e-05,0.1159411082699363,-1.5274277105135634e-05,0.1159411082699363,-1.3260145776092718e-05
0.1167352254498673,-2.1832791451602027e-06,0.1167352254498673,-1.0910771915771864e-05,0.1167352254498673,-1.5105971077368196e-05,0.1167352254498673,-1.35958e-05
0.1175293426297984,-6.54597531971907e-06,0.1175293426297984,-1.292432763831049e-05,0.1175293426297984,-1.359666808168558e-05,0.1175293426297984,-1.3595076598595349e-05
0.1183234598097295,-6.210648102985916e-06,0.1183234598097295,-1.2756614085467189e-05,0.1183234598097295,-1.560863138208451e-05,0.1183234598097295,-1.1918440514929576e-05
0.1191175769896605,-4.197303077072463e-06,0.1191175769896605,-1.225326824396208e-05,0.1191175769896605,-1.628104230586665e-05,0.1191175769896605,-1.5608032682266578e-05
0.1199116941695916,-6.880785572939108e-06,0.1199116941695916,-1.1749593975054965e-05,0.1199116941695916,-1.527468791159225e-05,0.1199116941695916,-1.561e-05
0.1207058113495227,-6.2105795213229695e-06,0.1207058113495227,-1.1917260107789504e-05,0.1207058113495227,-1.6616780957354064e-05,0.1207058113495227,-1.2925038085291876e-05
0.1214999285294538,-4.1964113038532216e-06,0.1214999285294538,-1.2252969782541108e-05,0.1214999285294538,-1.829544891270554e-05,0.1214999285294538,-1.3931409347623324e-05
0.1222940457093848,-6.210458651487412e-06,0.1222940457093848,-1.15816e-05,0.1222940457093848,-1.4938542022768882e-05,0.1222940457093848,-1.2253057977231115e-05
0.1230881628893159,-6.881682262107404e-06,0.1230881628893159,-1.1581737737892595e-05,0.1230881628893159,-1.3931431131053703e-05,0.1230881628893159,-1.3260168868946296e-05
0.123882280069247,-6.21113046936602e-06,0.123882280069247,-1.225276317570222e-05,0.123882280069247,-1.35958e-05,0.123882280069247,-1.359769459438224e-05
0.124676397249178,-8.224777744086896e-06,0.124676397249178,-1.158126451182621e-05,0.124676397249178,-1.3596303232260683e-05,0.124676397249178,-1.896599353547863e-05
0.1254705144291091,-8.56010496082005e-06,0.1254705144291091,-1.09106100783599e-05,0.1254705144291091,-1.4602284882460148e-05,0.1254705144291091,-1.6954030235079706e-05
0.1262646316090402,-6.882598766425764e-06,0.1262646316090402,-1.191683273736073e-05,0.1262646316090402,-1.4435077900304967e-05,0.1262646316090402,-1.4268446033704716e-05
0.1270587487889713,-4.868267262899118e-06,0.1270587487889713,-1.2588487577979006e-05,0.1270587487889713,-1.2589284144738404e-05,0.1270587487889713,-1.594516894494751e-05
0.1278528659689023,-4.531986667807905e-06,0.1278528659689023,-1.2756471674536291e-05,0.1278528659689023,-1.2253056667807904e-05,0.1278528659689023,-1.795955999315257e-05
0.1286469831488334,-5.03546931309203e-06,0.1286469831488334,-1.1581624935057438e-05,0.1286469831488334,-9.903149872237193e-06,0.1286469831488334,-1.5610049872237194e-05
0.1294411003287645,-2.853949020640316e-06,0.1294411003287645,-1.39315e-05,0.1294411003287645,-8.560458465090518e-06,0.1294411003287645,-1.1917427255791872e-05
0.1302352175086955,-6.881130289240282e-06,0.1302352175086955,-1.3931316076400234e-05,0.1302352175086955,-9.73539793996042e-06,0.1302352175086955,-1.2924675885399649e-05
0.1310293346886266,-4.363161378652971e-06,0.1310293346886266,-1.3260382654017524e-05,0.1310293346886266,-1.0239789289061328e-05,0.1310293346886266,-1.3932347962052568e-05
0.1318234518685577,-2.183544458782812e-06,0.1318234518685577,-1.3931037087483832e-05,0.1318234518685577,-1.258707980619341e-05,0.1318234518685577,-1.5944311262451494e-05
0.1326175690484888,-6.375992453828773e-06,0.1326175690484888,-1.5105762311170604e-05,0.1326175690484888,-1.560836015894097e-05,0.1326175690484888,-1.6952253386313657e-05
0.1334116862284198,-6.8816210079607335e-06,0.1334116862284198,-1.8294339697325737e-05,0.1334116862284198,-1.762340403184294e-05,0.1334116862284198,-1.8966204031842936e-05
0.1342058034083509,-5.539362470151708e-06,0.1342058034083509,-1.2925729890510693e-05,0.1342058034083509,-1.6281732472627672e-05,0.1342058034083509,-1.661768182709843e-05
0.134999920588282,-4.867697149908653e-06,0.134999920588282,-1.0910401449725956e-05,0.134999920588282,-1.62814e-05,0.134999920588282,-1.493876787477163e-05
0.135794037768213,-3.524925809489666e-06,0.135794037768213,-1.2252952095255168e-05,0.135794037768213,-1.62814e-05,0.135794037768213,-1.3260115968248278e-05
0.1365881549481441,-5.53863693129478e-06,0.1365881549481441,-1.1245736231130265e-05,0.1365881549481441,-1.628061386258956e-05,0.1365881549481441,-1.359658613741044e-05
0.1373822721280752,-3.5257504338003918e-06,0.1373822721280752,-1.040664245553674e-05,0.1373822721280752,-1.2252424726732688e-05,0.1373822721280752,-1.7622819344158454e-05
0.1381763893080062,-6.211570730806126e-06,0.1381763893080062,-1.0238964390814723e-05,0.1381763893080062,-1.057565073570308e-05,0.1381763893080062,-1.3595142436741095e-05
0.1389705064879373,-8.558851259042863e-06,0.1389705064879373,-1.057429160754788e-05,0.1389705064879373,-1.2922941252835162e-05,0.1389705064879373,-1.2253833569808476e-05
0.1397646236678684,-4.1982984427314055e-06,0.1397646236678684,-9.903418223417047e-06,0.1397646236678684,-1.2421038691261282e-05,0.1397646236678684,-1.1749638691261282e-05
0.1405587408477994,-4.3640252157470345e-06,0.1405587408477994,-8.896338702253912e-06,0.1405587408477994,-1.3595416493909832e-05,0.1405587408477994,-1.1917245199427627e-05
0.1413528580277305,-5.874449887923038e-06,0.1413528580277305,-7.217820124728631e-06,0.1413528580277305,-1.2588880075910018e-05,0.1413528580277305,-1.225293997469666e-05
0.1421469752076616,-4.19628241019143e-06,0.1421469752076616,-8.22457855401004e-06,0.1421469752076616,-1.4770631867906452e-05,0.1421469752076616,-1.1078136685791342e-05
0.1429410923875927,-3.0212118777963094e-06,0.1429410923875927,-8.896127182141964e-06,0.1429410923875927,-1.5777702353063246e-05,0.1429410923875927,-1.2924478122203687e-05
0.1437352095675237,-2.3503773210350805e-06,0.1437352095675237,-9.903454417217796e-06,0.1437352095675237,-1.4938777208608898e-05,0.1437352095675237,-1.3595977208608898e-05
0.1445293267474548,-4.1970578383095225e-06,0.1445293267474548,-1.1245762026263408e-05,0.1445293267474548,-1.5610827842419555e-05,0.1445293267474548,-1.4267062026263407e-05
0.1453234439273859,-6.209011149813104e-06,0.1453234439273859,-1.0910434809530251e-05,0.1453234439273859,-1.762279114281848e-05,0.1453234439273859,-1.3931734809530254e-05
0.146117561107317,-8.559011071124863e-06,0.146117561107317,-1.3090993874264092e-05,0.146117561107317,-1.9804993874264093e-05,0.146117561107317,-1.6280101065597246e-05
0.146911678287248,-5.875808146787756e-06,0.146911678287248,-1.4266723913748706e-05,0.146911678287248,-1.49405722531377e-05,0.146911678287248,-1.4268016113129665e-05
0.1477057954671791,-5.539116473076372e-06,0.1477057954671791,-1.42672e-05,0.1477057954671791,-1.1246851232175873e-05,0.1477057954671791,-1.1917905329566464e-05
0.1484999126471102,-6.881672271301169e-06,0.1484999126471102,-1.1581895459597985e-05,0.1484999126471102,-9.231931593598328e-06,0.1484999126471102,-9.567668526048074e-06
0.1492940298270412,-5.538979556988671e-06,0.1492940298270412,-1.2588687389247169e-05,0.1492940298270412,-8.895997389247168e-06,0.1492940298270412,-1.1581574778494334e-05
0.1500881470069723,-4.19623e-06,0.1500881470069723,-1.2253372923732616e-05,0.1500881470069723,-8.560869383747453e-06,0.1500881470069723,-1.091001353813369e-05
0.1508822641869034,-4.197011876778907e-06,0.1508822641869034,-1.42672e-05,0.1508822641869034,-1.1582493577264226e-05,0.1508822641869034,-9.904328668738312e-06
0.1516763813668344,-6.54660311262767e-06,0.1516763813668344,-1.42672e-05,0.1516763813668344,-1.426816622525534e-05,0.1516763813668344,-1.3595477924914888e-05
0.1524704985467655,-7.552584762827168e-06,0.1524704985467655,-1.42672e-05,0.1524704985467655,-1.628012952565434e-05,0.1524704985467655,-1.2924823491448551e-05
0.1532646157266966,-4.197854687199976e-06,0.1532646157266966,-1.24216936048204e-05,0.1532646157266966,-1.7623550123184125e-05,0.1532646157266966,-1.560870024636825e-05
0.1540587329066277,-4.8674041479972704e-06,0.1540587329066277,-1.359540474217574e-05,0.1540587329066277,-1.6617438778004097e-05,0.1540587329066277,-1.426765170400546e-05
0.1548528500865587,-4.196356765597522e-06,0.1548528500865587,-1.35958e-05,0.1548528500865587,-1.4267643679591328e-05,0.1548528500865587,-1.42672e-05
0.1556469672664898,-5.203288481211458e-06,0.1556469672664898,-1.1749476119840298e-05,0.1556469672664898,-1.2924455358384722e-05,0.1556469672664898,-1.577773772387849e-05
0.1564410844464209,-5.538958592787154e-06,0.1564410844464209,-1.3259957185574308e-05,0.1564410844464209,-1.1581689253698271e-05,0.1564410844464209,-1.6784703635482457e-05
0.157235201626352,-4.867970984696687e-06,0.157235201626352,-1.1917214753190984e-05,0.157235201626352,-1.2420245908438274e-05,0.157235201626352,-1.493894098723606e-05
0.158029318806283,-6.21042e-06,0.158029318806283,-1.1582407722786538e-05,0.158029318806283,-1.0238530763081297e-05,0.158029318806283,-1.628099613860673e-05
0.1588234359862141,-6.21042e-06,0.1588234359862141,-1.3594371023185535e-05,0.1588234359862141,-9.567886318510308e-06,0.1588234359862141,-1.527501448840723e-05
0.1596175531661451,-7.552464321788072e-06,0.1596175531661451,-1.2421461246573588e-05,0.1596175531661451,-9.064143379329471e-06,0.1596175531661451,-1.3596744597764909e-05
0.1604116703460762,-4.868745006651212e-06,0.1604116703460762,-1.3930872785664235e-05,0.1604116703460762,-1.0909433434224731e-05,0.1604116703460762,-1.5609163741897732e-05
0.1612057875260073,-6.377865753511012e-06,0.1612057875260073,-1.39315e-05,0.1612057875260073,-1.2923861001113354e-05,0.1612057875260073,-1.2757263595136056e-05
0.1619999047059384,-5.539130723662807e-06,0.1619999047059384,-1.292452086983558e-05,0.1619999047059384,-1.1581761159780776e-05,0.1619999047059384,-1.2253060428916903e-05
0.1627940218858694,-4.867634626628705e-06,0.1627940218858694,-1.25887e-05,0.1627940218858694,-1.258870925325741e-05,0.1627940218858694,-1.22530925325741e-05
0.1635881390658005,-5.035626989398547e-06,0.1635881390658005,-1.2588641203539998e-05,0.1635881390658005,-1.2924282407079994e-05,0.1635881390658005,-1.5609676610712695e-05
0.1643822562457316,-5.875045018987784e-06,0.1643822562457316,-1.2253866717300756e-05,0.1643822562457316,-1.2253758377638162e-05,0.1643822562457316,-1.3763112487654706e-05
0.1651763734256627,-6.880716214804382e-06,0.1651763734256627,-1.4937811578648005e-05,0.1651763734256627,-1.46030576842704e-05,0.1651763734256627,-1.22525269471888e-05
0.1659704906055937,-4.533435686567728e-06,0.1659704906055937,-1.326117549498229e-05,0.1659704906055937,-1.4938384901003542e-05,0.1659704906055937,-1.1246545296989372e-05
0.1667646077855248,-6.880659218043992e-06,0.1667646077855248,-1.5608839213104266e-05,0.1667646077855248,-1.6951805039803657e-05,0.1667646077855248,-1.5607844252907918e-05
0.1675587249654559,-5.875068850490397e-06,0.1675587249654559,-1.7287918582516003e-05,0.1675587249654559,-1.66172162834968e-05,0.1675587249654559,-1.829466973202561e-05
0.1683528421453869,-3.1896739183774664e-06,0.1683528421453869,-1.930229955823476e-05,0.1683528421453869,-1.9637799337352143e-05,0.1683528421453869,-1.527490066264786e-05
0.169146959325318,-6.88163083301692e-06,0.169146959325318,-2.1820271024374355e-05,0.169146959325318,-2.3666493640023525e-05,0.169146959325318,-1.6281348408725192e-05
0.1699410765052491,-8.224480616519584e-06,0.1699410765052491,-2.1652341231112084e-05,0.1699410765052491,-2.500932210120727e-05,0.1699410765052491,-1.9302473577223077e-05
0.1707351936851801,-6.881901889313581e-06,0.1707351936851801,-1.89660992175506e-05,0.1707351936851801,-2.3162340174404192e-05,0.1707351936851801,-1.6952390553432093e-05
0.1715293108651112,-7.21607606479533e-06,0.1715293108651112,-1.527213409523787e-05,0.1715293108651112,-1.963656225930828e-05,0.1715293108651112,-1.52743e-05
0.1723234280450423,-3.5274866696261047e-06,0.1723234280450423,-9.739245008036357e-06,0.1723234280450423,-1.494198122504428e-05,0.1723234280450423,-1.52743e-05
0.1731175452249733,-3.52483e-06,0.1731175452249733,-7.218962072135384e-06,0.1731175452249733,-1.2590045939338828e-05,0.1731175452249733,-1.2925745939338827e-05
0.1739116624049044,-6.209278133485333e-06,0.1739116624049044,-4.197514600360479e-06,0.1739116624049044,-8.897580068052102e-06,0.1739116624049044,-1.4266629064616751e-05
0.1747057795848355,-7.5528472374271215e-06,0.1747057795848355,-2.182599141083308e-06,0.1747057795848355,-7.050182545761698e-06,0.1747057795848355,-1.3595986381286438e-05
0.1754998967647666,-4.867979178224734e-06,0.1754998967647666,-1.5107272948812316e-06,0.1754998967647666,-8.392285411537729e-06,0.1754998967647666,-1.4602769057678152e-05
0.1762940139446976,-5.874737687285929e-06,0.1762940139446976,5.03571582907405e-07,0.1762940139446976,-1.023877641712772e-05,0.1762940139446976,-1.3092185261473188e-05
0.1770881311246287,-6.8813764899348944e-06,0.1770881311246287,1.8462014042400225e-06,0.1770881311246287,-8.896342632135967e-06,0.1770881311246287,-1.2252778244141725e-05
0.1778822483045598,-4.195495127957137e-06,0.1778822483045598,1.006312636873556e-06,0.1778822483045598,-1.0911039857337284e-05,0.1778822483045598,-1.0909412636873557e-05
0.1786763654844909,-1.8480376363832448e-06,0.1786763654844909,-1.5115659813920928e-06,0.1786763654844909,-1.3595568480516207e-05,0.1786763654844909,-8.393463146891208e-06
0.1794704826644219,-5.5366270315526e-06,0.1794704826644219,-3.523519292895675e-06,0.1794704826644219,-1.3092527710939751e-05,0.1794704826644219,-1.0573080066761367e-05
0.180264599844353,-6.042316228747506e-06,0.180264599844353,-6.209066531481146e-06,0.180264599844353,-1.2924484566898692e-05,0.180264599844353,-1.2252154079025875e-05
0.181058717024284,-7.552681615534953e-06,0.181058717024284,-8.559472516618298e-06,0.181058717024284,-1.426672143603107e-05,0.181058717024284,-1.2924160718015534e-05
0.1818528342042151,-6.881960195579257e-06,0.1818528342042151,-9.902819610929592e-06,0.1818528342042151,-1.42672e-05,0.1818528342042151,-1.4266919608841485e-05
0.1826469513841462,-6.5461405545870364e-06,0.1826469513841462,-1.4266932790368523e-05,0.1826469513841462,-1.5945597227064817e-05,0.1826469513841462,-1.3595841109174071e-05
0.1834410685640773,-7.553104045537777e-06,0.1834410685640773,-1.6281284045537778e-05,0.1834410685640773,-1.594596089754e-05,0.1834410685640773,-1.5945642022768886e-05
0.1842351857440083,-6.2101451409758284e-06,0.1842351857440083,-1.4939542381817772e-05,0.1842351857440083,-1.896676440454556e-05,0.1842351857440083,-1.5274221468181853e-05
0.1850293029239394,-5.035543956960048e-06,0.1850293029239394,-1.896776748352058e-05,0.1850293029239394,-1.795874877471913e-05,0.1850293029239394,-1.4938855827840193e-05
0.1858234201038705,-5.203207565326626e-06,0.1858234201038705,-2.097973078391951e-05,0.1858234201038705,-1.494080382412074e-05,0.1858234201038705,-1.5609510261306504e-05
0.1866175372838016,-2.854809435979204e-06,0.1866175372838016,-2.299412625101357e-05,0.1866175372838016,-1.359658253817535e-05,0.1866175372838016,-1.4938991269087676e-05
0.1874116544637326,-2.3501091370118684e-06,0.1874116544637326,-1.963986086989404e-05,0.1874116544637326,-1.4266907817317508e-05,0.1874116544637326,-1.0911953096094947e-05
0.1882057716436637,-2.517691725930673e-06,0.1882057716436637,-1.6953572385109228e-05,0.1882057716436637,-1.527401035558404e-05,0.1882057716436637,-1.0406844807827858e-05
0.1889998888235948,-4.195994976719959e-06,0.1889998888235948,-1.89667179703837e-05,0.1889998888235948,-1.52743e-05,0.1889998888235948,-1.6280577420620168e-05
0.1897940060035258,-6.88182e-06,0.1897940060035258,-2.081329619297824e-05,0.1897940060035258,-1.49386e-05,0.1897940060035258,-1.7959887308667288e-05
0.1905881231834569,-6.882054365059677e-06,0.1905881231834569,-2.0309305218286075e-05,0.1905881231834569,-1.49386e-05,0.1905881231834569,-1.6281217707100884e-05
0.191382240363388,-8.3922059413479e-06,0.191382240363388,-1.711978700262609e-05,0.191382240363388,-1.4938193501313044e-05,0.191382240363388,-1.5106247578128626e-05
0.192176357543319,-7.55306902227395e-06,0.192176357543319,-1.4434320622719778e-05,0.192176357543319,-1.35954980445479e-05,0.192176357543319,-1.4601843155917651e-05
0.1929704747232501,-7.217741805540784e-06,0.1929704747232501,-1.2925398091897257e-05,0.1929704747232501,-1.2924843611081569e-05,0.1929704747232501,-1.2254552638785487e-05
0.1937645919031812,-4.868837786692052e-06,0.1937645919031812,-1.2756586296543922e-05,0.1937645919031812,-1.5273092208168192e-05,0.1937645919031812,-1.2253e-05
0.1945587090831123,-6.881082012737942e-06,0.1945587090831123,-9.568578463649186e-06,0.1945587090831123,-1.4938722998487666e-05,0.1945587090831123,-1.6279924018148005e-05
0.1953528262630433,-5.707127093497718e-06,0.1953528262630433,-1.0238653091617998e-05,0.1953528262630433,-1.3596093821140249e-05,0.1953528262630433,-1.4938893821140247e-05
0.1961469434429744,-3.524985427823752e-06,0.1961469434429744,-1.2252856527505178e-05,0.1961469434429744,-1.4938504351670118e-05,0.1961469434429744,-1.1749627168344994e-05
0.1969410606229055,-6.210727571914437e-06,0.1969410606229055,-1.2253051262240242e-05,0.1969410606229055,-1.5106284663777014e-05,0.1969410606229055,-1.426735378672073e-05
0.1977351778028366,-1.0237897912605951e-05,0.1977351778028366,-1.2925151743227256e-05,0.1977351778028366,-1.3596401394581805e-05,0.1977351778028366,-1.6280798605418195e-05
0.1985292949827676,-6.20998404144277e-06,0.1985292949827676,-1.6281026318056254e-05,0.1985292949827676,-1.6280403514816673e-05,0.1985292949827676,-1.3595675439352084e-05
0.1993234121626987,-5.036348771772033e-06,0.1993234121626987,-1.5275044667856753e-05,0.1993234121626987,-1.3597785780951344e-05,0.1993234121626987,-1.326034822261892e-05
0.2001175293426297,-4.867729496019636e-06,0.2001175293426297,-1.6280803023882185e-05,0.2001175293426297,-1.1582793952235628e-05,0.2001175293426297,-1.5273106047764372e-05
0.2009116465225608,-2.85433668856822e-06,0.2009116465225608,-1.762360220465328e-05,0.2009116465225608,-1.3762628604820868e-05,0.2009116465225608,-1.6280951653489962e-05
0.2017057637024919,-3.1890400943659244e-06,0.2017057637024919,-1.62817996225363e-05,0.2017057637024919,-1.3931450032302767e-05,0.2017057637024919,-1.62814e-05
0.202499880882423,-4.1960789142057366e-06,0.202499880882423,-1.561010072486299e-05,0.202499880882423,-1.39315e-05,0.202499880882423,-1.62814e-05
0.203293998062354,-6.881813446193274e-06,0.203293998062354,-1.6281398361542218e-05,0.203293998062354,-1.4267199180771109e-05,0.203293998062354,-1.4602904096144456e-05
0.2040881152422851,-7.888374039191989e-06,0.2040881152422851,-1.0909469143297136e-05,0.2040881152422851,-1.4938648723973711e-05,0.2040881152422851,-1.4603192343842275e-05
0.2048822324222162,-4.196426534352587e-06,0.2048822324222162,-5.874228667045766e-06,0.2048822324222162,-1.5274250851775695e-05,0.2048822324222162,-1.6615822526708188e-05
0.2056763496021472,-4.868072868964165e-06,0.2056763496021472,-4.195639506581943e-06,0.2056763496021472,-1.510558808749115e-05,0.2056763496021472,-1.2252704751092215e-05
0.2064704667820783,-5.874044530268319e-06,0.2064704667820783,-2.854340628544622e-06,0.2064704667820783,-1.326133833993546e-05,0.2064704667820783,-1.1582050317625882e-05
0.2072645839620094,-5.203681793131611e-06,0.2072645839620094,-3.524478206868389e-06,0.2072645839620094,-1.3595624100814308e-05,0.2072645839620094,-1.3930268705700154e-05
0.2080587011419405,-3.861035423932354e-06,0.2080587011419405,-6.880556443933071e-06,0.2080587011419405,-1.2924652711966177e-05,0.2080587011419405,-1.4267073644016913e-05
0.2088528183218715,-6.209882312824582e-06,0.2088528183218715,-7.049631593609746e-06,0.2088528183218715,-1.0239414502244063e-05,0.2088528183218715,-1.376371523061145e-05
0.2096469355018026,-3.1893854245764974e-06,0.2096469355018026,-6.881833634788952e-06,0.2096469355018026,-1.1245818191266288e-05,0.2096469355018026,-1.3595813630727351e-05
0.2104410526817337,-3.5250527355835e-06,0.2104410526817337,-7.5530974950641505e-06,0.2104410526817337,-1.29244445472494e-05,0.2104410526817337,-1.42673113681235e-05
0.2112351698616647,-6.88185590841364e-06,0.2112351698616647,-5.707408624065286e-06,0.2112351698616647,-1.359623090096368e-05,0.2112351698616647,-1.5945340915863597e-05
0.2120292870415958,-7.049912414751517e-06,0.2120292870415958,-8.225337240643965e-06,0.2120292870415958,-1.561072724425455e-05,0.2120292870415958,-1.4267806036878792e-05
0.2128234042215269,-7.720566848217825e-06,0.2128234042215269,-1.0237290552147546e-05,0.2128234042215269,-1.7622690544653477e-05,0.2128234042215269,-1.5944442120544563e-05
0.2136175214014579,-7.72107e-06,0.2136175214014579,-1.2251785902791768e-05,0.2136175214014579,-1.5275716446742938e-05,0.2136175214014579,-1.661669530093059e-05
0.214411638581389,-5.540023236606788e-06,0.214411638581389,-1.15819056126642e-05,0.214411638581389,-1.2925469644324707e-05,0.214411638581389,-1.3932722450656812e-05
0.2152057557613201,-5.53903e-06,0.2152057557613201,-1.3259583684352397e-05,0.2152057557613201,-1.1582013052518083e-05,0.2152057557613201,-1.1582322841906646e-05
0.2159998729412512,-4.867737439853835e-06,0.2159998729412512,-1.3931392560146166e-05,0.2159998729412512,-1.2252892560146163e-05,0.2159998729412512,-1.393112396051158e-05
0.2167939901211822,-2.5177692369457738e-06,0.2167939901211822,-1.292441253017294e-05,0.2167939901211822,-1.2924391646551372e-05,0.2167939901211822,-1.2253020883621566e-05
0.2175881073011133,-1.8462946335217328e-06,0.2175881073011133,-1.393181756534787e-05,0.2175881073011133,-1.1749876354778805e-05,0.2175881073011133,-1.2253181465913067e-05
0.2183822244810444,-1.51106709356392e-06,0.2183822244810444,-1.628068816325738e-05,0.2183822244810444,-1.5273920361276517e-05,0.2183822244810444,-1.359598981936174e-05
0.2191763416609755,-3.0217949448384083e-06,0.2191763416609755,-1.3763239343533804e-05,0.2191763416609755,-1.3930273716443466e-05,0.2191763416609755,-1.4267055728818276e-05
0.2199704588409065,-4.195430214509104e-06,0.2199704588409065,-1.2924971246177642e-05,0.2199704588409065,-1.1080042318688378e-05,0.2199704588409065,-1.3931728512085124e-05
0.2207645760208376,-3.525188513362229e-06,0.2207645760208376,-1.175002742508284e-05,0.2207645760208376,-1.2587893371633925e-05,0.2207645760208376,-1.1247334053448915e-05
0.2215586932007686,-5.034896289346597e-06,0.2215586932007686,-1.1581664837419416e-05,0.2215586932007686,-1.2253129713478534e-05,0.2215586932007686,-1.0910329713478534e-05
0.2223528103806997,-6.042329491560362e-06,0.2223528103806997,-1.091036034055186e-05,0.2223528103806997,-1.091052068110372e-05,0.2223528103806997,-1.258829914862035e-05
0.2231469275606308,-7.553082178169979e-06,0.2231469275606308,-1.2924216237559973e-05,0.2231469275606308,-1.4938232475119945e-05,0.2231469275606308,-9.903345016586705e-06
0.2239410447405619,-5.538935419353729e-06,0.2239410447405619,-1.4267360784281244e-05,0.2239410447405619,-2.0309913491140693e-05,0.2239410447405619,-1.1917413496775526e-05
0.2247351619204929,-3.861146131947422e-06,0.2247351619204929,-1.712042886186686e-05,0.2247351619204929,-2.232348926440186e-05,0.2247351619204929,-1.393156845933186e-05
0.225529279100424,-6.882055708207179e-06,0.225529279100424,-1.6280751784876773e-05,0.225529279100424,-2.0309092875378464e-05,0.225529279100424,-1.426743570820718e-05
0.2263233962803551,-7.552710141673488e-06,0.2263233962803551,-1.4436402148367695e-05,0.2263233962803551,-1.8297129574979535e-05,0.2263233962803551,-1.4938090141673488e-05
0.2271175134602862,-6.882231414060254e-06,0.2271175134602862,-1.5944774287725904e-05,0.2271175134602862,-1.561164565624102e-05,0.2271175134602862,-1.3764320005243968e-05
0.2279116306402172,-6.210732327655094e-06,0.2279116306402172,-1.3932436982965282e-05,0.2279116306402172,-1.0241298621240753e-05,0.2279116306402172,-1.4266965730999247e-05
0.2287057478201483,-5.539243238073818e-06,0.2287057478201483,-1.2924719861874828e-05,0.2287057478201483,-4.8693359204708825e-06,0.2287057478201483,-1.091126620624943e-05
0.2294998650000794,-6.042484385566724e-06,0.2294998650000794,-1.628082922577649e-05,0.2294998650000794,-8.399309263478095e-07,0.2294998650000794,-1.0238914154844702e-05
0.2302939821800104,-7.217493630230844e-06,0.2302939821800104,-1.561001506843952e-05,0.2302939821800104,-6.210299453067387e-06,0.2302939821800104,-1.4267109589362894e-05
0.2310880993599415,-5.539282052645687e-06,0.2310880993599415,-1.3259973973051464e-05,0.2310880993599415,-7.55334602569715e-06,0.2310880993599415,-1.6281063928137237e-05
0.2318822165398726,-7.552670689614578e-06,0.2318822165398726,-1.2253091552185435e-05,0.2318822165398726,-8.561591727868922e-06,0.2318822165398726,-1.3596715521854372e-05
0.2326763337198036,-5.538466328361784e-06,0.2326763337198036,-1.2588559082090448e-05,0.2326763337198036,-1.326080458954777e-05,0.2326763337198036,-1.6952236328361787e-05
0.2334704508997347,-4.197157461429166e-06,0.2334704508997347,-1.225323186535729e-05,0.2334704508997347,-1.4937440673213545e-05,0.2334704508997347,-1.5610927461429167e-05
0.2342645680796658,-3.1896878370898418e-06,0.2342645680796658,-1.1581965228353096e-05,0.2342645680796658,-1.6280669543293807e-05,0.2342645680796658,-1.3596895685059289e-05
0.2350586852595969,-5.538098507146293e-06,0.2350586852595969,-1.1917166929026044e-05,0.2350586852595969,-1.7120267342385035e-05,0.2350586852595969,-1.4602500787078132e-05
0.2358528024395279,-5.7068282386024855e-06,0.2358528024395279,-1.1246067055542727e-05,0.2358528024395279,-1.93021570570453e-05,0.2358528024395279,-1.7287831777829087e-05
0.236646919619459,-3.6928839064002808e-06,0.236646919619459,-1.0238901953706314e-05,0.236646919619459,-1.963836601543123e-05,0.236646919619459,-1.96381621080186e-05
0.2374410367993901,-6.546011090026725e-06,0.2374410367993901,-1.29244e-05,0.2374410367993901,-1.9134613296394152e-05,0.2374410367993901,-1.7288328855027974e-05
0.2382351539793211,-4.1962951018364246e-06,0.2382351539793211,-1.2924204694490726e-05,0.2382351539793211,-1.5106107051432522e-05,0.2382351539793211,-1.3595344287145028e-05
0.2390292711592522,-4.532502500746293e-06,0.2390292711592522,-1.1916612995011478e-05,0.2390292711592522,-1.3595341996674318e-05,0.2390292711592522,-1.1245327499253707e-05
0.2398233883391833,-6.2091285955167215e-06,0.2398233883391833,-9.90464969461255e-06,0.2398233883391833,-1.22540331297417e-05,0.2398233883391833,-9.56870140448328e-06
0.2406175055191144,-4.197484380925648e-06,0.2406175055191144,-9.567619058297842e-06,0.2406175055191144,-1.2253e-05,0.2406175055191144,-1.1915836554548792e-05
0.2414116226990454,-2.854078080539974e-06,0.2414116226990454,-1.3593885748876272e-05,0.2414116226990454,-1.0910838085291875e-05,0.2414116226990454,-1.3595002393385155e-05
0.2422057398789765,-2.85344e-06,0.2422057398789765,-1.560934013127774e-05,0.2422057398789765,-1.493728026255548e-05,0.2422057398789765,-1.594493015315736e-05
0.2429998570589076,-5.538546522457989e-06,0.2429998570589076,-1.5945639565082214e-05,0.2429998570589076,-1.560987913016443e-05,0.2429998570589076,-1.8966456085739936e-05
0.2437939742388386,-6.210398216894063e-06,0.2437939742388386,-1.829552375799365e-05,0.2437939742388386,-1.5777794555764643e-05,0.2437939742388386,-1.8967e-05
0.2445880914187697,-7.72097337128147e-06,0.2445880914187697,-1.8294981576201415e-05,0.2445880914187697,-1.62814e-05,0.2445880914187697,-1.9637878199163094e-05
0.2453822085987008,-6.881643610619992e-06,0.2453822085987008,-1.2924047221239983e-05,0.2453822085987008,-1.6281267694829057e-05,0.2453822085987008,-1.5106267721100931e-05
0.2461763257786318,-6.211589295319928e-06,0.2461763257786318,-1.158187512927477e-05,0.2461763257786318,-1.577718097962099e-05,0.2461763257786318,-1.4602212176813076e-05
0.2469704429585629,-9.061860648656495e-06,0.2469704429585629,-1.2252529562741102e-05,0.2469704429585629,-1.4268258448798466e-05,0.2469704429585629,-1.2925576093147244e-05
0.247764560138494,-7.889560900851978e-06,0.247764560138494,-1.2588514028328009e-05,0.247764560138494,-1.3260657915015982e-05,0.247764560138494,-1.4434163155175117e-05
0.2485586773184251,-6.378883924048254e-06,0.2485586773184251,-1.1582009285408168e-05,0.2485586773184251,-1.359566357153061e-05,0.2485586773184251,-1.577725428612244e-05
0.2493527944983561,-6.2104634426334e-06,0.2493527944983561,-1.023914754106719e-05,0.2493527944983561,-1.5945091803132415e-05,0.2493527944983561,-1.4938817200226085e-05
0.2501469116782872,-6.881745315871588e-06,0.2501469116782872,-1.02388e-05,0.2501469116782872,-1.6952687973807385e-05,0.2501469116782872,-1.2924624052385233e-05
0.2509410288582183,-7.553244401913296e-06,0.2509410288582183,-9.5673611954465e-06,0.2509410288582183,-1.49386488045535e-05,0.2509410288582183,-1.3931512201138376e-05
0.2517351460381494,-8.224486513157266e-06,0.2517351460381494,-8.224671744341002e-06,0.2517351460381494,-1.6281091278294987e-05,0.2517351460381494,-1.4266891278294988e-05
0.2525292632180804,-7.55322e-06,0.2525292632180804,-8.560865734485337e-06,0.2525292632180804,-1.4603011147559252e-05,0.2525292632180804,-1.25887e-05
0.2533233803980115,-7.55322e-06,0.2533233803980115,-1.0237491829255764e-05,0.2533233803980115,-1.4938338364292406e-05,0.2533233803980115,-1.25887e-05
0.2541174975779426,-4.869329369840226e-06,0.2541174975779426,-9.903312422020996e-06,0.2541174975779426,-1.49386e-05,0.2541174975779426,-1.0575774532125967e-05
0.2549116147578736,-5.874231368396673e-06,0.2549116147578736,-7.218823020843484e-06,0.2549116147578736,-1.4603062878818414e-05,0.2549116147578736,-1.1581111363544755e-05
0.2557057319378047,-4.8679700034713335e-06,0.2557057319378047,-8.224269996528666e-06,0.2557057319378047,-1.493848666438419e-05,0.2557057319378047,-1.2252773328768378e-05
0.2564998491177358,-6.210164832247454e-06,0.2564998491177358,-8.22461e-06,0.2564998491177358,-1.292478275447924e-05,0.2564998491177358,-1.124609137723962e-05
0.2572939662976669,-9.5672675083182e-06,0.2572939662976669,-7.553248497996789e-06,0.2572939662976669,-1.1245971246053131e-05,0.2572939662976669,-1.12459e-05
0.2580880834775979,-9.735030590103502e-06,0.2580880834775979,-1.0910164706008022e-05,0.2580880834775979,-1.2588805881975934e-05,0.2580880834775979,-1.2588947057943844e-05
0.258882200657529,-7.553135162805418e-06,0.258882200657529,-1.0574754511583744e-05,0.258882200657529,-1.3595715162805418e-05,0.258882200657529,-1.493868483719458e-05
0.2596763178374601,-7.21752e-06,0.2596763178374601,-1.15816e-05,0.2596763178374601,-1.3260234211365215e-05,0.2596763178374601,-1.52743e-05
0.2604704350173911,-7.21752e-06,0.2604704350173911,-1.15816e-05,0.2604704350173911,-1.359556142809837e-05,0.2604704350173911,-1.52743e-05
0.2612645521973222,-5.875477316669758e-06,0.2612645521973222,-1.2923642683330245e-05,0.2612645521973222,-1.393131067083256e-05,0.2612645521973222,-1.4267767987502317e-05
0.2620586693772533,-8.223631502410332e-06,0.2620586693772533,-1.4266640856140751e-05,0.2620586693772533,-1.3092549485732102e-05,0.2620586693772533,-1.0911597859648118e-05
0.2628527865571843,-6.210961453885192e-06,0.2628527865571843,-1.7287687815139915e-05,0.2628527865571843,-1.3763419514475537e-05,0.2628527865571843,-1.09102e-05
0.2636469037371154,-2.1825283922910544e-06,0.2636469037371154,-1.829547790132105e-05,0.2636469037371154,-1.4938457545479326e-05,0.2636469037371154,-1.359547440352279e-05
0.2644410209170465,-2.181960407582027e-06,0.2644410209170465,-2.0309782312714048e-05,0.2644410209170465,-1.1581653061857858e-05,0.2644410209170465,-1.1581688436429764e-05
0.2652351380969776,8.39070840332958e-07,0.2652351380969776,-1.9638108065772216e-05,0.2652351380969776,-1.3596033547382228e-05,0.2652351380969776,-1.4938833547382229e-05
0.2660292552769086,-1.682801742583543e-07,0.2660292552769086,-1.796000779428707e-05,0.2660292552769086,-1.493849220571293e-05,0.2660292552769086,-1.628150779428707e-05
0.2668233724568397,-1.5095800511852555e-06,0.2668233724568397,-1.829533501102025e-05,0.2668233724568397,-1.4603164988979753e-05,0.2668233724568397,-1.661683501102025e-05
0.2676174896367708,-1.51064e-06,0.2676174896367708,-1.5611726236131525e-05,0.2676174896367708,-1.695128954338492e-05,0.2676174896367708,-1.963645798435204e-05
0.2684116068167018,-1.8461737636861636e-06,0.2684116068167018,-1.4603398708941507e-05,0.2684116068167018,-1.594619870894151e-05,0.2684116068167018,-1.762519741788302e-05
0.2692057239966329,-5.70552803617305e-06,0.2692057239966329,-1.2253816851778629e-05,0.2692057239966329,-1.4938950079333696e-05,0.2692057239966329,-1.8295366613777537e-05
0.269999841176564,-4.364348597634313e-06,0.269999841176564,-5.875995844263802e-06,0.269999841176564,-1.4602967149908652e-05,0.269999841176564,-1.846336643504715e-05
0.270793958356495,-3.860556410059073e-06,0.270793958356495,-2.85359845930548e-06,0.270793958356495,-1.628131196646976e-05,0.270793958356495,-1.4267420081203215e-05
0.2715880755364261,-5.538918222262056e-06,0.2715880755364261,-1.1750996824827775e-06,0.2715880755364261,-1.4267072254013778e-05,0.2715880755364261,-1.0406875645974351e-05
0.2723821927163572,-4.364039260150432e-06,0.2723821927163572,-2.853969615617226e-06,0.2723821927163572,-1.2924644439097408e-05,0.2723821927163572,-1.2253325918796543e-05
0.2731763098962882,-4.19623e-06,0.2731763098962882,-5.037050289320568e-06,0.2731763098962882,-1.3930976567627766e-05,0.2731763098962882,-1.35958e-05
0.2739704270762193,-4.19623e-06,0.2739704270762193,-9.06095691232745e-06,0.2739704270762193,-1.258966770069524e-05,0.2739704270762193,-1.35958e-05
0.2747645442561504,-6.880278512437144e-06,0.2747645442561504,-1.0573632915757076e-05,0.2747645442561504,-1.25887e-05,0.2747645442561504,-1.4937829253348648e-05
0.2755586614360815,-8.224037430423e-06,0.2755586614360815,-1.3594511708857682e-05,0.2755586614360815,-1.2924256856539742e-05,0.2755586614360815,-1.5274156856539743e-05
0.2763527786160125,-6.882194398242496e-06,0.2763527786160125,-1.2924587200515353e-05,0.2763527786160125,-1.4602431998711616e-05,0.2763527786160125,-1.6952331998711617e-05
0.2771468957959436,-8.224433773092194e-06,0.2771468957959436,-1.4938335657669702e-05,0.2771468957959436,-1.5609867828834852e-05,0.2771468957959436,-1.3596240570550497e-05
0.2779410129758747,-8.224620972295062e-06,0.2779410129758747,-1.4938668576027016e-05,0.2779410129758747,-1.4267172569262346e-05,0.2779410129758747,-1.44349698270057e-05
0.2787351301558057,-8.895679825538574e-06,0.2787351301558057,-1.9134772493521157e-05,0.2787351301558057,-1.258908520545078e-05,0.2787351301558057,-1.2588534911949669e-05
0.2795292473357368,-6.88182e-06,0.2795292473357368,-1.8967e-05,0.2795292473357368,-1.49386e-05,0.2795292473357368,-1.158264441014913e-05
0.2803233645156679,-6.88182e-06,0.2803233645156679,-1.8967e-05,0.2803233645156679,-1.49386e-05,0.2803233645156679,-1.4935916577480674e-05
0.2811174816955989,-8.391473889974382e-06,0.2811174816955989,-1.8967e-05,0.2811174816955989,-1.359667654804745e-05,0.2811174816955989,-1.1080620042997605e-05
0.2819115988755301,-6.379287557803606e-06,0.2819115988755301,-1.9302530406190742e-05,0.2819115988755301,-1.4937921624762966e-05,0.2819115988755301,-1.0910284822164355e-05
0.2827057160554611,-1.1768007772512557e-06,0.2827057160554611,-2.2322819580301176e-05,0.2827057160554611,-1.6952079696359934e-05,0.2827057160554611,-1.292367969635993e-05
0.2834998332353922,-4.866854420655494e-06,0.2834998332353922,-2.0645852516017276e-05,0.2834998332353922,-1.4267764059232596e-05,0.2834998332353922,-1.4938176955575554e-05
0.2842939504153233,-5.874657108020081e-06,0.2842939504153233,-1.6953030606216175e-05,0.2842939504153233,-1.42672e-05,0.2842939504153233,-1.359588385680588e-05
0.2850880675952543,-4.196401473155335e-06,0.2850880675952543,-1.292417136799112e-05,0.2850880675952543,-1.3595828579001109e-05,0.2850880675952543,-1.393170005300777e-05
0.2858821847751854,-6.21034187779631e-06,0.2858821847751854,-1.023801878261738e-05,0.2858821847751854,-1.3931187511185238e-05,0.2858821847751854,-1.6280931266777858e-05
0.2866763019551165,-5.87472e-06,0.2866763019551165,-6.880289949745542e-06,0.2866763019551165,-1.25885724951791e-05,0.2866763019551165,-1.4266689980716397e-05
0.2874704191350475,-5.87472e-06,0.2874704191350475,-2.8563833267383783e-06,0.2874704191350475,-1.2253245278445943e-05,0.2874704191350475,-1.2925381113783775e-05
0.2882645363149786,-4.1972102149515545e-06,0.2882645363149786,-5.049203044360936e-07,0.2882645363149786,-1.2420702007120167e-05,0.2882645363149786,-1.0575872309107982e-05
0.2890586534949096,-1.5118120032815788e-06,0.2890586534949096,-6.713237499585529e-07,0.2890586534949096,-1.3259733725790525e-05,0.2890586534949096,-1.2252267495221485e-05
0.2898527706748408,-2.181846084493802e-06,0.2898527706748408,-3.188412818873516e-06,0.2898527706748408,-1.4938115211234504e-05,0.2898527706748408,-1.4937824337975208e-05
0.2906468878547718,-6.545503613668381e-06,0.2906468878547718,-5.538698099558943e-06,0.2906468878547718,-1.5945557756348513e-05,0.2906468878547718,-1.5274252585449504e-05
0.2914410050347029,-4.867634257304171e-06,0.2914410050347029,-5.539047029089864e-06,0.2914410050347029,-1.628140851460834e-05,0.2914410050347029,-1.6281395742695828e-05
0.292235122214634,-5.53944337175906e-06,0.292235122214634,-8.224299970411091e-06,0.292235122214634,-1.7623683281453106e-05,0.292235122214634,-1.560992248452183e-05
0.293029239394565,-8.22461e-06,0.293029239394565,-6.210470543871378e-06,0.293029239394565,-1.4266239681500082e-05,0.293029239394565,-1.510715817312693e-05
0.2938233565744961,-8.22461e-06,0.2938233565744961,-6.378134152237956e-06,0.2938233565744961,-1.108068106701184e-05,0.2938233565744961,-1.7622162243102313e-05
0.2946174737544272,-6.21175496041593e-06,0.2946174737544272,-8.558863792330429e-06,0.2946174737544272,-9.568411251793893e-06,0.2946174737544272,-1.5275857461550994e-05
0.2954115909343582,-9.230153443409623e-06,0.2954115909343582,-8.224782951304704e-06,0.2954115909343582,-1.0909508199933143e-05,0.2954115909343582,-1.2254556561742336e-05
0.2962057081142893,-8.224980224306371e-06,0.2962057081142893,-9.902482963165524e-06,0.2962057081142893,-1.2252506367591504e-05,0.2962057081142893,-1.1246270224306372e-05
0.2969998252942204,-6.546489322297157e-06,0.2969998252942204,-1.2923735215904531e-05,0.2969998252942204,-1.1078358516146612e-05,0.2969998252942204,-1.0910273864899495e-05
0.2977939424741515,-8.560164070543013e-06,0.2977939424741515,-1.4434890555986412e-05,0.2977939424741515,-1.2588590555986414e-05,0.2977939424741515,-1.1581551356606168e-05
0.2985880596540825,-5.53903e-06,0.2985880596540825,-1.3931575664516994e-05,0.2985880596540825,-1.2924198227954684e-05,0.2985880596540825,-1.1245950443011329e-05
0.2993821768340136,-5.538730941166833e-06,0.2993821768340136,-1.493934764708292e-05,0.2993821768340136,-1.0239398117666334e-05,0.2993821768340136,-1.191767382354146e-05
0.3001762940139447,-4.19598169690256e-06,0.3001762940139447,-1.82961586634778e-05,0.3001762940139447,-1.29250207577436e-05,0.3001762940139447,-1.35958e-05
0.3009704111938757,-3.5253272634362506e-06,0.3009704111938757,-1.9805081194300267e-05,0.3009704111938757,-1.4601656841409374e-05,0.3009704111938757,-1.35958e-05
0.3017645283738068,-4.363581495865677e-06,0.3017645283738068,-2.0309500867820023e-05,0.3017645283738068,-1.4099599132179976e-05,0.3017645283738068,-1.4266801196692544e-05
0.3025586455537379,-2.854114358566004e-06,0.3025586455537379,-1.9303149575353376e-05,0.3025586455537379,-1.3931574906905267e-05,0.3025586455537379,-1.6616050990842125e-05
0.3033527627336689,-8.398478896981817e-07,0.3033527627336689,-1.628230283723669e-05,0.3033527627336689,-1.6616297478011833e-05,0.3033527627336689,-1.6281500315248522e-05
0.3041468799136,-3.860073054006412e-06,0.3041468799136,-1.5777876165631026e-05,0.3041468799136,-1.795969691181624e-05,0.3041468799136,-1.2253609264551288e-05
0.3049409970935311,-1.8463473730234148e-06,0.3049409970935311,-1.8295590783491948e-05,0.3049409970935311,-1.5610008601903357e-05,0.3049409970935311,-1.0406706758455323e-05
0.3057351142734621,-4.867919884716391e-06,0.3057351142734621,-1.6617341571796337e-05,0.3057351142734621,-1.2924786514874136e-05,0.3057351142734621,-1.1581648314359267e-05
0.3065292314533932,-6.8800607870991975e-06,0.3065292314533932,-1.8295013593176552e-05,0.3065292314533932,-1.561019546894115e-05,0.3065292314533932,-1.191788640682345e-05
0.3073233486333243,-8.44196857029892e-07,0.3073233486333243,-1.6283050292777484e-05,0.3073233486333243,-1.6280849902407505e-05,0.3073233486333243,-1.3929849707222516e-05
0.3081174658132554,-2.1811365960257552e-06,0.3081174658132554,-1.426855511201638e-05,0.3081174658132554,-1.5778138811643058e-05,0.3081174658132554,-1.4266974147997267e-05
0.3089115829931864,-4.3629339980510025e-06,0.3089115829931864,-1.37638644894601e-05,0.3089115829931864,-1.829427765773901e-05,0.3089115829931864,-1.527377107359955e-05
0.3097057001731175,-4.867439851603717e-06,0.3097057001731175,-1.426700983272293e-05,0.3097057001731175,-2.400024502260369e-05,0.3097057001731175,-1.5609873234402477e-05
0.3104998173530486,-5.538875555210117e-06,0.3104998173530486,-1.42672e-05,0.3104998173530486,-2.769425055365564e-05,0.3104998173530486,-1.762373666563035e-05
0.3112939345329796,-5.87469232163216e-06,0.3112939345329796,-1.3595855358384722e-05,0.3112939345329796,-2.8702116962422915e-05,0.3112939345329796,-1.712064152291115e-05
0.3120880517129107,-3.5249830474205656e-06,0.3120880517129107,-1.2588612543958936e-05,0.3120880517129107,-2.836582222219472e-05,0.3120880517129107,-1.930255788067679e-05
0.3128821688928418,-5.875291255575658e-06,0.3128821688928418,-1.1245721492603454e-05,0.3128821688928418,-1.795668668393037e-05,0.3128821688928418,-1.7119421791623604e-05
0.3136762860727728,-8.559947608768782e-06,0.3136762860727728,-1.0407605969082049e-05,0.3136762860727728,-2.849393275727926e-06,0.3136762860727728,-1.1580029629601784e-05
0.314470403252704,-7.553975947464593e-06,0.314470403252704,-1.2922510150104156e-05,0.314470403252704,8.384018540356809e-06,0.314470403252704,-7.220795789861162e-06
0.315264520432635,-6.211231036596604e-06,0.315264520432635,-1.1917908277447451e-05,0.315264520432635,6.547235169280438e-06,0.315264520432635,-9.565990691995835e-06
0.3160586376125661,-8.559237492938246e-06,0.3160586376125661,-1.2420570198900548e-05,0.3160586376125661,3.022898758310596e-06,0.3160586376125661,-1.023849357267098e-05
0.3168527547924971,-6.882338360631577e-06,0.3168527547924971,-1.2588648148186738e-05,0.3168527547924971,-2.1804330786450307e-06,0.3168527547924971,-1.0909992654512066e-05
0.3176468719724282,-7.553111740917274e-06,0.3176468719724282,-1.628080457504501e-05,0.3176468719724282,-6.881062189645798e-06,0.3176468719724282,-1.2252783481834547e-05
0.3184409891523593,-5.874742931693794e-06,0.3184409891523593,-1.6952790827322484e-05,0.3184409891523593,-1.1581535791530615e-05,0.3184409891523593,-1.3595781654644964e-05
0.3192351063322903,-2.518144610435197e-06,0.3192351063322903,-1.561e-05,0.3192351063322903,-1.7288567428599744e-05,0.3192351063322903,-1.829551008627236e-05
0.3200292235122214,-5.540162568758061e-06,0.3200292235122214,-1.5609811237603168e-05,0.3200292235122214,-1.7791386536267657e-05,0.3200292235122214,-1.7623916856404746e-05
0.3208233406921525,-9.564069191765224e-06,0.3208233406921525,-1.4939156804136856e-05,0.3208233406921525,-1.5611809571978882e-05,0.3208233406921525,-1.6617935206205283e-05
0.3216174578720835,-7.722330645412158e-06,0.3216174578720835,-1.191936288548358e-05,0.3216174578720835,-1.1584350513978104e-05,0.3216174578720835,-1.3933333675985404e-05
0.3224115750520147,-5.540197825569074e-06,0.3224115750520147,-1.0910738998886643e-05,0.3224115750520147,-9.23296765871685e-06,0.3224115750520147,-1.225389833147774e-05
0.3232056922319457,-5.53903e-06,0.3232056922319457,-9.903490369278904e-06,0.3232056922319457,-1.1916259019132429e-05,0.3232056922319457,-1.4266419261442192e-05
0.3239998094118768,-5.874639422509967e-06,0.3239998094118768,-8.225012897051582e-06,0.3239998094118768,-1.4937874780986514e-05,0.3239998094118768,-1.661653594076729e-05
0.3247939265918079,-6.210388963312217e-06,0.3247939265918079,-7.049778627482706e-06,0.3247939265918079,-1.49386e-05,0.3247939265918079,-1.3931748293502268e-05
0.3255880437717389,-5.87466448100682e-06,0.3255880437717389,-5.203348506514821e-06,0.3255880437717389,-1.728853701302964e-05,0.3255880437717389,-1.493867402605928e-05
0.32638216095167,-4.867357801130397e-06,0.32638216095167,-5.539166097407703e-06,0.32638216095167,-1.7959559751412995e-05,0.32638216095167,-1.62814680497174e-05
0.3271762781316011,-3.5255346700262925e-06,0.3271762781316011,-6.209363001957583e-06,0.3271762781316011,-1.6281634890008763e-05,0.3271762781316011,-1.6616277884969326e-05
0.3279703953115321,-5.53749797042522e-06,0.3279703953115321,-3.1914380291498823e-06,0.3279703953115321,-1.6952289323475076e-05,0.3279703953115321,-1.4268987367837243e-05
0.3287645124914632,-3.5260666998674376e-06,0.3287645124914632,-3.5246238894953333e-06,0.3287645124914632,-1.829477553342171e-05,0.3287645124914632,-1.4602693883355428e-05
0.3295586296713942,-5.034775419511034e-06,0.3295586296713942,-6.209167417128149e-06,0.3295586296713942,-1.863114342655801e-05,0.3295586296713942,-1.7287247412464057e-05
0.3303527468513254,-6.881231336871633e-06,0.3303527468513254,-7.552791879042445e-06,0.3303527468513254,-1.829570703023939e-05,0.3303527468513254,-1.661731406047878e-05
0.3311468640312564,-6.378356230555212e-06,0.3311468640312564,-1.0573982620093632e-05,0.3311468640312564,-1.5610459896294466e-05,0.3311468640312564,-1.4267602409257656e-05
0.3319409812111875,-4.196281634685693e-06,0.3319409812111875,-1.359572850549216e-05,0.3319409812111875,-1.7120564253929254e-05,0.3319409812111875,-1.42672e-05
0.3327350983911186,-6.210336802502384e-06,0.3327350983911186,-1.3092220805880114e-05,0.3327350983911186,-1.69528e-05,0.3327350983911186,-1.0910033603765584e-05
0.3335292155710496,-5.53943962295648e-06,0.3335292155710496,-1.3259826916221293e-05,0.3335292155710496,-1.6952253832442583e-05,0.3335292155710496,-9.568547832808444e-06
0.3343233327509807,-7.0484021093603296e-06,0.3343233327509807,-1.2253845266021826e-05,0.3343233327509807,-1.4940290532043652e-05,0.3343233327509807,-1.3760078108600803e-05
0.3351174499309118,-7.217403716503201e-06,0.3351174499309118,-1.4265804598038414e-05,0.3351174499309118,-1.359673026797439e-05,0.3351174499309118,-1.52732534138897e-05
0.3359115671108428,-6.210969071372982e-06,0.3359115671108428,-1.4938233952418012e-05,0.3359115671108428,-1.2924766047581988e-05,0.3359115671108428,-1.2590164190327953e-05
0.3367056842907739,-8.223809120445707e-06,0.3367056842907739,-1.393190044176524e-05,0.3367056842907739,-1.2588833480588414e-05,0.3367056842907739,-1.4098699357233074e-05
0.337499801470705,-4.868469368857357e-06,0.337499801470705,-1.39315e-05,0.337499801470705,-1.225308393738581e-05,0.337499801470705,-1.2589077705734296e-05
0.338293918650636,-5.874616818474935e-06,0.338293918650636,-1.3595834394183203e-05,0.338293918650636,-1.158166878836641e-05,0.338293918650636,-1.2253034394183203e-05
0.3390880358305671,-7.38527153182533e-06,0.3390880358305671,-1.527429242323398e-05,0.3390880358305671,-1.0574522725785396e-05,0.3390880358305671,-1.4938645447058124e-05
0.3398821530104982,-5.20333e-06,0.3398821530104982,-1.5106432355746412e-05,0.3398821530104982,-1.1078617518504989e-05,0.3398821530104982,-1.5945247154446147e-05
0.3406762701904293,-5.203900455262502e-06,0.3406762701904293,-1.5274642275196674e-05,0.3406762701904293,-1.3763999338055895e-05,0.3406762701904293,-1.3596085212337452e-05
0.3414703873703603,-6.880526550032812e-06,0.3414703873703603,-1.6280623925396066e-05,0.3414703873703603,-1.4937694541098578e-05,0.3414703873703603,-1.4434353309693557e-05
0.3422645045502914,-6.88182e-06,0.3422645045502914,-1.762336210344002e-05,0.3422645045502914,-1.896448631032006e-05,0.3422645045502914,-1.4938285757590404e-05
0.3430586217302225,-5.539669718985555e-06,0.3430586217302225,-1.7120839920226637e-05,0.3430586217302225,-1.9134720058351805e-05,0.3430586217302225,-1.3596439723749656e-05
0.3438527389101535,-5.53903e-06,0.3438527389101535,-1.4939317503834997e-05,0.3438527389101535,-1.5611159054774333e-05,0.3438527389101535,-1.4938158449060664e-05
0.3446468560900846,-5.53903e-06,0.3446468560900846,-1.3763812964925142e-05,0.3446468560900846,-1.6952556621871082e-05,0.3446468560900846,-1.661679577733885e-05
0.3454409732700157,-5.53903e-06,0.3454409732700157,-1.3595805648981563e-05,0.3454409732700157,-1.6281422602659253e-05,0.3454409732700157,-1.3763696062985073e-05
0.3462350904499467,-1.5107164837459082e-06,0.3462350904499467,-1.2253e-05,0.3462350904499467,-1.4938485274381138e-05,0.3462350904499467,-1.4603129451237724e-05
0.3470292076298778,-2.1819523253459204e-06,0.3470292076298778,-1.225282465069184e-05,0.3470292076298778,-1.39315e-05,0.3470292076298778,-1.6616398602767365e-05
0.3478233248098089,-1.8466251086127663e-06,0.3478233248098089,-1.1582170217225532e-05,0.3478233248098089,-1.39315e-05,0.3478233248098089,-1.3933780868902127e-05
0.34861744198974,-2.3495361132664704e-06,0.34861744198974,-1.124613592448902e-05,0.34861744198974,-1.493789222653294e-05,0.34861744198974,-1.2254179622445098e-05
0.349411559169671,-1.846619571929659e-06,0.349411559169671,-9.065071472809835e-06,0.349411559169671,-1.3932059143859318e-05,0.349411559169671,-1.292402723742712e-05
0.3502056763496021,-2.853029485748494e-06,0.3502056763496021,-9.06386e-06,0.3502056763496021,-1.6280442133413153e-05,0.3502056763496021,-1.29244e-05
0.3509997935295332,-2.182214589762463e-06,0.3509997935295332,-8.224828237203079e-06,0.3509997935295332,-1.510670554508623e-05,0.3509997935295332,-1.5944914346068916e-05
0.3517939107094642,-3.524678994409962e-06,0.3517939107094642,-9.567258993285396e-06,0.3517939107094642,-1.2924645380288404e-05,0.3517939107094642,-1.4267388758393255e-05
0.3525880278893953,-5.874672834255441e-06,0.3525880278893953,-9.735307167500818e-06,0.3525880278893953,-1.2252929250856282e-05,0.3525880278893953,-1.4938493876284424e-05
0.3533821450693264,-4.532482010711941e-06,0.3533821450693264,-1.1078253327681043e-05,0.3533821450693264,-1.023916800835934e-05,0.3533821450693264,-1.1916993326367216e-05
0.3541762622492574,-7.553441473621355e-06,0.3541762622492574,-1.1917410738460043e-05,0.3541762622492574,-1.225388590768035e-05,0.3541762622492574,-1.0240018123060482e-05
0.3549703794291886,-8.224085918192365e-06,0.3549703794291886,-1.2252737955193222e-05,0.3549703794291886,-1.4936503641545776e-05,0.3549703794291886,-1.392861750712544e-05
0.3557644966091196,-5.2052454720390935e-06,0.3557644966091196,-1.3594948673458238e-05,0.3557644966091196,-1.1583728316354404e-05,0.3557644966091196,-1.695088451528104e-05
0.3565586137890507,-4.53225657686572e-06,0.3565586137890507,-1.1247043019030022e-05,0.3565586137890507,-1.393035698096998e-05,0.3565586137890507,-1.628172657686572e-05
0.3573527309689818,-5.203102509539535e-06,0.3573527309689818,-1.1413643144326384e-05,0.3573527309689818,-1.39315e-05,0.3573527309689818,-1.4267882471381396e-05
0.3581468481489128,-6.210227395829525e-06,0.3581468481489128,-1.2252839485368458e-05,0.3581468481489128,-1.2756724716659196e-05,0.3581468481489128,-1.4938471595944696e-05
0.3589409653288439,-6.881790682349856e-06,0.3589409653288439,-1.057457329412536e-05,0.3589409653288439,-1.2924392668404142e-05,0.3589409653288439,-1.3931543976475216e-05
0.3597350825087749,-6.881994420848389e-06,0.3597350825087749,-8.224644884377508e-06,0.3597350825087749,-1.4434912794251996e-05,0.3597350825087749,-1.2924539537510034e-05
0.360529199688706,-8.56031e-06,0.360529199688706,-8.560478642763844e-06,0.360529199688706,-1.3595631357236156e-05,0.360529199688706,-1.4267537285527688e-05
0.3613233168686371,-8.56031e-06,0.3613233168686371,-9.231133076230154e-06,0.3613233168686371,-1.2924976923769846e-05,0.3613233168686371,-1.5608846152460307e-05
0.3621174340485681,-7.218477120810009e-06,0.3621174340485681,-8.56078856396893e-06,0.3621174340485681,-1.3092080394647026e-05,0.3621174340485681,-1.2255392819844653e-05
0.3629115512284993,-7.553030261218138e-06,0.3629115512284993,-9.566840783654416e-06,0.3629115512284993,-1.3595515363567036e-05,0.3629115512284993,-1.1581979477563724e-05
0.3637056684084303,-4.868751560457843e-06,0.3637056684084303,-1.0909639221859186e-05,0.3637056684084303,-1.225356078231703e-05,0.3637056684084303,-8.226011951616358e-06
0.3644997855883614,-4.86763e-06,0.3644997855883614,-1.09102e-05,0.3644997855883614,-1.2588609347623322e-05,0.3644997855883614,-1.0909474783686982e-05
0.3652939027682925,-4.86763e-06,0.3652939027682925,-1.1581517781651854e-05,0.3652939027682925,-1.2253041109174071e-05,0.3652939027682925,-1.3931130017433342e-05
0.3660880199482235,-3.5249227740623435e-06,0.3660880199482235,-1.2253050604171043e-05,0.3660880199482235,-1.2588725302085522e-05,0.3660880199482235,-1.42672e-05
0.3668821371281546,-7.216766299449663e-06,0.3668821371281546,-1.426725797723111e-05,0.3668821371281546,-1.3596031908924443e-05,0.3668821371281546,-1.4266852136613332e-05
0.3676762543080857,-2.8536547671769293e-06,0.3676762543080857,-1.460386646669098e-05,0.3676762543080857,-1.4938868446975496e-05,0.3676762543080857,-1.2253859081503092e-05
0.3684703714880167,-3.5242992117478933e-06,0.3684703714880167,-1.762181141728937e-05,0.3684703714880167,-1.577713654433166e-05,0.3684703714880167,-1.4936476815368328e-05
0.3692644886679478,-4.866765243476456e-06,0.3692644886679478,-1.76242e-05,0.3692644886679478,-1.5610108062365694e-05,0.3692644886679478,-1.7622470486952913e-05
0.3700586058478789,-5.874220067179286e-06,0.3700586058478789,-1.76242e-05,0.3700586058478789,-1.4938933291856565e-05,0.3700586058478789,-1.3933333105211104e-05
0.3708527230278099,-5.203564201963042e-06,0.3708527230278099,-1.795978289727432e-05,0.3708527230278099,-1.292510261635407e-05,0.3708527230278099,-1.4267082897274322e-05
0.371646840207741,-4.532065119046196e-06,0.371646840207741,-1.6281737797615488e-05,0.371646840207741,-1.1917502678569291e-05,0.371646840207741,-1.42672e-05
0.3724409573876721,-7.21737586997254e-06,0.3724409573876721,-1.71205549618821e-05,0.3724409573876721,-9.903208097923104e-06,0.3724409573876721,-1.42672e-05
0.3732350745676032,-5.539093052825082e-06,0.3732350745676032,-1.930263694623578e-05,0.3732350745676032,-9.567630687235632e-06,0.3732350745676032,-1.493853694623578e-05
0.3740291917475342,-6.210622420274353e-06,0.3740291917475342,-1.863138096810974e-05,0.3740291917475342,-1.1917542904329224e-05,0.3740291917475342,-1.426728096810974e-05
0.3748233089274653,-7.04894046210724e-06,0.3748233089274653,-1.8966708184842892e-05,0.3748233089274653,-1.2923524554528686e-05,0.3748233089274653,-1.4602608184842896e-05
0.3756174261073964,-4.533749788871289e-06,0.3756174261073964,-1.762517055791955e-05,0.3756174261073964,-1.4937144163120677e-05,0.3756174261073964,-1.359652791843966e-05
0.3764115432873274,-7.719235591117634e-06,0.3764115432873274,-1.6282172385109226e-05,0.3764115432873274,-1.6280627614890773e-05,0.3764115432873274,-1.460232071116808e-05
0.3772056604672585,-9.231064015440068e-06,0.3772056604672585,-1.4268061318448216e-05,0.3772056604672585,-1.5442458904067913e-05,0.3772056604672585,-1.3596230659224109e-05
0.3779997776471896,-6.211266086048478e-06,0.3779997776471896,-1.3595988019744198e-05,0.3779997776471896,-1.2925105060038676e-05,0.3779997776471896,-1.0910952078976793e-05
0.3787938948271206,-2.853884664045995e-06,0.3787938948271206,-1.1581866800017112e-05,0.3787938948271206,-1.4267022133321925e-05,0.3787938948271206,-1.1581511066660962e-05
0.3795880120070517,-1.846355229599256e-06,0.3795880120070517,-8.224559234971592e-06,0.3795880120070517,-1.7288474617334574e-05,0.3795880120070517,-1.4938625382665426e-05
0.3803821291869828,-2.853549237844338e-06,0.3803821291869828,-4.867138424005838e-06,0.3803821291869828,-1.5609672281585865e-05,0.3803821291869828,-1.6616963442525576e-05
0.3811762463669139,-3.5256622522266917e-06,0.3811762463669139,-1.846860156479574e-06,0.3811762463669139,-1.3596424191494234e-05,0.3811762463669139,-1.5777123808042687e-05
0.3819703635468449,-6.208269997196583e-06,0.3819703635468449,-3.5234862512500014e-06,0.3819703635468449,-1.5608387491893163e-05,0.3819703635468449,-1.3597546843753907e-05
0.382764480726776,-6.21042e-06,0.382764480726776,-4.195790906747384e-06,0.382764480726776,-1.7622882720242152e-05,0.382764480726776,-1.862800680060538e-05
0.3835585979067071,-6.21042e-06,0.3835585979067071,-5.538349986305183e-06,0.3835585979067071,-1.3765555064693332e-05,0.3835585979067071,-2.030894998288148e-05
0.3843527150866381,-4.868111837296166e-06,0.3843527150866381,-2.8544036781806604e-06,0.3843527150866381,-1.2589121592832289e-05,0.3843527150866381,-1.8296322761326745e-05
0.3851468322665692,-5.03544454149074e-06,0.3851468322665692,-3.524688168075472e-06,0.3851468322665692,-1.292432908298148e-05,0.3851468322665692,-1.4939309170185198e-05
0.3859409494465003,-5.706827253004862e-06,0.3859409494465003,-9.063507333310776e-06,0.3859409494465003,-8.224909232786129e-06,0.3859409494465003,-1.6281314504736336e-05
0.3867350666264313,-6.21047633877333e-06,0.3867350666264313,-1.0910538032639971e-05,0.3867350666264313,-1.0238969016319984e-05,0.3867350666264313,-1.2924357741724384e-05
0.3875291838063624,-6.882285686713332e-06,0.3875291838063624,-1.493891045935024e-05,0.3875291838063624,-1.2253388074187802e-05,0.3875291838063624,-1.24208e-05
0.3883233009862935,-8.894238998217054e-06,0.3883233009862935,-1.6280219326282952e-05,0.3883233009862935,-1.3930024157853691e-05,0.3883233009862935,-1.24208e-05
0.3891174181662246,-8.225101993950666e-06,0.3891174181662246,-1.4436353020003736e-05,0.3891174181662246,-1.4266954003024668e-05,0.3891174181662246,-1.1246760952774258e-05
0.3899115353461556,-8.22461e-06,0.3899115353461556,-1.4938305290080588e-05,0.3899115353461556,-1.158317163018183e-05,0.3899115353461556,-1.0910396453772728e-05
0.3907056525260867,-9.5668223577195e-06,0.3907056525260867,-1.62808123577195e-05,0.3907056525260867,-1.29238123577195e-05,0.3907056525260867,-1.158130617885975e-05
0.3914997697060178,-6.546996303407472e-06,0.3914997697060178,-1.4938989469470178e-05,0.3914997697060178,-1.4938015795794733e-05,0.3914997697060178,-1.292401053052982e-05
0.3922938868859488,-5.874815648329881e-06,0.3922938868859488,-1.3595991296659765e-05,0.3922938868859488,-1.6952513055010358e-05,0.3922938868859488,-1.393135652750518e-05
0.3930880040658799,-6.210413123900555e-06,0.3930880040658799,-1.4267201719037662e-05,0.3930880040658799,-2.0309781090585703e-05,0.3930880040658799,-1.3931498280962338e-05
0.393882121245811,-4.867553106639635e-06,0.393882121245811,-1.4602592426558538e-05,0.393882121245811,-1.6616894951039025e-05,0.393882121245811,-1.3596005048960976e-05
0.394676238425742,-4.3648854261491335e-06,0.394676238425742,-1.2588599321356476e-05,0.394676238425742,-1.5274753038900533e-05,0.394676238425742,-1.4938902035930574e-05
0.3954703556056732,-7.047493171119212e-06,0.3954703556056732,-1.2253272104623296e-05,0.3954703556056732,-1.6783675569723107e-05,0.3954703556056732,-1.594488368613011e-05
0.3962644727856042,-4.198124678394727e-06,0.3962644727856042,-1.0575614520608653e-05,0.3962644727856042,-1.829459689825232e-05,0.3962644727856042,-1.3261883232973842e-05
0.3970585899655353,-4.19623e-06,0.3970585899655353,-1.0238973360919147e-05,0.3970585899655353,-1.9637706556323403e-05,0.3970585899655353,-1.359562663908085e-05
0.3978527071454664,-4.19623e-06,0.3978527071454664,-1.1916680911417273e-05,0.3978527071454664,-2.098070472913382e-05,0.3978527071454664,-1.5609257093700725e-05
0.3986468243253974,-2.853737095843241e-06,0.3986468243253974,-1.862981450972116e-05,0.3986468243253974,-2.1988077176458177e-05,0.3986468243253974,-1.728812862743029e-05
0.3994409415053285,-4.196131075491263e-06,0.3994409415053285,-1.896697526868864e-05,0.3994409415053285,-1.7288846238359058e-05,0.3994409415053285,-1.8631201074754552e-05
0.4002350586852595,-4.196391276553814e-06,0.4002350586852595,-1.594572481189122e-05,0.4002350586852595,-6.881249329014935e-06,0.4002350586852595,-1.5609813907120312e-05
0.4010291758651906,-6.378678436397575e-06,0.4010291758651906,-1.6280843027198773e-05,0.4010291758651906,8.386519105737736e-07,0.4010291758651906,-1.309290549593203e-05
0.4018232930451217,-8.22296813953458e-06,0.4018232930451217,-1.3765838957223387e-05,0.4018232930451217,-1.8439518388379797e-06,0.4018232930451217,-1.6278563999373723e-05
0.4026174102250527,-3.192880294777635e-06,0.4026174102250527,-9.570526886317058e-06,0.4026174102250527,-8.890773578397838e-06,0.4026174102250527,-1.2591442899178304e-05
0.4034115274049838,-4.195630572147626e-06,0.4034115274049838,-9.735160094365923e-06,0.4034115274049838,-1.2251001893270568e-05,0.4034115274049838,-1.225319981126815e-05
0.4042056445849149,-8.893906256034534e-06,0.4042056445849149,-1.225187299398448e-05,0.4042056445849149,-1.5608497319344296e-05,0.4042056445849149,-1.3595198927737716e-05
0.404999761764846,-8.22481144972598e-06,0.404999761764846,-1.292419855027402e-05,0.404999761764846,-1.359640434917794e-05,0.404999761764846,-1.35958e-05
0.4057938789447771,-6.210727088437552e-06,0.4057938789447771,-1.4938292910037825e-05,0.4057938789447771,-1.0239311816603626e-05,0.4057938789447771,-1.4938395273358547e-05
0.4065879961247081,-5.539033276866758e-06,0.4065879961247081,-1.5106399181015144e-05,0.4065879961247081,-1.628137050775992e-05,0.4065879961247081,-1.4267203276915565e-05
0.4073821133046392,-3.860865331786576e-06,0.4073821133046392,-1.493907904744798e-05,0.4073821133046392,-1.9134608381020807e-05,0.4073821133046392,-1.7624104190510402e-05
0.4081762304845703,-6.210128026785005e-06,0.4081762304845703,-1.8296767875464923e-05,0.4081762304845703,-1.7791562050324623e-05,0.4081762304845703,-1.695182674628609e-05
0.4089703476645013,-5.204156365480886e-06,0.4089703476645013,-2.2320594587309326e-05,0.4089703476645013,-1.6282639519502155e-05,0.4089703476645013,-1.3598554578954544e-05
0.4097644648444324,-4.867856261617176e-06,0.4097644648444324,-2.114979188196014e-05,0.4097644648444324,-1.5610452523234353e-05,0.4097644648444324,-1.2924852523234352e-05
0.4105585820243635,-5.5386765631708565e-06,0.4105585820243635,-1.829710208020298e-05,0.4105585820243635,-1.527447671841457e-05,0.4105585820243635,-1.2253353436829145e-05
0.4113526992042945,-6.881311302940393e-06,0.4113526992042945,-1.359758045296788e-05,0.4113526992042945,-1.1582998927331905e-05,0.4113526992042945,-1.3595291299152034e-05
0.4121468163842256,-4.532473421753171e-06,0.4121468163842256,-1.2588932896028162e-05,0.4121468163842256,-1.0910355264018774e-05,0.4121468163842256,-1.225331052803755e-05
0.4129409335641567,-3.860586177613567e-06,0.4129409335641567,-9.567662798424328e-06,0.4129409335641567,-1.3763361249325957e-05,0.4129409335641567,-1.1581656177613569e-05
0.4137350507440878,-5.539083635350398e-06,0.4137350507440878,-3.6924976386582775e-06,0.4137350507440878,-1.6281442908791595e-05,0.4137350507440878,-1.4267157091208406e-05
0.4145291679240188,-6.378553633172982e-06,0.4145291679240188,-8.392814549915235e-07,0.4145291679240188,-1.695265818341351e-05,0.4145291679240188,-1.35965799912257e-05
0.4153232851039499,-7.719862500105506e-06,0.4153232851039499,-1.0069490589162272e-06,0.4153232851039499,-1.6282003749947246e-05,0.4153232851039499,-1.7285179375290142e-05
0.416117402283881,-5.2052253322184165e-06,0.416117402283881,-1.684807806682333e-07,0.416117402283881,-1.3597821695729417e-05,0.416117402283881,-1.426947440769559e-05
0.416911519463812,-4.867833168763596e-06,0.416911519463812,2.5161146565485302e-06,0.416911519463812,-1.158281901258158e-05,0.416911519463812,-1.1247728518872369e-05
0.4177056366437431,-4.532083625561017e-06,0.4177056366437431,1.1755545022440642e-06,0.4177056366437431,-7.890599876594901e-06,0.4177056366437431,-1.0239260876683049e-05
0.4184997538236742,-3.0217583675122918e-06,0.4184997538236742,5.037561622364113e-07,0.4184997538236742,-8.224505917641611e-06,0.4184997538236742,-1.292356734113289e-05
0.4192938710036052,-6.881192802957485e-06,0.4192938710036052,-5.033843831824311e-07,0.4192938710036052,-1.3594927375131708e-05,0.4192938710036052,-1.2588754539155808e-05
0.4200879881835363,-7.553210008093544e-06,0.4200879881835363,-4.196175044782373e-06,0.4200879881835363,-1.493858001618709e-05,0.4200879881835363,-1.426717502023386e-05
0.4208821053634674,-5.874497265079999e-06,0.4208821053634674,-7.553665469840004e-06,0.4208821053634674,-1.52743890944988e-05,0.4208821053634674,-1.42671109055012e-05
0.4216762225433985,-4.19623e-06,0.4216762225433985,-1.09111397209921e-05,0.4216762225433985,-1.5945652999953952e-05,0.4216762225433985,-1.359598794419842e-05
0.4224703397233295,-4.19623e-06,0.4224703397233295,-1.4264411888323649e-05,0.4224703397233295,-1.577793944711065e-05,0.4224703397233295,-1.4266642377664728e-05
0.4232644569032606,-7.047718244382929e-06,0.4232644569032606,-1.728643342798662e-05,0.4232644569032606,-1.4268233251806644e-05,0.4232644569032606,-1.42672e-05
0.4240585740831917,-5.875350265685061e-06,0.4240585740831917,-1.779172991295593e-05,0.4240585740831917,-1.42672e-05,0.4240585740831917,-9.56993105737605e-06
0.4248526912631227,-4.53245212694128e-06,0.4248526912631227,-1.86309736487896e-05,0.4248526912631227,-1.3763795818502989e-05,0.4248526912631227,-1.1245247340351308e-05
0.4256468084430538,-6.377824560136104e-06,0.4256468084430538,-2.114839259077671e-05,0.4256468084430538,-1.309236197900962e-05,0.4256468084430538,-1.2588376041980764e-05
0.4264409256229849,-5.5391086148188345e-06,0.4264409256229849,-2.2491674214791085e-05,0.4264409256229849,-1.2924415718467422e-05,0.4264409256229849,-1.3595705661093313e-05
0.4272350428029159,-4.19623e-06,0.4272350428029159,-2.433806380619925e-05,0.4272350428029159,-1.3931554290701124e-05,0.4272350428029159,-1.2924291418597751e-05
0.428029159982847,-4.195959781928104e-06,0.428029159982847,-2.366629468999724e-05,0.428029159982847,-1.493887022008426e-05,0.428029159982847,-1.0910132444978937e-05
0.4288232771627781,-2.854660903890737e-06,0.4288232771627781,-2.165443127855162e-05,0.4288232771627781,-1.628017908701697e-05,0.4288232771627781,-1.0574805228245758e-05
0.4296173943427092,-3.0211619652691887e-06,0.4296173943427092,-1.9136720559101797e-05,0.4296173943427092,-1.4939624277846487e-05,0.4296173943427092,-1.35934953748454e-05
0.4304115115226402,-4.195507164245461e-06,0.4304115115226402,-1.4605688073736527e-05,0.4304115115226402,-1.862902821115054e-05,0.4304115115226402,-1.4266786947481916e-05
0.4312056287025713,-4.19623e-06,0.4312056287025713,-1.091192681362056e-05,0.4312056287025713,-2.0309015084717927e-05,0.4312056287025713,-1.4434921531853243e-05
0.4319997458825024,-5.7063865238582185e-06,0.4319997458825024,-9.903422319561503e-06,0.4319997458825024,-1.7289466958684505e-05,0.4319997458825024,-1.560962394450922e-05
0.4327938630624334,-5.539058946600972e-06,0.4327938630624334,-9.5674678949266e-06,0.4327938630624334,-1.7624142103348748e-05,0.4327938630624334,-1.930206313683621e-05
0.4335879802423645,-5.53903e-06,0.4335879802423645,-6.881886827340174e-06,0.4335879802423645,-1.6281433413794504e-05,0.4335879802423645,-1.93027e-05
0.4343820974222956,-5.874678811473027e-06,0.4343820974222956,-7.049731784630931e-06,0.4343820974222956,-1.3931623569261862e-05,0.4343820974222956,-1.6952738209234165e-05
0.4351762146022266,-5.53903e-06,0.4351762146022266,-7.553763710262777e-06,0.4351762146022266,-1.493724071759456e-05,0.4351762146022266,-1.6449018762345943e-05
0.4359703317821577,-5.53903e-06,0.4359703317821577,-9.5657170217665e-06,0.4359703317821577,-9.907332466596891e-06,0.4359703317821577,-1.5778364328879586e-05
0.4367644489620888,-6.209954053723938e-06,0.4367644489620888,-9.231942976608045e-06,0.4367644489620888,-9.9031e-06,0.4367644489620888,-1.4603715383428032e-05
0.4375585661420199,-6.881453133189121e-06,0.4375585661420199,-1.124479940503157e-05,0.4375585661420199,-1.3593782232540167e-05,0.4375585661420199,-1.2254284033838075e-05
0.438352683321951,-6.88182e-06,0.438352683321951,-1.1917032219594329e-05,0.438352683321951,-1.6615894988174482e-05,0.438352683321951,-1.5273094988174482e-05
0.439146800501882,-4.19690477348947e-06,0.439146800501882,-1.2252915652999744e-05,0.439146800501882,-1.5610253041000765e-05,0.439146800501882,-1.510644218606298e-05
0.4399409176818131,-6.378043776351868e-06,0.4399409176818131,-1.0239008822786046e-05,0.4399409176818131,-1.762399117721395e-05,0.4399409176818131,-1.426728700431042e-05
0.4407350348617442,-6.881790521190094e-06,0.4407350348617442,-1.2588810543341825e-05,0.4407350348617442,-1.5777615759633415e-05,0.4407350348617442,-1.2924341042380189e-05
0.4415291520416752,-6.21003479141903e-06,0.4415291520416752,-1.51062395051901e-05,0.4415291520416752,-1.158082958283806e-05,0.4415291520416752,-1.158179260524672e-05
0.4423232692216063,-4.198081479915448e-06,0.4423232692216063,-1.426797140783394e-05,0.4423232692216063,-7.556922959830895e-06,0.4423232692216063,-1.2587774255446186e-05
0.4431173864015373,-4.363950286521466e-06,0.4431173864015373,-1.5608962292171728e-05,0.4431173864015373,-5.205145980971535e-06,0.4431173864015373,-1.4601343438257593e-05
0.4439115035814684,-9.22866669806486e-06,0.4439115035814684,-1.7958430813718917e-05,0.4439115035814684,-9.9001616461942e-06,0.4439115035814684,-1.6615840697473357e-05
0.4447056207613995,-6.547402719638576e-06,0.4447056207613995,-1.896651897834442e-05,0.4447056207613995,-1.4600655232273958e-05,0.4447056207613995,-1.594602068110372e-05
0.4454997379413306,-2.8546587642411023e-06,0.4454997379413306,-2.030935681060288e-05,0.4454997379413306,-1.7623202823856482e-05,0.4454997379413306,-1.661687840530144e-05
0.4462938551212617,-4.195984985237967e-06,0.4462938551212617,-1.8463736906930065e-05,0.4462938551212617,-1.7959838745853325e-05,0.4462938551212617,-1.594582250829335e-05
0.4470879723011927,-7.2174146018522046e-06,0.4470879723011927,-1.762422927561592e-05,0.4470879723011927,-1.3931640531328863e-05,0.4470879723011927,-1.6281388289055926e-05
0.4478820894811238,-8.896085664517017e-06,0.4478820894811238,-1.4938221677414914e-05,0.4478820894811238,-1.1917375664517016e-05,0.4478820894811238,-1.2924551329034034e-05
0.4486762066610549,-9.56741e-06,0.4486762066610549,-1.1581774531109745e-05,0.4486762066610549,-1.2588350937780513e-05,0.4486762066610549,-1.4267112734445129e-05
0.4494703238409859,-9.56741e-06,0.4494703238409859,-1.2252428964576051e-05,0.4494703238409859,-1.1247042070847896e-05,0.4494703238409859,-1.3931785517711974e-05
0.450264441020917,-6.88371066578787e-06,0.450264441020917,-1.2588463665896512e-05,0.450264441020917,-1.0910436334103488e-05,0.450264441020917,-9.570482336305314e-06
0.4510585582008481,-8.223862841960775e-06,0.4510585582008481,-1.225318679090086e-05,0.4510585582008481,-1.1581226418198275e-05,0.4510585582008481,-8.225357163603445e-06
0.4518526753807791,-5.540127973409442e-06,0.4518526753807791,-1.2253e-05,0.4518526753807791,-1.2252725504603438e-05,0.4518526753807791,-1.1076933378210998e-05
0.4526467925607102,-4.196580817982802e-06,0.4526467925607102,-1.29242245910086e-05,0.4526467925607102,-1.25886122955043e-05,0.4526467925607102,-1.4266366820353772e-05
0.4534409097406413,-2.8535926440355246e-06,0.4534409097406413,-1.493837103224156e-05,0.4534409097406413,-1.2924361838706926e-05,0.4534409097406413,-1.3595876322586146e-05
0.4542350269205724,-3.5248527638190146e-06,0.4542350269205724,-1.6281422763819014e-05,0.4542350269205724,-1.6281451216897534e-05,0.4542350269205724,-1.3595851216897532e-05
0.4550291441005034,-4.195986607905679e-06,0.4550291441005034,-1.695301296060562e-05,0.4550291441005034,-1.7792030433301287e-05,0.4550291441005034,-1.5106673827208194e-05
0.4558232612804345,-2.854687729868405e-06,0.4558232612804345,-1.812660827469493e-05,0.4558232612804345,-1.795974398614459e-05,0.4558232612804345,-1.6615696246984114e-05
0.4566173784603656,-3.524304438922975e-06,0.4566173784603656,-1.6953719706443942e-05,0.4566173784603656,-1.79599e-05,0.4566173784603656,-1.9636034939927592e-05
0.4574114956402966,-7.550661111353504e-06,0.4574114956402966,-1.3933419171248976e-05,0.4574114956402966,-1.8966360276250345e-05,0.4574114956402966,-1.527707213624852e-05
0.4582056128202277,-5.875538490236529e-06,0.4582056128202277,-1.3595963698047304e-05,0.4582056128202277,-1.6618245886331142e-05,0.4582056128202277,-1.225447328242575e-05
0.4589997300001588,-5.5391441514442e-06,0.4589997300001588,-1.2253456619378806e-05,0.4589997300001588,-1.6281514154844702e-05,0.4589997300001588,-1.6615615987018876e-05
0.4597938471800898,-4.196488446568392e-06,0.4597938471800898,-1.2253e-05,0.4597938471800898,-1.3764084596939152e-05,0.4597938471800898,-1.8295276941789512e-05
0.4605879643600209,-4.531914931560482e-06,0.4605879643600209,-8.224790820825344e-06,0.4605879643600209,-1.2253067805733495e-05,0.4605879643600209,-1.4267380821274208e-05
0.461382081539952,-4.196298949526173e-06,0.461382081539952,-2.013724592752236e-06,0.461382081539952,-1.4267131050473828e-05,0.461382081539952,-1.0910613697157038e-05
0.4621761987198831,-4.867546087717286e-06,0.4621761987198831,2.518579117827904e-06,0.4621761987198831,-1.3595128701738282e-05,0.4621761987198831,-1.4938683912282714e-05
0.4629703158998141,-4.5322188709841545e-06,0.4629703158998141,5.871831307368526e-06,0.4629703158998141,-1.0912510967873234e-05,0.4629703158998141,-1.5274011129015847e-05
0.4637644330797452,-5.538310925203338e-06,0.4637644330797452,8.222932165947842e-06,0.4637644330797452,-1.225204123360445e-05,0.4637644330797452,-1.292607784119221e-05
0.4645585502596763,-4.8680102967926135e-06,0.4645585502596763,9.23113955481108e-06,0.4645585502596763,-1.3595039406414773e-05,0.4645585502596763,-9.90481133556676e-06
0.4653526674396073,-6.209857583413513e-06,0.4653526674396073,5.2050172539478815e-06,0.4653526674396073,-1.2253562420774906e-05,0.4653526674396073,-1.3258693948062736e-05
0.4661467846195384,-7.552855752035603e-06,0.4661467846195384,3.3701839398825666e-07,0.4661467846195384,-1.2924217876017802e-05,0.4661467846195384,-1.4266926814026704e-05
0.4669409017994695,-5.53927911149433e-06,0.4669409017994695,-3.860011017864438e-06,0.4669409017994695,-1.4938350887268888e-05,0.4669409017994695,-1.376366228436669e-05
0.4677350189794005,-6.881787902582788e-06,0.4677350189794005,-9.567474195073458e-06,0.4677350189794005,-1.09102e-05,0.4677350189794005,-1.2252955866917836e-05
0.4685291361593316,-5.53880001918163e-06,0.4685291361593316,-1.2253574952045928e-05,0.4685291361593316,-1.0910573710266372e-05,0.4685291361593316,-1.0406901224652594e-05
0.4693232533392627,-4.197491152249105e-06,0.4693232533392627,-1.560684711937724e-05,0.4693232533392627,-1.3090150674554998e-05,0.4693232533392627,-1.1580496538741827e-05
0.4701173705191938,-5.87338929818841e-06,0.4701173705191938,-1.6280867716104176e-05,0.4701173705191938,-1.3595400747438282e-05,0.4701173705191938,-1.2252467716104176e-05
0.4709114876991248,-6.881170203764005e-06,0.4709114876991248,-1.7623333605018675e-05,0.4709114876991248,-1.2253866394981326e-05,0.4709114876991248,-1.426590040752801e-05
0.4717056048790559,-8.39170825503406e-06,0.4717056048790559,-1.7959732944457272e-05,0.4717056048790559,-1.3259598833371816e-05,0.4717056048790559,-1.695146355565818e-05
0.472499722058987,-9.90257119796996e-06,0.472499722058987,-1.9302229950639506e-05,0.472499722058987,-1.3595682487659877e-05,0.472499722058987,-1.2254645172761734e-05
0.473293839238918,-6.21116765646358e-06,0.473293839238918,-2.0645228123449828e-05,0.473293839238918,-1.661648827776211e-05,0.473293839238918,-1.0910471876550172e-05
0.4740879564188491,-4.867703703190877e-06,0.4740879564188491,-2.0981181574065063e-05,0.4740879564188491,-1.762414472219518e-05,0.4740879564188491,-1.3595652592520483e-05
0.4748820735987802,-1.6783810903048062e-06,0.4748820735987802,-1.863120664819708e-05,0.4748820735987802,-1.9638586703605848e-05,0.4748820735987802,-1.2253124469070565e-05
0.4756761907787112,-5.038702341223495e-07,0.4756761907787112,-1.7624522236042137e-05,0.4756761907787112,-2.1652680559010533e-05,0.4756761907787112,-1.3596122236042136e-05
0.4764703079586423,-1.8451711099387853e-06,0.4764703079586423,-1.8965831102974848e-05,0.4764703079586423,-2.1988007775743716e-05,0.4764703079586423,-1.4937431102974848e-05
0.4772644251385734,-3.1881678036226688e-06,0.4772644251385734,-2.299238348326869e-05,0.4772644251385734,-1.6956445736414993e-05,0.4772644251385734,-1.5609513901811336e-05
0.4780585423185045,-4.866662476305489e-06,0.4780585423185045,-2.400181948232474e-05,0.4780585423185045,-1.2926722070701028e-05,0.4780585423185045,-1.4938987011783504e-05
0.4788526594984356,-7.216512265464557e-06,0.4788526594984356,-2.1653607695939547e-05,0.4788526594984356,-1.2588843962689124e-05,0.4788526594984356,-2.0643052634284875e-05
0.4796467766783666,-9.902344649732874e-06,0.4796467766783666,-1.9974572097432723e-05,0.4796467766783666,-7.722439076929666e-06,0.4796467766783666,-1.9974288838973087e-05
0.4804408938582977,-6.882223883882084e-06,0.4804408938582977,-1.9638444876283965e-05,0.4804408938582977,-2.1827804560118143e-06,0.4804408938582977,-1.2925342401963247e-05
0.4812350110382288,-7.217562001989716e-06,0.4812350110382288,-2.0981164997415105e-05,0.4812350110382288,-5.035643341040226e-07,0.4812350110382288,-1.29243766654068e-05
0.4820291282181598,-1.0238691717747982e-05,0.4820291282181598,-1.8462750296811057e-05,0.4820291282181598,-1.6788960628802818e-06,0.4820291282181598,-1.1246062425797235e-05
0.4828232453980909,-9.56804727317702e-06,0.4828232453980909,-1.4438823696013205e-05,0.4828232453980909,-4.193840199483596e-06,0.4828232453980909,-1.2252044075996698e-05
0.483617362578022,-8.225687997773335e-06,0.483617362578022,-1.4267334709581744e-05,0.483617362578022,-8.389091273014294e-06,0.483617362578022,-1.4936444004453328e-05
0.484411479757953,-8.895570087518493e-06,0.484411479757953,-1.2254319737444522e-05,0.484411479757953,-1.3927870728579732e-05,0.484411479757953,-1.1583799562407535e-05
0.4852055969378841,-8.224950826076346e-06,0.4852055969378841,-8.897714125305383e-06,0.4852055969378841,-1.7286795869618266e-05,0.4852055969378841,-1.057501123911452e-05
0.4859997141178152,-6.882303475741745e-06,0.4859997141178152,-5.875807824919593e-06,0.4859997141178152,-1.5946183479342277e-05,0.4859997141178152,-1.2587974780986584e-05
0.4867938312977463,-6.88182e-06,0.4867938312977463,-5.539101324508252e-06,0.4867938312977463,-1.6952586020101104e-05,0.4867938312977463,-1.393121469346814e-05
0.4875879484776773,-5.539117133072644e-06,0.4875879484776773,-4.86767356686077e-06,0.4875879484776773,-1.7624156433139228e-05,0.4875879484776773,-1.594556929941769e-05
0.4883820656576084,-4.867685519544438e-06,0.4883820656576084,-5.539168798034173e-06,0.4883820656576084,-1.695282775977222e-05,0.4883820656576084,-1.661732207817775e-05
0.4891761828375395,-5.538875588523247e-06,0.4891761828375395,-7.218600875737583e-06,0.4891761828375395,-1.72887702085851e-05,0.4891761828375395,-1.930293161721513e-05
0.4899703000174705,-4.868221155056938e-06,0.4899703000174705,-1.1913161932211058e-05,0.4899703000174705,-1.846236552267442e-05,0.4899703000174705,-2.0308913267414597e-05
0.4907644171974016,-3.525815626359113e-06,0.4907644171974016,-1.4936382340691997e-05,0.4907644171974016,-1.913430718682044e-05,0.4907644171974016,-1.863253203294889e-05
0.4915585343773327,-1.847324311071607e-06,0.4915585343773327,-1.7622625092902606e-05,0.4915585343773327,-1.4941060763018354e-05,0.4915585343773327,-1.6785982777950786e-05
0.4923526515572637,-2.1818926798154293e-06,0.4923526515572637,-1.9637516078892578e-05,0.4923526515572637,-1.1918625881661136e-05,0.4923526515572637,-1.6281620958334616e-05
0.4931467687371948,-1.8464377769819903e-06,0.4931467687371948,-2.165201333810806e-05,0.4931467687371948,-1.7286935568288158e-05,0.4931467687371948,-1.2254173323783882e-05
0.4939408859171259,-4.531544131201722e-06,0.4939408859171259,-1.8296082337793863e-05,0.4939408859171259,-1.72885e-05,0.4939408859171259,-1.3595607064882454e-05
0.494735003097057,-6.881817381153565e-06,0.494735003097057,-1.1581581668152964e-05,0.494735003097057,-1.561e-05,0.494735003097057,-1.6281397381153566e-05
0.495529120276988,-6.21042e-06,0.495529120276988,-6.881312114910607e-06,0.495529120276988,-1.560994921133977e-05,0.495529120276988,-1.5609517500163215e-05
0.4963232374569191,-6.21042e-06,0.4963232374569191,-3.528049936474173e-06,0.4963232374569191,-1.527462199460659e-05,0.4963232374569191,-1.24238589967213e-05
0.4971173546368502,-2.353027838539967e-06,0.4971173546368502,-2.1831314196271187e-06,0.4971173546368502,-1.5106536469109386e-05,0.4971173546368502,-1.1582282101706953e-05
0.4979114718167812,-2.853105029395701e-06,0.4979114718167812,-4.194890124234987e-06,0.4979114718167812,-1.5274188309870992e-05,0.4979114718167812,-1.3929936803846604e-05
0.4987055889967123,-1.8468613116007856e-06,0.4987055889967123,-4.86728245893281e-06,0.4987055889967123,-1.3596668852667977e-05,0.4987055889967123,-1.6280183606264832e-05
0.4994997061766434,-1.5107642273309914e-06,0.4994997061766434,-4.196478454661983e-06,0.4994997061766434,-1.4434689450175252e-05,0.4994997061766434,-1.5274672681992973e-05
0.5002938233565745,-3.5243818974542625e-06,0.5002938233565745,1.668781110025868e-07,0.5002938233565745,-1.4267237330940564e-05,0.5002938233565745,-1.493867468412841e-05
0.5010879405365055,-2.853490281102704e-06,0.5010879405365055,2.853238873267563e-06,0.5010879405365055,-1.2924500563703228e-05,0.5010879405365055,-1.560994971814839e-05
0.5018820577164366,-3.524781196173408e-06,0.5018820577164366,-8.392948041173555e-07,0.5018820577164366,-1.191747081593725e-05,0.5018820577164366,-1.695276339295034e-05
0.5026761748963677,-2.853624628965593e-06,0.5026761748963677,-1.510972336097986e-06,0.5026761748963677,-1.426712614753378e-05,0.5026761748963677,-1.644886767490179e-05
0.5034702920762988,-3.691932681903135e-06,0.5034702920762988,-3.019944811397181e-06,0.5034702920762988,-1.3931798930800629e-05,0.5034702920762988,-1.4939945144079315e-05
0.5042644092562298,-3.69268e-06,0.5042644092562298,-5.537156776801271e-06,0.5042644092562298,-1.2589699056340708e-05,0.5042644092562298,-1.2254998112681416e-05
0.5050585264361609,-4.19592966867607e-06,0.5050585264361609,-9.22950758221974e-06,0.5050585264361609,-1.359519933735214e-05,0.5050585264361609,-8.56251242374454e-06
0.505852643616092,-7.5517132276883005e-06,0.505852643616092,-1.2251643905368315e-05,0.505852643616092,-1.4937997289279936e-05,0.505852643616092,-8.56031e-06
0.506646760796023,-6.882022268954824e-06,0.506646760796023,-1.6280186386271055e-05,0.506646760796023,-1.5106349447824515e-05,0.506646760796023,-9.567106596567765e-06
0.507440877975954,-6.210523182549711e-06,0.507440877975954,-1.561010318254971e-05,0.507440877975954,-1.3260383744327573e-05,0.507440877975954,-1.1245642045162553e-05
0.5082349951558852,-6.21042e-06,0.5082349951558852,-1.795988566349457e-05,0.5082349951558852,-1.3595797951927794e-05,0.5082349951558852,-1.3595785663494569e-05
0.5090291123358163,-8.22442025986064e-06,0.5090291123358163,-1.9638423710628904e-05,0.5090291123358163,-1.37636e-05,0.5090291123358163,-1.2588747435388097e-05
0.5098232295157473,-6.883121381823555e-06,0.5098232295157473,-1.980603737451873e-05,0.5098232295157473,-1.37636e-05,0.5098232295157473,-1.2924074652121204e-05
0.5106173466956784,-7.049531892782887e-06,0.5106173466956784,-1.9303114280511267e-05,0.5106173466956784,-1.3931361851642816e-05,0.5106173466956784,-1.2253552428868447e-05
0.5114114638756094,-8.89476331497828e-06,0.5114114638756094,-1.896722667123162e-05,0.5114114638756094,-1.1583186698621348e-05,0.5114114638756094,-1.2253e-05
0.5122055810555405,-6.211837018956136e-06,0.5122055810555405,-2.064461435985468e-05,0.5122055810555405,-1.3594737231825616e-05,0.5122055810555405,-9.568827018956136e-06
0.5129996982354716,-4.532567920331507e-06,0.5129996982354716,-2.0981072415173587e-05,0.5129996982354716,-1.2924655169652826e-05,0.5129996982354716,-1.258755174036284e-05
0.5137938154154027,-4.19630804162381e-06,0.5137938154154027,-2.2323587856752195e-05,0.5137938154154027,-1.29244e-05,0.5137938154154027,-1.5609297625385714e-05
0.5145879325953338,-5.53891600631499e-06,0.5145879325953338,-2.114909974022976e-05,0.5145879325953338,-1.4938429009472485e-05,0.5145879325953338,-1.292462798737002e-05
0.5153820497752648,-6.210483134344055e-06,0.5153820497752648,-2.0981094776093245e-05,0.5153820497752648,-1.3595884179125404e-05,0.5153820497752648,-1.0910284179125404e-05
0.5161761669551959,-7.217167506129874e-06,0.5161761669551959,-1.9302241744738427e-05,0.5161761669551959,-1.4938247504029809e-05,0.5161761669551959,-1.2253070499194035e-05
0.5169702841351269,-5.540541411359447e-06,0.5169702841351269,-1.7122564891496196e-05,0.5169702841351269,-1.3261611420364036e-05,0.5169702841351269,-1.2588397715927194e-05
0.5177644013150581,-5.87446688595949e-06,0.5177644013150581,-1.577881248632249e-05,0.5177644013150581,-8.899300573007978e-06,0.5177644013150581,-1.3595040635258131e-05
0.5185585184949891,-5.203737150691742e-06,0.5185585184949891,-1.5610101758867535e-05,0.5185585184949891,-4.702324717596643e-06,0.5185585184949891,-1.4937785686487923e-05
0.5193526356749202,-4.867784035175415e-06,0.5193526356749202,-1.3596724211052488e-05,0.5193526356749202,-9.56517649913344e-06,0.5193526356749202,-1.4267508070350828e-05
0.5201467528548512,-3.525247967891431e-06,0.5201467528548512,-1.3763547769576868e-05,0.5201467528548512,-1.0238591019166944e-05,0.5201467528548512,-1.0911244919728576e-05
0.5209408700347823,-6.209980411474811e-06,0.5209408700347823,-1.2924537363741426e-05,0.5209408700347823,-1.3763023046096542e-05,0.5209408700347823,-1.644829335347502e-05
0.5217349872147133,-6.8818091888647e-06,0.5217349872147133,-1.22530108111353e-05,0.5217349872147133,-1.560997026857281e-05,0.5217349872147133,-1.829557026857281e-05
0.5225291043946444,-6.881731835768261e-06,0.5225291043946444,-1.1581688164231738e-05,0.5225291043946444,-1.4267332246347609e-05,0.5225291043946444,-2.16526e-05
0.5233232215745756,-6.2110774023018585e-06,0.5233232215745756,-1.225234259769814e-05,0.5233232215745756,-1.5273313896547214e-05,0.5233232215745756,-2.16526e-05
0.5241173387545066,-7.552101712281505e-06,0.5241173387545066,-1.0911318287718494e-05,0.5241173387545066,-1.560972042807038e-05,0.5241173387545066,-2.098175914385925e-05
0.5249114559344377,-6.211340114908267e-06,0.5249114559344377,-8.226450222964323e-06,0.5249114559344377,-1.561e-05,0.5249114559344377,-1.561368045963307e-05
0.5257055731143687,-6.21042e-06,0.5257055731143687,-8.895649028951074e-06,0.5257055731143687,-1.561e-05,0.5257055731143687,-1.3596882913146777e-05
0.5264996902942998,-5.874850942321859e-06,0.5264996902942998,-8.392656413482789e-06,0.5264996902942998,-1.594556905767814e-05,0.5264996902942998,-1.1246816596253011e-05
0.5272938074742308,-4.867874194933148e-06,0.5272938074742308,-6.882186293612101e-06,0.5272938074742308,-1.4267606995596507e-05,0.5272938074742308,-1.292399300440349e-05
0.528087924654162,-5.0354640720416745e-06,0.528087924654162,-6.88182e-06,0.528087924654162,-1.3260195567749954e-05,0.528087924654162,-1.3092184076786374e-05
0.528882041834093,-4.86763e-06,0.528882041834093,-8.224592312714046e-06,0.528882041834093,-1.4267164625428094e-05,0.528882041834093,-1.527442381100167e-05
0.5296761590140241,-4.867831435765396e-06,0.5296761590140241,-7.889312873530969e-06,0.5296761590140241,-1.359606858368743e-05,0.5296761590140241,-1.7623562103741473e-05
0.5304702761939551,-5.873803097069514e-06,0.5304702761939551,-9.90126618503455e-06,0.5304702761939551,-1.4937377450620048e-05,0.5304702761939551,-1.443790360029978e-05
0.5312643933738862,-6.881050562771796e-06,0.5312643933738862,-8.225892387740213e-06,0.5312643933738862,-1.359682591630427e-05,0.5312643933738862,-1.493821524318526e-05
0.5320585105538173,-5.875340807620393e-06,0.5320585105538173,-7.553633865582618e-06,0.5320585105538173,-1.0911855486987712e-05,0.5320585105538173,-1.1919162422861175e-05
0.5328526277337483,-6.2102626073290935e-06,0.5328526277337483,-1.0908626082667912e-05,0.5328526277337483,-1.3594540858632744e-05,0.5328526277337483,-1.091067217801272e-05
0.5336467449136795,-3.0223145635230863e-06,0.5336467449136795,-1.1245792150531744e-05,0.5336467449136795,-1.3931392150531744e-05,0.5336467449136795,-1.3594937204253947e-05
0.5344408620936105,-3.5247425423383078e-06,0.5344408620936105,-9.903333225062798e-06,0.5344408620936105,-1.4602783387468602e-05,0.5344408620936105,-1.4938366774937202e-05
0.5352349792735416,-4.196212473873809e-06,0.5352349792735416,-1.2588629895495235e-05,0.5352349792735416,-1.4938591236936904e-05,0.5352349792735416,-1.695274742162143e-05
0.5360290964534726,-4.867548542312529e-06,0.5360290964534726,-1.3259855626937587e-05,0.5360290964534726,-1.4938681457687471e-05,0.5360290964534726,-1.695247416925012e-05
0.5368232136334037,-4.1968941088462204e-06,0.5368232136334037,-1.124789232653866e-05,0.5368232136334037,-1.560933589115378e-05,0.5368232136334037,-1.426985643538488e-05
0.5376173308133347,-4.5316470705748845e-06,0.5376173308133347,-1.3929236564599071e-05,0.5376173308133347,-1.594541707057488e-05,0.5376173308133347,-1.3596365858850233e-05
0.5384114479932659,-3.525530158667396e-06,0.5384114479932659,-1.5608833068887674e-05,0.5384114479932659,-1.6952099841332606e-05,0.5384114479932659,-1.35958e-05
0.539205565173197,-4.866894627920555e-06,0.539205565173197,-1.644874041983239e-05,0.539205565173197,-1.527521921509931e-05,0.539205565173197,-1.35958e-05
0.539999682353128,-3.525367199269218e-06,0.539999682353128,-1.963712413173266e-05,0.539999682353128,-1.5609865700182698e-05,0.539999682353128,-1.4602497100548088e-05
0.5407937995330591,-5.538521460311797e-06,0.5407937995330591,-2.5343759162797812e-05,0.5407937995330591,-1.7623691460311796e-05,0.5407937995330591,-1.42672847566147e-05
0.5415879167129901,-5.53903e-06,0.5415879167129901,-2.6520076747812888e-05,0.5415879167129901,-2.3330401382483903e-05,0.5415879167129901,-1.2924540853648387e-05
0.5423820338929212,-6.210362681265023e-06,0.5423820338929212,-2.4673642376573567e-05,0.5423820338929212,-2.3330871036154488e-05,0.5423820338929212,-1.6617200308533222e-05
0.5431761510728523,-4.867247246001947e-06,0.5431761510728523,-2.0980179317604425e-05,0.5431761510728523,-2.030852414700553e-05,0.5431761510728523,-1.8966872414700554e-05
0.5439702682527834,-2.855293934498364e-06,0.5439702682527834,-1.5614943849873953e-05,0.5439702682527834,-1.3601979812342436e-05,0.5439702682527834,-1.8296217981234245e-05
0.5447643854327144,-4.530630824882575e-06,0.5447643854327144,-1.0242957385144217e-05,0.5447643854327144,-8.56420754083256e-06,0.5447643854327144,-1.7624719673143025e-05
0.5455585026126455,-6.880347952681957e-06,0.5455585026126455,-8.225871753949133e-06,0.5455585026126455,-3.5279843880049954e-06,0.5455585026126455,-1.5107977231588444e-05
0.5463526197925765,-6.210741500332612e-06,0.5463526197925765,-2.8560119882953715e-06,0.5463526197925765,-2.8537614955441046e-06,0.5463526197925765,-1.4267601851473233e-05
0.5471467369725076,-8.223942761530197e-06,0.5471467369725076,1.8447831091328956e-06,0.5471467369725076,-3.860196382421443e-06,0.5471467369725076,-9.568966894179794e-06
0.5479408541524387,-7.721162493804846e-06,0.5479408541524387,4.195798355508857e-06,0.5479408541524387,-7.049084196105995e-06,0.5479408541524387,-8.224856655044579e-06
0.5487349713323698,-8.895967578406323e-06,0.5487349713323698,5.874659397568583e-06,0.5487349713323698,-9.06378727701009e-06,0.5487349713323698,-8.22461e-06
0.5495290885123009,-7.720827059898256e-06,0.5495290885123009,7.888368057552544e-06,0.5495290885123009,-1.0574761629000882e-05,0.5495290885123009,-1.0910424253429328e-05
0.5503232056922319,-5.541210140028098e-06,0.5503232056922319,3.0261533816078394e-06,0.5503232056922319,-1.2922052146132963e-05,0.5503232056922319,-1.2922387553828255e-05
0.551117322872163,-7.5515022870049695e-06,0.551117322872163,-2.1776025697881388e-06,0.551117322872163,-1.426605485231794e-05,0.551117322872163,-1.2588986286920514e-05
0.551911440052094,-6.211366974871644e-06,0.551911440052094,-6.878505602053729e-06,0.551911440052094,-1.6279979537692533e-05,0.551911440052094,-1.1246846974871643e-05
0.5527055572320251,-7.552471197938584e-06,0.5527055572320251,-9.733668801195916e-06,0.5527055572320251,-1.7287938398453936e-05,0.5527055572320251,-9.568345997000348e-06
0.5534996744119562,-6.882095314625405e-06,0.5534996744119562,-1.4265341630379112e-05,0.5534996744119562,-1.493956360118892e-05,0.5534996744119562,-1.225189874559898e-05
0.5542937915918873,-5.2037705679257084e-06,0.5542937915918873,-1.9972602060128312e-05,0.5542937915918873,-1.6952271315339407e-05,0.5542937915918873,-1.25886118858899e-05
0.5550879087718184,-2.518048566111368e-06,0.5550879087718184,-2.702289002243131e-05,0.5550879087718184,-1.8966768574554746e-05,0.5550879087718184,-1.3595684287277372e-05
0.5558820259517494,-4.867651944590124e-06,0.5558820259517494,-3.1723456110819755e-05,0.5558820259517494,-1.7624117706152797e-05,0.5558820259517494,-1.3260143889180248e-05
0.5566761431316805,-5.539513511419545e-06,0.5566761431316805,-3.0380337363734744e-05,0.5566761431316805,-1.5106248910558135e-05,0.5566761431316805,-1.46029e-05
0.5574702603116115,-8.222111267493717e-06,0.5574702603116115,-2.83683740633361e-05,0.5574702603116115,-1.426798081320209e-05,0.5574702603116115,-1.46029e-05
0.5582643774915427,-5.708843947661684e-06,0.5582643774915427,-3.0379120835598528e-05,0.5582643774915427,-1.4938073611866175e-05,0.5582643774915427,-1.6280084029665438e-05
0.5590584946714737,-3.526218724253664e-06,0.5590584946714737,-3.3064590793085535e-05,0.5590584946714737,-1.6280545396542768e-05,0.5590584946714737,-1.7287859047407074e-05
0.5598526118514048,-2.853768210434981e-06,0.5598526118514048,-2.9039869291941013e-05,0.5598526118514048,-1.4268184645970508e-05,0.5598526118514048,-1.6952964107661753e-05
0.5606467290313358,-5.043499484838683e-07,0.5606467290313358,-2.534646020905062e-05,0.5606467290313358,-1.4434942734833944e-05,0.5606467290313358,-1.4268116515673176e-05
0.5614408462112669,-2.517349874010248e-06,0.5614408462112669,-2.5680834978743456e-05,0.5614408462112669,-1.7623582288378407e-05,0.5614408462112669,-1.628100987246074e-05
0.5622349633911979,-1.5106864341619596e-06,0.5622349633911979,-2.7023638087784056e-05,0.5622349633911979,-1.997399165362209e-05,0.5622349633911979,-1.8631191653622092e-05
0.563029080571129,-1.510537933912657e-06,0.563029080571129,-2.4504979331018784e-05,0.563029080571129,-1.8967e-05,0.563029080571129,-1.6953004133796243e-05
0.5638231977510602,-5.045642748293289e-07,0.5638231977510602,-1.4445162829022744e-05,0.5638231977510602,-1.8967e-05,0.5638231977510602,-1.896496743419545e-05
0.5646173149309912,-2.851412495991065e-06,0.5646173149309912,-3.478629809132418e-07,0.5646173149309912,-1.5612896444159134e-05,0.5646173149309912,-1.712219308742789e-05
0.5654114321109223,-7.046668749137556e-06,0.5654114321109223,1.3921295735624084e-05,0.5654114321109223,-8.90081201711487e-06,0.5654114321109223,-1.6282000217272114e-05
0.5662055492908533,-7.217424720994624e-06,0.5662055492908533,2.651305410297897e-05,0.5662055492908533,-4.19889780079766e-06,0.5662055492908533,-1.1751972561527343e-05
0.5669996664707844,-6.210843044424446e-06,0.5669996664707844,3.709025805454642e-05,0.5669996664707844,-4.699568477787777e-06,0.5669996664707844,-1.3595024397552085e-05
0.5677937836507154,-5.539212940486381e-06,0.5677937836507154,3.994732250497648e-05,0.5677937836507154,-5.035388528394408e-06,0.5677937836507154,-1.2588974414816774e-05
0.5685879008306466,-5.7068490370475135e-06,0.5685879008306466,3.541676602719478e-05,0.5685879008306466,-6.88158939503281e-06,0.5685879008306466,-9.903435427223528e-06
