X [s].2,L DELTOID ANTERIOR: EMG 3 [V],X [s].3,L BICEPS BRACHII: EMG 4 [V],X [s].4,L DELTOID POSTERIOR: EMG 5 [V],X [s].7,L DELTOID MEDIUS: EMG 8 [V]
0.0,-9.56741e-06,0.0,-9.9031e-06,0.0,-1.49386e-05,0.0,-1.4435e-05
0.000794117179931,-9.56741e-06,0.000794117179931,-9.9031e-06,0.000794117179931,-1.5609999306659366e-05,0.000794117179931,-1.4938599479942888e-05
0.0015882343598621,-1.091019046302619e-05,0.0015882343598621,-9.567412384190184e-06,0.0015882343598621,-1.678489165544089e-05,0.0015882343598621,-1.4602902384261209e-05
0.0023823515397932,-6.210415443579471e-06,0.0023823515397932,-1.1917300650919989e-05,0.0023823515397932,-1.712059772187699e-05,0.0023823515397932,-1.6449197070957004e-05
0.0031764687197242,-3.8605337884792045e-06,0.0031764687197242,-1.2252999458786382e-05,0.0031764687197242,-1.5945701894167053e-05,0.0031764687197242,-1.4938602435380673e-05
0.0039705858996553,-8.224587466589346e-06,0.0039705858996553,-1.1413704333626232e-05,0.0039705858996553,-1.3595812133430572e-05,0.0039705858996553,-1.2924410400083348e-05
0.0047647030795864,-7.7210743881341e-06,0.0047647030795864,-1.2924386834900531e-05,0.0047647030795864,-1.4267194149038335e-05,0.0047647030795864,-1.0910217552884989e-05
0.0055588202595174,1.2924401645595557e-05,0.0055588202595174,-1.1581599341765045e-05,0.0055588202595174,-1.3931499945130477e-05,0.0055588202595174,-1.3931500438825482e-05
0.0063529374394485,1.7959883763591458e-05,0.0063529374394485,-9.567416494531172e-06,0.0063529374394485,-1.3763600541374837e-05,0.0063529374394485,-1.5274295670291056e-05
0.0071470546193796,-2.853298977634277e-06,0.0071470546193796,-1.0910190901824383e-05,0.0071470546193796,-1.6952778391333214e-05,0.0071470546193796,-1.2253020471047586e-05
0.0079411717993107,-8.224554533198614e-06,0.0079411717993107,-1.2588682666527754e-05,0.0079411717993107,-1.4938620800166697e-05,0.0079411717993107,-1.4602875733138854e-05
0.0087352889792417,-7.217521294525189e-06,0.0087352889792417,-1.3931498273949274e-05,0.0087352889792417,-1.49386e-05,0.0087352889792417,-1.3763601078845971e-05
0.0095294061591728,-8.896001881844094e-06,0.0095294061591728,-1.3763600812062257e-05,0.0095294061591728,-1.628139350543658e-05,0.0095294061591728,-1.443499675271829e-05
0.0103235233391039,-1.1078173996803847e-05,0.0103235233391039,-1.35958e-05,0.0103235233391039,-1.5945611202071943e-05,0.0103235233391039,-1.5106414801124209e-05
0.0111176405190349,-1.3595877068816738e-05,0.0111176405190349,-1.3595731492117624e-05,0.0111176405190349,-1.2924382873029403e-05,0.0111176405190349,-1.5609965746058813e-05
0.011911757698966,-1.510631954175035e-05,0.011911757698966,-1.2253071520811352e-05,0.011911757698966,-1.258871788020284e-05,0.011911757698966,-1.4938635760405677e-05
0.0127058748788971,-1.1581711505935518e-05,0.0127058748788971,-1.1917310619763548e-05,0.0127058748788971,-1.25887e-05,0.0127058748788971,-1.6281357520945807e-05
0.0134999920588282,7.553028647660265e-06,0.0134999920588282,-1.2924389928782116e-05,0.0134999920588282,-1.174940839318158e-05,0.0134999920588282,-1.5610006714145256e-05
0.0142941092387592,1.1245782831916566e-05,0.0142941092387592,-1.2924407811236586e-05,0.0142941092387592,-1.359577656629024e-05,0.0142941092387592,-1.4938607811236588e-05
0.0150882264186903,1.1749735007089433e-06,0.0150882264186903,-1.3595755332388076e-05,0.0150882264186903,-1.1581566499291057e-05,0.0150882264186903,-1.5609944165485096e-05
0.0158823435986214,2.181968479188647e-06,0.0158823435986214,-1.2253095361081805e-05,0.0158823435986214,-1.0574571520811351e-05,0.0158823435986214,-1.3931619201352257e-05
0.0166764607785524,-3.1888747116805524e-06,0.0166764607785524,-1.0238899483490225e-05,0.0166764607785524,-1.1917233677673184e-05,0.0166764607785524,-1.2924449741745112e-05
0.0174705779584835,-5.8746454574288685e-06,0.0174705779584835,-1.1581562728436868e-05,0.0174705779584835,-1.1581609317890785e-05,0.0174705779584835,-1.4434958070879309e-05
0.0182646951384146,-1.091016917212452e-05,0.0182646951384146,-1.2924391779200551e-05,0.0182646951384146,-1.2924391779200551e-05,0.0182646951384146,-1.292440924809327e-05
0.0190588123183456,-8.895970943972184e-06,0.0190588123183456,-1.2420776567065852e-05,0.0190588123183456,-1.4267189585017882e-05,0.0190588123183456,-1.242081822699432e-05
0.0198529294982767,-6.378114143095048e-06,0.0198529294982767,-1.091023740583547e-05,0.0198529294982767,-1.3595750125552705e-05,0.0198529294982767,-1.3595812468611822e-05
0.0206470466782078,-2.182321730677335e-06,0.0206470466782078,-1.1917232384315171e-05,0.0206470466782078,-1.2253090154246437e-05,0.0206470466782078,-1.3931477461438392e-05
0.0214411638581389,-2.85340944258212e-06,0.0214411638581389,-1.225298472129106e-05,0.0214411638581389,-1.359573888516424e-05,0.0214411638581389,-1.359581527870894e-05
0.0222352810380699,-5.538965872094636e-06,0.0222352810380699,-1.2253e-05,0.0222352810380699,-1.2253032064072076e-05,0.0222352810380699,-1.4602875951945944e-05
0.023029398218001,-8.896002466773909e-06,0.023029398218001,-1.3595796986691613e-05,0.023029398218001,-1.3595796986691613e-05,0.023029398218001,-1.4938599246672905e-05
0.0238235153979321,-1.1917280471908532e-05,0.0238235153979321,-1.29243772162571e-05,0.0238235153979321,-1.493860325371239e-05,0.0238235153979321,-1.2253013018727644e-05
0.0246176325778631,-1.0910034756972412e-05,0.0246176325778631,-1.174937246346064e-05,0.0246176325778631,-1.5106310494966664e-05,0.0246176325778631,-1.29244e-05
0.0254117497577942,-6.882074840967964e-06,0.0254117497577942,-1.1078142467379392e-05,0.0254117497577942,-1.2924538036379908e-05,0.0254117497577942,-1.29244e-05
0.0262058669377253,-1.1751776053822907e-06,0.0262058669377253,-1.3092116143146435e-05,0.0262058669377253,-1.3595772046327648e-05,0.0262058669377253,-1.0910283861017054e-05
0.0269999841176564,1.8462795730927195e-06,0.0269999841176564,-1.242081342829051e-05,0.0269999841176564,-1.5274266429273727e-05,0.0269999841176564,-1.040671007021786e-05
0.0277941012975874,7.049668080090166e-06,0.0277941012975874,-1.1917298354363e-05,0.0277941012975874,-1.5274292046169532e-05,0.0277941012975874,-1.3260102742728337e-05
0.0285882184775185,5.874641897934794e-06,0.0285882184775185,-1.09102e-05,0.0285882184775185,-1.0406742955228506e-05,0.0285882184775185,-1.4938615620506104e-05
0.0293823356574496,2.518011967583484e-06,0.0293823356574496,-1.09102e-05,0.0293823356574496,-1.225285042098869e-05,0.0293823356574496,-1.560994560615924e-05
0.0301764528373806,-2.853120998718521e-06,0.0301764528373806,-1.1581560124691336e-05,0.0301764528373806,-1.5274120561111018e-05,0.0301764528373806,-1.359591962592599e-05
0.0309705700173117,-7.888719876681531e-06,0.0309705700173117,-1.4267098600292706e-05,0.0309705700173117,-1.52743e-05,0.0309705700173117,-1.4938549300146354e-05
0.0317646871972428,-1.225292964061887e-05,0.0317646871972428,-1.191733788590742e-05,0.0317646871972428,-1.3595827061362445e-05,0.0317646871972428,-1.5274294587727513e-05
0.0325588043771738,-1.2252981495870808e-05,0.0325588043771738,-1.2924418504184312e-05,0.0325588043771738,-1.5274292598326275e-05,0.0325588043771738,-1.2252998149581569e-05
0.0333529215571049,-8.896014555980948e-06,0.0333529215571049,-1.6281390888038103e-05,0.0333529215571049,-1.3931436216266726e-05,0.0333529215571049,-1.1917345559809482e-05
0.034147038737036,-9.06384705239423e-06,0.034147038737036,-1.5945725895211538e-05,0.034147038737036,-1.1581781266480764e-05,0.034147038737036,-1.359567052394231e-05
0.0349411559169671,-7.21762249624348e-06,0.0349411559169671,-1.2924567722034093e-05,0.0349411559169671,-1.3260006821092172e-05,0.0349411559169671,-1.4938525456873737e-05
0.0357352730968981,-6.881831373090645e-06,0.0357352730968981,-1.3260088626909356e-05,0.0357352730968981,-1.3931477253818707e-05,0.0357352730968981,-1.4602911373090646e-05
0.0365293902768292,-8.22459355852355e-06,0.0365293902768292,-1.3931491779200554e-05,0.0365293902768292,-1.4267195889600275e-05,0.0365293902768292,-1.4267204110399722e-05
0.0373235074567603,-1.023879527165711e-05,0.0373235074567603,-1.1245893695417612e-05,0.0373235074567603,-1.49385952710937e-05,0.0373235074567603,-1.3595806304582388e-05
0.0381176246366913,-9.735181897779685e-06,0.0381176246366913,-1.0574510413670736e-05,0.0381176246366913,-1.4435036449398616e-05,0.0381176246366913,-1.4267246859967276e-05
0.0389117418166224,-7.217704450537627e-06,0.0389117418166224,-1.0910175406497302e-05,0.0389117418166224,-1.560991391907754e-05,0.0389117418166224,-1.577768933290088e-05
0.0397058589965535,-6.8818373339088025e-06,0.0397058589965535,-1.09102e-05,0.0397058589965535,-1.762409599654718e-05,0.0397058589965535,-1.4267278000007857e-05
0.0404999761764846,-6.5461300712178825e-06,0.0404999761764846,-1.09102e-05,0.0404999761764846,-1.4435095678069922e-05,0.0404999761764846,-1.5274269786346353e-05
0.0412940933564156,-6.210422808526961e-06,0.0412940933564156,-9.90310842558088e-06,0.0412940933564156,-1.1245926680587812e-05,0.0412940933564156,-1.69527859573652e-05
0.0420882105363467,-5.8747511750891965e-06,0.0420882105363467,-1.12458844130524e-05,0.0420882105363467,-1.2253022268015615e-05,0.0420882105363467,-1.695278218558751e-05
0.0428823277162778,-8.224396125917988e-06,0.0428823277162778,-1.0071106932945352e-05,0.0428823277162778,-1.393134723214846e-05,0.0428823277162778,-1.5610122214281235e-05
0.0436764448962088,-9.56731682109216e-06,0.0436764448962088,-1.0910141766652176e-05,0.0436764448962088,-1.258879317890784e-05,0.0436764448962088,-1.460296988418088e-05
0.0444705620761399,-8.224674128144148e-06,0.0444705620761399,-1.225293587185585e-05,0.0444705620761399,-1.4267119839819813e-05,0.0444705620761399,-1.3931532064072076e-05
0.045264679256071,-7.553237538429009e-06,0.045264679256071,-1.3931456153274412e-05,0.045264679256071,-1.6281347383929296e-05,0.045264679256071,-1.4434986847288451e-05
0.046058796436002,-7.217521506654194e-06,0.046058796436002,-1.2253007533270971e-05,0.046058796436002,-1.4267209039925166e-05,0.046058796436002,-1.3763603013308388e-05
0.0468529136159331,-7.049655611720091e-06,0.0468529136159331,-1.0910246042495708e-05,0.0468529136159331,-1.3595771223440182e-05,0.0468529136159331,-1.258868273406411e-05
0.0476470307958642,-6.210493129653662e-06,0.0476470307958642,-1.359556598510828e-05,0.0476470307958642,-1.1917446259307324e-05,0.0476470307958642,-1.1581687755584394e-05
0.0484411479757953,-6.21042e-06,0.0484411479757953,-1.2420876978265352e-05,0.0484411479757953,-1.1581621992854194e-05,0.0484411479757953,-1.15816e-05
0.0492352651557263,-6.881790539673451e-06,0.0492352651557263,-1.2253007362887688e-05,0.0492352651557263,-1.4267082158693805e-05,0.0492352651557263,-1.3595711619020353e-05
0.0500293823356574,-5.874742402417064e-06,0.0500293823356574,-1.2588692532527644e-05,0.0500293823356574,-1.42672e-05,0.0500293823356574,-1.2924414934944707e-05
0.0508234995155885,-6.210419795218569e-06,0.0508234995155885,-1.225300020478143e-05,0.0508234995155885,-1.2924400819125728e-05,0.0508234995155885,-1.3595799590437137e-05
0.0516176166955195,-6.21042e-06,0.0516176166955195,-1.3931471771916762e-05,0.0516176166955195,-1.359581411404162e-05,0.0516176166955195,-1.5274278828937573e-05
0.0524117338754506,-6.21042e-06,0.0524117338754506,-1.25888118006105e-05,0.0524117338754506,-1.4267144099694753e-05,0.0524117338754506,-1.4267283850457874e-05
0.0532058510553817,-7.5531372360742845e-06,0.0532058510553817,-1.3763527584646764e-05,0.0532058510553817,-1.42672e-05,0.0532058510553817,-1.5106348275628196e-05
0.0539999682353128,-7.721063285854745e-06,0.0539999682353128,-1.628129928582114e-05,0.0539999682353128,-1.393151342829051e-05,0.0539999682353128,-1.51064e-05
0.0547940854152438,-5.035529324613023e-06,0.0547940854152438,-1.5945706165599585e-05,0.0547940854152438,-1.3595806165599586e-05,0.0547940854152438,-1.5609990750682303e-05
0.0555882025951749,-6.88182e-06,0.0555882025951749,-1.779199725778039e-05,0.0555882025951749,-1.4434999451686784e-05,0.0555882025951749,-1.4938595612187216e-05
0.056382319775106,-6.88182e-06,0.056382319775106,-1.6952884770499917e-05,0.056382319775106,-1.4267216950059443e-05,0.056382319775106,-1.359593564088094e-05
0.057176436955037,5.029616629496452e-07,0.057176436955037,-1.1582026428793372e-05,0.057176436955037,-1.3595853303599173e-05,0.057176436955037,-1.4267146696400828e-05
0.0579705541349681,1.1580960162186467e-05,0.0579705541349681,-7.721292973594479e-06,0.0579705541349681,-1.3763590308333533e-05,0.0579705541349681,-1.292447755643465e-05
0.0587646713148992,1.4267102988658032e-05,0.0587646713148992,-1.0406602987574348e-05,0.0587646713148992,-1.3595806061402734e-05,0.0587646713148992,-1.3595775747164508e-05
0.0595587884948302,7.553317274246697e-06,0.0595587884948302,-1.2252973250226888e-05,0.0595587884948302,-1.4938580545092708e-05,0.0595587884948302,-1.4938580545092708e-05
0.0603529056747613,-3.357255844848038e-07,0.0603529056747613,-1.124590719598611e-05,0.0603529056747613,-1.4938597601337962e-05,0.0603529056747613,-1.2252990405351854e-05
0.0611470228546924,-4.195855003867404e-06,0.0611470228546924,-1.2252902174465815e-05,0.0611470228546924,-1.4602932608511396e-05,0.0611470228546924,-1.091033043404558e-05
0.0619411400346235,-7.720803826523492e-06,0.0619411400346235,-1.1581650699853644e-05,0.0619411400346235,-1.4938574650073176e-05,0.0619411400346235,-1.443473382954404e-05
0.0627352572145545,-9.063787651595193e-06,0.0627352572145545,-1.02388723489436e-05,0.0627352572145545,-1.35958723489436e-05,0.0627352572145545,-1.493857286645219e-05
0.0635293743944856,-1.1581518816235116e-05,0.0635293743944856,-1.158155670182009e-05,0.0635293743944856,-1.3260110824544976e-05,0.0635293743944856,-1.49386e-05
0.0643234915744167,-1.2252992876291878e-05,0.0643234915744167,-1.124590356185406e-05,0.0643234915744167,-1.4938582190729696e-05,0.0643234915744167,-1.2588724932978422e-05
0.0651176087543477,-6.210382996511662e-06,0.0651176087543477,-1.0910201850736582e-05,0.0651176087543477,-1.5609988898887364e-05,0.0651176087543477,-1.3595794448892535e-05
0.0659117259342788,-2.8537530661604097e-06,0.0659117259342788,-1.1078084341935808e-05,0.0659117259342788,-1.4602993920407672e-05,0.0659117259342788,-1.309224696486675e-05
0.0667058431142099,-1.680413837877163e-07,0.0667058431142099,-1.0910212027608804e-05,0.0667058431142099,-1.2253168336378382e-05,0.0667058431142099,-1.0239004404877684e-05
0.067499960294141,1.174872859097462e-06,0.067499960294141,-1.2252932858547449e-05,0.067499960294141,-1.0238900712178823e-05,0.067499960294141,-1.1581532858547449e-05
0.068294077474072,-5.203149070078921e-06,0.068294077474072,-1.4938523818622282e-05,0.068294077474072,-1.1245871431983357e-05,0.068294077474072,-1.4267123818622284e-05
0.0690881946540031,-1.02387661004825e-05,0.0690881946540031,-1.49386e-05,0.0690881946540031,-1.4938575140205726e-05,0.0690881946540031,-1.7959875140205727e-05
0.0698823118339342,-9.903137266870162e-06,0.0698823118339342,-1.49386e-05,0.0698823118339342,-1.49386e-05,0.0698823118339342,-1.661724906748065e-05
0.0706764290138652,-8.224760043467154e-06,0.0706764290138652,-1.49386e-05,0.0706764290138652,-1.359592003548886e-05,0.0706764290138652,-1.6952769991127787e-05
0.0714705461937963,-4.364341579729705e-06,0.0714705461937963,-1.527427725381871e-05,0.0714705461937963,-1.4938509015274832e-05,0.0714705461937963,-1.8631186269093545e-05
0.0722646633737274,-2.1821406422262053e-06,0.0722646633737274,-1.4938615483490374e-05,0.0722646633737274,-1.5274284516509626e-05,0.0722646633737274,-1.493877031839412e-05
0.0730587805536585,-5.874629571695866e-06,0.0730587805536585,-1.2253065766395569e-05,0.0730587805536585,-1.359584110399723e-05,0.0730587805536585,-1.5777779449225813e-05
0.0738528977335895,-8.89600137705178e-06,0.0738528977335895,-1.1749401437305497e-05,0.0738528977335895,-1.4938596167565884e-05,0.0738528977335895,-1.4938602395128618e-05
0.0746470149135206,-8.89601e-06,0.0746470149135206,-1.3595602186255989e-05,0.0746470149135206,-1.5945592104516032e-05,0.0746470149135206,-1.3595943860645287e-05
0.0754411320934517,9.901492415726948e-06,0.0754411320934517,-1.393147129300055e-05,0.0754411320934517,-1.628137129300055e-05,0.0754411320934517,-1.5945499051003837e-05
0.0762352492733827,1.325988555691471e-05,0.0762352492733827,-1.091039299877676e-05,0.0762352492733827,-1.5274364332925587e-05,0.0762352492733827,-1.4938664332925586e-05
0.0770293664533138,-2.852759284889605e-06,0.0770293664533138,-1.0238828363235212e-05,0.0770293664533138,-1.52743e-05,0.0770293664533138,-1.4602914181617608e-05
0.0778234836332449,-7.720969675975217e-06,0.0778234836332449,-1.1078082701652756e-05,0.0778234836332449,-1.5609993081073313e-05,0.0778234836332449,-1.5609979243219934e-05
0.078617600813176,-8.896012234227165e-06,0.078617600813176,-1.0406697937633312e-05,0.078617600813176,-1.5106400687441913e-05,0.078617600813176,-1.4602899828088328e-05
0.079411717993107,-1.107787468342858e-05,0.079411717993107,-8.392667984845179e-06,0.079411717993107,-1.5777730673095035e-05,0.079411717993107,-1.4435017336889104e-05
0.0802058351730381,-1.174934519791021e-05,0.0802058351730381,-7.721124809437007e-06,0.0802058351730381,-1.5274341103608236e-05,0.0802058351730381,-1.359586850873492e-05
0.0809999523529692,-1.2252969783346286e-05,0.0809999523529692,-1.0910008648060248e-05,0.0809999523529692,-1.3260220854614595e-05,0.0809999523529692,-1.2924440284871533e-05
0.0817940695329002,-1.2253e-05,0.0817940695329002,-1.0238825759489674e-05,0.0817940695329002,-1.2253038639234512e-05,0.0817940695329002,-1.1245964398724189e-05
0.0825881867128313,-1.158161123410784e-05,0.0825881867128313,-1.057449438294608e-05,0.0825881867128313,-1.158161123410784e-05,0.0825881867128313,-1.2420780341147896e-05
0.0833823038927624,-8.896334986950625e-06,0.0833823038927624,-1.0910159376479908e-05,0.0833823038927624,-1.292423750591963e-05,0.0833823038927624,-1.493829531754874e-05
0.0841764210726934,-6.210686926564825e-06,0.0841764210726934,-1.0238866731889684e-05,0.0841764210726934,-1.2253066731889684e-05,0.0841764210726934,-1.091060039133812e-05
0.0849705382526245,-7.217441690238256e-06,0.0849705382526245,-1.242063033273744e-05,0.0849705382526245,-1.2588673896746088e-05,0.0849705382526245,-1.0238852206507828e-05
0.0857646554325556,-6.881838840562997e-06,0.0857646554325556,-1.2924371736349345e-05,0.0857646554325556,-1.4938468116059016e-05,0.0857646554325556,-1.2588568116059015e-05
0.0865587726124866,-9.567317377368244e-06,0.0865587726124866,-1.4267153688511676e-05,0.0865587726124866,-1.3931534733616242e-05,0.0865587726124866,-1.158163473361624e-05
0.0873528897924177,-1.0910182739403911e-05,0.0873528897924177,-1.510638921268982e-05,0.0873528897924177,-1.39315e-05,0.0873528897924177,-1.3595774108913052e-05
0.0881470069723488,-1.0574539321811253e-05,0.0881470069723488,-1.762390508055892e-05,0.0881470069723488,-1.2924517965433757e-05,0.0881470069723488,-1.4267121356377496e-05
0.0889411241522799,-1.05745e-05,0.0889411241522799,-1.829553587185585e-05,0.0889411241522799,-1.3595735871855853e-05,0.0889411241522799,-1.6281207615567552e-05
0.0897352413322109,-1.191720079447537e-05,0.0897352413322109,-1.6952899205524632e-05,0.0897352413322109,-1.3931475198618844e-05,0.0897352413322109,-1.4267348808286946e-05
0.090529358512142,-1.3092138617196436e-05,0.090529358512142,-1.4603022770831643e-05,0.090529358512142,-1.258877015476094e-05,0.090529358512142,-1.3931517538690236e-05
0.0913234756920731,-3.5251228635315326e-06,0.0913234756920731,-1.2924451379996558e-05,0.0913234756920731,-1.0910251379996558e-05,0.0913234756920731,-1.4267189724000688e-05
0.0921175928720041,9.231595494819791e-06,0.0921175928720041,-1.1581612053233556e-05,0.0921175928720041,-1.2924381920149666e-05,0.0921175928720041,-1.661707890684128e-05
0.0929117100519352,6.546424159686732e-06,0.0929117100519352,-1.1078157024490808e-05,0.0929117100519352,-1.3260061979897589e-05,0.0929117100519352,-1.4938790100512058e-05
0.0937058272318663,1.1754321933562697e-06,0.0937058272318663,-9.231879195761657e-06,0.0937058272318663,-1.3763553861282833e-05,0.0937058272318663,-1.091056914639174e-05
0.0944999444117974,-2.5174815068077514e-06,0.0944999444117974,-8.224680498525166e-06,0.0944999444117974,-1.2588782244779286e-05,0.0944999444117974,-9.56750399733354e-06
0.0952940615917284,-8.393271837971573e-07,0.0952940615917284,-8.22461e-06,0.0952940615917284,-1.3595751289547583e-05,0.0952940615917284,-1.1917186342761367e-05
0.0960881787716595,-8.39246e-07,0.0960881787716595,-9.90305512963458e-06,0.0960881787716595,-1.35958e-05,0.0960881787716595,-1.3595755129367254e-05
0.0968822959515906,-5.035919799080015e-07,0.0968822959515906,-9.23179795902994e-06,0.0968822959515906,-1.5945392138809845e-05,0.0968822959515906,-1.35958e-05
0.0976764131315216,1.174756386225378e-06,0.0976764131315216,-7.217740337010872e-06,0.0976764131315216,-1.6617026553965068e-05,0.0976764131315216,-1.25888101690524e-05
0.0984705303114527,-1.677311596591407e-07,0.0984705303114527,-5.539177300755167e-06,0.0984705303114527,-1.66171e-05,0.0984705303114527,-1.4602723238040706e-05
0.0992646474913838,-8.39201604927118e-07,0.0992646474913838,-6.546053407754356e-06,0.0992646474913838,-1.6952777802364375e-05,0.0992646474913838,-1.4435011102123984e-05
0.1000587646713148,-7.383430568105911e-06,0.1000587646713148,-7.049520812338681e-06,0.1000587646713148,-1.762400108311824e-05,0.1000587646713148,-1.493845079752509e-05
0.1008528818512459,-1.3930525923043803e-05,0.1008528818512459,-9.567035355360236e-06,0.1008528818512459,-1.6617249858451115e-05,0.1008528818512459,-1.5945550141548884e-05
0.101646999031177,-1.7959895084626652e-05,0.101646999031177,-1.2252996723096637e-05,0.101646999031177,-1.6281400409614447e-05,0.101646999031177,-1.59457e-05
0.1024411162111081,-2.1651961263354096e-05,0.1024411162111081,-1.29244e-05,0.1024411162111081,-1.4938649133588146e-05,0.1024411162111081,-1.863125086641185e-05
0.1032352333910391,-1.7287217201720242e-05,0.1032352333910391,-1.29244e-05,0.1032352333910391,-1.527543476839646e-05,0.1032352333910391,-1.829510661604625e-05
0.1040293505709702,-1.2922327534666306e-05,0.1040293505709702,-1.2924696067106198e-05,0.1040293505709702,-1.9133911798681403e-05,0.1040293505709702,-1.6616063765128304e-05
0.1048234677509013,-8.227756489297487e-06,0.1048234677509013,-1.3595350500572508e-05,0.1048234677509013,-1.7121948498282477e-05,0.1048234677509013,-1.426877324799622e-05
0.1056175849308323,-7.553570973914921e-06,0.1056175849308323,-1.3763512281352231e-05,0.1056175849308323,-1.6952887718647766e-05,0.1056175849308323,-1.3596150979142493e-05
0.1064117021107634,-4.533063513566086e-06,0.1064117021107634,-1.2924714847162852e-05,0.1064117021107634,-1.69528e-05,0.1064117021107634,-1.091120757094919e-05
0.1072058192906945,-4.53193e-06,0.1072058192906945,-1.22531528063321e-05,0.1072058192906945,-1.7624047193667898e-05,0.1072058192906945,-1.3259565177837646e-05
0.1079999364706256,-4.867603140036542e-06,0.1079999364706256,-1.3595692560146163e-05,0.1079999364706256,-1.779198657401886e-05,0.1079999364706256,-1.6616831400365415e-05
0.1087940536505566,-4.1963434155199685e-06,0.1087940536505566,-1.5274458782673936e-05,0.1087940536505566,-1.7624245366478267e-05,0.1087940536505566,-1.695291341619567e-05
0.1095881708304877,-5.876272853436609e-06,0.1095881708304877,-1.7624272226441733e-05,0.1095881708304877,-1.8295311094233077e-05,0.1095881708304877,-1.8631227773558263e-05
0.1103822880104188,-1.3092139133314512e-05,0.1103822880104188,-1.795953469106701e-05,0.1103822880104188,-1.69528e-05,0.1103822880104188,-1.829535646071134e-05
0.1111764051903498,-1.292320231848655e-05,0.1111764051903498,-1.6952543328477735e-05,0.1111764051903498,-1.6951602318486554e-05,0.1111764051903498,-1.762291674432335e-05
0.1119705223702809,-1.057591180135447e-05,0.1119705223702809,-1.6449502558901278e-05,0.1119705223702809,-1.460431180135447e-05,0.1119705223702809,-1.5107912674347964e-05
0.112764639550212,-7.554591561379615e-06,0.112764639550212,-1.661702377894282e-05,0.112764639550212,-1.4938447603282338e-05,0.112764639550212,-2.030743782817789e-05
0.1135587567301431,-5.875234267575318e-06,0.1135587567301431,-1.4939114267575318e-05,0.1135587567301431,-1.5609794292969873e-05,0.1135587567301431,-1.4604648509756083e-05
0.1143528739100741,-6.210366689687529e-06,0.1143528739100741,-1.3763786594033822e-05,0.1143528739100741,-1.4938706620624945e-05,0.1143528739100741,-1.0575139723749658e-05
0.1151469910900052,-4.531948835437181e-06,0.1151469910900052,-1.3595801882993855e-05,0.1151469910900052,-1.1581637671098792e-05,0.1151469910900052,-1.3595766096011086e-05
0.1159411082699363,-1.5105942239072814e-06,0.1159411082699363,-1.1581737328278157e-05,0.1159411082699363,-1.1245854223907282e-05,0.1159411082699363,-1.5106194014400773e-05
0.1167352254498673,-1.175416596476554e-06,0.1167352254498673,-1.2588985957885933e-05,0.1167352254498673,-1.0910104680704687e-05,0.1167352254498673,-1.3595418722818757e-05
0.1175293426297984,-2.8546697737682905e-06,0.1175293426297984,-1.359608936056186e-05,0.1175293426297984,-1.0575223401404653e-05,0.1175293426297984,-1.225271063943814e-05
0.1183234598097295,-5.704931138209414e-06,0.1183234598097295,-1.426674379402817e-05,0.1183234598097295,-1.2251859485070424e-05,0.1183234598097295,-1.158205620597183e-05
0.1191175769896605,-4.364795382939112e-06,0.1191175769896605,-1.2925115388266698e-05,0.1191175769896605,-1.35950846117333e-05,0.1191175769896605,-1.2588163458799976e-05
0.1199116941695916,-2.182880471264768e-06,0.1199116941695916,-1.1582117215456329e-05,0.1199116941695916,-1.2421252582783131e-05,0.1199116941695916,-9.90413443091266e-06
0.1207058113495227,-4.531371677745559e-06,0.1207058113495227,-1.292408095735406e-05,0.1207058113495227,-1.292428034712802e-05,0.1207058113495227,-1.1245580957354062e-05
0.1214999285294538,-4.196260217458893e-06,0.1214999285294538,-1.2420845330689002e-05,0.1214999285294538,-1.0910381304753352e-05,0.1214999285294538,-1.0238890652376675e-05
0.1222940457093848,-4.867591348512589e-06,0.1222940457093848,-1.1581677302974822e-05,0.1222940457093848,-9.903167642981394e-06,0.1222940457093848,-1.091012269760086e-05
0.1230881628893159,-4.195472445283429e-06,0.1230881628893159,-1.2924675475785191e-05,0.1230881628893159,-1.107779008153565e-05,0.1230881628893159,-9.56771991846435e-06
0.123882280069247,-5.026007070416645e-07,0.123882280069247,-1.426631189124672e-05,0.123882280069247,-9.56788364506824e-06,0.123882280069247,-1.1078514424884512e-05
0.124676397249178,2.181872255913105e-06,0.124676397249178,-1.1748309693416252e-05,0.124676397249178,-1.0911374208608264e-05,0.124676397249178,-1.225333548817379e-05
0.1254705144291091,1.8465450391799505e-06,0.1254705144291091,-9.568742718022818e-06,0.1254705144291091,-1.3258664725740349e-05,0.1254705144291091,-1.29239899216401e-05
0.1262646316090402,3.0207448602541864e-06,0.1262646316090402,-1.0238488496213504e-05,0.1262646316090402,-1.292455575421309e-05,0.1262646316090402,-1.393103273736073e-05
0.1270587487889713,2.517899316515746e-06,0.1270587487889713,-1.258795652292652e-05,0.1270587487889713,-1.3595587577979003e-05,0.1270587487889713,-1.4434840699303588e-05
0.1278528659689023,-3.35216325658464e-07,0.1278528659689023,-1.3595629996576284e-05,0.1278528659689023,-1.4602729996576285e-05,0.1278528659689023,-1.527415832203999e-05
0.1286469831488334,-3.5247623166315416e-06,0.1286469831488334,-1.4602878626184062e-05,0.1286469831488334,-1.2924435623026563e-05,0.1286469831488334,-1.2253064121447816e-05
0.1294411003287645,-4.86796934751474e-06,0.1294411003287645,-1.2924060651221674e-05,0.1294411003287645,-1.0910115162805418e-05,0.1294411003287645,-1.29244e-05
0.1302352175086955,-7.553403920860361e-06,0.1302352175086955,-1.02388e-05,0.1302352175086955,-1.023921381440245e-05,0.1302352175086955,-1.292504373259918e-05
0.1310293346886266,-8.220794189287093e-06,0.1310293346886266,-1.0239506635043806e-05,0.1310293346886266,-1.1750459973615308e-05,0.1310293346886266,-1.5274511969463544e-05
0.1318234518685577,8.329967113685601e-07,0.1318234518685577,-1.191614271870958e-05,0.1318234518685577,-1.4265464043590691e-05,0.1318234518685577,-1.577745285008655e-05
0.1326175690484888,7.549575922869475e-06,0.1326175690484888,-1.54401868792358e-05,0.1326175690484888,-1.493823559087577e-05,0.1326175690484888,-1.661664446145671e-05
0.1334116862284198,4.868691286924301e-06,0.1334116862284198,-1.7623337681404266e-05,0.1334116862284198,-1.560973467728098e-05,0.1334116862284198,-1.8966071370483428e-05
0.1342058034083509,1.8470880609362992e-06,0.1342058034083509,-1.76242e-05,0.1342058034083509,-1.527438311815692e-05,0.1342058034083509,-1.5778589634870552e-05
0.134999920588282,-1.676475513742055e-07,0.134999920588282,-1.3596202899451912e-05,0.134999920588282,-1.6281299275137023e-05,0.134999920588282,-1.644913285009135e-05
0.135794037768213,-4.196397666131247e-06,0.135794037768213,-1.0238640318468562e-05,0.135794037768213,-1.6952640317517223e-05,0.135794037768213,-1.6281304190510334e-05
0.1365881549481441,-7.722216446487247e-06,0.1365881549481441,-6.88182e-06,0.1365881549481441,-1.359521039694217e-05,0.1365881549481441,-1.426693795419652e-05
0.1373822721280752,-1.3593268804478446e-05,0.1373822721280752,-6.881474836039613e-06,0.1373822721280752,-1.0574615054653462e-05,0.1373822721280752,-1.2924515054653462e-05
0.1381763893080062,-6.201871716809903e-06,0.1381763893080062,-5.875295367851541e-06,0.1381763893080062,-1.0911186344888357e-05,0.1381763893080062,-1.325894926429692e-05
0.1389705064879373,1.1235063642151372e-05,0.1389705064879373,-7.0489406264175815e-06,0.1389705064879373,-1.2923149645287284e-05,0.1389705064879373,-1.0911658747164836e-05
0.1397646236678684,2.1863359971713333e-06,0.1397646236678684,-7.888512225468392e-06,0.1397646236678684,-1.2253318223417048e-05,0.1397646236678684,-1.2252363553165903e-05
0.1405587408477994,-8.892394255623676e-06,0.1405587408477994,-8.22450043149407e-06,0.1405587408477994,-1.2924180862988135e-05,0.1405587408477994,-1.2253e-05
0.1413528580277305,-9.902919925878049e-06,0.1413528580277305,-1.0574079824664693e-05,0.1413528580277305,-1.4266959898786644e-05,0.1413528580277305,-1.3259919924089984e-05
0.1421469752076616,-1.1917237107395588e-05,0.1421469752076616,-1.1245879035798527e-05,0.1421469752076616,-1.4938579035798528e-05,0.1421469752076616,-1.0910273374705144e-05
0.1429410923875927,-1.023881953636878e-05,0.1429410923875927,-8.896029530550923e-06,0.1429410923875927,-1.49386e-05,0.1429410923875927,-1.158183436661107e-05
0.1437352095675237,-1.0407098706173074e-05,0.1437352095675237,-9.063992906456674e-06,0.1437352095675237,-1.4938245582782204e-05,0.1437352095675237,-1.35958e-05
0.1445293267474548,-1.191798986868296e-05,0.1445293267474548,-9.567961890836338e-06,0.1445293267474548,-1.35958e-05,0.1445293267474548,-1.359524810505363e-05
0.1453234439273859,-1.3594625952348731e-05,0.1453234439273859,-1.090926076887361e-05,0.1453234439273859,-1.35958e-05,0.1453234439273859,-1.2253939238121012e-05
0.146117561107317,-1.0240655620575364e-05,0.146117561107317,-1.4265344379424635e-05,0.146117561107317,-1.527337218971232e-05,0.146117561107317,-1.3595057751769854e-05
0.146911678287248,-7.218744161590902e-06,0.146911678287248,-1.42672e-05,0.146911678287248,-1.4938736018854943e-05,0.146911678287248,-1.35958e-05
0.1477057954671791,-6.881906475652352e-06,0.1477057954671791,-1.3595972951304704e-05,0.1477057954671791,-1.3596145902609408e-05,0.1477057954671791,-1.560948114608589e-05
0.1484999126471102,-7.217483067550252e-06,0.1484999126471102,-1.4267126135100504e-05,0.1484999126471102,-1.35958e-05,0.1484999126471102,-1.561e-05
0.1492940298270412,-7.2174695569886704e-06,0.1492940298270412,-1.661698650322451e-05,0.1492940298270412,-1.2253012610752833e-05,0.1492940298270412,-1.376364413951319e-05
0.1500881470069723,-5.874782153955436e-06,0.1500881470069723,-1.3595924307910871e-05,0.1500881470069723,-1.2589072923732615e-05,0.1500881470069723,-1.4938351384178256e-05
0.1508822641869034,-6.210252454262958e-06,0.1508822641869034,-1.4267646788632112e-05,0.1508822641869034,-1.4603346788632111e-05,0.1508822641869034,-1.35958e-05
0.1516763813668344,-5.707836225255341e-06,0.1516763813668344,-1.560903377474466e-05,0.1516763813668344,-1.594553896245744e-05,0.1516763813668344,-1.3596605187712784e-05
0.1524704985467655,-7.719799525654338e-06,0.1524704985467655,-1.359707047434566e-05,0.1524704985467655,-1.5610211745724278e-05,0.1524704985467655,-1.5273241271378616e-05
0.1532646157266966,-8.895441362625823e-06,0.1532646157266966,-1.5609025184776186e-05,0.1532646157266966,-1.4938924938407935e-05,0.1532646157266966,-1.6951987653980157e-05
0.1540587329066277,-1.3761962593163584e-05,0.1540587329066277,-1.493882585200273e-05,0.1540587329066277,-1.5609774147997272e-05,0.1540587329066277,-1.762397414799727e-05
0.1548528500865587,-1.7119966172012387e-05,0.1548528500865587,-1.3931690148396285e-05,0.1548528500865587,-1.644904155244349e-05,0.1548528500865587,-1.6952926765597522e-05
0.1556469672664898,-1.71206e-05,0.1556469672664898,-1.4267186160403818e-05,0.1556469672664898,-1.4938662276121508e-05,0.1556469672664898,-1.4267310716769445e-05
0.1564410844464209,-1.5098723767161294e-06,0.1564410844464209,-1.493854643927258e-05,0.1564410844464209,-1.527440711081927e-05,0.1564410844464209,-1.4938635703606422e-05
0.157235201626352,5.704866710145638e-06,0.157235201626352,-1.4434957389292364e-05,0.157235201626352,-1.62814e-05,0.157235201626352,-1.5274555740427045e-05
0.158029318806283,-2.183386200634089e-06,0.158029318806283,-1.42672e-05,0.158029318806283,-1.6280861518142307e-05,0.158029318806283,-1.6281130759071155e-05
0.1588234359862141,-5.536648379070406e-06,0.1588234359862141,-1.42672e-05,0.1588234359862141,-1.4939552651209642e-05,0.1588234359862141,-1.561047632560482e-05
0.1596175531661451,-6.210042166521667e-06,0.1596175531661451,-1.42672e-05,0.1596175531661451,-1.510630556836166e-05,0.1596175531661451,-1.64487277292557e-05
0.1604116703460762,-2.1837125079009107e-06,0.1604116703460762,-1.4602760623649624e-05,0.1604116703460762,-1.5609790914715373e-05,0.1604116703460762,-1.4939227172817637e-05
0.1612057875260073,-3.188870500556677e-06,0.1612057875260073,-1.2589238998886644e-05,0.1612057875260073,-1.6281220333704453e-05,0.1612057875260073,-1.6281040667408902e-05
0.1619999047059384,-4.531768841419403e-06,0.1619999047059384,-1.0910401449725968e-05,0.1619999047059384,-1.7624038840219224e-05,0.1619999047059384,-1.7624038840219224e-05
0.1627940218858694,-6.881857012754e-06,0.1627940218858694,-1.191727224022777e-05,0.1627940218858694,-1.4602890746742593e-05,0.1627940218858694,-1.3260146266287051e-05
0.1635881390658005,-8.224756991150005e-06,0.1635881390658005,-1.090978842653144e-05,0.1635881390658005,-1.42672e-05,0.1635881390658005,-1.4938511796552704e-05
0.1643822562457316,-9.064889223567372e-06,0.1643822562457316,-8.5598766445769e-06,0.1643822562457316,-1.4267525018987784e-05,0.1643822562457316,-1.4433970789341732e-05
0.1651763734256627,-1.2252369262918402e-05,0.1651763734256627,-7.216416214804382e-06,0.1651763734256627,-1.52741423157296e-05,0.1651763734256627,-1.1245821181350692e-05
0.1659704906055937,-1.0911060395985831e-05,0.1659704906055937,-4.869135686567728e-06,0.1659704906055937,-1.4938815098996457e-05,0.1659704906055937,-1.1078207517460845e-05
0.1667646077855248,-2.857419821026467e-06,0.1667646077855248,-5.203164173300609e-06,0.1667646077855248,-1.4603065826699391e-05,0.1667646077855248,-1.3594556324453212e-05
0.1675587249654559,-8.222749474442953e-06,0.1675587249654559,-5.538913716503202e-06,0.1675587249654559,-1.6448560458087165e-05,0.1675587249654559,-1.35958e-05
0.1683528421453869,-7.55335347860032e-06,0.1683528421453869,-7.552819560222853e-06,0.1683528421453869,-1.359636728256029e-05,0.1683528421453869,-1.0910733922353652e-05
0.169146959325318,-1.682273345296622e-07,0.169146959325318,-9.567306817962658e-06,0.169146959325318,-1.2588751591274808e-05,0.169146959325318,-1.1245882802908398e-05
0.1699410765052491,-6.546734574181714e-06,0.1699410765052491,-1.12459e-05,0.1699410765052491,-1.174961025453914e-05,0.1699410765052491,-1.2253097038332969e-05
0.1707351936851801,-1.2923744885491348e-05,0.1707351936851801,-1.1246145667940745e-05,0.1707351936851801,-1.3931295264519246e-05,0.1707351936851801,-1.326067322519507e-05
0.1715293108651112,-1.0237487335897848e-05,0.1715293108651112,-1.2255231542268516e-05,0.1715293108651112,-1.30922e-05,0.1715293108651112,-1.5609606198423204e-05
0.1723234280450423,-6.88423514635711e-06,0.1723234280450423,-1.7955794226731945e-05,0.1723234280450423,-1.30922e-05,0.1723234280450423,-1.4603624548223777e-05
0.1731175452249733,-8.427069719793941e-07,0.1731175452249733,-2.0979469506564368e-05,0.1731175452249733,-1.4434230891806384e-05,0.1731175452249733,-1.292536138524202e-05
0.1739116624049044,1.006314965548766e-06,0.1739116624049044,-2.316227225126136e-05,0.1739116624049044,-1.4267271345663768e-05,0.1739116624049044,-1.3259957266154189e-05
0.1747057795848355,5.202165122511774e-06,0.1747057795848355,-1.89681648691602e-05,0.1747057795848355,-1.42672e-05,0.1747057795848355,-1.49381340467839e-05
0.1754998967647666,1.1245114349969492e-05,0.1754998967647666,-1.6281749179524924e-05,0.1754998967647666,-1.5609825410237537e-05,0.1754998967647666,-1.577769088789942e-05
0.1762940139446976,1.2588464170469324e-05,0.1762940139446976,-1.5274270521190118e-05,0.1762940139446976,-1.560997052119012e-05,0.1762940139446976,-1.6952729250856285e-05
0.1770881311246287,-8.402993360330495e-07,0.1770881311246287,-1.3595689122070862e-05,0.1770881311246287,-1.3931583150189635e-05,0.1770881311246287,-1.2924510877929137e-05
0.1778822483045598,-7.217834943374221e-06,0.1778822483045598,-1.2924085053498516e-05,0.1778822483045598,-1.4434737560218405e-05,0.1778822483045598,-1.3596114946501482e-05
0.1786763654844909,-8.225535981392093e-06,0.1786763654844909,-1.1916837007005308e-05,0.1786763654844909,-1.359518267600708e-05,0.1786763654844909,-1.460274566900177e-05
0.1794704826644219,-1.0237489292895672e-05,0.1794704826644219,-1.0910855356805844e-05,0.1794704826644219,-1.225387380907446e-05,0.1794704826644219,-1.4267418452268617e-05
0.180264599844353,-9.23221754754473e-06,0.180264599844353,-1.0239138368389647e-05,0.180264599844353,-1.2420715433101306e-05,0.180264599844353,-1.0408645593041768e-05
0.181058717024284,-6.882657483381702e-06,0.181058717024284,-1.02388e-05,0.181058717024284,-1.3930961597715324e-05,0.181058717024284,-9.567709116736285e-06
0.1818528342042151,1.0570854931644173e-05,0.1818528342042151,-8.225030584649664e-06,0.1818528342042151,-1.4938389706631111e-05,0.1818528342042151,-1.292369902419182e-05
0.1826469513841462,1.829512724449816e-05,0.1826469513841462,-7.553261108561783e-06,0.1826469513841462,-1.292452332752222e-05,0.1826469513841462,-1.29244e-05
0.1834410685640773,8.386372420093255e-07,0.1834410685640773,-8.22445056347797e-06,0.1834410685640773,-1.1917386965846668e-05,0.1834410685640773,-1.393170292030889e-05
0.1842351857440083,-6.210930454478616e-06,0.1842351857440083,-6.378230734090927e-06,0.1842351857440083,-1.2924635595454442e-05,0.1842351857440083,-1.628171412727259e-05
0.1850293029239394,-8.393931006270747e-06,0.1850293029239394,-6.211315393630313e-06,0.1850293029239394,-1.3932011655680386e-05,0.1850293029239394,-1.7623688344319614e-05
0.1858234201038705,-1.225018400980668e-05,0.1858234201038705,-8.55859592186705e-06,0.1858234201038705,-1.5273320522613006e-05,0.1858234201038705,-1.6282379477386994e-05
0.1866175372838016,-1.3930521827280812e-05,0.1866175372838016,-8.224805634543838e-06,0.1866175372838016,-1.577750657732254e-05,0.1866175372838016,-1.7287913096368487e-05
0.1874116544637326,-1.2924838274023736e-05,0.1874116544637326,-8.560163908658755e-06,0.1874116544637326,-1.527451911525266e-05,0.1874116544637326,-1.6952946091341245e-05
0.1882057716436637,-1.3260003451861349e-05,0.1882057716436637,-9.56712035558404e-06,0.1882057716436637,-1.426748964441596e-05,0.1882057716436637,-1.7120551740310797e-05
0.1889998888235948,-1.2924447004936049e-05,0.1889998888235948,-1.1581317971783907e-05,0.1889998888235948,-1.62811179703837e-05,0.1889998888235948,-1.628151750533909e-05
0.1897940060035258,-1.1917292385200372e-05,0.1897940060035258,-1.2924415229599257e-05,0.1897940060035258,-1.628139238520037e-05,0.1897940060035258,-1.5609991115689047e-05
0.1905881231834569,-1.0910304162938269e-05,0.1905881231834569,-1.493849583706173e-05,0.1905881231834569,-1.5273883348246923e-05,0.1905881231834569,-1.4435026048491712e-05
0.191382240363388,-1.1582209748030432e-05,0.191382240363388,-1.4267606498686956e-05,0.191382240363388,-1.2589004874015216e-05,0.191382240363388,-1.4602798375328262e-05
0.192176357543319,-1.35954980445479e-05,0.192176357543319,-1.56096980445479e-05,0.192176357543319,-1.35958e-05,0.192176357543319,-1.426704902227395e-05
0.1929704747232501,-1.2924843611081569e-05,0.1929704747232501,-1.4939043611081569e-05,0.1929704747232501,-1.35958e-05,0.1929704747232501,-1.3931721805540784e-05
0.1937645919031812,-1.1246762708451293e-05,0.1937645919031812,-1.6951764749858452e-05,0.1937645919031812,-1.2589217625070777e-05,0.1937645919031812,-1.2589390166761034e-05
0.1945587090831123,-1.2923785007561669e-05,0.1945587090831123,-1.846284652512521e-05,0.1945587090831123,-1.2924277001512331e-05,0.1945587090831123,-1.1246391993950666e-05
0.1953528262630433,-1.3092163283298082e-05,0.1953528262630433,-1.7624383627272042e-05,0.1953528262630433,-1.3092163283298082e-05,0.1953528262630433,-1.309179600687277e-05
0.1961469434429744,-1.091035542497453e-05,0.1961469434429744,-1.779198804752029e-05,0.1961469434429744,-1.1246031512892062e-05,0.1961469434429744,-1.376355217583506e-05
0.1969410606229055,-1.3931064271721442e-05,0.1969410606229055,-1.8295343688798785e-05,0.1969410606229055,-1.3931525631120124e-05,0.1969410606229055,-1.527399242655854e-05
0.1977351778028366,-8.219498166208624e-06,0.1977351778028366,-1.49386e-05,0.1977351778028366,-1.426723757596471e-05,0.1977351778028366,-1.1246125522968178e-05
0.1985292949827676,1.4602775439352083e-05,0.1985292949827676,-1.493841314047575e-05,0.1985292949827676,-1.443543598082008e-05,0.1985292949827676,-1.2253996485183326e-05
0.1993234121626987,1.4267448222618918e-05,0.1993234121626987,-1.4435372370899276e-05,0.1993234121626987,-1.5609131183862888e-05,0.1993234121626987,-1.4936614219048656e-05
0.2001175293426297,1.8537026817423492e-06,0.2001175293426297,-1.2254293418616893e-05,0.2001175293426297,-1.4938997984078542e-05,0.2001175293426297,-1.25900929442749e-05
0.2009116465225608,5.041457917852319e-07,0.2009116465225608,-1.0910797795346716e-05,0.2009116465225608,-1.460304944883668e-05,0.2009116465225608,-1.3595351653489962e-05
0.2017057637024919,-3.188041041596417e-06,0.2017057637024919,-1.1581400188731848e-05,0.2017057637024919,-1.4267299905634077e-05,0.2017057637024919,-1.4602600283097774e-05
0.202499880882423,-1.6830226053325625e-07,0.202499880882423,-1.292419855027402e-05,0.202499880882423,-1.3931550362431495e-05,0.202499880882423,-1.4938549637568505e-05
0.203293998062354,-1.1749375423352895e-06,0.203293998062354,-1.225300163845778e-05,0.203293998062354,-1.359580081922889e-05,0.203293998062354,-1.4602900819228891e-05
0.2040881152422851,-4.532368514312001e-06,0.2040881152422851,-1.0910102552052574e-05,0.2040881152422851,-1.3931451276026289e-05,0.2040881152422851,-1.35958e-05
0.2048822324222162,-7.554006131555881e-06,0.2048822324222162,-1.0239193068705173e-05,0.2048822324222162,-1.3596291335881463e-05,0.2048822324222162,-1.35958e-05
0.2056763496021472,-1.0239464288054956e-05,0.2056763496021472,-1.1581304751092215e-05,0.2056763496021472,-1.5275333371177247e-05,0.2056763496021472,-1.3595504751092215e-05
0.2064704667820783,-1.1748386818877482e-05,0.2064704667820783,-1.0910650317625883e-05,0.2064704667820783,-1.7622623888309407e-05,0.2064704667820783,-1.2924850317625882e-05
0.2072645839620094,-7.2198946023284334e-06,0.2072645839620094,-1.0574675899185691e-05,0.2072645839620094,-1.594657949592846e-05,0.2072645839620094,-1.426649640325723e-05
0.2080587011419405,-6.210799067949266e-06,0.2080587011419405,-1.1245647288033825e-05,0.2080587011419405,-1.5274552711966178e-05,0.2080587011419405,-1.1582610847864709e-05
0.2088528183218715,-5.539183623272878e-06,0.2088528183218715,-1.0239030438341524e-05,0.2088528183218715,-1.52743e-05,0.2088528183218715,-1.2252846374438985e-05
0.2096469355018026,-6.210365461656512e-06,0.2096469355018026,-1.3595527304220956e-05,0.2096469355018026,-1.4938627269577904e-05,0.2096469355018026,-1.2924345460844191e-05
0.2104410526817337,-1.174873179723049e-06,0.2104410526817337,-1.6281266358251802e-05,0.2104410526817337,-1.35957109055012e-05,0.2104410526817337,-1.2253222736246998e-05
0.2112351698616647,-1.6756173504412647e-07,0.2112351698616647,-1.426734363365456e-05,0.2112351698616647,-1.22528922640625e-05,0.2112351698616647,-1.5610359084136403e-05
0.2120292870415958,1.17324310757114e-06,0.2120292870415958,-1.4938660585634948e-05,0.2120292870415958,-1.1750793902874152e-05,0.2120292870415958,-1.7287833341380398e-05
0.2128234042215269,-3.521307960006989e-06,0.2128234042215269,-1.51062742495248e-05,0.2128234042215269,-1.5607106839782157e-05,0.2128234042215269,-1.544348370487132e-05
0.2136175214014579,-6.879796510680636e-06,0.2136175214014579,-1.795817999881656e-05,0.2136175214014579,-1.7622985902791767e-05,0.2136175214014579,-1.56098987950942e-05
0.214411638581389,-6.88182e-06,0.214411638581389,-2.097982474301109e-05,0.214411638581389,-1.6282011225328404e-05,0.214411638581389,-1.5945547193667897e-05
0.2152057557613201,-5.875029789388564e-06,0.2152057557613201,-1.829642610503617e-05,0.2152057557613201,-1.5610206526259044e-05,0.2152057557613201,-1.963726410557527e-05
0.2159998729412512,-8.5598802421849e-06,0.2159998729412512,-1.493913719926917e-05,0.2159998729412512,-1.2924829759415335e-05,0.2159998729412512,-1.728887603948842e-05
0.2167939901211822,-5.874753413670087e-06,0.2167939901211822,-1.1581641767243131e-05,0.2167939901211822,-1.4267183293102747e-05,0.2167939901211822,-1.5610020883621568e-05
0.2175881073011133,-5.874856099434802e-06,0.2175881073011133,-6.881774633521732e-06,0.2175881073011133,-1.6952754633521734e-05,0.2175881073011133,-1.42672e-05
0.2183822244810444,-6.882199635896267e-06,0.2183822244810444,-6.545882725797821e-06,0.2183822244810444,-1.6616910180638257e-05,0.2183822244810444,-1.4267769458085226e-05
0.2191763416609755,-8.225764165156163e-06,0.2191763416609755,-5.706509326343315e-06,0.2191763416609755,-1.5945555728818277e-05,0.2191763416609755,-1.628197708472689e-05
0.2199704588409065,-1.0908371910126052e-05,0.2199704588409065,-4.868201273405774e-06,0.2199704588409065,-1.5610228512085124e-05,0.2199704588409065,-1.762328595165951e-05
0.2207645760208376,-1.09102e-05,0.2207645760208376,-3.861067770043344e-06,0.2207645760208376,-1.5274479256681114e-05,0.2207645760208376,-1.6617637770043344e-05
0.2215586932007686,-9.2323585635287e-06,0.2215586932007686,-5.53838143260733e-06,0.2215586932007686,-1.3596448567392667e-05,0.2215586932007686,-1.4435843156930322e-05
0.2223528103806997,-1.3594757788801062e-05,0.2223528103806997,-1.0237677623301436e-05,0.2223528103806997,-1.225332068110372e-05,0.2223528103806997,-1.2253521094852784e-05
0.2231469275606308,-1.5609816237559973e-05,0.2231469275606308,-9.735305939697672e-06,0.2231469275606308,-1.3595677491706647e-05,0.2231469275606308,-1.6281032475119946e-05
0.2239410447405619,-1.560981083870746e-05,0.2239410447405619,-9.56738162580612e-06,0.2239410447405619,-1.3931490539117958e-05,0.2239410447405619,-1.527424325161224e-05
0.2247351619204929,-1.2249987801634049e-05,0.2247351619204929,-9.063688851670354e-06,0.2247351619204929,-1.3763702699194292e-05,0.2247351619204929,-1.426678924400885e-05
0.225529279100424,2.5199792174361063e-06,0.225529279100424,-8.225081416414358e-06,0.225529279100424,-1.42672e-05,0.225529279100424,-1.225323570820718e-05
0.2263233962803551,8.891166368680007e-06,0.2263233962803551,-9.566390283346976e-06,0.2263233962803551,-1.42672e-05,0.2263233962803551,-1.2923890141673488e-05
0.2271175134602862,-1.5042631127045732e-06,0.2271175134602862,-8.896421414060255e-06,0.2271175134602862,-1.3092920005243968e-05,0.2271175134602862,-1.4937365757819236e-05
0.2279116306402172,-7.214865224235474e-06,0.2279116306402172,-1.158035069403151e-05,0.2279116306402172,-1.3595565730999247e-05,0.2279116306402172,-1.4603056163827548e-05
0.2287057478201483,-9.231070279426412e-06,0.2287057478201483,-1.15816e-05,0.2287057478201483,-1.6280547035000455e-05,0.2287057478201483,-1.22537463443746e-05
0.2294998650000794,-5.050320065201685e-07,0.2294998650000794,-1.2252885845155295e-05,0.2294998650000794,-1.3764028089168884e-05,0.2294998650000794,-9.903499541956455e-06
0.2302939821800104,8.39215863255625e-07,0.2302939821800104,-1.460284726046169e-05,0.2302939821800104,-1.1917341437086508e-05,0.2302939821800104,-1.1581562328901208e-05
0.2310880993599415,-4.867798034679996e-06,0.2310880993599415,-1.426730501620019e-05,0.2310880993599415,-1.2252915982034309e-05,0.2310880993599415,-1.0238757991017154e-05
0.2318822165398726,-6.209870689614579e-06,0.2318822165398726,-1.5106537341914168e-05,0.2318822165398726,-1.1581691552185435e-05,0.2318822165398726,-9.90410707403981e-06
0.2326763337198036,-4.194820827620834e-06,0.2326763337198036,-1.5610563671638216e-05,0.2326763337198036,-1.191828642536688e-05,0.2326763337198036,-1.3593968071373532e-05
0.2334704508997347,-8.4156464252184e-07,0.2334704508997347,-1.6951872538570835e-05,0.2334704508997347,-1.426557694249896e-05,0.2334704508997347,-9.234724242737868e-06
0.2342645680796658,2.5159138658502416e-06,0.2342645680796658,-1.6281765228353094e-05,0.2342645680796658,-1.2254095685059289e-05,0.2342645680796658,-8.896192614176547e-06
0.2350586852595969,9.900172454428908e-06,0.2350586852595969,-1.5610266141947915e-05,0.2350586852595969,-1.0910732283895824e-05,0.2350586852595969,-1.3929503939354644e-05
0.2358528024395279,8.225027636368652e-06,0.2358528024395279,-1.393191763885682e-05,0.2358528024395279,-1.3595131777829088e-05,0.2358528024395279,-1.2924650583314093e-05
0.236646919619459,5.203635859094247e-06,0.236646919619459,-1.4938498046293683e-05,0.236646919619459,-1.4602798046293686e-05,0.236646919619459,-1.2253067969137544e-05
0.2374410367993901,1.930282446907057e-05,0.2374410367993901,-1.258875445290103e-05,0.2374410367993901,-1.29244e-05,0.2374410367993901,-1.1246055586338204e-05
0.2382351539793211,2.1983222070333903e-05,0.2382351539793211,-1.3763567458778218e-05,0.2382351539793211,-1.2924139592654302e-05,0.2382351539793211,-1.4602965101836425e-05
0.2390292711592522,-4.197890255233978e-06,0.2390292711592522,-1.35958e-05,0.2390292711592522,-1.1582401505819942e-05,0.2390292711592522,-1.493825649750574e-05
0.2398233883391833,-9.060114920074028e-06,0.2398233883391833,-1.35958e-05,0.2398233883391833,-1.3929692022952024e-05,0.2398233883391833,-1.3932274847306276e-05
0.2406175055191144,-1.2921995764183766e-05,0.2406175055191144,-1.393129093547444e-05,0.2406175055191144,-1.39315e-05,0.2406175055191144,-1.359600906452556e-05
0.2414116226990454,-1.6615345265447342e-05,0.2414116226990454,-1.2421517869712869e-05,0.2414116226990454,-1.3763679784420993e-05,0.2414116226990454,-1.661566430809328e-05
0.2422057398789765,-1.561032993436113e-05,0.2422057398789765,-1.225305497267977e-05,0.2422057398789765,-1.6951755191476005e-05,0.2422057398789765,-1.762387006563887e-05
0.2429998570589076,-2.114800283285788e-05,0.2429998570589076,-1.4434607182035729e-05,0.2429998570589076,-1.762407913016443e-05,0.2429998570589076,-1.8966758260328866e-05
0.2437939742388386,-1.896707079452651e-05,0.2437939742388386,-1.4602894552520165e-05,0.2437939742388386,-1.7959889108284808e-05,0.2437939742388386,-1.762424356686077e-05
0.2445880914187697,-1.6617138651487413e-05,0.2445880914187697,-1.4938619319986857e-05,0.2445880914187697,-1.6952645394050356e-05,0.2445880914187697,-1.628149662296168e-05
0.2453822085987008,-1.6953417362830025e-05,0.2453822085987008,-1.5106047221239986e-05,0.2453822085987008,-1.561017638938001e-05,0.2453822085987008,-1.7120555915790935e-05
0.2461763257786318,-1.930476342858233e-05,0.2461763257786318,-1.376270585034622e-05,0.2461763257786318,-1.628064337400516e-05,0.2461763257786318,-1.6951974612175694e-05
0.2469704429585629,-2.4334571790626374e-05,0.2469704429585629,-1.1583128886057364e-05,0.2469704429585629,-1.443629373749602e-05,0.2469704429585629,-1.4940011311776691e-05
0.247764560138494,-2.0312031604665748e-05,0.247764560138494,-1.2252628056656011e-05,0.247764560138494,-1.5273835043120928e-05,0.247764560138494,-1.4267571943343988e-05
0.2485586773184251,-2.4000899327476707e-05,0.2485586773184251,-1.4601945000714272e-05,0.2485586773184251,-1.5609863571530612e-05,0.2485586773184251,-1.7622835715306103e-05
0.2493527944983561,-2.2995560655800397e-05,0.2493527944983561,-1.3596060655800391e-05,0.2493527944983561,-1.561e-05,0.2493527944983561,-1.628174754106719e-05
0.2501469116782872,-1.9470892086112336e-05,0.2501469116782872,-1.2253149368256822e-05,0.2501469116782872,-1.846308259801608e-05,0.2501469116782872,-1.0910797473027288e-05
0.2509410288582183,-1.896659736279708e-05,0.2509410288582183,-1.1917361005691875e-05,0.2509410288582183,-1.6952775597723253e-05,0.2509410288582183,-1.191732440227675e-05
0.2517351460381494,-7.886687214759545e-06,0.2517351460381494,-1.35958e-05,0.2517351460381494,-1.6280782556589977e-05,0.2517351460381494,-1.2588267789612984e-05
0.2525292632180804,4.199119826607773e-06,0.2525292632180804,-1.3596133442677754e-05,0.2525292632180804,-1.2924177704881496e-05,0.2525292632180804,-1.02388e-05
0.2533233803980115,1.2917597494983755e-05,0.2533233803980115,-1.4602115092877218e-05,0.2533233803980115,-1.2253523271415187e-05,0.2533233803980115,-1.02388e-05
0.2541174975779426,1.024049937616796e-05,0.2541174975779426,-1.5609362733937016e-05,0.2541174975779426,-1.2923975155958009e-05,0.2541174975779426,-1.359367577979005e-05
0.2549116147578736,1.7285079544813293e-05,0.2549116147578736,-1.2254628788184143e-05,0.2549116147578736,-1.2588862878818414e-05,0.2549116147578736,-1.4937948484726342e-05
0.2557057319378047,3.071186660912856e-05,0.2557057319378047,-9.903893349310674e-06,0.2557057319378047,-1.1749683355920018e-05,0.2557057319378047,-1.49386e-05
0.2564998491177358,2.1654322376153776e-05,0.2564998491177358,-1.091000862276038e-05,0.2564998491177358,-1.359544913222596e-05,0.2564998491177358,-1.409945949053442e-05
0.2572939662976669,3.575130153739832e-05,0.2572939662976669,-1.1581571501578747e-05,0.2572939662976669,-1.4938543003157495e-05,0.2572939662976669,-1.3931507122483e-05
0.2580880834775979,3.877005884627889e-05,0.2580880834775979,-1.4267447057943844e-05,0.2580880834775979,-1.5945382354072202e-05,0.2580880834775979,-1.5610247057943844e-05
0.258882200657529,8.893295222409256e-06,0.258882200657529,-1.661790594071266e-05,0.258882200657529,-1.2923381956192194e-05,0.258882200657529,-1.7958881953665024e-05
0.2596763178374601,-1.8467426340956477e-06,0.2596763178374601,-1.9806267125672385e-05,0.2596763178374601,-8.896681052828124e-06,0.2596763178374601,-1.393082894317392e-05
0.2604704350173911,-2.8527242842951107e-06,0.2604704350173911,-1.997398067851569e-05,0.2604704350173911,-1.057330714759855e-05,0.2604704350173911,-1.2254192859508149e-05
0.2612645521973222,-7.550569402935516e-06,0.2612645521973222,-1.527695060834415e-05,0.2612645521973222,-1.091001067083256e-05,0.2612645521973222,-1.2253e-05
0.2620586693772533,-1.0237681720609533e-05,0.2620586693772533,-7.891985287061848e-06,0.2620586693772533,-1.1245760214035187e-05,0.2620586693772533,-1.2253e-05
0.2628527865571843,-1.762221465923091e-05,0.2628527865571843,-1.847964361655576e-06,0.2628527865571843,-1.560882684409099e-05,0.2628527865571843,-1.5273487815139917e-05
0.2636469037371154,-2.400162672049042e-05,0.2636469037371154,4.531156712003767e-06,0.2636469037371154,-1.4267362798238604e-05,0.2636469037371154,-1.7288255802642094e-05
0.2644410209170465,-2.450603095143322e-05,0.2644410209170465,5.20333e-06,0.2644410209170465,-1.4267217687285951e-05,0.2644410209170465,-1.829556462542809e-05
0.2652351380969776,-2.5681250321073345e-05,0.2652351380969776,5.20292129382036e-06,0.2652351380969776,-1.4938833547382229e-05,0.2652351380969776,-1.69528e-05
0.2660292552769086,-2.769466882285172e-05,0.2660292552769086,2.852254267337668e-06,0.2660292552769086,-1.628172338286121e-05,0.2660292552769086,-1.69517220571293e-05
0.2668233724568397,-2.6353359955919004e-05,0.2668233724568397,-8.363311322738057e-07,0.2668233724568397,-1.7287705033060744e-05,0.2668233724568397,-1.3598449889797516e-05
0.2676174896367708,-2.568133155903288e-05,0.2676174896367708,-3.690845884394654e-06,0.2676174896367708,-1.5611078897582203e-05,0.2676174896367708,-1.258934733854932e-05
0.2684116068167018,-2.4338764945255345e-05,0.2684116068167018,-7.719075169185892e-06,0.2684116068167018,-1.259019612682453e-05,0.2684116068167018,-1.25887e-05
0.2692057239966329,-1.8968867055018595e-05,0.2692057239966329,-1.023792480861798e-05,0.2692057239966329,-1.3595449920666302e-05,0.2692057239966329,-1.0910783465556165e-05
0.269999841176564,-1.3764640833585584e-05,0.269999841176564,-1.2252597100548088e-05,0.269999841176564,-1.4434832135229844e-05,0.269999841176564,-1.0238934299817304e-05
0.270793958356495,-1.1078240848403614e-05,0.270793958356495,-1.3595729573175806e-05,0.270793958356495,-1.6281303160494347e-05,0.270793958356495,-1.02388e-05
0.2715880755364261,-5.538263526936688e-06,0.2715880755364261,-1.5610127745986225e-05,0.2715880755364261,-1.52743e-05,0.2715880755364261,-1.2924495809489666e-05
0.2723821927163572,2.518473314865065e-06,0.2723821927163572,-1.6952962959398272e-05,0.2723821927163572,-1.527372964210605e-05,0.2723821927163572,-1.3931337040601728e-05
0.2731763098962882,5.537328848688307e-06,0.2731763098962882,-1.7625508580930585e-05,0.2731763098962882,-1.2924138283813882e-05,0.2731763098962882,-1.32601e-05
0.2739704270762193,1.1780850200529473e-06,0.2739704270762193,-2.0978780748261897e-05,0.2739704270762193,-1.225348385034762e-05,0.2739704270762193,-1.32601e-05
0.2747645442561504,-8.380898880587591e-07,0.2747645442561504,-2.09812e-05,0.2747645442561504,-1.3762732938716465e-05,0.2747645442561504,-1.493763656668581e-05
0.2755586614360815,-6.208129715722358e-06,0.2755586614360815,-2.047781473651053e-05,0.2755586614360815,-1.3931428406949726e-05,0.2755586614360815,-1.5609713713079487e-05
0.2763527786160125,-1.359374079990753e-05,0.2763527786160125,-2.299459801200848e-05,0.2763527786160125,-1.5609531998711617e-05,0.2763527786160125,-1.561e-05
0.2771468957959436,-1.6952359429449504e-05,0.2771468957959436,-2.3666611885889904e-05,0.2771468957959436,-1.309253043447484e-05,0.2771468957959436,-1.527434405705505e-05
0.2779410129758747,-1.4267057360654467e-05,0.2779410129758747,-2.366668902770494e-05,0.2779410129758747,-1.292441097229506e-05,0.2779410129758747,-1.5609978055409878e-05
0.2787351301558057,-5.538039475304329e-06,0.2787351301558057,-2.2994584634840973e-05,0.2787351301558057,-1.35958e-05,0.2787351301558057,-1.4267089941299777e-05
0.2795292473357368,5.036524403926847e-07,0.2795292473357368,-1.8630568912895607e-05,0.2795292473357368,-1.3595382235940348e-05,0.2795292473357368,-1.3595591117970173e-05
0.2803233645156679,8.389776593467703e-07,0.2803233645156679,-1.6283278395763527e-05,0.2803233645156679,-1.225407336900773e-05,0.2803233645156679,-1.2924936684503865e-05
0.2811174816955989,1.1747208669047956e-06,0.2811174816955989,-1.577812873815661e-05,0.2811174816955989,-1.2923961725976274e-05,0.2811174816955989,-1.4937285177928824e-05
0.2819115988755301,8.892109357542887e-06,0.2819115988755301,-1.594561517783564e-05,0.2819115988755301,-1.3930991218572224e-05,0.2819115988755301,-1.829390406190741e-05
0.2827057160554611,1.124505964932938e-05,0.2827057160554611,-1.561012005060668e-05,0.2827057160554611,-1.3260340101213356e-05,0.2827057160554611,-1.5610960404853428e-05
0.2834998332353922,1.8483141989128404e-06,0.2834998332353922,-1.5945629492595925e-05,0.2834998332353922,-1.4938247462979627e-05,0.2834998332353922,-1.3596223044424444e-05
0.2842939504153233,3.1890561431941183e-06,0.2842939504153233,-1.5610020964201473e-05,0.2842939504153233,-1.6616995178992648e-05,0.2842939504153233,-1.35958e-05
0.2850880675952543,-2.854040155618008e-06,0.2850880675952543,-1.359568568399556e-05,0.2850880675952543,-1.5106271398751633e-05,0.2850880675952543,-1.359597147400666e-05
0.2858821847751854,-9.902006296129765e-06,0.2858821847751854,-1.2252531266777856e-05,0.2858821847751854,-1.3596112488814762e-05,0.2858821847751854,-1.561e-05
0.2866763019551165,-5.202182460410068e-06,0.2866763019551165,-1.0238034974872773e-05,0.2866763019551165,-1.493840872377776e-05,0.2866763019551165,-1.560980872377776e-05
0.2874704191350475,-2.184247498707022e-06,0.2874704191350475,-8.22608166336919e-06,0.2874704191350475,-1.4435367954201304e-05,0.2874704191350475,-1.5106767954201305e-05
0.2882645363149786,-8.40030173129216e-07,0.2882645363149786,-5.540598341586543e-06,0.2882645363149786,-1.5273809860404983e-05,0.2882645363149786,-1.6951721727930133e-05
0.2890586534949096,-2.181453998795615e-06,0.2890586534949096,-5.53903e-06,0.2890586534949096,-1.4938746500955704e-05,0.2890586534949096,-1.6281693001911406e-05
0.2898527706748408,-7.887261726861996e-06,0.2898527706748408,-4.196617831012396e-06,0.2898527706748408,-1.49386e-05,0.2898527706748408,-1.6952606084493804e-05
0.2906468878547718,-1.0909773270457952e-05,0.2906468878547718,-1.5110193149915524e-06,0.2906468878547718,-1.49386e-05,0.2906468878547718,-1.6617147414550497e-05
0.2914410050347029,-1.124590425730417e-05,0.2914410050347029,-4.86763e-06,0.2914410050347029,-1.4267206385956255e-05,0.2914410050347029,-1.4938591485391658e-05
0.292235122214634,-1.1916783282992336e-05,0.292235122214634,-4.867862521806875e-06,0.292235122214634,-1.5273886625162487e-05,0.292235122214634,-1.3595593312581244e-05
0.293029239394565,-8.560107824514489e-06,0.293029239394565,-6.378825979573904e-06,0.293029239394565,-1.258864944107236e-05,0.293029239394565,-1.2252797824514487e-05
0.2938233565744961,-7.88945339104818e-06,0.2938233565744961,-8.223115682710909e-06,0.2938233565744961,-1.2420935888229058e-05,0.2938233565744961,-1.158214339104818e-05
0.2946174737544272,-9.566297527463576e-06,0.2946174737544272,-9.56652002197086e-06,0.2946174737544272,-1.3595021236085616e-05,0.2946174737544272,-1.4936375054927154e-05
0.2954115909343582,-1.0909508199933143e-05,0.2954115909343582,-8.896355902609408e-06,0.2954115909343582,-1.5608962292171776e-05,0.2954115909343582,-1.2589910659132928e-05
0.2962057081142893,-8.8967504449366e-06,0.2962057081142893,-8.89601e-06,0.2962057081142893,-1.4938846816204247e-05,0.2962057081142893,-1.3595429775693628e-05
0.2969998252942204,-4.197264104192299e-06,0.2969998252942204,-1.2587887488305866e-05,0.2969998252942204,-1.49386e-05,0.2969998252942204,-1.4938304540402014e-05
0.2977939424741515,-3.524878643393832e-06,0.2977939424741515,-1.3931402713212335e-05,0.2977939424741515,-1.1246167538666077e-05,0.2977939424741515,-1.49386e-05
0.2985880596540825,-5.87465694698715e-06,0.2985880596540825,-1.4938700886022658e-05,0.2985880596540825,-1.0238926107528324e-05,0.2985880596540825,-1.3931474778494335e-05
0.2993821768340136,-5.03529308822927e-06,0.2993821768340136,-1.6281250470583417e-05,0.2993821768340136,-1.1917225235291707e-05,0.2993821768340136,-1.3595500941166831e-05
0.3001762940139447,-4.196974905594033e-06,0.3001762940139447,-1.561049660619488e-05,0.3001762940139447,-1.15822207577436e-05,0.3001762940139447,-1.22536207577436e-05
0.3009704111938757,-6.208928217097615e-06,0.3009704111938757,-1.69518054731275e-05,0.3009704111938757,-1.3258856841409374e-05,0.3009704111938757,-1.3930256841409374e-05
0.3017645283738068,-8.894414792710045e-06,0.3017645283738068,-1.6281798803307458e-05,0.3017645283738068,-1.4602102393385083e-05,0.3017645283738068,-1.5609002991731357e-05
0.3025586455537379,-8.89601e-06,0.3025586455537379,-1.695250028309775e-05,0.3025586455537379,-1.3596249575353377e-05,0.3025586455537379,-1.3596699150706748e-05
0.3033527627336689,-8.560410315248522e-06,0.3033527627336689,-1.7623999369502958e-05,0.3033527627336689,-1.4434749226819902e-05,0.3033527627336689,-1.292460063049704e-05
0.3041468799136,-1.1581143053098956e-05,0.3041468799136,-1.829549845590812e-05,0.3041468799136,-1.4267225378460854e-05,0.3041468799136,-1.29244e-05
0.3049409970935311,-1.0910202457686672e-05,0.3049409970935311,-1.5945708601903355e-05,0.3049409970935311,-1.225300737306002e-05,0.3049409970935311,-1.5274291398096645e-05
0.3057351142734621,-8.223861131748996e-06,0.3057351142734621,-1.5274251685640733e-05,0.3057351142734621,-1.5274638200514872e-05,0.3057351142734621,-1.4266934263827968e-05
0.3065292314533932,-3.0206547276880816e-06,0.3065292314533932,-1.493879546894115e-05,0.3065292314533932,-1.762322265529425e-05,0.3065292314533932,-1.2420262474968656e-05
0.3073233486333243,-8.41033812259632e-07,0.3073233486333243,-1.5609449902407507e-05,0.3073233486333243,-1.4269950487962473e-05,0.3073233486333243,-1.0576012727412902e-05
0.3081174658132554,5.026445960257553e-07,0.3081174658132554,-1.443579051564852e-05,0.3081174658132554,-1.225435511201638e-05,0.3081174658132554,-1.2251870739986348e-05
0.3089115829931864,7.549517529902387e-06,0.3089115829931864,-1.3596240745740498e-05,0.3089115829931864,-1.0239857852800897e-05,0.3089115829931864,-1.35950947647994e-05
0.3097057001731175,1.3257944992394436e-05,0.3097057001731175,-1.0911214124780176e-05,0.3097057001731175,-1.158109293760991e-05,0.3097057001731175,-1.3931373234402478e-05
0.3104998173530486,7.218909998508274e-06,0.3104998173530486,-1.0238954444789885e-05,0.3104998173530486,-1.3595336665630349e-05,0.3104998173530486,-1.359587722239494e-05
0.3112939345329796,2.5181275070440165e-06,0.3112939345329796,-1.1581489283230554e-05,0.3112939345329796,-1.2588783037577084e-05,0.3112939345329796,-1.4267144641615275e-05
0.3120880517129107,4.53092426008684e-06,0.3120880517129107,-9.56741e-06,0.3120880517129107,-1.4434945343230816e-05,0.3120880517129107,-1.510647652729241e-05
0.3128821688928418,-1.0911128293767002e-05,0.3128821688928418,-9.567624219511424e-06,0.3128821688928418,-1.359637125770277e-05,0.3128821688928418,-1.6281114371148615e-05
0.3136762860727728,-1.527442079827654e-05,0.3136762860727728,-1.0573775213939162e-05,0.3136762860727728,-1.628188319310616e-05,0.3136762860727728,-1.49386e-05
0.314470403252704,-1.5609748015009717e-05,0.314470403252704,-8.561821902435442e-06,0.314470403252704,-1.762319206003887e-05,0.314470403252704,-1.49386e-05
0.315264520432635,-1.561e-05,0.315264520432635,-8.56031e-06,0.315264520432635,-1.7120904168923183e-05,0.315264520432635,-1.577729313232658e-05
0.3160586376125661,-1.6952187136213812e-05,0.3160586376125661,-6.882586075168661e-06,0.3160586376125661,-1.4939595880832187e-05,0.3160586376125661,-1.711998713621381e-05
0.3168527547924971,-1.1247662436647433e-05,0.3168527547924971,-7.553012654512067e-06,0.3168527547924971,-1.29250220364638e-05,0.3168527547924971,-1.762404447544277e-05
0.3176468719724282,1.2584856818687628e-05,0.3176468719724282,-9.73490815959358e-06,0.3176468719724282,-1.2420881202374231e-05,0.3176468719724282,-1.4267741295413626e-05
0.3184409891523593,1.82955220322411e-05,0.3184409891523593,-1.023879312062848e-05,0.3184409891523593,-1.292439311980876e-05,0.3184409891523593,-1.393150458633876e-05
0.3192351063322903,3.18914e-06,0.3192351063322903,-8.224879739843732e-06,0.3192351063322903,-1.0910514698046752e-05,0.3192351063322903,-1.10780775148721e-05
0.3200292235122214,3.19367028627814e-06,0.3200292235122214,-1.023979098852601e-05,0.3200292235122214,-1.3260571905992089e-05,0.3200292235122214,-1.0910766287190504e-05
0.3208233406921525,1.9289336733888177e-05,0.3208233406921525,-1.3760676819747408e-05,0.3208233406921525,-1.493720798965786e-05,0.3208233406921525,-1.2922729587589432e-05
0.3216174578720835,1.3264225770967162e-05,0.3216174578720835,-1.4937797732617347e-05,0.3216174578720835,-1.3932187628494526e-05,0.3216174578720835,-1.2588929209498177e-05
0.3224115750520147,-4.857928057504323e-06,0.3224115750520147,-1.4603079666295547e-05,0.3224115750520147,-1.3763689859907724e-05,0.3224115750520147,-1.0240057664068836e-05
0.3232056922319457,-1.258570718049026e-05,0.3232056922319457,-1.3596190369278902e-05,0.3232056922319457,-1.2253585534537497e-05,0.3232056922319457,-1.2587789138349228e-05
0.3239998094118768,-1.5105795662823866e-05,0.3239998094118768,-1.3931419420109613e-05,0.3239998094118768,-1.4266716520657675e-05,0.3239998094118768,-1.2924319420109612e-05
0.3247939265918079,-1.4602946550408992e-05,0.3247939265918079,-1.3260162073375567e-05,0.3247939265918079,-1.3763646559654356e-05,0.3247939265918079,-1.1581724146751132e-05
0.3255880437717389,-1.6281085389248053e-05,0.3255880437717389,-1.4267162986970358e-05,0.3255880437717389,-1.493861850651482e-05,0.3255880437717389,-1.393148149348518e-05
0.32638216095167,-1.0574874263310209e-05,0.32638216095167,-1.3595663900565195e-05,0.32638216095167,-1.52742319502826e-05,0.32638216095167,-1.3595697915288405e-05
0.3271762781316011,-1.2421915745034185e-05,0.3271762781316011,-1.2924869780017527e-05,0.3271762781316011,-1.4939304670026292e-05,0.3271762781316011,-1.3092141294990362e-05
0.3279703953115321,-1.5607574248475877e-05,0.3279703953115321,-1.4266178646950144e-05,0.3279703953115321,-1.6951267970425222e-05,0.3279703953115321,-1.292452763110051e-05
0.3287645124914632,-1.561e-05,0.3287645124914632,-1.4602693883355428e-05,0.3287645124914632,-1.5610824466578292e-05,0.3287645124914632,-1.3595387766710854e-05
0.3295586296713942,-1.4938913146883984e-05,0.3295586296713942,-1.2254096014093946e-05,0.3295586296713942,-1.426782629376797e-05,0.3295586296713942,-1.6280147412464058e-05
0.3303527468513254,-1.49386e-05,0.3303527468513254,-1.2588592969760611e-05,0.3303527468513254,-1.42672e-05,0.3303527468513254,-1.4603435151196944e-05
0.3311468640312564,-1.4267314974073617e-05,0.3311468640312564,-1.1917414974073616e-05,0.3311468640312564,-1.2924629948147232e-05,0.3311468640312564,-1.3931614974073616e-05
0.3319409812111875,-1.2253047663005224e-05,0.3319409812111875,-9.567465606602796e-06,0.3319409812111875,-1.359578411233159e-05,0.3319409812111875,-1.510637219776346e-05
0.3327350983911186,-6.377916406607786e-06,0.3327350983911186,-8.560559594971216e-06,0.3327350983911186,-1.29244831987368e-05,0.3327350983911186,-1.1581703992225083e-05
0.3335292155710496,-3.524647946859112e-06,0.3335292155710496,-1.0574226918932875e-05,0.3335292155710496,-1.3596528223409893e-05,0.3335292155710496,-1.2421118611299756e-05
0.3343233327509807,-2.854003502288148e-06,0.3343233327509807,-9.568255257628755e-06,0.3343233327509807,-1.627914595727513e-05,0.3343233327509807,-1.3594813814342522e-05
0.3351174499309118,-3.859832305947029e-06,0.3351174499309118,-1.4263944069017455e-05,0.3351174499309118,-1.5274997700980795e-05,0.3351174499309118,-1.8460027813231945e-05
0.3359115671108428,-8.389989189725594e-06,0.3359115671108428,-1.5609267904836027e-05,0.3359115671108428,-1.4770974562946511e-05,0.3359115671108428,-1.7960174508426468e-05
0.3367056842907739,-1.2251464977209434e-05,0.3367056842907739,-1.762339911646952e-05,0.3367056842907739,-1.5274099759236448e-05,0.3367056842907739,-1.829546651941159e-05
0.337499801470705,-1.158176787477162e-05,0.337499801470705,-1.9637896375685143e-05,0.337499801470705,-1.560991606261419e-05,0.337499801470705,-1.82956e-05
0.338293918650636,-1.3595593634900766e-05,0.338293918650636,-2.165239363490077e-05,0.338293918650636,-1.4435120384763976e-05,0.338293918650636,-1.762426878836641e-05
0.3390880358305671,-1.1077910635904014e-05,0.3390880358305671,-2.098096518794336e-05,0.3390880358305671,-1.6617084850980626e-05,0.3390880358305671,-1.62814e-05
0.3398821530104982,-6.881464194706201e-06,0.3398821530104982,-1.577731481797058e-05,0.3398821530104982,-1.6281141231112084e-05,0.3398821530104982,-1.6281141231112084e-05
0.3406762701904293,-5.034852498871385e-06,0.3406762701904293,-1.3260442275196674e-05,0.3406762701904293,-1.49386e-05,0.3406762701904293,-1.4939284550393348e-05
0.3414703873703603,-3.19056279573451e-06,0.3414703873703603,-1.4266423925396067e-05,0.3414703873703603,-1.49386e-05,0.3414703873703603,-1.6951247850792137e-05
0.3422645045502914,-1.511687370699975e-06,0.3422645045502914,-1.560916210344002e-05,0.3422645045502914,-1.2925656844839967e-05,0.3422645045502914,-1.628181894827999e-05
0.3430586217302225,-5.040277890009612e-07,0.3430586217302225,-1.3596759585624486e-05,0.3430586217302225,-1.29244e-05,0.3430586217302225,-1.5274779792812245e-05
0.3438527389101535,-4.530605353100904e-06,0.3438527389101535,-1.1582262326409003e-05,0.3438527389101535,-1.1582041550939335e-05,0.3438527389101535,-1.2253993489613506e-05
0.3446468560900846,-7.217033245554625e-06,0.3446468560900846,-1.258851746640331e-05,0.3446468560900846,-1.376320451960284e-05,0.3446468560900846,-1.1917360844532233e-05
0.3454409732700157,-7.553208698670373e-06,0.3454409732700157,-1.359576609601112e-05,0.3454409732700157,-1.493856044366306e-05,0.3454409732700157,-1.527418698670374e-05
0.3462350904499467,-1.1245747032508184e-05,0.3462350904499467,-1.1581294066155535e-05,0.3462350904499467,-1.6281247032508184e-05,0.3462350904499467,-1.4602785274381138e-05
0.3470292076298778,-9.9017848880239e-06,0.3470292076298778,-8.89565930399538e-06,0.3470292076298778,-1.4938336976037762e-05,0.3470292076298778,-1.359562465069184e-05
0.3478233248098089,-4.8719066037126175e-06,0.3478233248098089,-7.554360425958106e-06,0.3478233248098089,-1.39323553258383e-05,0.3478233248098089,-1.2924970217225532e-05
0.34861744198974,-3.190319615417261e-06,0.34861744198974,-6.211363697956079e-06,0.34861744198974,-1.627974852857686e-05,0.34861744198974,-1.225347184897804e-05
0.349411559169671,-4.195670861692701e-06,0.349411559169671,-5.203889138307299e-06,0.349411559169671,-1.6952427237427124e-05,0.349411559169671,-9.568901044739494e-06
0.3502056763496021,5.870614877865948e-06,0.3502056763496021,-8.55894162731405e-06,0.3502056763496021,-1.5107152629842102e-05,0.3502056763496021,-1.4265284270902504e-05
0.3509997935295332,-1.5087195230144422e-06,0.3509997935295332,-9.73495446791569e-06,0.3509997935295332,-1.695231986515131e-05,0.3509997935295332,-1.628087623071261e-05
0.3517939107094642,-5.036612541363003e-07,0.3517939107094642,-7.217803136465316e-06,0.3517939107094642,-1.4267502013429208e-05,0.3517939107094642,-1.5274413255035955e-05
0.3525880278893953,-1.175376284981248e-06,0.3525880278893953,-8.560298208476048e-06,0.3525880278893953,-1.174942948056614e-05,0.3525880278893953,-1.4435041272090092e-05
0.3533821450693264,-1.3597026694531136e-05,0.3533821450693264,-8.224763336816392e-06,0.3533821450693264,-1.2588209322187546e-05,0.3533821450693264,-1.5610061334726558e-05
0.3541762622492574,-2.0310242953840176e-05,0.3541762622492574,-9.064469058231507e-06,0.3541762622492574,-9.903875169220308e-06,0.3541762622492574,-1.5945478523079913e-05
0.3549703794291886,-2.1651551820772887e-05,0.3549703794291886,-1.090875876136864e-05,0.3549703794291886,-1.2251165686352552e-05,0.3549703794291886,-1.5274824089613555e-05
0.3557644966091196,-3.5363228892939813e-06,0.3557644966091196,-9.232774151837267e-06,0.3557644966091196,-1.2923974336729118e-05,0.3557644966091196,-1.2925889821448084e-05
0.3565586137890507,1.1726539765323125e-06,0.3565586137890507,-9.902773427998398e-06,0.3565586137890507,-1.242104495696988e-05,0.3565586137890507,-1.024010630746288e-05
0.3573527309689818,-7.046883255412498e-06,0.3573527309689818,-8.560764977532631e-06,0.3573527309689818,-1.2253056855673616e-05,0.3573527309689818,-1.2252317528618605e-05
0.3581468481489128,-2.182970925575994e-06,0.3581468481489128,-9.567217393917045e-06,0.3581468481489128,-1.3259907393917044e-05,0.3581468481489128,-1.0910456808110607e-05
0.3589409653288439,5.8743681899449344e-06,0.3589409653288439,-1.191719738866116e-05,0.3589409653288439,-1.4267156023524784e-05,0.3589409653288439,-1.09102e-05
0.3597350825087749,1.4603179075020069e-05,0.3597350825087749,-1.4938320924979931e-05,0.3597350825087749,-1.3931395346867474e-05,0.3597350825087749,-1.2252720926019085e-05
0.360529199688706,1.72885e-05,0.360529199688706,-1.2252747035854234e-05,0.360529199688706,-1.2924442148131925e-05,0.360529199688706,-9.567494318870117e-06
0.3613233168686371,1.72885e-05,0.3613233168686371,-1.1246765385654771e-05,0.3613233168686371,-1.3092055812021775e-05,0.3613233168686371,-9.902811546707923e-06
0.3621174340485681,3.070682879189991e-05,0.3621174340485681,-1.2252282154046604e-05,0.3621174340485681,-1.1079535620628274e-05,0.3621174340485681,-1.359316789817088e-05
0.3629115512284993,1.8638130539626668e-05,0.3629115512284993,-1.4266061567308831e-05,0.3629115512284993,-1.2923356464959933e-05,0.3629115512284993,-1.393131026121814e-05
0.3637056684084303,2.860029175520232e-06,0.3637056684084303,-1.560943921768297e-05,0.3637056684084303,-1.29244e-05,0.3637056684084303,-1.2924820586737773e-05
0.3644997855883614,-4.194326308190979e-06,0.3644997855883614,-1.5777754687313654e-05,0.3644997855883614,-1.3595618695246644e-05,0.3644997855883614,-1.393122804286997e-05
0.3652939027682925,-1.090937782019228e-05,0.3652939027682925,-1.57778e-05,0.3652939027682925,-1.2924482218348143e-05,0.3652939027682925,-1.493847667247778e-05
0.3660880199482235,-1.0910221083815084e-05,0.3660880199482235,-1.6281416868057013e-05,0.3660880199482235,-1.6617091565971494e-05,0.3660880199482235,-1.527432530208552e-05
0.3668821371281546,-1.1750182701255276e-05,0.3668821371281546,-1.69528e-05,0.3668821371281546,-1.6281168091075556e-05,0.3668821371281546,-1.6281226068306665e-05
0.3676762543080857,-1.62814e-05,0.3676762543080857,-1.6952155688872682e-05,0.3676762543080857,-1.493827784443634e-05,0.3676762543080857,-1.5274192614812114e-05
0.3684703714880167,-1.62814e-05,0.3684703714880167,-1.4940192388473753e-05,0.3684703714880167,-1.3932296194236875e-05,0.3684703714880167,-1.493886539807896e-05
0.3692644886679478,-1.86297866760838e-05,0.3692644886679478,-1.3932148567392658e-05,0.3692644886679478,-1.225408094565443e-05,0.3692644886679478,-1.2925697134785316e-05
0.3700586058478789,-2.047668347221511e-05,0.3700586058478789,-1.4938100062215151e-05,0.3700586058478789,-1.3259600062215154e-05,0.3700586058478789,-1.2253333291856564e-05
0.3708527230278099,-2.2323255952450345e-05,0.3708527230278099,-1.527418289727432e-05,0.3708527230278099,-1.6448087541547632e-05,0.3708527230278099,-1.627999476729186e-05
0.371646840207741,-1.6618248491767692e-05,0.371646840207741,-1.443516890887023e-05,0.371646840207741,-1.695269865065287e-05,0.371646840207741,-1.4938870238092393e-05
0.3724409573876721,-1.2588916195846207e-05,0.3724409573876721,-1.258879908707945e-05,0.3724409573876721,-1.4938708097923104e-05,0.3724409573876721,-1.5106390994523138e-05
0.3732350745676032,-1.493822167741468e-05,0.3732350745676032,-1.225281083870734e-05,0.3732350745676032,-1.393140541935367e-05,0.3732350745676032,-1.510627389247156e-05
0.3740291917475342,-1.0909957095670775e-05,0.3740291917475342,-1.02388e-05,0.3740291917475342,-1.2924885808658446e-05,0.3740291917475342,-1.3764004840548703e-05
0.3748233089274653,-9.903975445471314e-06,0.3748233089274653,-1.02388e-05,0.3748233089274653,-1.4936849109057374e-05,0.3748233089274653,-1.5440640924214476e-05
0.3756174261073964,-1.0909472081560338e-05,0.3756174261073964,-1.0909714721040223e-05,0.3756174261073964,-1.4267685278959774e-05,0.3756174261073964,-1.76226228072414e-05
0.3764115432873274,-8.226154764466405e-06,0.3764115432873274,-1.2923241422336158e-05,0.3764115432873274,-1.527372071116808e-05,0.3764115432873274,-1.5275651673941147e-05
0.3772056604672585,-5.540178416045162e-06,0.3772056604672585,-1.1246617765373514e-05,0.3772056604672585,-1.5106471797918508e-05,0.3772056604672585,-1.4938743553074702e-05
0.3779997776471896,-6.881443963312017e-06,0.3779997776471896,-1.2923929950639504e-05,0.3779997776471896,-1.4938646990933984e-05,0.3779997776471896,-1.7623447921023206e-05
0.3787938948271206,-6.88182e-06,0.3787938948271206,-1.560964426664385e-05,0.3787938948271206,-1.5106377773288218e-05,0.3787938948271206,-1.7120666706627255e-05
0.3795880120070517,-6.881784464419625e-06,0.3795880120070517,-1.493863045919851e-05,0.3795880120070517,-1.42672e-05,0.3795880120070517,-1.4938635535731595e-05
0.3803821291869828,-4.532203097051406e-06,0.3803821291869828,-1.695356467629965e-05,0.3803821291869828,-1.4267336541204022e-05,0.3803821291869828,-1.7288773098678446e-05
0.3811762463669139,-6.210524031915706e-06,0.3811762463669139,-2.1652443936631663e-05,0.3811762463669139,-1.5106868159115453e-05,0.3811762463669139,-1.896627177659006e-05
0.3819703635468449,-6.54585124864886e-06,0.3819703635468449,-2.114940316705521e-05,0.3819703635468449,-1.661589057889137e-05,0.3819703635468449,-1.661898125945798e-05
0.382764480726776,-5.875159093252616e-06,0.382764480726776,-1.8297466113623797e-05,0.382764480726776,-1.5610658639878925e-05,0.382764480726776,-1.4268736826384156e-05
0.3835585979067071,-4.868140005206965e-06,0.3835585979067071,-1.494030003423704e-05,0.3835585979067071,-1.326129002396593e-05,0.3835585979067071,-1.3931670003423704e-05
0.3843527150866381,-4.196470920442248e-06,0.3843527150866381,-9.904906903316856e-06,0.3843527150866381,-1.2253361380663371e-05,0.3843527150866381,-1.2924761380663371e-05
0.3851468322665692,-8.559388082984267e-06,0.3851468322665692,-1.023872908298148e-05,0.3851468322665692,-1.359551633192592e-05,0.3851468322665692,-1.0910625502111118e-05
0.3859409494465003,-7.888952747631832e-06,0.3859409494465003,-8.560416868442886e-06,0.3859409494465003,-1.2253085495263664e-05,0.3859409494465003,-1.3595629009472673e-05
0.3867350666264313,-8.560112815132473e-06,0.3867350666264313,-8.39230506921247e-06,0.3867350666264313,-1.225312675804437e-05,0.3867350666264313,-1.5274159153066678e-05
0.3875291838063624,-6.21034238516244e-06,0.3875291838063624,-6.546081192581219e-06,0.3875291838063624,-1.3763483589303808e-05,0.3875291838063624,-1.3595179081299516e-05
0.3883233009862935,-5.875015168429262e-06,0.3883233009862935,-6.378417584214631e-06,0.3883233009862935,-1.3260542708680769e-05,0.3883233009862935,-1.0912561347434092e-05
0.3891174181662246,-7.216536012098668e-06,0.3891174181662246,-8.22325702396355e-06,0.3891174181662246,-1.4266462009074002e-05,0.3891174181662246,-1.1916562009074005e-05
0.3899115353461556,-1.5139797024322643e-06,0.3899115353461556,-6.21159871678431e-06,0.3899115353461556,-1.695122836981817e-05,0.3899115353461556,-9.904278722636371e-06
0.3907056525260867,4.864838712296363e-06,0.3907056525260867,-5.539323816764005e-06,0.3907056525260867,-1.762390617885975e-05,0.3907056525260867,-1.0909759268289624e-05
0.3914997697060178,4.86763e-06,0.3914997697060178,-3.189821568672384e-06,0.3914997697060178,-1.393257104104299e-05,0.3914997697060178,-1.1245802632632456e-05
0.3922938868859488,1.175466064389737e-06,0.3922938868859488,-6.881293937034872e-06,0.3922938868859488,-1.359584782416494e-05,0.3922938868859488,-1.2252856527505178e-05
0.3930880040658799,-2.182053752250098e-06,0.3930880040658799,-6.378274297594158e-06,0.3930880040658799,-1.5945696561924674e-05,0.3930880040658799,-1.4938601719037662e-05
0.393882121245811,-4.867937571914437e-06,0.393882121245811,-7.217673785193705e-06,0.393882121245811,-1.527404368879878e-05,0.393882121245811,-1.527445378672073e-05
0.394676238425742,-6.882524747505608e-06,0.394676238425742,-8.224912035930574e-06,0.394676238425742,-1.35958e-05,0.394676238425742,-1.6280695249495324e-05
0.3954703556056732,-9.22980527574251e-06,0.3954703556056732,-9.230893686130109e-06,0.3954703556056732,-1.35958e-05,0.3954703556056732,-1.393340473236308e-05
0.3962644727856042,-9.063971452060865e-06,0.3962644727856042,-9.23171e-06,0.3962644727856042,-1.292484580824346e-05,0.3962644727856042,-1.191863742473038e-05
0.3970585899655353,-8.225043402297874e-06,0.3970585899655353,-9.23171e-06,0.3970585899655353,-1.325992663908085e-05,0.3970585899655353,-1.4433699818927187e-05
0.3978527071454664,-6.882315267177839e-06,0.3978527071454664,-9.23171e-06,0.3978527071454664,-1.32601e-05,0.3978527071454664,-1.6280718984117275e-05
0.3986468243253974,-5.539327095843242e-06,0.3986468243253974,-1.0909828629642816e-05,0.3986468243253974,-1.1246345647083652e-05,0.3986468243253974,-1.4938897098055768e-05
0.3994409415053285,-3.5249783878681687e-06,0.3994409415053285,-1.52739784929523e-05,0.3994409415053285,-1.2924276343443192e-05,0.3994409415053285,-1.6952651612131833e-05
0.4002350586852595,-1.846290376217562e-06,0.4002350586852595,-1.4938550376217562e-05,0.4002350586852595,-1.292442481189122e-05,0.4002350586852595,-1.3931338719011533e-05
0.4010291758651906,-1.1753113078270146e-06,0.4010291758651906,-1.4267497046261613e-05,0.4010291758651906,-1.3259877215303792e-05,0.4010291758651906,-1.174906583401639e-05
0.4018232930451217,-2.851947391492787e-06,0.4018232930451217,-1.5608805913194232e-05,0.4018232930451217,-1.2253895565104329e-05,0.4018232930451217,-1.024014330319392e-05
0.4026174102250527,-8.407421223677914e-07,0.4026174102250527,-1.426819741788302e-05,0.4026174102250527,-1.1246648063412264e-05,0.4026174102250527,-9.735634024278236e-06
0.4034115274049838,-1.510240381034945e-06,0.4034115274049838,-1.4938200377463698e-05,0.4034115274049838,-1.4936402076050338e-05,0.4034115274049838,-1.0238500289049851e-05
0.4042056445849149,-2.8528389277377177e-06,0.4042056445849149,-1.6951898391606578e-05,0.4042056445849149,-1.49386e-05,0.4042056445849149,-1.4936496247082012e-05
0.404999761764846,-4.195827103548483e-06,0.404999761764846,-1.69528e-05,0.404999761764846,-1.49386e-05,0.404999761764846,-1.510634965257072e-05
0.4057938789447771,-3.5249323633207257e-06,0.4057938789447771,-1.7288448818339635e-05,0.4057938789447771,-1.3931653544981089e-05,0.4057938789447771,-1.6281220856565606e-05
0.4065879961247081,-3.8605283615422176e-06,0.4065879961247081,-1.6281404915373348e-05,0.4065879961247081,-1.5106394265641796e-05,0.4065879961247081,-1.6952796723084438e-05
0.4073821133046392,-4.196613236531375e-06,0.4073821133046392,-1.4434880245273055e-05,0.4073821133046392,-1.3595895809489595e-05,0.4073821133046392,-1.4267008381020806e-05
0.4081762304845703,-6.881041399928049e-06,0.4081762304845703,-1.3595605349257218e-05,0.4081762304845703,-1.4267297325371393e-05,0.4081762304845703,-1.29244e-05
0.4089703476645013,-4.198433654958158e-06,0.4089703476645013,-1.2924950915790908e-05,0.4089703476645013,-1.4602624542104546e-05,0.4089703476645013,-1.29244e-05
0.4097644648444324,-4.19623e-06,0.4097644648444324,-1.3595347476765647e-05,0.4097644648444324,-1.4267426261617176e-05,0.4097644648444324,-1.3930821215148474e-05
0.4105585820243635,-6.880406257947602e-06,0.4105585820243635,-1.4937893126341712e-05,0.4105585820243635,-1.762243281585428e-05,0.4105585820243635,-1.5273593126341713e-05
0.4113526992042945,-6.210674350423983e-06,0.4113526992042945,-1.6280891299152034e-05,0.4113526992042945,-1.561076305127195e-05,0.4113526992042945,-1.6952164123940044e-05
0.4121468163842256,-5.539185261706234e-06,0.4121468163842256,-1.35964210560751e-05,0.4121468163842256,-1.2421537515651889e-05,0.4121468163842256,-1.309309277967066e-05
0.4129409335641567,-6.8817076456095895e-06,0.4129409335641567,-1.4099257870973442e-05,0.4129409335641567,-1.1245998306640125e-05,0.4129409335641567,-1.225307021783334e-05
0.4137350507440878,-6.3784738161209765e-06,0.4137350507440878,-1.1581610724002426e-05,0.4137350507440878,-1.2924571635166374e-05,0.4137350507440878,-1.3931542908791594e-05
0.4145291679240188,-9.567303637560131e-06,0.4145291679240188,-1.1750144547640338e-05,0.4145291679240188,-1.5609787275120264e-05,0.4145291679240188,-1.4603289985051592e-05
0.4153232851039499,-9.064312812460435e-06,0.4153232851039499,-1.527113026781494e-05,0.4153232851039499,-1.460380562492087e-05,0.4153232851039499,-1.6447539732607088e-05
0.416117402283881,-8.896136355983089e-06,0.416117402283881,-1.52743e-05,0.416117402283881,-1.4267452711966175e-05,0.416117402283881,-1.695242089441118e-05
0.416911519463812,-1.107677937882825e-05,0.416911519463812,-1.628079049370921e-05,0.416911519463812,-1.4938193662472806e-05,0.416911519463812,-1.561081267505439e-05
0.4177056366437431,-1.0239184086783916e-05,0.4177056366437431,-1.4435844963466964e-05,0.4177056366437431,-1.3931960876683048e-05,0.4177056366437431,-1.5274453625561017e-05
0.4184997538236742,-1.1581183670566444e-05,0.4184997538236742,-1.225367651982724e-05,0.4184997538236742,-1.4938287752924834e-05,0.4184997538236742,-1.4267512247075163e-05
0.4192938710036052,-9.903372695779042e-06,0.4192938710036052,-9.567846311621826e-06,0.4192938710036052,-1.5609890921688385e-05,0.4192938710036052,-1.6616718225909344e-05
0.4200879881835363,-9.567414995804406e-06,0.4200879881835363,-1.057448501228914e-05,0.4200879881835363,-1.728847502023386e-05,0.4200879881835363,-1.4267234971672594e-05
0.4208821053634674,-1.1582669133985588e-05,0.4208821053634674,-1.1246122736246998e-05,0.4208821053634674,-1.779179954401268e-05,0.4208821053634674,-1.52743890944988e-05
0.4216762225433985,-1.9638775888396843e-05,0.4216762225433985,-1.292477588839684e-05,0.4216762225433985,-1.62814e-05,0.4216762225433985,-1.5945324111603157e-05
0.4224703397233295,-2.098008475532946e-05,0.4224703397233295,-1.426608475532946e-05,0.4224703397233295,-1.62814e-05,0.4224703397233295,-1.460401524467054e-05
0.4232644569032606,-1.963931847645039e-05,0.4232644569032606,-1.4938140761774803e-05,0.4232644569032606,-1.5778144462868944e-05,0.4232644569032606,-1.158366657201338e-05
0.4240585740831917,-1.494112106274024e-05,0.4240585740831917,-1.5106309988865949e-05,0.4240585740831917,-1.6616649783404e-05,0.4240585740831917,-1.15816e-05
0.4248526912631227,-3.193708629205972e-06,0.4248526912631227,-1.4267526312326663e-05,0.4248526912631227,-1.7288238934585172e-05,0.4248526912631227,-1.0239322130829652e-05
0.4256468084430538,1.124241746576853e-05,0.4256468084430538,-1.393158098950481e-05,0.4256468084430538,-1.2925452863562525e-05,0.4256468084430538,-1.2588133073466336e-05
0.4264409256229849,1.6616596859164335e-05,0.4264409256229849,-1.3595831446302228e-05,0.4264409256229849,-1.3595737107395542e-05,0.4264409256229849,-1.4267042768488857e-05
0.4272350428029159,5.82440619380075e-05,0.4272350428029159,-1.443509953564746e-05,0.4272350428029159,-1.6281182837195503e-05,0.4272350428029159,-1.4267236193800748e-05
0.428029159982847,6.494945830755374e-05,0.428029159982847,-1.628099466987361e-05,0.428029159982847,-1.2252932444978937e-05,0.428029159982847,-1.4939140440168518e-05
0.4288232771627781,2.4039637755059468e-05,0.4288232771627781,-1.4269031369474543e-05,0.4288232771627781,-1.1917605228245758e-05,0.4288232771627781,-1.762175817403394e-05
0.4296173943427092,1.8635397035106703e-05,0.4296173943427092,-1.42672e-05,0.4296173943427092,-1.2252743930538378e-05,0.4296173943427092,-1.628242427784649e-05
0.4304115115226402,1.3263404420144673e-05,0.4304115115226402,-1.242193592518527e-05,0.4304115115226402,-1.3594973894963832e-05,0.4304115115226402,-1.6952386947481916e-05
0.4312056287025713,-9.892268215870296e-06,0.4312056287025713,-8.226572260147442e-06,0.4312056287025713,-1.35958e-05,0.4312056287025713,-1.5946170949169242e-05
0.4319997458825024,-1.709647400788767e-07,0.4319997458825024,-4.8687043921373975e-06,0.4319997458825024,-1.426698512029233e-05,0.4319997458825024,-1.4938922319561504e-05
0.4327938630624334,-5.538103656856783e-06,0.4327938630624334,-6.21018841511964e-06,0.4327938630624334,-1.3763686853600151e-05,0.4327938630624334,-1.3092518440205169e-05
0.4335879802423645,-2.2994865623906305e-05,0.4335879802423645,-7.553186586205495e-06,0.4335879802423645,-1.359580417548013e-05,0.4335879802423645,-1.2253020882377382e-05
0.4343820974222956,-2.4338429518031632e-05,0.4343820974222956,-9.566915725406511e-06,0.4343820974222956,-1.3931623569261862e-05,0.4343820974222956,-1.5274423569261862e-05
0.4351762146022266,-2.702288443055673e-05,0.4351762146022266,-5.538667524691882e-06,0.4351762146022266,-1.4938328143518912e-05,0.4351762146022266,-1.6281082820608402e-05
0.4359703317821577,-2.400493947995813e-05,0.4359703317821577,-4.197358657759171e-06,0.4359703317821577,-1.393234649331938e-05,0.4359703317821577,-1.5107387617565554e-05
0.4367644489620888,-2.299599892982413e-05,0.4367644489620888,-6.209022147291765e-06,0.4367644489620888,-1.3596032976608044e-05,0.4367644489620888,-1.091311217290042e-05
0.4375585661420199,-2.165333367897969e-05,0.4375585661420199,-4.868363728157551e-06,0.4375585661420199,-1.426683313318912e-05,0.4375585661420199,-1.2923299399567363e-05
0.438352683321951,-1.980693641605754e-05,0.438352683321951,-5.53876221959433e-06,0.438352683321951,-1.42672e-05,0.438352683321951,-1.3092133074840524e-05
0.439146800501882,-1.7624748242938802e-05,0.439146800501882,-7.552713920511041e-06,0.439146800501882,-1.4602815652999743e-05,0.439146800501882,-1.5944983037934978e-05
0.4399409176818131,-1.3260552449369773e-05,0.4399409176818131,-8.895870785846054e-06,0.4399409176818131,-1.4267234803797674e-05,0.4399409176818131,-1.5610034803797676e-05
0.4407350348617442,-1.1245944218214858e-05,0.4407350348617442,-1.091025895761981e-05,0.4407350348617442,-1.3763518935468083e-05,0.4407350348617442,-1.4267185260595046e-05
0.4415291520416752,-1.2253128403497812e-05,0.4415291520416752,-1.225319260524672e-05,0.4415291520416752,-1.1917492605246722e-05,0.4415291520416752,-1.393130739475328e-05
0.4423232692216063,-1.2923782836964123e-05,0.4423232692216063,-1.3259174255446186e-05,0.4423232692216063,-1.2923474255446183e-05,0.4423232692216063,-1.2925325744553814e-05
0.4431173864015373,-1.460160286521466e-05,0.4431173864015373,-1.37632108982041e-05,0.4431173864015373,-1.3595281146085865e-05,0.4431173864015373,-1.158263770782827e-05
0.4439115035814684,-1.5273880232491118e-05,0.4439115035814684,-1.3595904910616608e-05,0.4439115035814684,-1.5776435786856748e-05,0.4439115035814684,-1.091061976750888e-05
0.4447056207613995,-1.6448638831950016e-05,0.4447056207613995,-1.225364136220744e-05,0.4447056207613995,-1.5274540486946265e-05,0.4447056207613995,-1.2252358637792558e-05
0.4454997379413306,-1.7959401395425807e-05,0.4454997379413306,-1.3930946013253602e-05,0.4454997379413306,-1.2589586378794236e-05,0.4454997379413306,-1.3091923023129236e-05
0.4462938551212617,-1.393223504976011e-05,0.4462938551212617,-1.628097122097327e-05,0.4462938551212617,-1.3595616237559971e-05,0.4462938551212617,-1.359570810965664e-05
0.4470879723011927,-9.567562241924084e-06,0.4470879723011927,-1.4938646843776287e-05,0.4470879723011927,-1.3260111710944072e-05,0.4470879723011927,-1.3931488289055928e-05
0.4478820894811238,-7.217293007575915e-06,0.4478820894811238,-1.5610226993551053e-05,0.4478820894811238,-1.1917526993551051e-05,0.4478820894811238,-1.2924778322585083e-05
0.4486762066610549,-5.202544612605662e-06,0.4486762066610549,-1.7624287265554872e-05,0.4486762066610549,-1.3931412734445128e-05,0.4486762066610549,-1.6280440078896406e-05
0.4494703238409859,-2.1846096509026164e-06,0.4494703238409859,-1.7959614482288026e-05,0.4494703238409859,-1.3596085517711973e-05,0.4494703238409859,-1.2591840694831707e-05
0.450264441020917,-2.18204e-06,0.450264441020917,-1.896629099768953e-05,0.450264441020917,-1.35958e-05,0.450264441020917,-1.5607872993068604e-05
0.4510585582008481,-1.007753762588794e-06,0.4510585582008481,-2.0309052836396555e-05,0.4510585582008481,-1.6279905672793107e-05,0.4510585582008481,-1.795859246369397e-05
0.4518526753807791,5.029303861754165e-07,0.4518526753807791,-1.8296423486189688e-05,0.4518526753807791,-1.6449131396592877e-05,0.4518526753807791,-1.762433724769828e-05
0.4526467925607102,-4.195002142807881e-06,0.4526467925607102,-1.6281926226974203e-05,0.4526467925607102,-1.6281443839184923e-05,0.4526467925607102,-1.72885877044957e-05
0.4534409097406413,-6.210191033378329e-06,0.4534409097406413,-1.594573816129307e-05,0.4534409097406413,-1.7791828279865006e-05,0.4534409097406413,-1.7624161838706928e-05
0.4542350269205724,-2.181835126646019e-06,0.4542350269205724,-1.5609977236180987e-05,0.4542350269205724,-1.5274180488254923e-05,0.4542350269205724,-1.6616986180904928e-05
0.4550291441005034,3.860043213998772e-06,0.4550291441005034,-1.4938356606093093e-05,0.4550291441005034,-1.1749612978731468e-05,0.4550291441005034,-1.3260160848476726e-05
0.4558232612804345,1.177435469028881e-06,0.4558232612804345,-1.3597047739160476e-05,0.4558232612804345,-1.2923308181774232e-05,0.4558232612804345,-1.359548806520988e-05
0.4566173784603656,-1.1731005244884808e-06,0.4566173784603656,-1.1583176706714938e-05,0.4566173784603656,-1.225352556890498e-05,0.4566173784603656,-1.594386050883257e-05
0.4574114956402966,-1.845913517500228e-06,0.4574114956402966,-9.568689441147178e-06,0.4574114956402966,-1.0240079447499317e-05,0.4574114956402966,-1.4603752964999544e-05
0.4582056128202277,-1.5108036980473056e-06,0.4582056128202277,-1.0909545212687096e-05,0.4582056128202277,-1.1916481509763472e-05,0.4582056128202277,-1.3596291094141916e-05
0.4589997300001588,-6.208821838975179e-06,0.4589997300001588,-1.1581371690310596e-05,0.4589997300001588,-1.2252885845155295e-05,0.4589997300001588,-1.4938143380621192e-05
0.4597938471800898,-9.902389275786293e-06,0.4597938471800898,-1.325977694178951e-05,0.4597938471800898,-1.376330925723398e-05,0.4597938471800898,-1.2924787669852587e-05
0.4605879643600209,-5.874900820376478e-06,0.4605879643600209,-1.2253045205318553e-05,0.4605879643600209,-1.7959711642261703e-05,0.4605879643600209,-1.426713972624193e-05
0.461382081539952,-4.8677678980253945e-06,0.461382081539952,-1.4938668949526172e-05,0.461382081539952,-1.4938410383668266e-05,0.461382081539952,-1.6449079343463956e-05
0.4621761987198831,-6.2095808821720965e-06,0.4621761987198831,-1.5609664350869143e-05,0.4621761987198831,-1.3092871298261716e-05,0.4621761987198831,-1.527413217543457e-05
0.4629703158998141,-2.856328692631475e-06,0.4629703158998141,-1.4268355483936615e-05,0.4629703158998141,-1.5775489032126765e-05,0.4629703158998141,-1.4603477741968307e-05
0.4637644330797452,-5.052258354801682e-07,0.4637644330797452,-1.2254438149593325e-05,0.4637644330797452,-1.4268278576494724e-05,0.4637644330797452,-1.359651907479666e-05
0.4645585502596763,-8.390558527365403e-07,0.4645585502596763,-1.1917490148396306e-05,0.4645585502596763,-1.7957808367640625e-05,0.4645585502596763,-1.0240701483963068e-05
0.4653526674396073,-1.681302091309275e-07,0.4653526674396073,-9.568394232167668e-06,0.4653526674396073,-1.695322181558118e-05,0.4653526674396073,-1.1077748466073591e-05
0.4661467846195384,-8.390638768315819e-07,0.4661467846195384,-9.063996592986649e-06,0.4661467846195384,-1.56103642479644e-05,0.4661467846195384,-1.1581463420576352e-05
0.4669409017994695,-3.1888493692224386e-06,0.4669409017994695,-9.56734772181722e-06,0.4669409017994695,-1.510646228436669e-05,0.4669409017994695,-9.56765911149433e-06
0.4677350189794005,-4.867646048828124e-06,0.4677350189794005,-8.224642097656247e-06,0.4677350189794005,-1.2253004011011854e-05,0.4677350189794005,-8.896094254913437e-06
0.4685291361593316,-5.539489958211349e-06,0.4685291361593316,-9.567869959924044e-06,0.4685291361593316,-1.2421231222597925e-05,0.4685291361593316,-1.2420771260961183e-05
0.4693232533392627,-8.222087714285708e-06,0.4693232533392627,-1.2250477704893749e-05,0.4693232533392627,-1.4936235292573132e-05,0.4693232533392627,-1.2253157597071345e-05
0.4701173705191938,-1.1746605557114744e-05,0.4701173705191938,-1.2923867716104176e-05,0.4701173705191938,-1.4267732283895825e-05,0.4701173705191938,-1.4601037006364617e-05
0.4709114876991248,-1.023977466209323e-05,0.4709114876991248,-1.1246982993726658e-05,0.4709114876991248,-1.4938166802509335e-05,0.4709114876991248,-1.57770419366521e-05
0.4717056048790559,-7.21902348993188e-06,0.4717056048790559,-9.903768222170912e-06,0.4717056048790559,-1.4267534111085455e-05,0.4717056048790559,-1.410013527771364e-05
0.472499722058987,-4.197287607560598e-06,0.472499722058987,-1.0574264975319753e-05,0.472499722058987,-1.3596035024680249e-05,0.472499722058987,-1.3260393763347729e-05
0.473293839238918,-2.8537118745254742e-06,0.473293839238918,-1.1581396092587369e-05,0.473293839238918,-1.3260167969137544e-05,0.473293839238918,-1.32601e-05
0.4740879564188491,-3.524793148679002e-06,0.4740879564188491,-1.3595689444390365e-05,0.4740879564188491,-1.3092209215711874e-05,0.4740879564188491,-1.2253055277804818e-05
0.4748820735987802,-5.539356729456357e-06,0.4748820735987802,-1.2924493351802924e-05,0.4748820735987802,-1.35958e-05,0.4748820735987802,-1.3931717820873487e-05
0.4756761907787112,-9.064705867210871e-06,0.4756761907787112,-1.3930654142388056e-05,0.4756761907787112,-1.3595638881978933e-05,0.4756761907787112,-1.628075552791573e-05
0.4764703079586423,-1.2585631654013897e-05,0.4764703079586423,-1.0409768311166412e-05,0.4764703079586423,-1.2924984448512575e-05,0.4764703079586423,-1.3598137794050304e-05
0.4772644251385734,-7.221408771029187e-06,0.4772644251385734,-9.568017651696105e-06,0.4772644251385734,-1.2588943049094331e-05,0.4772644251385734,-1.3260343049094331e-05
0.4780585423185045,4.990973829352964e-07,0.4780585423185045,-1.0238412993980746e-05,0.4780585423185045,-1.4601738964649486e-05,0.4780585423185045,-1.594415195286598e-05
0.4788526594984356,1.7952413960749977e-05,0.4788526594984356,-8.896585846468067e-06,0.4788526594984356,-1.4938456037310875e-05,0.4788526594984356,-1.4267919813445626e-05
0.4796467766783666,1.5610660936405813e-05,0.4796467766783666,-1.1245239066406802e-05,0.4796467766783666,-1.242150816021216e-05,0.4796467766783666,-1.1582355355892356e-05
0.4804408938582977,5.055674263617611e-07,0.4804408938582977,-1.2924175618580178e-05,0.4804408938582977,-1.3931298050038174e-05,0.4804408938582977,-1.107816730774196e-05
0.4812350110382288,-5.874752668291458e-06,0.4812350110382288,-1.1078088332008298e-05,0.4812350110382288,-1.426719066616272e-05,0.4812350110382288,-9.90311400075592e-06
0.4820291282181598,-8.224231008085924e-06,0.4820291282181598,-1.023944970318894e-05,0.4820291282181598,-1.35958e-05,0.4820291282181598,-1.091025414193241e-05
0.4828232453980909,-5.876950479849188e-06,0.4828232453980909,-1.4263376303986797e-05,0.4828232453980909,-1.35958e-05,0.4828232453980909,-1.1245581358665569e-05
0.483617362578022,-1.84957397726404e-06,0.483617362578022,-1.2925477997773337e-05,0.483617362578022,-1.4266661001113332e-05,0.483617362578022,-1.3258483003339995e-05
0.484411479757953,-2.8527801312777388e-06,0.484411479757953,-1.191795986872226e-05,0.484411479757953,-1.5776810229677444e-05,0.484411479757953,-1.426654013127774e-05
0.4852055969378841,-5.537666700770964e-06,0.4852055969378841,-1.292388876088548e-05,0.4852055969378841,-1.6281144355060995e-05,0.4852055969378841,-1.963567339138923e-05
0.4859997141178152,-9.733749134256444e-06,0.4859997141178152,-1.4937874780986583e-05,0.4859997141178152,-1.7791456103742593e-05,0.4859997141178152,-1.997397913016443e-05
0.4867938312977463,-9.567445663316482e-06,0.4867938312977463,-1.49386e-05,0.4867938312977463,-1.493920626575664e-05,0.4867938312977463,-1.5946555919595584e-05
0.4875879484776773,1.057319300001696e-05,0.4875879484776773,-1.225317426744308e-05,0.4875879484776773,-1.3931565350291154e-05,0.4875879484776773,-1.258891783430385e-05
0.4883820656576084,5.202413931651387e-06,0.4883820656576084,-1.3595938798861096e-05,0.4883820656576084,-1.1246066558633314e-05,0.4883820656576084,-1.5106552682881812e-05
0.4891761828375395,-5.875414849345545e-06,0.4891761828375395,-1.5274377205738378e-05,0.4891761828375395,-1.326056323443026e-05,0.4891761828375395,-1.695303161721513e-05
0.4899703000174705,-8.893349811048591e-06,0.4899703000174705,-1.560970442247153e-05,0.4899703000174705,-1.5272526534829187e-05,0.4899703000174705,-1.7959013267414594e-05
0.4907644171974016,-1.6946886249185404e-05,0.4907644171974016,-1.4268185626359112e-05,0.4907644171974016,-1.695156796705111e-05,0.4907644171974016,-1.846303042681575e-05
0.4915585343773327,-1.712050159762774e-05,0.4915585343773327,-1.3596193726774348e-05,0.4915585343773327,-1.6617296863387175e-05,0.4915585343773327,-1.762469212914661e-05
0.4923526515572637,-1.4604004879442044e-05,0.4923526515572637,-1.0240273201845704e-05,0.4923526515572637,-1.4268231241291994e-05,0.4923526515572637,-1.695309464036914e-05
0.4931467687371948,-1.426729777698199e-05,0.4931467687371948,-9.56760555105135e-06,0.4931467687371948,-1.225358666189194e-05,0.4931467687371948,-1.35967777698199e-05
0.4939408859171259,-1.2588941168896933e-05,0.4939408859171259,-8.728280584448466e-06,0.4939408859171259,-1.3595607064882454e-05,0.4939408859171259,-1.2588844701338158e-05
0.494735003097057,-7.21749577578749e-06,0.494735003097057,-9.567415237653866e-06,0.494735003097057,-1.560999476230713e-05,0.494735003097057,-1.0574509165962524e-05
0.495529120276988,-1.0072269701376597e-06,0.495529120276988,-1.0910098422679538e-05,0.495529120276988,-1.4266895268038613e-05,0.495529120276988,-1.2924806309281848e-05
0.4963232374569191,-1.8455350230752596e-06,0.4963232374569191,-1.0239443989213182e-05,0.4963232374569191,-1.2254931967639546e-05,0.4963232374569191,-1.5607424043147274e-05
0.4971173546368502,-2.852621429183661e-06,0.4971173546368502,-1.090965428612244e-05,0.4971173546368502,-1.3930135715306103e-05,0.4971173546368502,-1.493914571387756e-05
0.4979114718167812,-5.537243496762588e-06,0.4979114718167812,-1.2923060117582804e-05,0.4979114718167812,-1.6279836803846605e-05,0.4979114718167812,-1.158383313736199e-05
0.4987055889967123,-4.1969250821343815e-06,0.4987055889967123,-1.359545245893281e-05,0.4987055889967123,-1.5107008222749402e-05,0.4987055889967123,-1.3594757376798429e-05
0.4994997061766434,-4.19623e-06,0.4994997061766434,-1.594483040868306e-05,0.4994997061766434,-1.4938662095162763e-05,0.4994997061766434,-1.4266951545338016e-05
0.5002938233565745,-3.1893640501605044e-06,0.5002938233565745,-1.8295077211101126e-05,0.5002938233565745,-1.4435112037316258e-05,0.5002938233565745,-1.2253448104770466e-05
0.5010879405365055,-7.5528931694623295e-06,0.5010879405365055,-1.980608686957842e-05,0.5010879405365055,-1.4938562284866735e-05,0.5010879405365055,-1.560974859074193e-05
0.5018820577164366,-1.0238702391619908e-05,0.5018820577164366,-2.030958037950925e-05,0.5018820577164366,-1.5609975597723253e-05,0.5018820577164366,-1.6449212204772913e-05
0.5026761748963677,-8.896157704932439e-06,0.5026761748963677,-1.7287761475337808e-05,0.5026761748963677,-1.527437385246622e-05,0.5026761748963677,-1.661702614753378e-05
0.5034702920762988,-9.566812138398749e-06,0.5034702920762988,-1.3934489308006264e-05,0.5034702920762988,-1.5609701069199377e-05,0.5034702920762988,-1.6281698930800624e-05
0.5042644092562298,-8.896509528170354e-06,0.5042644092562298,-1.1583348348596238e-05,0.5042644092562298,-1.3932748820425883e-05,0.5042644092562298,-1.62814e-05
0.5050585264361609,-7.554020877566199e-06,0.5050585264361609,-1.258809933735214e-05,0.5050585264361609,-1.292500066264786e-05,0.5050585264361609,-1.62814e-05
0.505852643616092,-9.566505938408366e-06,0.505852643616092,-1.1917601355360032e-05,0.505852643616092,-1.4937695933919904e-05,0.505852643616092,-1.2590357454480178e-05
0.506646760796023,-1.023859773405782e-05,0.506646760796023,-9.56811793832924e-06,0.506646760796023,-1.49386e-05,0.506646760796023,-1.3092048313347104e-05
0.507440877975954,-7.217984318400043e-06,0.507440877975954,-7.553529546112305e-06,0.507440877975954,-1.1246467504023407e-05,0.507440877975954,-1.443479363490058e-05
0.5082349951558852,-7.553217951927795e-06,0.5082349951558852,-8.2246059039166e-06,0.5082349951558852,-1.2252993855783386e-05,0.5082349951558852,-1.3595805119875464e-05
0.5090291123358163,-7.552674494449912e-06,0.5090291123358163,-8.224467695248738e-06,0.5090291123358163,-1.2588652564611904e-05,0.5090291123358163,-1.5609549356747934e-05
0.5098232295157473,-3.69642149091452e-06,0.5098232295157473,-7.218496033944759e-06,0.5098232295157473,-1.2253325347878796e-05,0.5098232295157473,-1.2423890853306684e-05
0.5106173466956784,-6.376060292754213e-06,0.5106173466956784,-6.882096214434224e-06,0.5106173466956784,-1.4265542713394647e-05,0.5106173466956784,-1.2253138066077042e-05
0.5114114638756094,-1.0236193294340749e-05,0.5114114638756094,-7.720503321920946e-06,0.5114114638756094,-1.3931726671231622e-05,0.5114114638756094,-1.527225995891541e-05
0.5122055810555405,-6.380306961781482e-06,0.5122055810555405,-8.39210574921825e-06,0.5122055810555405,-1.3595977128029064e-05,0.5122055810555405,-1.0912502664377834e-05
0.5129996982354716,-6.210483792413207e-06,0.5129996982354716,-1.1244815532776049e-05,0.5129996982354716,-1.35958e-05,0.5129996982354716,-1.2420225887283945e-05
0.5137938154154027,-7.552907833504761e-06,0.5137938154154027,-1.0910278041623808e-05,0.5137938154154027,-1.4434804907564192e-05,0.5137938154154027,-1.5273636634573903e-05
0.5145879325953338,-4.196514983363601e-06,0.5145879325953338,-1.09102e-05,0.5145879325953338,-1.5609900251280992e-05,0.5145879325953338,-1.3763728247140263e-05
0.5153820497752648,-2.1819137318760952e-06,0.5153820497752648,-1.1917363134344056e-05,0.5153820497752648,-1.2588721044781352e-05,0.5153820497752648,-1.4938431641749189e-05
0.5161761669551959,-1.686949863383353e-07,0.5161761669551959,-1.292482299516423e-05,0.5161761669551959,-1.292482299516423e-05,0.5161761669551959,-1.2252718003223846e-05
0.5169702841351269,-4.1926026082350335e-06,0.5169702841351269,-1.4936786295563156e-05,0.5169702841351269,-1.4936786295563156e-05,0.5169702841351269,-1.0911409136291228e-05
0.5177644013150581,-3.525336243161245e-06,0.5177644013150581,-1.661583439209689e-05,0.5177644013150581,-1.711895474742652e-05,0.5177644013150581,-1.5606456297871286e-05
0.5185585184949891,1.1720899209006248e-06,0.5185585184949891,-1.8630078529731887e-05,0.5185585184949891,-1.628190891562357e-05,0.5185585184949891,-1.6280992843243962e-05
0.5193526356749202,2.5171238592983414e-06,0.5193526356749202,-1.963793789447376e-05,0.5193526356749202,-1.3597032281403317e-05,0.5193526356749202,-1.561030807035083e-05
0.5201467528548512,-8.38201084629146e-07,0.5201467528548512,-1.863161347591857e-05,0.5201467528548512,-1.4266991016054284e-05,0.5201467528548512,-1.3596426951837146e-05
0.5209408700347823,-2.853110308360582e-06,0.5209408700347823,-1.6281784641391776e-05,0.5209408700347823,-1.42672e-05,0.5209408700347823,-1.527402525614873e-05
0.5217349872147133,-6.210365944645548e-06,0.5217349872147133,-1.326014865010885e-05,0.5217349872147133,-1.4602894594432353e-05,0.5217349872147133,-1.32601324334059e-05
0.5225291043946444,-4.36408e-06,0.5225291043946444,-8.560486327150339e-06,0.5225291043946444,-1.5609911835768264e-05,0.5225291043946444,-1.426711183576826e-05
0.5233232215745756,-4.36408e-06,0.5233232215745756,-9.901785205187798e-06,0.5233232215745756,-1.4939257402301858e-05,0.5233232215745756,-1.3596457402301858e-05
0.5241173387545066,-2.1838572092145247e-06,0.5241173387545066,-1.158020214035188e-05,0.5241173387545066,-1.3764578543393828e-05,0.5241173387545066,-1.2924959143859248e-05
0.5249114559344377,-3.5239098919439444e-06,0.5249114559344377,-1.2252539942545866e-05,0.5249114559344377,-1.6615144721558877e-05,0.5249114559344377,-1.2588930028727068e-05
0.5257055731143687,-4.195869028951075e-06,0.5257055731143687,-1.1581960971048926e-05,0.5257055731143687,-1.5275021942097853e-05,0.5257055731143687,-1.393077805790215e-05
0.5264996902942998,-8.223038699938843e-06,0.5264996902942998,-1.2588307173034423e-05,0.5264996902942998,-1.225417848089673e-05,0.5264996902942998,-1.4938207173034424e-05
0.5272938074742308,-1.1580786011231738e-05,0.5272938074742308,-1.4938030206164886e-05,0.5272938074742308,-1.4602330206164886e-05,0.5272938074742308,-1.4267362798238604e-05
0.528087924654162,-1.3259940720416744e-05,0.528087924654162,-1.3260259279583257e-05,0.528087924654162,-1.560990443225005e-05,0.528087924654162,-1.4938536288166697e-05
0.528882041834093,-1.628134693814214e-05,0.528882041834093,-1.2924408841008588e-05,0.528882041834093,-1.3595835374571903e-05,0.528882041834093,-1.3763608846277363e-05
0.5296761590140241,-1.5274132125194476e-05,0.5296761590140241,-1.3092032145196238e-05,0.5296761590140241,-1.4267132854078142e-05,0.5296761590140241,-1.393173500072562e-05
0.5304702761939551,-1.4435764138884863e-05,0.5304702761939551,-1.2253764047840076e-05,0.5304702761939551,-1.3931805637344987e-05,0.5304702761939551,-1.5105330314814934e-05
0.5312643933738862,-1.2254667075793804e-05,0.5312643933738862,-1.091122591630427e-05,0.5312643933738862,-1.2589725916304272e-05,0.5312643933738862,-1.527417172226133e-05
0.5320585105538173,-4.20119644247021e-06,0.5320585105538173,-9.568237737329548e-06,0.5320585105538173,-1.3595179192379608e-05,0.5320585105538173,-1.3932327743493857e-05
0.5328526277337483,-1.697377031427508e-07,0.5328526277337483,-1.0238485219346676e-05,0.5328526277337483,-1.695122607329093e-05,0.5328526277337483,-1.4938127821987278e-05
0.5336467449136795,3.85923581312754e-06,0.5336467449136795,-1.0574392150531744e-05,0.5336467449136795,-1.661720784946826e-05,0.5336467449136795,-1.4603007849468257e-05
0.5344408620936105,3.69270915313285e-06,0.5344408620936105,-1.02388583062657e-05,0.5344408620936105,-1.2253757981454091e-05,0.5344408620936105,-1.39316166125314e-05
0.5352349792735416,3.8605256184684525e-06,0.5352349792735416,-1.0574491236936903e-05,0.5352349792735416,-1.4267147421621428e-05,0.5352349792735416,-1.3595808763063096e-05
0.5360290964534726,2.1316044694281557e-05,0.5360290964534726,-8.560432186531206e-06,0.5360290964534726,-1.5945475985293197e-05,0.5360290964534726,-1.1917503644218678e-05
0.5368232136334037,1.427417314288531e-05,0.5368232136334037,-9.56641383673067e-06,0.5368232136334037,-1.4101126348784124e-05,0.5368232136334037,-1.3594139727884449e-05
0.5376173308133347,-1.4973423675878062e-06,0.5376173308133347,-1.1747561009305008e-05,0.5376173308133347,-1.3260807281422573e-05,0.5376173308133347,-1.3931217070574885e-05
0.5384114479932659,3.856795841297233e-06,0.5384114479932659,-1.0910783430795034e-05,0.5384114479932659,-1.44341831829825e-05,0.5384114479932659,-1.4266966613777534e-05
0.539205565173197,-3.185279313012135e-06,0.539205565173197,-1.1581232313960276e-05,0.539205565173197,-1.4435e-05,0.539205565173197,-1.5273748470940416e-05
0.539999682353128,-1.3591636721665924e-05,0.539999682353128,-1.1917165700182695e-05,0.539999682353128,-1.42672671299057e-05,0.539999682353128,-1.5106467169911604e-05
0.5407937995330591,-1.6280721947082394e-05,0.5407937995330591,-1.3259760973541198e-05,0.5407937995330591,-1.2589123783073504e-05,0.5407937995330591,-1.7959179556151183e-05
0.5415879167129901,-1.4938740853648386e-05,0.5415879167129901,-1.2924435213412096e-05,0.5415879167129901,-1.359569435976371e-05,0.5415879167129901,-1.4267587347533064e-05
0.5423820338929212,-1.527425701062862e-05,0.5423820338929212,-1.124588567020954e-05,0.5423820338929212,-1.091025731916184e-05,0.5423820338929212,-1.258874298937138e-05
0.5431761510728523,-1.4267327585299448e-05,0.5431761510728523,-1.0910518963248616e-05,0.5431761510728523,-1.2253e-05,0.5431761510728523,-1.3596310341197788e-05
0.5439702682527834,-1.4937982018765756e-05,0.5439702682527834,-1.258715504691439e-05,0.5439702682527834,-1.2253e-05,0.5439702682527834,-1.6278928075063024e-05
0.5447643854327144,-1.2590518856000594e-05,0.5447643854327144,-1.3930460653713946e-05,0.5447643854327144,-1.2923880326856972e-05,0.5447643854327144,-1.829404098057092e-05
0.5455585026126455,-5.040211582007493e-06,0.5455585026126455,-1.493796911989327e-05,0.5455585026126455,-1.4937338239786544e-05,0.5455585026126455,-1.5779377231588444e-05
0.5463526197925765,1.1719661362888644e-06,0.5463526197925765,-1.7622913998669554e-05,0.5463526197925765,-1.560967849966739e-05,0.5463526197925765,-1.326130560230476e-05
0.5471467369725076,1.17494e-06,0.5471467369725076,-1.6281844827854994e-05,0.5471467369725076,-1.4938822413927497e-05,0.5471467369725076,-1.32601e-05
0.5479408541524387,5.036713260527928e-07,0.5479408541524387,-1.493884665504458e-05,0.5479408541524387,-1.7120199194736913e-05,0.5479408541524387,-1.4938291681194277e-05
0.5487349713323698,-1.5105672770822996e-06,0.5487349713323698,-1.6281351517766022e-05,0.5487349713323698,-1.6617118179032475e-05,0.5487349713323698,-1.49386e-05
0.5495290885123009,-4.196379502286219e-06,0.5495290885123009,-1.3931350497713782e-05,0.5495290885123009,-1.4266938370999116e-05,0.5495290885123009,-1.6281418682218966e-05
0.5503232056922319,-5.537688369218837e-06,0.5503232056922319,-1.2590041630781164e-05,0.5503232056922319,-1.1919647853867037e-05,0.5503232056922319,-1.6449032346108818e-05
0.551117322872163,-1.1786617214386332e-06,0.551117322872163,-1.0911631434602572e-05,0.551117322872163,-1.258812742615897e-05,0.551117322872163,-1.2927405970025112e-05
0.551911440052094,2.264279130886418e-05,0.551911440052094,-1.057473674371791e-05,0.551911440052094,-1.3595089768846268e-05,0.551911440052094,-1.1582546974871644e-05
0.5527055572320251,3.0376394388146858e-05,0.5527055572320251,-1.4265140794331107e-05,0.5527055572320251,-1.3260287200515354e-05,0.5527055572320251,-1.2923651197938583e-05
0.5534996744119562,3.5358425317083774e-06,0.5534996744119562,-1.6280574056123783e-05,0.5534996744119562,-1.4937911713436485e-05,0.5534996744119562,-1.4266649370749188e-05
0.5542937915918873,-4.194203385966868e-06,0.5542937915918873,-1.3596504912880793e-05,0.5542937915918873,-1.52742118858899e-05,0.5542937915918873,-1.695209508711921e-05
0.5550879087718184,-1.3930381447128184e-05,0.5550879087718184,-1.1581831425445252e-05,0.5550879087718184,-1.6281284287277373e-05,0.5550879087718184,-1.5274492854537712e-05
0.5558820259517494,-1.3595821944590125e-05,0.5558820259517494,-8.895922221966355e-06,0.5558820259517494,-1.7959790277049383e-05,0.5558820259517494,-1.091021097229506e-05
0.5566761431316805,-1.4267804393775427e-05,0.5566761431316805,-6.210540878755086e-06,0.5566761431316805,-1.4602537363734744e-05,0.5566761431316805,-1.1246020878755083e-05
0.5574702603116115,-1.7621076561106504e-05,0.5574702603116115,-6.8811953122213e-06,0.5574702603116115,-1.2590574063336096e-05,0.5574702603116115,-1.1916675312221302e-05
0.5582643774915427,-1.8462742054033502e-05,0.5582643774915427,-7.720412014832718e-06,0.5582643774915427,-1.225326319406691e-05,0.5582643774915427,-1.2923610417799264e-05
0.5590584946714737,-2.0308624888424608e-05,0.5590584946714737,-7.888803180932185e-06,0.5590584946714737,-1.0911054603457233e-05,0.5590584946714737,-1.4434038602932307e-05
0.5598526118514048,-1.9135374401258733e-05,0.5598526118514048,-8.224445892338248e-06,0.5598526118514048,-1.2587879461691243e-05,0.5598526118514048,-1.5106071784676496e-05
0.5606467290313358,-1.9973813571788613e-05,0.5606467290313358,-8.392402717770427e-06,0.5606467290313358,-1.4937798048785968e-05,0.5606467290313358,-1.292514465192094e-05
0.5614408462112669,-1.5778612775391224e-05,0.5614408462112669,-9.231547446858642e-06,0.5614408462112669,-1.1582250212565431e-05,0.5614408462112669,-9.568060210628549e-06
0.5622349633911979,-1.1246108951423476e-05,0.5622349633911979,-1.0910122610191137e-05,0.5622349633911979,-1.359570713167608e-05,0.5622349633911979,-1.2252876176029176e-05
0.563029080571129,-7.55322e-06,0.563029080571129,-1.3595765977700626e-05,0.563029080571129,-1.527412988850313e-05,0.563029080571129,-1.25887e-05
0.5638231977510602,-7.55322e-06,0.5638231977510602,-1.3260438760967424e-05,0.5638231977510602,-1.3597493804837124e-05,0.5638231977510602,-1.25887e-05
0.5646173149309912,-8.559441075380334e-06,0.5646173149309912,-1.2589279288831827e-05,0.5646173149309912,-1.0912517155327309e-05,0.5646173149309912,-1.359493106675226e-05
0.5654114321109223,-9.56668969635993e-06,0.5654114321109223,-1.3259619797573289e-05,0.5654114321109223,-1.4264798987866436e-05,0.5654114321109223,-1.35958e-05
0.5662055492908533,-9.902909447665684e-06,0.5662055492908533,-1.4937647209946238e-05,0.5662055492908533,-1.3931690558010752e-05,0.5662055492908533,-1.35958e-05
0.5669996664707844,-1.3929807822302215e-05,0.5669996664707844,-1.49386e-05,0.5669996664707844,-1.2253705074040742e-05,0.5669996664707844,-1.4938035940767405e-05
